997
998
1000
999
1000
1000
999
1001
1003
1000
998
999
1000
1000
1000
999
993
990
987
985
984
982
980
979
981
982
981
980
978
977
974
973
972
971
974
975
976
975
975
975
973
970
970
969
968
970
971
975
974
975
974
974
974
975
972
972
972
973
973
974
975
976
975
978
978
977
978
973
973
972
975
976
977
979
978
976
977
976
974
975
973
972
973
974
977
976
980
978
973
973
972
971
970
971
973
974
975
975
973
973
970
967
967
968
970
970
969
968
971
970
971
968
971
969
969
968
965
966
967
965
967
968
969
970
969
969
967
967
962
963
965
965
967
968
969
970
971
968
966
965
965
965
967
970
971
972
972
971
970
968
965
965
963
967
968
971
970
972
970
969
968
970
970
969
969
971
969
969
974
975
975
977
978
979
983
984
987
986
989
992
994
995
998
1001
997
996
995
991
988
989
990
987
988
988
985
982
981
978
977
974
972
970
968
967
968
968
968
967
968
969
968
968
969
975
978
983
988
988
993
994
996
1001
1004
1007
1012
1018
1023
1034
1042
1053
1059
1067
1072
1078
1083
1086
1091
1101
1113
1134
1161
1195
1230
1271
1306
1333
1349
1345
1323
1282
1223
1147
1056
965
885
835
819
830
854
894
926
950
969
978
978
975
969
966
962
961
961
960
962
964
966
968
971
970
970
968
968
965
966
965
966
970
968
972
972
972
972
972
970
969
969
968
969
970
971
970
972
970
973
972
970
970
970
972
973
972
972
974
976
980
980
982
981
982
980
982
980
982
987
986
988
992
994
994
993
992
992
993
993
994
995
998
998
1001
1003
1003
998
1000
998
997
1000
1001
1000
1000
999
1000
998
996
992
988
987
984
982
984
981
980
980
980
979
976
975
974
975
973
973
970
974
971
973
973
973
973
975
975
974
972
971
974
971
970
971
974
976
975
976
973
975
971
972
972
975
977
978
979
983
982
981
980
977
977
977
977
978
976
980
982
980
981
979
976
976
976
974
975
978
979
979
979
979
978
977
976
975
973
973
975
975
977
977
976
977
975
975
975
974
973
972
970
970
971
972
973
974
975
975
973
971
966
966
966
967
971
973
974
973
973
975
973
967
968
967
969
973
972
975
976
978
974
974
973
970
971
968
970
973
973
976
977
975
974
972
969
968
968
971
971
973
973
975
972
975
975
974
974
973
969
969
971
972
970
972
974
975
976
977
976
973
971
970
971
973
974
980
982
983
986
988
986
988
989
990
991
994
999
1003
1005
1004
1004
1000
999
997
995
995
996
993
994
991
988
984
981
980
979
975
976
973
972
969
968
969
967
968
970
970
971
972
975
977
977
981
983
988
991
997
1000
1002
1007
1009
1013
1016
1020
1026
1034
1043
1052
1063
1074
1084
1088
1092
1094
1097
1108
1123
1147
1182
1216
1256
1293
1324
1341
1344
1331
1300
1251
1188
1112
1025
939
870
833
829
847
880
918
952
973
984
988
984
979
971
968
966
967
968
970
972
972
973
972
972
976
975
975
975
972
971
969
969
968
971
970
972
970
972
971
974
971
972
972
970
970
971
973
974
978
979
979
978
973
974
973
973
973
974
977
979
982
984
984
984
983
984
984
984
986
987
992
993
994
997
994
996
995
995
995
994
995
998
1000
1001
1000
1002
1002
1002
1003
1003
1003
1005
1004
1005
1004
1003
1002
1000
1000
1000
998
995
992
990
989
987
986
987
987
988
985
987
982
980
980
978
974
976
977
978
978
981
980
979
979
976
976
975
974
976
978
979
981
980
980
980
979
978
976
976
974
977
980
979
981
981
977
977
975
978
978
977
975
977
980
979
981
981
979
981
979
978
979
977
977
976
976
978
979
979
979
979
979
977
976
975
973
973
974
971
976
979
978
975
975
971
968
971
970
971
972
974
975
976
976
974
973
971
968
969
970
971
971
972
972
971
972
969
972
971
972
972
970
972
973
973
975
973
974
973
972
974
972
971
971
968
969
968
970
971
973
972
972
970
969
966
967
968
970
970
972
973
970
972
973
971
969
969
970
970
972
973
976
974
975
974
974
972
972
972
973
976
979
981
982
984
984
986
989
991
993
995
996
998
1000
1000
1000
1000
998
998
997
996
992
988
983
983
980
981
982
981
982
978
975
970
968
966
967
967
972
974
979
982
982
985
983
983
985
987
989
995
1001
1008
1013
1018
1023
1024
1031
1034
1045
1052
1062
1072
1086
1093
1098
1102
1106
1112
1126
1145
1173
1208
1243
1283
1320
1340
1345
1329
1294
1238
1165
1071
978
892
836
816
829
861
901
939
967
984
990
987
979
972
965
966
967
971
976
977
977
978
975
974
974
972
974
977
978
979
981
979
981
979
978
975
977
975
977
979
977
979
977
976
976
976
977
978
978
978
976
977
977
978
981
982
982
985
985
982
981
981
981
984
985
987
988
990
992
993
992
990
989
987
988
992
993
997
998
997
1001
998
998
995
995
996
995
995
999
1001
1003
1004
1003
1000
998
995
993
992
988
990
990
990
990
987
986
983
979
979
977
976
972
975
973
974
973
974
975
975
974
974
974
972
972
973
974
974
975
978
977
976
976
975
974
973
972
974
976
975
977
980
979
977
977
975
974
972
972
976
977
979
984
984
984
980
980
977
980
979
980
980
981
981
982
982
981
978
980
979
976
977
974
975
974
978
978
979
979
981
980
976
974
973
971
973
973
973
978
978
980
978
977
974
972
970
970
969
971
972
977
974
975
974
971
970
970
969
969
970
970
972
973
971
973
970
970
969
970
967
969
969
970
970
969
970
973
968
970
970
969
968
966
965
966
967
967
968
968
969
972
971
968
967
966
968
968
969
970
972
974
978
979
980
980
981
982
985
986
989
992
994
997
1000
997
995
992
991
993
993
995
992
990
985
983
979
977
977
975
975
970
969
969
967
966
965
966
968
967
968
965
963
964
964
965
965
968
968
970
970
970
970
967
964
966
967
967
971
974
976
977
977
977
978
979
986
998
1018
1045
1082
1126
1173
1219
1261
1290
1300
1285
1248
1180
1097
1001
904
821
770
762
784
829
884
930
966
988
998
999
996
992
986
986
986
988
988
987
989
990
992
992
994
997
1001
1003
1001
1000
997
998
998
998
1001
1006
1007
1011
1013
1012
1011
1012
1012
1013
1014
1014
1017
1021
1021
1025
1026
1029
1030
1033
1033
1035
1037
1035
1039
1044
1047
1047
1051
1053
1056
1057
1061
1059
1057
1059
1061
1061
1066
1067
1067
1070
1070
1069
1067
1064
1061
1061
1062
1062
1063
1062
1063
1061
1058
1053
1049
1043
1043
1037
1034
1032
1028
1025
1021
1016
1011
1006
1003
1001
998
993
991
990
986
987
986
985
985
982
979
981
980
977
979
980
982
983
983
985
985
984
980
983
983
982
981
985
987
990
990
991
986
986
984
984
983
981
984
986
986
987
987
986
985
981
984
982
982
981
981
983
979
981
980
980
981
979
977
975
974
972
976
977
976
976
976
978
976
978
976
974
975
970
970
970
969
971
973
977
975
973
970
970
968
967
968
969
968
968
968
970
969
965
966
966
965
963
964
968
968
970
969
967
966
967
965
963
962
963
965
962
966
965
966
965
966
963
963
964
965
964
963
962
964
965
966
968
966
967
967
965
965
963
965
965
966
968
973
979
980
979
981
980
981
981
982
988
993
996
998
996
997
994
992
987
987
986
984
985
984
981
976
974
972
971
967
962
960
957
957
959
959
958
960
959
960
959
957
956
957
955
955
956
956
958
959
961
962
960
961
961
960
961
960
959
959
963
963
969
969
968
972
978
992
1010
1039
1073
1113
1161
1211
1255
1286
1297
1278
1230
1158
1067
968
872
801
767
770
800
843
884
919
949
967
982
984
982
984
981
979
978
980
981
982
982
983
983
986
987
986
989
991
994
995
994
996
994
995
994
996
995
1000
1003
1005
1007
1008
1010
1007
1003
1006
1007
1011
1015
1019
1020
1023
1026
1029
1026
1029
1028
1028
1030
1034
1039
1041
1044
1046
1052
1054
1054
1054
1056
1059
1062
1066
1066
1069
1071
1073
1071
1073
1071
1070
1069
1070
1069
1068
1067
1067
1068
1066
1066
1063
1061
1060
1055
1050
1045
1037
1035
1031
1028
1023
1023
1018
1011
1004
998
991
987
987
987
985
984
982
979
975
976
971
971
969
972
973
972
971
977
977
979
978
976
977
976
976
976
976
974
977
978
978
979
981
980
980
978
978
978
978
978
979
978
979
979
977
978
976
978
977
974
973
970
974
975
977
977
977
976
974
972
969
969
968
971
974
973
974
973
974
973
969
966
967
968
966
969
970
972
973
969
969
968
967
966
962
963
965
967
966
968
969
969
968
964
966
964
966
963
965
965
965
966
967
966
964
964
966
966
964
963
962
963
964
965
967
967
967
967
967
965
967
967
968
970
972
974
976
980
982
983
984
984
984
985
988
991
992
993
995
994
993
990
988
985
984
983
980
978
978
977
976
975
972
969
966
964
959
956
956
957
957
962
962
961
961
961
958
957
957
956
959
959
960
960
962
963
961
962
962
964
962
963
965
965
965
967
969
969
973
973
974
977
984
996
1011
1039
1074
1115
1164
1210
1254
1286
1300
1290
1251
1183
1095
993
896
813
764
757
778
821
867
911
945
968
981
989
990
988
988
984
982
982
984
984
984
986
985
989
991
992
993
993
994
995
995
995
996
998
999
1001
1002
1002
1005
1006
1007
1010
1011
1010
1012
1013
1012
1016
1016
1020
1025
1027
1029
1031
1031
1032
1033
1034
1037
1040
1044
1048
1050
1053
1055
1056
1059
1059
1061
1062
1067
1070
1072
1071
1075
1074
1074
1074
1074
1072
1073
1069
1071
1070
1069
1069
1067
1068
1064
1061
1059
1055
1047
1043
1037
1033
1029
1024
1021
1018
1014
1009
1003
999
994
990
989
988
988
987
988
985
984
981
980
978
976
976
975
978
978
980
983
981
979
981
979
980
979
979
981
985
983
985
986
988
988
989
986
986
984
985
985
985
987
989
990
991
992
990
989
987
986
985
984
986
986
985
988
986
985
984
982
979
979
979
980
981
984
983
983
984
983
980
978
977
977
978
978
978
978
977
978
979
979
979
978
977
977
975
975
975
977
977
978
978
981
980
978
977
974
972
971
972
975
977
977
979
979
979
976
978
976
976
976
978
981
982
983
990
992
992
993
994
995
997
998
1001
1003
1006
1005
1007
1005
1004
1002
1000
999
996
993
997
993
991
990
990
987
987
984
984
982
976
974
971
971
972
976
977
981
983
982
984
985
983
985
990
994
999
1004
1008
1011
1017
1020
1021
1025
1031
1038
1046
1058
1070
1080
1085
1093
1095
1098
1102
1106
1121
1139
1169
1206
1245
1285
1322
1350
1367
1367
1343
1301
1235
1156
1068
984
905
849
827
837
859
894
925
950
969
977
983
981
976
974
974
972
971
972
972
972
973
973
974
975
976
978
979
981
980
980
978
978
976
975
976
978
979
982
982
983
983
980
975
973
974
976
978
979
981
984
982
982
983
983
981
979
977
980
981
983
985
986
986
985
984
985
987
985
987
989
991
992
993
995
996
994
992
993
997
997
998
997
1000
1001
1002
1004
1004
1006
1008
1008
1007
1008
1005
1006
1004
1005
1004
1007
1005
1006
1002
1002
997
992
991
988
985
986
986
987
988
987
986
986
984
982
980
979
980
981
985
985
986
986
983
982
979
979
979
980
981
983
982
985
987
986
984
984
984
985
984
983
986
986
988
990
986
987
989
989
988
987
985
986
987
989
989
990
988
989
988
988
988
986
984
981
985
986
986
989
991
992
990
987
986
984
979
979
981
982
982
984
986
985
984
983
981
980
978
980
983
983
983
982
984
981
979
979
978
979
981
978
980
978
981
982
982
982
985
983
982
979
982
978
979
979
982
983
982
984
984
982
986
985
984
985
991
991
997
1001
1004
1004
1005
1006
1005
1005
1004
1004
1004
1005
1006
1003
1002
1002
998
996
995
991
989
985
988
988
987
988
985
984
980
974
973
972
972
973
975
978
982
985
988
991
992
995
996
998
1001
1005
1009
1012
1017
1022
1028
1036
1043
1048
1055
1065
1073
1082
1089
1095
1102
1108
1113
1125
1140
1166
1195
1232
1272
1309
1348
1370
1384
1376
1346
1290
1211
1118
1023
938
876
843
838
855
881
910
934
956
969
976
980
979
978
974
972
974
974
977
978
978
980
980
981
982
980
978
979
981
979
980
982
981
984
982
982
981
980
977
979
978
980
982
987
985
984
985
983
980
981
982
982
983
986
988
988
988
988
985
986
984
986
987
989
993
994
996
995
998
997
996
994
993
994
995
995
998
1002
1004
1004
1003
1005
1006
1007
1006
1011
1011
1012
1012
1015
1015
1015
1016
1016
1015
1014
1012
1009
1008
1007
1003
1002
1002
1003
1002
1002
999
996
995
990
988
990
989
991
992
991
993
992
991
990
989
987
986
988
987
991
992
990
993
992
991
989
988
986
985
988
990
992
994
995
997
996
994
992
993
992
990
994
996
998
1000
1000
999
997
994
993
995
994
996
998
998
999
999
998
998
997
998
998
996
996
997
995
995
997
997
996
997
997
994
995
991
992
990
990
990
993
993
994
997
997
996
995
993
991
992
989
989
991
995
995
995
995
991
987
987
988
986
986
989
992
992
994
994
987
987
986
985
984
982
983
987
988
991
991
990
990
987
987
987
985
987
990
990
988
989
994
994
994
992
993
993
994
997
997
1000
1000
1004
1006
1006
1008
1010
1012
1014
1015
1014
1015
1015
1017
1016
1019
1016
1015
1016
1011
1005
1002
999
997
996
996
1000
998
994
991
985
983
983
981
983
986
990
991
994
997
999
1001
1001
1003
1006
1011
1014
1018
1023
1028
1034
1039
1046
1054
1060
1071
1080
1088
1094
1100
1103
1110
1116
1126
1141
1164
1193
1228
1268
1307
1341
1368
1381
1370
1344
1290
1217
1124
1026
932
862
828
827
848
886
926
958
980
992
995
991
983
979
977
974
976
979
984
983
984
986
985
982
985
982
983
982
983
984
984
987
984
986
986
986
986
985
985
981
982
985
984
988
988
988
989
986
985
983
985
982
985
986
989
992
993
990
993
992
992
993
993
995
996
999
1002
1003
1004
1007
1008
1007
1005
1007
1008
1007
1009
1010
1012
1016
1014
1015
1018
1019
1016
1015
1016
1016
1016
1016
1016
1015
1015
1016
1013
1010
1010
1006
1003
1000
997
999
1002
1001
1001
1000
1000
997
996
993
992
990
991
993
992
997
995
995
994
992
991
989
989
989
988
990
989
989
993
995
994
993
991
992
993
992
995
994
994
996
995
997
999
999
996
995
996
995
996
995
997
997
997
1000
999
998
998
996
996
994
997
996
997
998
1000
999
999
997
995
993
992
991
993
994
994
994
996
994
992
991
988
987
985
985
986
987
989
990
991
990
988
985
987
984
983
984
984
987
987
988
988
988
986
987
986
985
984
984
985
982
984
987
986
987
987
986
984
984
983
981
984
984
984
986
988
991
988
988
986
984
983
982
984
984
984
985
987
988
987
988
986
986
985
986
988
989
991
994
995
997
999
998
998
997
999
1001
1007
1009
1011
1014
1015
1014
1014
1013
1013
1010
1010
1008
1008
1008
1006
1004
1001
999
998
995
992
992
992
989
988
986
985
983
985
987
987
990
992
993
994
994
996
999
1005
1011
1016
1021
1023
1025
1028
1030
1035
1038
1045
1055
1065
1075
1085
1097
1105
1108
1113
1117
1123
1128
1142
1159
1182
1210
1239
1269
1300
1323
1334
1332
1313
1282
1236
1175
1107
1035
971
924
897
893
904
924
945
967
983
991
998
994
994
992
990
989
988
990
989
989
990
991
991
993
994
995
994
990
991
991
990
989
992
993
994
996
996
996
997
995
992
993
992
991
992
992
994
994
996
997
995
996
994
994
996
996
997
1000
1000
1002
1002
1003
1004
1009
1007
1006
1006
1006
1007
1007
1014
1012
1015
1016
1017
1018
1018
1016
1016
1015
1014
1018
1022
1024
1025
1027
1027
1025
1023
1022
1018
1016
1016
1018
1015
1015
1014
1011
1010
1008
1004
1002
1000
999
998
997
1001
999
999
999
998
998
996
994
993
993
993
995
994
996
995
997
997
994
997
995
995
992
994
997
997
999
1001
1001
1001
1000
999
997
997
996
996
997
995
996
1000
1002
1003
1001
999
996
995
995
997
998
1000
1001
1001
1002
1002
1001
997
995
995
995
997
995
997
1001
1001
1001
1001
999
998
995
994
992
997
997
997
998
997
996
996
994
997
996
995
992
994
993
995
995
996
997
996
995
995
989
988
987
987
988
989
994
994
995
996
995
993
989
990
989
990
991
992
994
995
994
995
994
992
992
990
990
993
992
994
994
994
994
992
993
992
993
993
993
992
992
992
993
994
995
994
995
995
994
993
992
990
989
990
994
995
997
993
995
995
995
994
995
999
1000
1005
1008
1012
1012
1015
1016
1017
1018
1017
1019
1019
1021
1022
1023
1023
1022
1022
1020
1015
1011
1007
1003
1004
1003
1004
1003
1001
1001
996
995
991
987
987
985
988
990
992
995
997
1000
1002
1004
1005
1009
1010
1013
1015
1020
1023
1027
1035
1038
1044
1052
1060
1067
1074
1083
1092
1102
1109
1115
1120
1122
1128
1143
1159
1184
1216
1251
1291
1326
1353
1373
1368
1341
1292
1221
1136
1039
948
877
841
838
858
893
930
960
983
997
1001
999
996
992
987
987
984
988
991
992
993
991
993
991
992
991
993
992
994
993
997
998
998
997
999
996
996
992
993
993
995
995
997
996
996
996
995
994
992
991
991
992
994
996
998
1000
999
997
996
996
993
993
994
1000
1002
1005
1007
1008
1008
1006
1007
1007
1009
1008
1010
1011
1014
1014
1017
1013
1014
1015
1015
1014
1016
1017
1015
