972
969
973
969
971
970
971
970
973
975
977
977
978
978
976
973
974
973
974
975
974
976
978
979
976
975
974
971
969
970
969
970
971
970
972
971
971
969
968
968
963
962
962
965
963
969
970
969
973
967
968
967
962
964
962
963
964
966
969
968
966
965
962
962
960
961
960
960
961
962
961
961
959
961
963
962
962
963
961
961
961
962
964
962
964
962
960
960
957
957
956
957
960
959
961
960
960
959
959
959
958
959
957
957
960
961
963
963
965
965
961
962
960
958
956
954
957
958
963
963
964
964
960
957
957
949
945
945
947
947
948
948
946
944
949
949
951
951
954
954
954
952
951
955
956
954
952
946
941
937
932
930
925
928
922
922
920
917
916
914
908
905
901
899
895
891
885
882
880
882
882
886
888
888
887
890
891
892
891
891
890
887
886
885
884
889
892
896
903
907
915
923
934
941
950
956
960
963
973
987
1015
1048
1089
1137
1185
1232
1270
1297
1307
1292
1250
1186
1097
994
883
783
713
684
691
720
753
791
814
830
839
838
838
834
830
831
829
830
833
835
833
837
839
842
843
844
843
842
838
835
834
834
832
836
835
841
840
841
840
839
837
836
837
835
834
831
832
830
832
835
836
839
841
841
843
843
844
843
845
846
848
852
852
850
853
853
852
852
854
855
858
861
862
864
865
868
864
865
862
861
862
863
864
867
870
871
874
876
879
883
881
882
882
880
882
880
880
880
877
878
876
873
868
868
862
862
862
863
864
864
863
863
863
866
863
860
860
861
861
863
863
861
863
863
862
860
860
861
863
872
873
874
877
879
878
878
877
875
876
875
876
876
878
876
878
877
878
879
878
876
877
875
875
875
875
876
877
874
873
873
874
871
871
869
868
869
870
872
873
872
870
873
868
867
867
866
868
871
870
871
872
871
871
870
869
870
866
867
867
866
868
868
871
872
872
872
872
871
870
870
871
871
871
872
873
871
873
873
874
874
872
872
873
876
878
878
881
883
884
880
882
883
884
887
887
889
891
896
898
904
903
904
904
905
903
904
901
905
907
905
906
906
905
902
902
900
899
896
893
895
896
895
895
892
890
891
886
883
878
875
872
875
880
881
886
889
892
896
894
895
896
899
899
903
905
912
915
921
923
928
932
935
940
948
954
962
972
980
990
996
1008
1023
1041
1070
1103
1146
1192
1236
1281
1317
1340
1346
1328
1284
1213
1124
1016
907
812
745
715
723
756
800
839
867
884
891
888
886
883
880
880
880
884
886
886
887
890
890
889
889
889
889
889
891
892
894
895
896
896
897
895
895
894
893
895
899
899
900
904
904
903
901
900
899
899
899
898
901
904
903
903
903
907
905
905
905
909
909
912
913
915
920
921
922
923
923
924
923
922
924
927
928
932
933
935
935
935
935
937
936
938
939
939
940
938
941
936
936
936
935
933
929
923
924
921
923
922
922
925
924
921
920
914
914
913
913
914
916
918
918
918
915
913
913
912
912
912
913
916
916
917
916
917
918
920
919
917
917
918
917
919
921
922
923
923
923
925
923
922
926
923
922
923
927
930
930
932
933
928
928
925
927
925
926
928
932
934
936
935
934
933
930
926
926
928
930
932
934
937
938
943
942
939
936
931
928
928
932
931
934
932
935
934
933
937
941
944
951
953
954
955
952
948
940
937
934
934
933
932
929
925
921
917
917
919
919
919
921
925
924
925
924
924
925
924
925
927
929
930
930
932
933
933
936
937
938
939
941
940
938
943
948
950
952
951
950
947
942
936
930
930
926
924
921
919
919
919
919
916
917
916
919
916
916
914
912
907
907
902
902
904
906
911
915
916
920
923
925
927
930
932
934
937
940
947
952
955
963
971
977
984
990
998
1007
1016
1024
1033
1043
1055
1073
1099
1132
1171
1215
1260
1302
1341
1376
1392
1388
1361
1311
1240
1152
1055
954
866
812
793
809
847
893
934
965
986
988
983
974
967
965
963
970
980
986
992
993
988
988
991
996
998
1002
1000
994
994
994
995
996
997
999
1001
1004
1005
1005
1005
1007
1010
1015
1016
1021
1024
1020
1021
1023
1026
1028
1029
1031
1038
1044
1048
1046
1043
1039
1033
1032
1029
1030
1033
1035
1039
1043
1046
1050
1054
1061
1065
1067
1062
1061
1059
1056
1055
1056
1053
1057
1060
1065
1068
1070
1071
1069
1071
1069
1069
1070
1071
1069
1067
1069
1063
1060
1054
1054
1052
1049
1049
1047
1049
1050
1049
1049
1051
1051
1054
1049
1045
1036
1027
1021
1025
1026
1029
1035
1035
1035
1032
1030
1026
1023
1024
1025
1027
1029
1030
1031
1033
1032
1032
1030
1029
1030
1031
1033
1034
1034
1034
1036
1036
1035
1031
1032
1026
1027
1028
1028
1030
1032
1033
1033
1031
1027
1024
1020
1017
1019
1021
1023
1024
1023
1023
1024
1024
1022
1023
1021
1020
1020
1023
1025
1028
1032
1032
1033
1029
1027
1024
1021
1020
1015
1016
1017
1018
1019
1018
1020
1021
1019
1019
1018
1018
1016
1016
1014
1014
1012
1014
1016
1016
1016
1016
1014
1012
1007
1009
1007
1009
1015
1019
1018
1017
1012
1009
1007
1010
1011
1016
1017
1017
1015
1015
1014
1013
1015
1016
1017
1017
1018
1017
1023
1026
1033
1031
1032
1031
1026
1023
1026
1027
1031
1034
1038
1041
1042
1044
1044
1040
1037
1035
1031
1033
1032
1032
1031
1030
1028
1027
1025
1023
1019
1018
1017
1014
1010
1011
1011
1009
1012
1012
1016
1016
1019
1022
1022
1020
1022
1022
1027
1031
1037
1042
1044
1045
1045
1046
1047
1051
1053
1062
1067
1079
1091
1100
1112
1120
1125
1135
1148
1166
1189
1222
1260
1304
1348
1389
1422
1437
1436
1408
1354
1276
1178
1076
974
897
852
843
863
901
944
977
998
1008
1016
1012
1006
1000
998
996
997
998
998
1000
999
997
997
999
1001
1002
1005
1006
1007
1008
1003
1002
1003
1000
999
1003
1002
1004
1005
1008
1008
1008
1009
1008
1009
1006
1008
1013
1017
1014
1009
1001
996
994
993
995
996
997
998
998
1001
1004
1007
1011
1015
1016
1019
1019
1020
1021
1025
1030
1034
1034
1033
1028
1027
1023
1023
1019
1022
1025
1029
1032
1036
1037
1037
1038
1039
1037
1035
1033
1030
1027
1026
1028
1027
1027
1024
1023
1024
1021
1017
1015
1014
1013
1010
1009
1011
1009
1009
1009
1009
1011
1010
1011
1009
1008
1006
1008
1008
1005
1001
997
1000
1000
1002
1002
1006
1004
1002
999
999
1001
1006
1012
1016
1017
1014
1004
992
985
986
989
998
1003
1008
1009
1009
1009
1006
999
1002
999
1001
1002
1003
1004
1007
1006
1003
1002
1000
999
1001
1005
1004
1006
1004
1001
1002
1001
1001
1003
1004
1005
1001
1000
995
994
993
993
994
993
993
994
995
996
995
995
994
992
992
993
998
1001
1003
1001
1000
997
991
984
982
983
984
989
994
996
997
995
992
991
987
984
980
980
983
986
988
991
993
992
990
984
986
984
983
985
986
985
984
984
984
988
990
991
990
988
985
984
984
982
984
987
986
987
985
983
982
982
984
984
986
986
990
992
993
992
991
989
990
991
993
995
999
1003
1006
1006
1005
1003
1000
999
1000
1001
1005
1007
1007
1010
1009
1009
1007
1007
1004
1001
999
996
995
994
995
994
994
992
995
992
988
986
981
980
979
980
980
982
983
987
991
993
993
997
998
1003
1008
1014
1017
1022
1025
1025
1025
1025
1023
1026
1037
1046
1059
1070
1080
1090
1096
1103
1112
1120
1134
1152
1176
1208
1247
1290
1335
1372
1395
1401
1382
1337
1269
1183
1080
974
886
836
823
842
879
919
956
979
988
988
983
978
971
967
968
972
978
979
980
983
981
983
983
986
984
977
971
963
962
966
970
975
979
981
978
975
969
965
965
966
968
973
974
975
974
976
974
972
972
974
976
976
981
982
985
986
990
992
990
994
991
991
993
993
993
993
995
997
1000
1000
1000
1002
1003
1003
1005
1005
1003
1001
1001
1000
999
1002
1000
1003
1004
1005
1005
1005
1005
1001
1000
999
996
993
991
991
994
997
996
994
992
990
988
987
984
982
977
975
975
978
982
982
985
985
985
985
983
983
981
982
980
980
983
985
987
989
987
988
984
984
983
982
982
984
987
988
990
992
992
989
992
988
988
987
984
985
988
990
990
992
994
993
992
995
992
994
990
988
988
989
989
991
993
993
992
990
985
985
983
986
987
989
992
996
997
993
989
988
987
990
991
990
992
990
985
987
989
986
989
989
989
987
984
985
986
988
993
996
1001
1001
1002
995
992
987
984
979
977
979
982
984
988
990
993
988
986
990
989
990
989
988
990
990
992
993
990
986
983
981
983
985
986
992
994
997
996
995
995
994
991
992
989
987
988
987
987
986
987
987
987
988
990
989
988
988
991
990
994
994
994
997
994
998
998
998
1002
1002
1005
1005
1009
1005
1005
1001
1001
997
995
994
991
990
988
986
984
982
981
981
980
980
977
974
968
966
965
964
969
971
973
974
974
975
972
974
975
979
983
987
991
994
1000
1004
1010
1015
1020
1027
1034
1042
1049
1057
1067
1076
1083
1092
1100
1114
1131
1158
1186
1222
1263
1308
1352
1389
1417
1427
1413
1375
1313
1227
1130
1028
933
861
823
817
835
863
894
917
933
947
954
960
963
965
966
965
966
966
962
959
959
958
956
956
957
955
956
959
960
961
959
957
959
958
957
957
956
958
963
966
967
965
964
961
957
955
954
954
957
958
957
956
959
956
957
955
957
957
959
962
961
962
965
966
967
965
966
967
967
969
969
968
971
974
978
979
979
980
983
984
985
985
987
986
987
989
995
997
998
999
1000
999
995
994
991
989
988
990
990
988
988
987
985
983
981
980
976
976
976
979
977
978
979
977
976
978
975
977
976
977
977
977
978
978
977
976
975
974
972
973
973
973
977
979
983
984
988
989
990
990
991
991
993
998
998
1003
1008
1011
1014
1020
1021
1020
1018
1013
1005
998
995
998
1003
1009
1009
1007
999
992
983
978
971
975
979
983
988
990
988
987
986
981
978
977
977
977
977
979
978
981
979
979
976
976
973
972
969
972
971
972
975
978
980
980
980
976
975
974
972
972
973
972
970
968
965
964
965
964
964
966
965
963
962
960
956
955
955
954
956
958
956
960
960
962
967
972
973
974
975
975
976
975
973
970
974
975
981
985
989
994
995
991
985
976
968
964
961
960
963
963
965
964
968
966
966
964
964
961
958
957
956
955
961
967
976
980
986
986
979
972
967
965
966
968
971
972
971
972
971
970
967
963
966
971
979
988
998
1007
1018
1029
1040
1048
1057
1064
1072
1084
1100
1126
1154
1193
1238
1284
1330
1368
1391
1400
1384
1343
1284
1198
1100
991
886
807
764
761
788
830
871
907
932
945
948
944
938
931
927
924
921
925
924
925
929
931
932
931
933
933
933
933
930
928
929
929
930
935
936
937
936
934
935
932
930
930
926
927
929
932
934
935
935
936
932
932
935
935
938
940
941
941
944
946
944
943
948
950
955
957
964
972
986
996
1002
1004
1004
1001
997
994
997
991
985
974
960
946
932
932
934
945
958
970
978
981
980
977
979
983
990
996
997
993
981
967
957
951
953
958
958
962
963
961
959
955
953
950
950
949
947
947
950
953
959
964
970
968
964
955
948
944
942
943
949
952
947
953
958
967
972
969
958
945
934
924
923
927
936
943
947
947
943
936
934
931
931
936
941
944
947
948
949
952
952
952
954
960
964
970
974
979
981
984
985
981
975
971
966
960
954
949
951
950
951
947
940
932
928
922
924
927
933
935
942
944
946
950
948
948
947
945
946
945
945
947
949
946
947
945
943
945
947
948
948
948
947
943
944
943
944
947
949
951
952
952
951
953
954
956
961
963
967
967
971
972
972
971
969
969
974
976
978
978
979
977
976
975
974
969
968
966
965
965
966
961
964
962
961
960
959
955
950
948
944
943
944
944
948
951
950
954
954
954
956
955
959
962
965
972
976
980
984
987
991
993
999
1003
1009
1015
1023
1034
1043
1055
1064
1073
1087
1104
1130
1166
1207
1254
1304
1349
1383
1406
1401
1370
1311
1231
1138
1031
929
844
798
796
828
874
918
954
975
982
978
971
964
957
957
959
963
969
973
975
976
974
970
968
966
967
970
972
968
965
962
960
961
963
965
966
967
967
967
970
970
974
977
977
974
973
971
970
968
970
971
973
977
979
978
979
978
975
975
974
974
975
979
981
983
986
988
988
987
986
987
992
1000
1003
1010
1005
1000
993
988
985
984
985
992
996
992
984
969
957
953
955
960
963
964
959
953
947
943
943
945
943
941
936
932
928
925
923
922
920
918
913
912
912
909
908
908
906
903
900
896
894
892
891
890
888
891
887
884
879
872
868
864
863
865
871
882
893
903
913
919
927
931
931
922
909
900
889
882
877
878
876
874
874
872
866
866
864
864
865
869
870
870
873
874
876
873
872
871
870
866
864
862
863
865
867
867
868
868
868
866
863
864
863
863
863
864
868
868
868
866
863
862
859
859
858
859
859
859
860
861
865
862
863
863
858
861
859
860
862
862
863
864
865
868
866
867
865
864
863
862
864
865
867
868
873
875
879
880
882
882
882
880
877
873
872
871
873
879
885
889
889
892
889
885
884
882
880
881
879
881
879
878
876
874
873
873
870
870
867
862
862
859
856
857
856
858
860
861
859
861
862
864
866
869
873
874
876
877
877
883
888
894
902
906
917
925
931
937
944
952
963
980
1008
1039
1079
1121
1166
1213
1250
1274
1277
1254
1206
1133
1032
915
805
714
670
667
693
738
775
808
827
835
836
833
830
828
827
831
832
833
837
837
838
840
844
848
852
856
859
860
858
858
856
853
855
861
865
871
873
881
886
888
893
893
897
897
897
901
904
906
908
909
906
906
905
906
906
913
916
925
930
933
937
937
932
929
930
925
922
922
922
923
924
924
928
928
928
927
926
923
922
920
918
923
924
926
930
928
930
927
922
916
910
906
903
899
902
903
905
906
904
899
894
886
880
879
878
880
880
881
881
879
877
876
875
873
870
868
869
868
868
868
868
869
868
868
866
866
867
865
866
869
870
870
874
878
882
882
883
886
888
889
892
897
898
896
892
886
883
880
880
879
881
885
885
885
883
884
882
880
882
888
894
896
899
899
897
889
885
884
885
885
886
886
885
887
888
889
887
884
882
884
886
889
890
893
895
895
894
892
888
885
883
882
883
884
881
880
878
877
876
876
877
874
874
871
872
874
873
874
873
875
872
874
870
872
871
871
875
876
876
876
875
873
872
871
869
869
871
872
872
873
873
874
875
877
876
880
884
886
888
890
894
893
892
893
894
898
899
901
901
900
898
896
896
894
892
892
889
886
887
885
883
884
882
882
883
884
881
879
875
871
869
868
867
870
872
873
876
880
883
886
888
889
890
892
893
897
899
907
911
919
923
930
936
940
947
954
963
972
980
992
1007
1029
1057
1089
1128
1174
1221
1263
1295
1312
1314
1290
1243
1170
1081
980
877
790
736
725
748
790
836
875
902
913
914
909
902
893
892
892
892
895
900
902
903
904
905
902
902
903
899
900
903
904
907
908
908
911
908
909
907
909
907
906
905
902
902
904
905
908
909
910
911
912
911
911
910
912
914
913
914
910
911
912
912
912
916
916
915
916
917
921
923
925
926
927
926
925
924
924
925
926
929
931
931
934
934
937
938
937
933
927
923
920
919
920
922
924
923
922
917
916
913
911
909
911
912
911
915
913
915
912
912
908
908
905
907
904
906
907
906
910
908
905
906
903
903
905
910
913
916
918
921
921
921
920
914
906
900
899
897
901
905
909
913
916
916
911
910
909
908
908
911
913
914
916
917
918
920
919
921
920
917
913
914
914
915
916
919
921
918
920
920
916
913
915
914
915
914
917
918
920
919
920
915
914
913
912
912
909
911
912
912
913
913
911
910
909
908
908
908
909
909
910
909
909
910
910
911
910
909
906
904
906
907
907
908
912
915
915
913
913
911
911
911
911
909
912
914
917
916
914
913
912
914
912
911
912
914
915
918
919
919
918
919
919
919
920
920
922
924
926
926
930
934
935
940
939
941
945
949
953
956
961
965
969
972
975
976
975
980
980
982
981
980
981
979
975
972
967
962
955
948
943
938
935
936
940
947
955
958
963
965
966
966
970
971
978
986
993
1002
1005
1011
1015
1018
1020
1022
1024
1027
1029
1032
1036
1036
1037
1038
1039
1039
1041
1047
1057
1066
1081
1093
1103
1109
1119
1131
1149
1178
1212
1250
1293
1336
1378
1410
1430
1423
1392
1326
1231
1122
1005
897
827
806
818
858
903
944
973
988
991
987
983
976
968
966
967
968
970
970
971
970
971
970
973
975
974
979
980
981
983
985
987
988
985
984
980
975
976
976
975
976
979
983
986
986
987
989
985
986
986
985
985
986
985
984
987
987
990
992
992
992
991
991
993
995
996
998
1001
998
1000
1000
1001
1000
1000
999
1000
1000
1001
1002
1005
1007
1007
1007
1005
1004
1002
998
997
996
994
995
992
992
990
987
986
984
984
982
979
979
977
976
976
976
976
973
972
969
969
966
967
970
967
970
969
970
967
968
968
965
964
964
963
965
965
968
969
969
968
966
967
965
966
962
965
965
967
968
967
968
968
967
963
962
961
961
960
961
962
963
961
960
962
960
956
956
955
953
950
954
953
954
954
953
953
949
950
949
946
945
943
941
943
946
947
948
946
943
941
937
934
931
930
931
936
