1017
1019
1020
1021
1022
1023
1021
1020
1018
1017
1014
1011
1010
1010
1011
1009
1007
1007
1004
1002
999
996
996
993
993
996
995
998
997
998
996
994
990
989
988
988
989
991
994
996
996
995
993
993
992
990
990
992
993
994
995
995
997
996
996
996
994
995
994
994
996
997
997
997
996
996
992
993
994
996
995
995
995
995
993
998
996
996
996
994
993
991
991
989
989
991
992
993
993
995
994
992
990
988
985
987
989
989
992
990
991
993
991
988
985
985
984
984
984
988
989
986
987
991
988
986
983
983
984
982
983
986
986
987
987
987
987
985
985
984
983
982
983
984
986
988
987
987
985
986
985
986
984
983
982
984
984
987
987
989
989
988
987
983
981
981
978
980
986
988
988
989
988
986
984
983
980
982
985
986
986
989
989
989
987
984
984
985
984
984
986
988
991
993
990
991
990
989
991
990
991
991
996
999
1001
1002
1005
1008
1009
1011
1011
1012
1013
1013
1014
1015
1009
1011
1013
1011
1010
1006
1004
1000
995
994
992
992
991
993
990
988
985
982
981
981
979
978
980
986
986
991
995
997
997
1000
1000
1002
1006
1007
1016
1021
1027
1031
1037
1045
1052
1059
1069
1078
1088
1095
1104
1110
1113
1118
1125
1135
1153
1177
1210
1243
1278
1313
1340
1350
1347
1323
1277
1217
1138
1052
967
896
852
839
851
880
913
944
970
986
995
994
992
984
978
978
976
977
981
984
985
987
988
988
986
983
984
982
985
985
988
991
990
989
990
989
987
986
985
985
988
991
992
992
993
992
990
990
987
989
988
988
993
993
994
995
995
995
997
994
995
995
993
993
995
999
1000
1002
1003
1005
1007
1006
1008
1006
1008
1008
1009
1008
1010
1011
1012
1013
1015
1014
1011
1012
1009
1008
1012
1016
1019
1020
1022
1023
1022
1020
1016
1014
1012
1009
1007
1008
1008
1007
1008
1006
1002
999
995
995
994
991
991
993
993
995
994
995
993
992
987
987
988
990
990
992
991
993
994
994
993
992
991
991
992
992
993
992
994
994
995
997
997
998
996
995
993
995
996
996
995
999
998
999
999
1000
1000
995
995
994
995
995
995
998
996
997
995
995
994
992
991
990
990
992
995
995
995
996
994
989
990
987
988
986
989
989
989
989
989
990
988
987
987
986
986
984
985
987
983
984
984
989
988
986
986
985
984
983
984
984
984
983
986
986
986
986
984
982
981
980
981
981
984
985
983
987
985
982
980
978
979
979
981
984
983
984
982
985
985
982
981
981
980
981
983
986
981
982
981
983
980
980
981
978
980
981
981
981
980
982
982
982
984
983
983
981
983
982
981
980
982
984
983
986
987
988
989
985
985
985
990
995
996
1000
1003
1005
1006
1006
1006
1003
1006
1007
1006
1007
1008
1007
1010
1007
1004
1000
996
990
990
987
987
985
983
984
981
979
976
973
972
970
972
974
975
974
976
978
982
987
987
993
995
994
999
997
1002
1008
1012
1017
1025
1032
1038
1044
1053
1061
1073
1079
1086
1095
1099
1104
1110
1121
1133
1153
1177
1210
1248
1287
1328
1359
1376
1380
1358
1314
1246
1155
1055
959
882
832
819
835
862
897
927
952
969
980
982
977
974
970
968
968
969
971
972
974
975
975
973
974
975
973
974
975
976
975
976
978
978
978
977
977
971
970
972
972
975
977
978
981
978
979
977
974
975
972
974
974
977
979
979
980
982
980
979
977
977
977
978
982
985
985
986
986
987
988
987
984
987
986
987
992
990
990
990
989
990
991
993
991
993
992
996
997
1000
1002
1004
1004
1005
1005
1003
1002
1000
995
995
994
993
991
992
991
990
989
985
985
980
977
975
979
978
979
977
979
975
975
971
970
968
968
968
972
970
975
974
977
975
975
973
972
971
970
973
975
977
979
981
978
980
979
977
978
977
979
978
980
981
982
982
982
981
982
980
980
981
979
979
978
980
979
979
978
978
980
978
979
975
976
974
971
975
977
976
980
979
979
975
973
970
967
966
969
972
975
976
975
975
970
969
967
966
967
968
971
973
972
973
973
972
972
972
969
970
970
969
970
971
971
972
971
972
971
972
970
970
970
970
968
970
970
971
971
975
973
971
971
970
969
966
969
971
970
973
974
974
973
972
969
969
966
969
969
972
979
980
982
981
983
985
987
986
988
992
996
1000
1002
1004
1002
999
997
995
993
990
990
991
988
986
985
982
981
978
977
975
973
969
966
963
963
964
966
965
968
968
968
965
965
965
962
963
963
965
966
967
969
969
969
966
963
962
964
966
967
969
968
968
973
978
979
985
998
1017
1045
1082
1126
1174
1225
1270
1304
1315
1297
1249
1171
1078
973
870
793
757
761
793
841
887
929
958
980
990
993
989
989
988
989
991
990
994
994
996
995
996
996
999
1002
1003
1006
1007
1009
1009
1009
1009
1008
1008
1007
1011
1014
1015
1017
1016
1019
1022
1024
1023
1024
1027
1027
1030
1035
1034
1035
1041
1041
1048
1047
1052
1053
1055
1057
1057
1061
1064
1070
1074
1076
1079
1078
1079
1085
1085
1083
1088
1089
1090
1091
1093
1095
1094
1093
1089
1088
1087
1086
1087
1087
1087
1086
1082
1079
1072
1068
1062
1059
1052
1051
1046
1042
1038
1034
1030
1025
1020
1016
1010
1010
1006
1004
1001
998
997
992
989
992
994
991
991
989
989
987
986
987
988
990
992
993
993
993
991
989
989
990
991
992
995
997
998
1000
997
997
996
994
995
994
995
997
997
999
998
999
998
998
996
996
994
995
992
996
994
997
997
994
994
993
994
994
990
990
989
990
988
988
987
987
989
987
986
986
987
984
983
983
981
983
986
986
987
986
985
982
981
980
978
980
981
983
984
986
984
984
983
982
980
978
979
981
982
985
986
985
984
982
982
979
978
979
979
982
984
984
987
986
989
989
992
994
997
995
1001
1000
1001
1002
1004
1004
1007
1011
1011
1010
1008
1003
1002
1001
1001
1003
1002
1002
997
997
995
991
988
988
984
983
984
982
981
979
977
978
978
977
979
980
981
984
988
993
997
999
1000
1003
1007
1011
1015
1020
1025
1030
1036
1046
1053
1059
1071
1084
1090
1097
1103
1107
1113
1127
1147
1175
1209
1249
1291
1330
1365
1383
1386
1368
1329
1268
1190
1095
996
909
847
824
833
861
897
933
960
978
989
988
984
977
975
973
971
971
972
971
973
974
979
978
977
979
978
976
975
981
979
979
979
979
978
980
983
982
982
985
984
982
983
979
980
982
983
983
985
987
989
988
987
986
984
984
986
987
989
990
992
993
994
995
998
996
998
997
999
1002
1002
1006
1007
1006
1009
1007
1007
1006
1005
1008
1008
1009
1009
1012
1011
1010
1011
1011
1012
1011
1011
1010
1006
1006
1003
1001
1001
1002
998
997
996
991
991
988
986
984
983
985
984
986
984
982
981
979
980
977
979
979
978
982
982
983
982
982
982
978
979
978
980
982
984
984
986
982
984
985
984
984
982
982
981
983
985
984
984
986
986
986
986
986
986
984
983
984
984
985
985
985
987
987
984
984
984
980
980
981
983
984
985
987
987
986
983
980
980
977
978
981
981
982
985
987
984
981
978
978
979
978
979
978
979
980
983
984
983
981
981
981
978
978
979
980
982
981
983
982
983
983
980
982
981
979
977
975
976
977
981
982
984
984
983
984
983
982
981
982
987
987
992
994
995
999
999
999
997
999
998
999
1004
1007
1007
1010
1013
1012
1009
1007
1004
1002
1000
1003
1002
1000
1000
997
997
990
987
988
986
982
981
981
979
978
979
979
979
980
978
979
980
981
982
988
992
994
998
998
1000
1001
1008
1011
1017
1020
1025
1032
1041
1044
1052
1064
1075
1085
1093
1098
1103
1106
1112
1123
1143
1168
1199
1234
1273
1308
1341
1364
1372
1361
1333
1287
1224
1145
1052
963
891
849
839
854
885
920
955
976
989
987
986
981
977
972
969
968
970
972
975
978
979
978
978
979
979
979
980
979
979
980
981
982
982
981
984
982
983
984
983
984
984
982
980
982
978
984
984
985
988
988
987
986
987
984
985
985
985
988
988
991
993
992
992
989
990
990
995
998
1000
1003
1005
1006
1005
1005
1004
1002
1002
1003
1005
1008
1010
1011
1011
1013
1012
1014
1014
1012
1013
1011
1010
1008
1007
1005
1006
1007
1004
1002
999
995
993
988
986
986
988
987
987
990
989
989
986
985
983
983
983
983
986
986
988
987
986
984
983
984
983
983
983
985
986
987
988
990
988
989
989
988
988
985
986
985
987
987
992
993
994
993
991
990
990
987
988
989
988
991
992
993
994
993
991
986
986
983
985
986
990
990
990
991
988
986
986
986
985
985
985
985
987
988
986
986
985
986
985
984
982
984
983
983
984
985
987
984
987
986
983
982
981
979
981
982
983
984
983
987
987
988
984
983
980
979
979
980
980
983
985
987
986
984
983
980
981
980
980
982
982
983
985
986
987
984
982
983
985
979
981
982
981
984
987
989
991
992
994
998
999
1001
1001
1005
1007
1010
1011
1016
1016
1016
1016
1013
1010
1009
1004
1004
1004
1003
1002
1002
995
994
991
990
989
987
983
983
983
983
983
984
984
984
985
986
985
987
988
992
997
1000
1003
1009
1011
1014
1015
1021
1022
1023
1030
1037
1043
1053
1063
1072
1083
1093
1102
1107
1110
1112
1116
1126
1139
1162
1193
1229
1266
1304
1339
1364
1371
1365
1338
1295
1237
1165
1080
994
916
863
840
846
872
908
938
966
985
996
996
990
985
982
978
975
976
976
979
981
979
980
981
982
983
984
983
982
983
983
983
985
988
986
988
988
982
985
984
985
984
982
985
985
985
986
985
984
986
988
987
986
986
984
985
983
985
984
989
989
991
993
992
993
989
988
991
992
992
993
1000
1002
1004
1003
1002
1002
1001
996
1000
1001
1002
1008
1009
1011
1012
1011
1013
1008
1008
1007
1010
1011
1012
1011
1012
1013
1010
1008
1004
1001
999
997
995
995
994
994
991
993
990
988
988
986
984
982
983
983
983
984
984
987
987
986
986
986
984
980
979
980
981
982
984
984
987
986
985
986
982
982
983
985
987
987
989
990
989
988
987
987
987
987
984
987
986
988
992
990
989
991
991
990
988
987
986
986
986
985
986
990
989
990
988
983
985
984
983
982
984
985
986
990
991
990
988
988
983
981
978
978
983
982
984
985
987
981
984
982
979
975
976
979
981
982
982
983
983
983
982
980
980
979
981
981
980
980
981
982
982
983
981
983
982
982
980
979
980
980
981
983
982
982
981
980
979
981
977
979
979
980
980
982
981
983
981
978
977
974
973
971
974
979
981
981
981
979
979
977
975
976
978
979
978
980
983
985
984
986
986
989
990
993
994
996
999
1002
1005
1007
1010
1008
1009
1006
1004
1001
999
998
998
999
999
997
994
991
988
984
984
983
979
978
973
974
974
974
975
975
971
968
969
968
968
969
971
971
975
975
975
973
974
968
967
969
970
971
975
975
978
978
981
980
980
980
980
982
985
990
1000
1016
1039
1067
1102
1140
1181
1226
1265
1290
1297
1280
1243
1182
1106
1021
934
854
802
782
796
831
873
917
953
977
994
1000
1001
999
996
993
991
990
990
992
996
999
1002
1003
1005
1005
1002
1003
1001
999
1002
1003
1004
1006
1008
1011
1009
1011
1009
1009
1009
1010
1013
1013
1016
1020
1020
1022
1024
1025
1028
1029
1031
1032
1031
1034
1036
1039
1042
1046
1047
1051
1051
1053
1051
1055
1057
1058
1061
1063
1067
1072
1071
1077
1075
1077
1076
1074
1074
1075
1075
1078
1078
1078
1078
1078
1075
1072
1070
1070
1066
1065
1063
1064
1065
1065
1060
1055
1051
1045
1039
1036
1029
1029
1024
1023
1019
1016
1013
1009
1003
1000
996
995
994
991
990
991
990
990
987
985
984
982
982
980
981
981
982
984
985
983
985
988
986
988
987
986
987
988
989
987
987
991
992
994
990
989
986
987
984
985
988
990
991
993
993
992
993
990
988
986
987
988
987
989
990
988
991
990
987
984
982
983
982
983
982
983
984
983
984
981
980
976
975
976
976
975
975
975
975
976
977
980
978
977
975
975
973
972
972
973
973
973
974
976
974
973
971
971
970
969
971
969
973
974
974
973
972
970
966
968
967
967
970
970
971
974
975
974
974
970
970
969
968
970
972
973
974
973
974
972
971
973
971
971
970
971
973
973
973
974
974
971
974
972
973
971
971
971
973
974
982
988
988
992
994
994
994
996
996
999
999
1000
1002
1006
1004
1004
1003
1000
996
996
992
990
986
985
984
983
984
982
979
973
972
969
966
965
968
967
970
972
971
972
970
970
969
971
970
968
968
971
972
971
971
973
972
977
975
974
974
974
976
978
980
982
988
989
995
1004
1018
1042
1072
1111
1157
1207
1252
1289
1302
1295
1255
1189
1104
1009
913
831
781
768
787
830
877
920
953
975
989
994
991
988
985
984
985
986
989
989
992
991
993
994
993
993
995
995
995
1000
1001
1002
1004
1003
1001
1003
1003
1003
1005
1007
1010
1016
1016
1017
1019
1019
1019
1018
1017
1019
1025
1025
1029
1034
1035
1036
1036
1036
1037
1040
1040
1042
1048
1051
1055
1057
1060
1061
1062
1063
1061
1063
1065
1066
1067
1068
1069
1071
1070
1070
1070
1070
1068
1067
1066
1065
1062
1062
1061
1063
1059
1059
1055
1051
1046
1040
1035
1029
1026
1024
1021
1019
1015
1012
1008
1006
998
994
991
988
988
988
990
986
988
987
983
979
977
977
976
975
977
978
978
980
980
980
979
977
979
979
980
977
977
980
981
983
986
987
988
989
986
986
986
983
983
983
984
988
987
988
985
986
983
983
983
981
983
985
984
987
987
988
983
982
980
977
976
976
978
980
981
982
981
982
980
978
976
974
975
974
977
975
975
974
975
975
973
972
973
973
972
971
970
970
968
970
970
969
970
967
969
968
965
965
966
967
968
969
970
972
970
970
967
967
967
964
965
967
969
970
970
971
969
968
967
965
963
964
965
967
966
970
970
967
963
965
963
962
963
964
966
964
966
966
964
965
964
963
962
961
963
963
961
965
963
965
965
969
969
969
969
974
973
977
977
980
984
988
992
995
996
994
990
989
987
986
986
988
989
988
986
980
978
971
968
965
965
960
958
956
955
955
956
955
955
954
953
954
955
956
954
955
958
958
959
959
961
959
958
957
957
957
958
959
960
962
965
968
968
969
969
969
975
981
999
1024
1055
1093
1132
1179
1222
1259
1285
1288
1262
1207
1129
1037
940
852
787
758
765
797
837
881
914
940
959
972
978
979
980
981
978
980
979
982
983
984
983
986
986
986
991
991
993
992
991
989
992
991
992
995
997
1002
1005
1006
1007
1006
1005
1004
1006
1007
1008
1014
1017
1021
1020
1022
1024
1024
1026
1025
1029
1031
1035
1039
1043
1046
1048
1049
1053
1056
1056
1057
1061
1062
1064
1065
1070
1072
1073
1072
1074
1076
1075
1071
1073
1070
1070
1070
1072
1073
1076
1076
1073
1070
1064
1061
1057
1050
1047
1044
1043
1040
1034
1029
1024
1016
1011
1004
1001
997
995
994
992
992
989
985
981
979
977
973
973
973
976
975
976
973
972
977
976
974
976
974
973
974
974
976
975
978
977
980
980
979
979
978
978
976
977
980
981
983
984
984
984
982
981
977
975
976
977
977
979
981
982
982
979
979
975
973
972
971
970
975
973
975
975
974
971
973
971
971
971
968
969
970
971
971
971
972
973
970
970
970
970
967
967
968
970
970
971
970
969
968
968
966
965
963
961
964
967
970
970
970
970
967
966
966
965
967
968
969
969
971
971
971
970
967
969
968
968
968
968
972
972
975
976
977
979
979
982
981
983
985
986
988
992
997
997
999
1000
999
999
994
995
991
991
989
989
990
987
984
983
979
974
974
974
972
971
968
967
964
965
966
965
965
964
963
963
962
963
964
966
966
966
967
967
964
965
963
964
965
966
969
970
969
973
973
972
973
975
975
978
981
988
1001
1020
1046
1078
1115
1157
1204
1250
1285
1305
1301
1271
1213
1135
1044
949
862
799
771
776
805
845
889
928
956
977
990
995
998
993
990
988
987
986
987
990
994
997
999
1000
1000
998
997
997
998
1000
1000
1002
1004
1006
1007
1007
1009
1009
1012
1012
1012
1013
1012
1016
1016
1018
1019
1022
1023
1029
1029
1026
1031
1030
1030
1035
1037
1039
1044
1045
1051
1051
1054
1054
1057
1060
1060
1062
1067
1071
1074
1077
1080
1081
1081
1082
1078
1078
1077
1077
1079
1083
1084
1083
1083
1080
1078
1076
1073
1071
1068
1068
1065
1062
1061
1058
1052
1047
1040
1034
1030
1026
1021
1017
1013
1008
1006
1003
1000
994
995
990
989
986
983
984
982
979
980
980
978
979
979
978
976
976
974
974
975
976
978
978
981
981
982
980
978
974
978
979
979
982
985
987
987
989
987
986
984
983
982
983
985
985
990
988
988
989
986
983
982
981
981
982
981
983
986
986
987
985
985
982
981
981
977
978
979
979
979
979
978
977
977
975
974
975
977
974
976
975
975
975
976
976
973
973
974
971
971
972
972
975
975
975
976
975
974
973
972
972
971
971
971
973
975
977
975
976
976
974
973
971
970
972
972
974
973
977
977
977
975
973
972
967
968
971
971
975
975
979
981
984
980
980
979
984
987
989
992
992
996
998
1001
999
999
998
998
996
995
994
991
993
988
985
985
983
982
980
980
979
975
974
972
969
969
969
968
970
969
971
970
970
971
973
976
980
983
986
991
994
995
999
1001
1002
1007
1012
1014
1024
1032
1039
1049
1054
1063
1073
1078
1083
1088
1094
1102
1112
1120
1137
1164
1193
1229
1270
1310
1345
1367
1375
1364
1333
1277
1205
1120
1025
935
864
825
817
833
865
902
934
957
972
977
978
974
968
964
962
960
962
963
963
965
966
969
969
970
969
967
