1004
998
997
995
993
994
995
995
994
990
987
985
985
984
984
983
983
986
986
986
984
985
983
984
982
983
983
982
982
982
983
983
986
988
989
989
987
987
987
984
985
987
985
988
992
993
994
994
993
990
991
991
991
994
996
997
998
996
995
993
992
988
986
984
987
986
988
990
991
990
990
988
988
984
984
985
985
989
988
985
989
989
986
988
988
985
986
984
982
985
983
984
986
986
987
985
984
983
980
980
979
980
984
985
987
988
988
988
984
983
978
977
976
978
980
982
986
987
987
984
980
976
977
975
975
978
980
983
984
984
984
982
979
977
978
981
978
983
982
982
984
985
985
984
984
981
981
982
982
981
981
983
987
988
990
993
995
998
1001
1001
1001
1004
1006
1008
1014
1018
1020
1020
1020
1020
1017
1015
1012
1009
1012
1012
1012
1013
1010
1004
1002
998
993
993
991
993
991
992
991
990
988
987
986
985
983
985
991
994
998
1001
1004
1005
1005
1003
1004
1007
1008
1011
1015
1020
1025
1031
1036
1044
1050
1058
1067
1076
1084
1093
1098
1103
1110
1114
1125
1141
1166
1196
1233
1276
1314
1350
1371
1377
1363
1330
1278
1208
1122
1021
925
848
811
809
834
877
922
959
985
996
997
989
981
972
966
967
966
971
974
977
979
979
980
979
976
975
976
975
977
978
979
981
982
982
983
982
981
979
979
979
977
979
983
980
983
982
983
982
981
981
979
983
982
985
985
985
990
989
992
994
991
991
990
991
991
994
995
1000
1002
1005
1005
1004
1003
1002
1001
1002
999
1001
1001
1002
1003
1005
1007
1008
1008
1008
1007
1010
1013
1014
1016
1018
1015
1013
1010
1006
1000
998
997
1000
1000
1000
1000
997
996
993
990
986
988
987
988
987
986
989
987
987
988
985
986
986
985
984
983
983
983
982
983
984
986
989
989
990
987
986
985
985
985
985
987
988
992
990
991
992
990
988
986
986
988
989
988
991
993
993
992
991
987
989
987
986
987
986
990
989
990
988
988
987
987
985
984
982
981
981
983
984
984
984
985
987
982
982
981
980
979
978
979
978
981
980
977
979
978
977
976
974
974
974
975
975
978
980
981
980
978
974
973
973
971
973
975
976
974
974
976
978
974
973
972
971
971
974
974
975
974
974
976
975
972
973
970
972
973
973
973
975
971
973
971
974
973
973
971
973
970
971
971
973
971
969
973
971
973
973
971
969
970
969
970
970
974
973
976
980
980
981
979
980
981
984
988
994
997
1000
1001
1002
1000
997
995
992
990
991
992
992
993
990
987
983
979
974
972
972
971
969
967
965
963
959
959
958
958
957
962
960
958
960
960
959
962
963
963
963
964
963
961
961
959
960
961
961
961
963
965
967
966
965
966
969
970
973
980
992
1015
1042
1078
1118
1164
1210
1252
1281
1290
1276
1236
1171
1094
997
898
807
747
729
756
802
857
908
949
976
988
993
990
981
978
976
973
975
977
983
986
988
987
990
988
989
987
988
990
988
989
991
993
995
997
995
999
998
995
997
999
1000
999
999
1002
1004
1006
1006
1007
1015
1015
1018
1017
1016
1018
1019
1023
1026
1030
1033
1035
1040
1041
1041
1042
1042
1042
1048
1052
1057
1059
1061
1062
1064
1062
1059
1059
1061
1058
1061
1062
1063
1064
1064
1062
1060
1060
1056
1055
1054
1051
1050
1047
1045
1042
1036
1032
1029
1027
1022
1017
1011
1005
1001
997
998
995
995
992
989
985
981
977
974
972
973
973
976
977
979
979
979
978
977
975
974
974
975
977
980
981
983
983
983
982
983
982
982
983
984
986
985
986
981
984
983
983
985
980
980
981
981
982
980
982
983
981
981
980
978
978
974
974
974
974
973
975
974
975
976
974
971
969
967
967
968
970
971
973
974
973
973
970
967
965
963
961
964
967
966
968
966
966
966
965
963
963
962
961
963
964
966
966
966
965
964
963
963
962
965
964
964
966
967
966
965
965
968
967
967
966
965
964
962
960
960
963
964
968
970
967
964
962
962
960
962
962
965
966
965
966
964
964
962
958
957
957
958
964
965
966
965
965
964
962
963
959
960
958
962
959
967
965
968
970
974
973
976
979
980
981
982
984
987
992
993
992
991
991
988
986
984
980
980
979
975
974
973
971
971
971
969
966
959
959
956
955
953
952
956
958
959
959
956
956
956
953
953
955
956
958
959
959
961
958
957
957
955
955
956
959
960
963
965
967
969
968
969
968
973
980
994
1018
1046
1081
1121
1166
1207
1244
1273
1281
1264
1223
1160
1079
989
900
819
769
748
762
796
836
875
913
939
958
969
973
975
974
972
973
972
970
971
975
977
977
978
980
982
987
986
985
983
986
985
983
984
987
988
993
995
997
998
999
999
998
1000
1002
1003
1007
1009
1013
1013
1014
1013
1016
1014
1016
1018
1020
1022
1025
1028
1032
1032
1038
1038
1039
1039
1040
1044
1046
1050
1053
1054
1057
1061
1061
1063
1064
1062
1062
1061
1061
1059
1058
1059
1058
1058
1058
1056
1057
1056
1052
1049
1046
1046
1043
1040
1035
1032
1032
1029
1022
1016
1011
1003
997
993
988
987
985
983
981
978
973
970
965
965
962
962
962
967
968
968
966
964
964
965
963
964
965
963
966
970
968
971
967
971
969
969
971
967
971
971
972
972
975
976
975
974
976
972
970
970
967
968
969
968
972
972
973
971
970
968
967
965
960
963
964
965
966
967
966
964
963
960
959
957
955
956
958
960
958
960
958
960
958
957
957
957
956
955
958
956
960
960
959
958
957
956
957
956
954
953
955
954
955
956
956
955
956
956
953
954
952
953
952
954
955
957
958
959
956
954
952
950
952
951
950
953
956
955
958
957
957
955
952
952
956
957
959
964
967
969
973
975
975
974
975
974
977
979
981
983
983
983
982
979
977
975
974
969
968
967
963
962
962
961
959
958
956
953
950
945
943
942
943
943
946
948
950
950
948
947
946
946
945
944
945
946
949
950
949
952
952
947
949
948
949
949
951
955
956
961
964
964
971
979
991
1010
1035
1066
1102
1139
1181
1208
1231
1238
1219
1176
1122
1048
964
890
830
795
786
798
821
853
884
911
930
944
955
958
963
964
963
963
963
967
966
966
970
968
969
969
971
974
975
977
979
979
979
978
982
980
978
979
980
984
988
992
993
993
995
995
994
990
994
994
1000
1003
1006
1009
1013
1013
1015
1017
1018
1019
1020
1025
1028
1032
1034
1038
1040
1041
1040
1046
1046
1048
1048
1047
1052
1055
1055
1055
1056
1057
1059
1057
1056
1054
1055
1054
1053
1053
1051
1052
1051
1049
1049
1045
1042
1039
1035
1033
1028
1022
1023
1021
1015
1011
1009
1002
1000
994
988
986
983
981
978
977
976
976
973
970
967
965
963
961
962
961
963
964
966
966
966
965
958
958
960
959
964
966
968
969
970
970
969
969
967
965
967
967
967
969
972
973
972
973
969
969
968
969
967
969
970
968
968
968
971
971
971
970
967
966
967
963
962
963
966
966
965
966
965
965
963
959
958
959
959
960
960
961
963
962
961
961
959
958
955
955
954
957
956
959
961
960
958
957
956
956
957
955
958
959
959
959
959
959
958
957
956
956
954
955
956
955
956
958
955
956
957
957
958
957
955
955
956
957
955
956
958
961
960
959
960
956
957
959
961
965
966
971
972
979
980
979
977
980
979
981
982
984
985
985
984
982
981
975
973
970
966
967
964
964
963
962
961
958
959
952
948
947
947
946
948
954
954
956
957
961
963
963
964
968
972
972
977
979
985
991
997
1002
1010
1016
1023
1032
1042
1051
1060
1068
1073
1081
1091
1106
1128
1155
1187
1226
1268
1301
1326
1336
1322
1286
1229
1152
1057
960
873
816
794
802
835
872
907
934
950
961
958
956
951
947
944
944
944
947
948
951
952
952
953
952
950
950
952
949
950
951
951
952
955
956
957
956
955
953
952
951
953
954
955
955
959
960
958
958
957
955
955
956
955
958
960
961
964
962
961
961
960
958
961
964
965
967
970
973
970
973
970
969
971
970
971
971
973
974
973
975
976
974
976
976
975
975
977
977
978
979
979
983
983
984
982
982
979
977
972
970
970
971
971
973
972
972
971
969
966
962
962
960
962
963
965
965
967
966
964
962
960
959
960
961
962
965
966
965
967
967
965
965
964
965
965
965
968
965
968
971
970
970
970
967
968
968
966
964
968
969
966
968
969
969
970
966
966
963
963
962
962
963
964
966
967
966
966
964
964
963
959
959
959
960
961
962
962
962
962
960
958
955
952
954
955
957
958
957
962
960
959
956
955
952
949
948
948
948
953
955
954
955
954
951
950
948
947
949
950
950
952
953
952
951
951
949
949
948
947
946
948
949
947
947
949
950
948
949
950
947
946
946
944
944
944
944
948
951
948
948
946
948
946
946
947
947
950
954
959
962
964
964
963
964
966
966
969
972
976
977
978
977
976
974
969
969
964
963
962
961
958
959
958
954
955
953
949
947
943
943
943
944
945
946
946
950
953
952
953
955
957
961
962
967
972
974
979
982
987
992
996
999
1005
1011
1021
1031
1042
1055
1065
1068
1071
1074
1080
1091
1111
1137
1173
1213
1255
1295
1322
1339
1332
1300
1247
1172
1082
986
896
832
797
794
816
848
881
912
933
946
950
949
948
944
941
940
940
940
942
943
943
944
943
944
943
946
945
948
947
949
950
952
951
949
949
947
946
944
945
949
951
950
952
950
950
946
945
943
945
947
949
950
952
950
950
948
949
945
947
949
950
951
952
958
958
959
957
958
959
958
960
958
960
963
964
964
965
967
968
966
970
969
969
971
973
975
977
981
983
984
985
984
979
977
974
969
968
969
968
971
967
967
965
965
961
956
953
953
955
954
954
957
956
956
953
951
952
952
950
950
953
954
956
955
956
955
954
954
955
952
953
953
952
954
954
956
955
958
957
959
959
957
956
954
956
954
959
959
960
959
961
959
958
956
953
951
953
956
958
959
959
960
958
956
954
954
954
954
953
953
956
956
957
954
952
952
952
948
950
948
951
951
951
952
949
949
951
951
949
948
948
948
945
948
947
947
950
950
951
952
950
949
946
944
946
946
946
949
951
953
952
951
949
948
945
946
945
948
950
951
953
954
956
955
952
952
953
955
958
961
966
968
972
973
975
975
975
975
976
974
974
970
970
970
967
968
965
964
961
958
954
951
951
949
946
948
946
945
943
942
943
941
942
944
946
948
947
952
957
960
962
965
967
969
969
974
979
984
992
998
1006
1013
1018
1028
1034
1042
1050
1057
1061
1065
1068
1077
1093
1115
1145
1178
1214
1254
1291
1322
1343
1347
1333
1294
1233
1151
1055
960
875
817
792
795
815
843
873
900
919
935
941
947
944
941
940
938
937
938
939
942
945
948
947
947
945
943
941
943
944
944
944
946
949
949
948
948
946
944
943
942
941
946
946
948
950
951
949
948
946
945
948
947
947
949
949
951
953
952
952
949
952
950
951
950
951
953
956
960
960
961
962
963
961
962
963
962
964
963
965
966
968
971
971
969
973
974
975
975
975
975
977
980
983
983
984
982
979
975
972
967
967
967
969
967
968
969
966
962
961
957
954
953
954
958
958
955
956
959
957
958
955
954
952
954
955
955
955
958
956
956
955
958
957
958
958
959
959
960
959
961
960
963
964
961
962
960
959
959
959
959
961
961
962
964
960
963
962
962
960
959
957
956
958
961
962
963
963
961
960
958
956
953
955
954
957
959
960
960
958
955
954
952
949
948
947
951
954
953
955
953
952
949
948
947
950
951
950
951
952
951
949
950
952
951
952
949
949
949
949
949
951
953
953
954
953
953
952
950
950
947
946
949
951
952
954
955
955
954
953
952
951
950
949
951
950
951
951
954
954
956
952
949
947
946
949
952
953
957
957
959
959
959
959
961
961
963
965
968
971
974
975
978
980
982
978
980
979
975
978
977
975
976
975
972
972
971
968
964
961
961
960
960
959
958
955
949
949
949
948
947
950
945
950
953
956
960
965
967
971
971
975
975
978
979
984
988
995
1002
1009
1016
1025
1031
1039
1047
1053
1060
1064
1071
1077
1087
1103
1121
1147
1180
1216
1251
1290
1323
1346
1350
1342
1315
1270
1202
1116
1026
927
850
810
797
812
844
879
911
935
949
958
957
953
948
948
941
943
943
945
948
950
951
952
951
951
949
950
948
949
949
950
951
951
952
953
953
951
950
949
949
947
949
949
950
951
951
954
953
952
950
950
949
948
950
950
953
956
957
958
956
956
956
956
952
955
958
960
963
966
968
970
968
967
967
968
967
969
972
973
975
977
979
979
979
977
974
973
976
975
977
982
985
986
984
984
984
982
979
979
978
976
976
974
973
972
970
969
967
963
963
960
958
957
957
956
958
958
958
960
958
956
955
955
953
954
952
955
956
956
959
959
957
957
954
954
954
953
955
957
958
960
961
962
962
960
961
956
954
958
960
963
963
963
964
966
966
964
961
963
961
960
959
963
964
966
965
964
960
960
960
961
959
959
961
960
962
961
960
959
959
960
960
959
957
957
956
957
958
960
960
958
959
960
959
959
955
954
953
952
954
954
955
958
959
957
957
954
953
952
952
956
956
957
958
958
959
954
950
949
949
948
952
957
956
954
956
951
948
951
949
951
951
954
955
957
955
956
957
958
956
958
957
957
958
957
959
958
959
960
960
961
960
960
961
961
959
958
960
960
959
961
962
965
964
962
963
961
959
955
957
959
964
967
968
971
971
971
973
976
974
977
981
985
988
992
992
995
995
994
993
994
992
990
989
989
987
988
988
987
984
981
975
974
973
974
973
972
966
967
963
961
963
962
963
961
964
965
968
970
973
976
980
983
987
988
992
993
996
998
1005
1012
1019
1028
1038
1047
1058
1065
1071
1074
1076
1080
1087
1097
1116
1144
1175
1212
1246
1284
1316
1336
1339
1323
1286
1230
1157
1069
975
895
836
813
819
845
878
913
941
958
969
969
966
962
957
953
952
955
957
958
960
961
961
964
963
966
966
967
966
966
961
960
962
965
966
966
967
969
971
967
965
964
963
962
965
965
967
970
972
970
970
968
968
967
968
968
971
970
973
973
975
976
974
975
975
975
976
978
979
980
981
985
985
987
985
987
987
988
989
988
990
989
991
992
995
998
998
998
1000
998
1000
996
999
999
1000
1000
1001
998
996
994
990
987
987
986
981
982
980
982
986
986
984
981
977
975
973
972
975
972
974
975
977
977
974
974
971
971
970
970
971
974
976
977
976
975
975
973
970
970
968
970
971
973
976
977
979
979
978
977
978
976
976
978
976
978
977
978
977
976
977
980
980
978
975
973
973
978
978
979
979
981
980
979
978
976
974
974
971
973
976
978
977
976
978
976
974
971
968
967
970
970
972
974
975
974
973
972
969
967
966
965
965
967
970
972
972
970
970
968
965
964
962
963
966
967
967
966
967
964
964
963
966
966
967
966
967
967
965
967
966
968
969
969
970
968
969
967
967
968
968
970
972
972
973
973
970
969
969
967
967
966
970
973
973
973
974
973
970
968
968
967
969
972
973
974
974
973
973
973
967
967
968
969
970
971
971
970
969
970
970
968
969
967
967
970
972
977
982
982
983
984
984
988
991
993
993
994
995
997
997
995
999
998
997
995
993
989
987
982
981
978
979
978
980
980
980
977
972
967
964
962
962
965
970
971
976
977
979
977
977
980
981
987
991
994
999
1002
1008
1014
1019
1022
1026
1037
1046
1053
1065
1073
1082
1088
1094
1098
1110
1125
1144
1169
1203
1236
1276
1310
1332
1335
1322
1289
1237
1165
1078
985
906
847
823
828
854
890
930
960
976
981
981
971
968
961
962
964
965
968
970
972
971
969
968
967
968
970
970
972
971
973
974
973
973
970
970
970
970
969
971
971
975
974
976
975
976
975
975
973
973
971
971
973
975
972
977
978
977
978
977
978
976
979
980
982
985
986
986
986
990
989
990
990
989
988
992
990
993
996
997
997
997
996
997
994
994
996
998
999
1001
1001
1000
998
998
995
993
992
990
986
987
986
982
982
983
984
981
980
979
976
975
973
972
972
972
975
974
976
975
973
970
969
968
969
971
966
970
973
976
974
975
975
973
971
969
968
973
974
976
978
980
978
979
979
978
973
975
975
977
979
980
982
980
981
979
978
976
977
975
977
978
979
980
981
979
981
980
978
976
975
976
974
974
973
973
975
976
975
977
976
976
973
973
971
972
971
969
972
972
971
971
970
970
970
967
965
966
968
967
970
970
971
972
970
969
966
965
964
966
967
968
969
969
970
969
965
965
963
964
963
963
965
967
968
966
968
967
965
966
964
964
962
963
966
969
968
969
969
970
968
967
966
965
965
965
967
968
969
968
968
969
968
967
967
965
963
965
965
965
968
967
969
967
969
968
963
965
964
965
964
964
967
967
967
968
968
965
963
963
963
966
967
967
971
969
970
969
970
967
966
965
968
972
974
977
979
980
983
981
984
986
986
989
991
994
996
996
997
997
996
993
988
986
988
986
982
981
979
978
975
974
975
975
972
971
965
961
957
957
957
961
963
967
