964
964
962
958
962
963
963
963
964
965
962
963
963
962
961
962
961
962
966
967
969
970
972
969
969
968
966
967
970
973
974
975
976
976
980
981
980
979
982
982
983
983
983
984
985
987
989
989
988
987
987
988
987
990
991
995
997
994
994
993
994
992
989
988
986
985
983
984
985
981
981
979
978
975
972
971
972
969
970
972
972
972
972
970
968
968
966
965
967
967
969
969
969
973
972
970
969
968
963
963
964
963
968
968
970
972
971
974
971
972
970
969
970
972
974
975
978
981
979
980
979
976
975
973
972
971
974
978
979
980
980
979
977
976
978
977
978
978
977
977
977
977
977
979
977
975
972
972
970
970
971
972
971
972
971
972
970
971
971
970
969
970
970
970
969
967
969
969
968
967
967
967
969
969
969
967
969
971
972
971
973
969
969
968
972
972
972
970
971
969
969
967
968
968
965
965
969
970
972
972
972
974
971
971
970
969
968
970
969
970
971
970
972
976
974
972
973
973
968
970
970
969
970
971
972
976
975
974
974
973
971
968
968
970
973
974
970
972
972
971
971
971
970
970
971
975
976
976
975
975
978
982
982
982
983
988
987
991
993
997
999
1002
1003
1003
1000
995
996
993
992
989
992
993
991
991
988
987
982
982
980
978
978
976
976
973
973
972
971
971
971
973
973
973
975
976
978
983
986
991
993
995
997
998
1002
1002
1006
1012
1018
1026
1033
1042
1052
1060
1068
1075
1079
1085
1090
1098
1111
1129
1157
1184
1216
1248
1282
1299
1307
1294
1266
1223
1162
1093
1018
940
878
841
833
848
872
902
930
951
966
971
971
967
963
959
956
958
958
960
959
960
961
963
966
967
963
963
965
961
961
960
960
960
962
964
963
964
966
965
960
960
961
961
962
963
962
967
968
968
966
966
963
966
966
964
965
967
967
969
973
975
976
974
975
975
974
976
977
978
977
979
981
978
983
984
984
983
983
984
983
984
983
985
989
990
989
993
992
992
992
990
991
990
992
991
991
989
988
986
982
982
978
977
976
978
979
979
979
977
975
971
970
971
969
968
969
971
971
973
973
973
972
971
969
967
969
969
969
969
970
972
974
974
972
972
974
972
975
975
973
976
976
979
981
980
982
981
981
979
978
978
979
978
980
981
982
982
984
981
979
977
975
975
977
977
979
980
980
982
981
980
978
976
975
975
975
976
976
976
974
978
977
974
976
973
970
971
970
970
972
971
970
969
973
971
971
966
969
968
969
971
969
969
972
974
973
973
971
972
972
971
967
967
969
970
971
973
974
973
974
972
970
972
971
972
974
976
976
974
977
975
974
974
976
974
974
974
973
974
976
976
975
973
972
974
974
973
972
974
976
977
978
976
976
974
974
973
973
974
975
974
974
975
977
976
978
980
978
977
974
975
974
978
978
980
981
984
981
982
980
979
980
980
983
984
988
992
995
997
997
997
999
999
1000
1003
1006
1005
1006
1004
1005
1005
1002
1001
998
994
993
990
988
986
986
986
987
986
985
985
982
975
973
970
969
969
973
972
975
978
978
979
980
982
984
988
989
994
998
1003
1009
1013
1018
1021
1025
1030
1038
1044
1051
1062
1072
1081
1085
1090
1093
1099
1107
1124
1144
1168
1196
1232
1269
1305
1332
1347
1341
1315
1265
1195
1112
1020
933
873
839
835
852
880
909
937
959
970
979
977
975
974
969
970
970
970
971
972
974
975
975
976
974
973
975
977
979
979
981
979
979
974
974
975
975
974
974
974
977
975
978
976
976
974
972
970
969
970
972
976
975
977
979
979
978
977
977
976
976
978
979
982
983
984
986
983
982
983
979
981
980
982
983
984
986
985
985
982
984
984
985
988
989
989
991
991
995
996
998
999
997
997
997
996
994
994
997
996
995
996
993
992
990
989
983
981
984
984
984
983
985
984
983
981
980
979
979
979
977
975
979
978
981
981
982
983
979
979
981
980
980
982
983
985
986
984
985
986
984
984
983
984
985
987
987
988
990
991
992
992
989
988
986
983
985
987
989
991
990
990
989
987
985
984
985
984
985
984
986
986
987
988
985
986
984
981
983
980
978
978
980
979
981
982
983
984
982
981
979
979
977
977
981
979
981
981
982
980
979
977
976
978
976
978
977
977
978
978
979
980
980
976
976
974
974
975
975
978
980
977
978
976
977
975
975
975
973
976
977
977
979
979
977
980
977
977
976
977
974
977
979
980
982
982
983
984
981
981
978
979
979
981
980
982
983
986
988
990
990
991
990
992
995
997
1003
1006
1011
1011
1013
1013
1009
1006
1004
1004
1000
1002
1001
1000
1001
999
997
995
993
987
988
983
982
986
985
982
982
981
979
973
973
971
970
971
969
970
972
975
976
977
977
978
978
976
975
974
975
973
976
977
979
982
985
986
985
986
987
986
986
992
996
1010
1028
1050
1076
1110
1146
1183
1222
1261
1287
1300
1288
1250
1193
1120
1036
943
859
800
774
782
811
851
892
928
956
975
991
993
993
993
988
985
983
987
987
990
994
995
997
998
993
996
996
994
993
995
995
998
997
998
1001
1001
1001
1003
1001
1001
999
1000
1003
1004
1007
1010
1009
1009
1011
1011
1012
1012
1013
1017
1020
1024
1027
1030
1033
1032
1033
1036
1036
1039
1039
1041
1044
1048
1051
1055
1056
1058
1061
1059
1060
1058
1059
1059
1060
1061
1060
1061
1061
1058
1056
1055
1053
1051
1049
1050
1049
1048
1048
1045
1046
1042
1038
1032
1027
1023
1021
1017
1015
1013
1010
1009
1004
1001
998
992
988
987
982
985
983
983
982
982
984
983
978
978
980
980
980
980
983
982
986
984
986
985
985
985
983
984
984
986
989
990
993
993
992
991
988
989
985
987
985
987
989
989
990
991
992
990
989
990
987
985
984
985
985
985
987
988
988
986
986
984
982
980
978
978
979
980
981
982
980
981
980
979
976
975
972
972
975
973
975
975
976
976
975
973
969
968
967
970
971
970
972
973
975
973
971
971
972
971
969
969
969
970
971
971
973
973
971
968
969
966
967
969
970
971
973
972
974
973
975
972
972
972
967
967
970
968
970
970
967
967
970
967
968
969
969
970
971
971
971
974
973
975
975
976
977
978
980
982
984
985
987
991
993
997
997
997
996
994
993
992
993
994
993
992
988
987
984
981
979
973
977
977
974
973
972
970
969
966
964
963
962
962
964
966
967
968
971
975
979
982
983
986
987
991
994
999
1001
1009
1013
1020
1028
1034
1044
1049
1056
1062
1065
1071
1078
1087
1096
1114
1138
1169
1202
1241
1279
1310
1331
1333
1312
1265
1195
1107
1010
914
841
800
796
818
854
896
930
954
969
970
970
963
957
954
954
953
953
955
959
961
962
964
962
962
961
960
961
960
961
960
962
962
962
962
962
965
963
965
964
964
964
964
965
968
966
966
965
964
965
963
962
964
963
963
966
969
970
972
973
971
972
974
975
976
976
977
977
980
982
981
982
981
981
981
977
979
976
979
982
983
985
985
985
988
988
988
990
986
988
987
984
985
985
986
986
983
980
980
976
976
974
972
970
971
970
970
969
967
967
964
964
961
963
963
964
964
966
965
965
964
963
964
962
964
963
962
963
964
965
965
968
965
966
964
961
963
962
964
966
966
970
971
969
971
969
971
969
967
966
968
969
969
969
970
972
971
970
971
969
970
967
968
965
966
966
967
968
971
970
968
965
965
965
966
966
968
968
966
968
967
965
963
962
960
959
960
961
961
963
964
965
964
963
962
960
958
958
957
958
960
961
963
962
963
961
961
959
958
958
960
960
961
961
961
962
960
960
957
955
956
958
957
958
962
965
964
966
964
962
960
960
960
959
960
958
959
961
961
960
961
959
960
959
958
956
958
959
957
959
961
962
961
960
964
961
961
960
960
958
960
962
963
963
963
965
963
965
968
967
969
973
978
978
979
979
985
983
985
986
987
988
990
991
989
987
984
983
982
980
979
974
974
970
969
968
970
969
969
967
963
960
960
956
956
955
954
959
963
967
970
972
974
976
976
978
981
983
988
992
997
1003
1009
1013
1017
1023
1029
1035
1042
1051
1058
1064
1073
1079
1085
1095
1106
1123
1144
1174
1207
1238
1271
1293
1300
1286
1253
1201
1129
1047
964
888
841
819
826
852
887
919
944
961
968
968
964
957
952
949
950
952
952
957
960
961
959
960
959
958
958
957
957
958
958
960
961
961
957
956
952
955
955
955
955
957
958
957
959
958
958
958
958
959
959
959
959
959
961
961
964
961
963
966
967
967
964
963
967
969
970
973
976
976
976
974
974
973
973
974
974
975
975
979
982
983
982
980
980
980
981
984
983
985
986
986
987
986
985
982
978
976
974
972
971
970
972
968
968
967
966
963
964
964
964
963
964
963
965
966
968
966
966
966
965
963
964
962
963
965
965
965
965
966
966
966
967
966
966
966
965
968
968
971
972
974
976
974
971
971
969
967
965
966
969
969
972
972
974
974
972
971
970
969
970
971
971
971
973
967
967
964
965
967
968
964
964
964
963
965
966
967
969
966
964
963
961
961
958
959
960
959
962
962
965
961
961
961
958
958
957
960
960
961
963
964
964
963
961
963
960
960
960
960
961
963
964
962
963
962
962
958
958
957
958
957
960
963
963
963
964
963
959
962
959
958
959
956
958
962
964
965
966
962
965
964
962
961
961
963
964
964
963
966
966
964
964
962
964
964
965
968
968
973
975
978
981
980
983
983
983
984
985
987
993
993
994
995
996
994
992
989
986
983
980
980
979
977
979
976
978
975
974
972
968
966
964
961
962
962
966
966
969
967
969
969
970
971
974
977
979
982
986
991
994
996
1001
1004
1010
1011
1016
1024
1035
1044
1053
1061
1069
1076
1079
1085
1093
1104
1121
1146
1177
1210
1246
1283
1313
1339
1346
1337
1307
1262
1195
1119
1040
960
901
865
854
860
874
896
915
930
943
953
958
961
960
962
958
958
960
958
958
957
956
960
961
965
966
966
965
964
961
960
958
959
958
960
961
960
962
963
964
964
963
961
961
958
958
960
960
960
961
957
958
956
955
958
957
956
958
958
963
961
964
966
967
963
966
964
964
963
964
967
963
967
970
971
972
973
972
971
971
972
972
973
977
978
983
984
985
984
986
984
982
980
981
983
982
981
981
981
980
979
977
976
973
971
969
968
969
966
968
968
971
970
968
966
965
966
964
965
966
966
969
969
970
970
968
966
967
966
967
968
969
972
973
974
975
975
973
973
974
973
972
975
975
977
977
979
979
980
978
976
973
972
973
974
974
977
979
980
980
977
977
976
972
975
973
975
976
976
978
976
975
977
976
973
972
972
970
972
972
973
972
973
975
973
974
972
971
969
968
968
970
972
973
973
973
972
969
969
968
966
966
967
967
967
969
969
971
969
968
967
966
966
966
969
967
969
971
971
971
969
969
967
967
965
966
967
969
969
971
969
971
968
968
967
966
966
964
966
966
968
968
969
969
971
968
966
966
962
964
964
966
966
969
972
970
974
974
975
976
975
975
976
979
982
985
988
991
991
992
992
990
988
987
988
987
988
987
987
985
985
980
978
972
972
971
971
971
972
972
974
972
970
967
964
960
960
961
963
965
968
971
972
975
975
978
980
981
984
986
987
994
999
1004
1010
1015
1018
1022
1027
1032
1037
1043
1052
1060
1066
1072
1079
1085
1093
1106
1118
1138
1162
1189
1222
1254
1283
1308
1318
1315
1293
1255
1202
1135
1061
987
921
876
853
858
871
895
916
936
950
958
962
961
958
959
958
958
959
958
960
959
959
959
958
958
958
962
962
964
963
965
964
963
963
959
961
960
960
961
963
965
965
967
964
964
964
962
962
962
963
966
967
969
966
967
969
969
968
969
970
970
972
972
973
976
976
977
976
978
978
978
978
978
982
983
983
985
986
988
988
988
985
987
985
986
989
989
989
992
995
995
994
995
994
993
991
993
990
991
990
991
989
986
984
983
980
977
977
976
976
978
976
977
976
977
975
973
973
970
968
968
970
971
969
971
972
971
971
971
969
968
967
968
969
967
972
972
973
972
970
974
974
973
970
968
970
972
976
977
978
980
978
979
980
977
978
975
975
975
976
977
980
979
980
977
975
974
975
975
975
978
979
979
979
979
978
976
976
973
973
973
971
973
970
969
972
973
971
969
971
970
969
968
967
969
970
971
969
972
972
970
971
968
966
967
965
968
967
969
969
970
969
969
966
964
966
964
965
966
969
970
970
971
967
968
967
967
964
965
964
966
966
967
968
969
968
970
968
965
963
963
965
967
966
967
968
968
969
965
965
964
962
964
963
964
965
970
969
971
968
969
967
968
968
970
971
973
977
979
982
983
987
987
988
990
990
992
994
995
997
994
996
995
991
990
988
985
982
980
979
978
977
977
977
977
975
974
971
969
967
964
965
964
966
968
971
974
975
977
979
981
982
985
989
993
996
1004
1009
1014
1017
1020
1023
1026
1035
1040
1049
1058
1067
1076
1083
1089
1094
1106
1118
1139
1164
1194
1226
1259
1289
1305
1305
1287
1251
1198
1130
1050
972
899
847
829
838
861
893
925
950
965
971
969
966
960
954
955
957
961
963
965
966
966
964
963
959
960
960
959
961
963
964
964
964
964
964
960
961
960
961
963
964
965
966
967
965
963
962
960
958
958
960
961
962
964
966
967
968
967
969
970
971
974
975
977
979
978
980
980
981
982
982
982
979
982
984
985
984
986
988
986
987
987
989
990
989
988
988
990
991
994
994
995
995
992
992
987
984
982
978
979
980
980
981
982
980
979
975
973
970
967
968
970
970
971
972
972
969
966
966
965
965
968
969
969
971
974
973
973
972
972
970
969
969
967
969
969
971
972
970
973
975
973
972
971
972
973
974
975
975
977
979
979
979
978
976
976
974
972
972
973
972
974
974
975
977
972
973
974
972
971
971
972
973
974
974
974
973
972
970
969
969
968
969
969
970
970
971
970
970
970
969
969
967
967
966
968
970
969
970
969
970
968
965
967
964
961
964
962
963
964
965
968
967
965
965
963
962
961
961
962
966
965
968
967
968
968
966
965
965
962
963
963
967
966
970
969
970
970
967
965
964
963
962
962
964
968
969
971
966
967
965
965
965
964
964
966
966
966
970
970
974
974
976
977
982
981
980
983
986
989
990
994
996
997
997
996
994
991
989
988
987
988
987
983
986
982
976
976
975
970
969
970
969
968
966
963
965
962
963
966
969
971
971
974
974
975
982
984
989
992
996
998
1002
1007
1009
1016
1021
1030
1041
1051
1060
1067
1073
1079
1082
1089
1099
1116
1141
1168
1204
1241
1280
1313
1333
1335
1318
1276
1214
1134
1041
952
881
838
825
839
861
895
921
943
957
966
966
966
963
959
959
958
957
961
961
963
963
963
964
963
964
966
965
964
966
965
965
964
962
961
962
964
966
966
969
970
969
967
966
963
962
964
965
967
969
970
971
971
968
968
967
965
969
972
971
972
977
978
981
982
981
980
981
980
979
982
985
986
986
988
988
987
988
988
988
987
989
988
989
993
993
997
999
1000
1000
997
993
991
991
992
992
989
993
992
990
985
985
982
981
979
977
979
977
978
978
978
976
975
974
973
973
969
973
972
972
974
978
976
976
976
977
975
975
973
973
974
973
974
977
976
978
977
975
976
977
978
975
978
977
979
980
981
982
982
978
978
977
977
975
976
978
978
981
980
983
984
982
979
979
977
975
975
975
977
977
978
978
979
977
974
973
970
969
972
972
972
974
975
976
975
971
972
970
968
969
968
971
969
970
970
971
970
969
968
968
967
968
968
969
969
971
973
973
970
970
969
967
963
962
964
966
968
967
969
972
971
969
968
965
967
968
965
968
969
972
971
971
972
969
966
965
965
963
964
966
969
970
971
970
970
969
967
967
966
968
969
968
967
969
969
969
970
969
968
968
965
966
965
965
970
971
970
971
970
969
969
969
969
968
971
974
977
982
984
986
987
989
989
990
991
992
996
999
1000
999
996
994
991
987
985
982
980
978
978
977
977
976
975
975
972
970
967
965
963
961
961
964
964
967
970
973
972
975
976
976
981
984
988
992
996
1002
1007
1012
1018
1023
1027
1035
1042
1052
1059
1069
1075
1085
1089
1096
1106
1119
1143
1168
1200
1234
1269
1300
1318
1326
1318
1294
1242
1176
1096
1008
917
851
816
813
834
872
911
943
966
973
975
970
965
957
953
951
956
961
961
963
963
963
963
959
961
958
959
960
962
961
965
964
964
963
963
960
958
956
957
959
960
963
963
965
963
963
960
956
956
956
957
959
962
964
963
966
967
967
967
963
966
968
971
974
975
978
980
981
981
980
981
981
980
980
981
980
981
983
985
987
987
988
986
985
982
982
983
981
985
986
986
987
990
985
983
981
980
976
974
976
977
977
978
977
975
972
970
967
966
966
964
965
966
969
969
970
968
968
966
965
965
962
966
968
969
970
971
973
972
969
971
970
970
968
969
970
969
971
973
