959
962
961
960
956
955
954
953
953
954
955
955
955
955
957
955
953
950
950
950
951
952
954
955
954
956
954
955
952
949
945
947
947
950
951
953
953
954
951
949
948
950
948
950
951
953
953
953
952
952
950
949
950
949
950
950
952
950
950
952
950
950
950
951
950
949
949
946
946
948
951
952
952
954
955
955
953
953
957
957
957
963
967
973
974
977
980
980
979
978
977
977
977
977
978
979
975
975
969
964
963
960
958
961
961
958
956
954
950
948
947
946
946
946
946
948
947
948
948
949
950
949
947
944
946
949
948
949
950
949
951
953
952
955
953
955
955
957
957
959
961
966
978
996
1021
1053
1091
1136
1181
1221
1256
1272
1270
1241
1190
1118
1033
944
858
790
753
753
783
829
881
926
958
982
988
989
982
975
971
971
971
975
974
977
978
977
978
980
982
984
984
983
983
984
986
987
990
992
992
994
996
996
996
996
995
996
997
1000
1001
1003
1008
1009
1012
1012
1012
1010
1013
1015
1019
1022
1026
1029
1030
1035
1034
1036
1032
1035
1039
1042
1046
1052
1056
1058
1056
1056
1058
1058
1058
1061
1061
1062
1063
1063
1063
1063
1063
1063
1063
1062
1059
1057
1054
1050
1049
1046
1045
1043
1041
1037
1029
1024
1020
1015
1010
1004
1001
1001
998
997
992
988
984
982
977
975
972
969
970
974
970
973
972
971
968
968
964
964
964
967
967
967
970
971
970
972
972
970
970
974
973
972
972
972
972
975
977
979
978
977
977
976
974
974
975
974
974
975
976
976
977
975
976
974
973
972
973
975
974
975
974
974
972
970
968
966
963
963
965
967
970
972
972
970
970
968
967
963
963
962
963
962
964
964
966
962
964
961
960
961
959
958
958
960
959
961
962
961
963
961
961
960
958
957
958
955
956
958
958
960
961
961
959
959
957
956
957
959
960
963
962
961
961
960
960
957
957
958
959
960
964
965
966
964
962
960
958
961
962
961
964
964
966
966
967
967
964
964
965
964
964
965
967
969
968
969
972
974
975
973
973
978
978
981
984
986
988
992
993
991
989
989
987
984
984
982
981
979
977
974
972
967
966
965
965
962
958
955
954
952
953
955
955
956
956
952
953
949
949
946
950
950
953
955
954
954
955
954
952
953
952
953
955
957
959
961
962
962
961
965
965
968
973
987
1009
1036
1068
1107
1151
1195
1237
1266
1280
1269
1236
1182
1112
1031
946
866
799
761
762
789
829
873
911
942
964
977
980
980
978
972
971
967
967
967
970
973
973
979
979
982
982
983
983
979
978
984
985
988
991
989
991
992
994
996
996
996
998
999
998
1001
1003
1004
1006
1009
1010
1013
1017
1017
1019
1020
1019
1020
1025
1027
1033
1035
1042
1043
1045
1050
1047
1049
1051
1051
1055
1058
1062
1066
1070
1069
1068
1069
1066
1066
1067
1067
1069
1071
1070
1072
1072
1068
1067
1064
1059
1055
1053
1049
1045
1038
1033
1029
1023
1020
1014
1007
1001
998
994
987
981
978
977
976
976
976
972
970
966
966
964
961
963
961
963
965
967
966
966
963
963
961
963
963
964
967
967
969
969
968
967
967
968
968
967
967
965
968
968
968
969
969
967
967
968
968
966
965
963
966
966
964
968
966
966
963
962
961
960
954
953
956
958
956
956
959
958
957
954
952
953
951
954
954
955
954
955
954
953
951
951
949
951
951
951
951
951
952
954
951
953
952
950
948
949
946
948
948
946
948
950
952
951
948
949
949
947
946
946
944
946
949
950
952
954
948
946
947
945
946
945
950
953
956
958
960
963
962
963
966
968
971
973
976
979
981
980
977
978
977
975
974
972
970
969
965
962
960
959
957
956
955
953
950
946
941
938
939
936
940
941
943
943
940
940
940
938
938
938
938
938
941
944
944
944
942
942
940
940
939
941
943
945
946
947
949
950
952
953
954
960
970
987
1013
1043
1077
1119
1163
1207
1244
1268
1269
1249
1201
1130
1045
949
858
780
737
730
750
791
834
875
909
933
951
959
964
967
965
963
962
963
964
965
965
967
968
970
971
973
973
974
975
977
973
974
976
976
978
980
981
984
986
985
985
983
984
985
985
985
992
995
999
998
1001
1003
1001
1003
1004
1006
1010
1012
1016
1018
1021
1022
1023
1028
1030
1031
1033
1037
1038
1043
1045
1049
1052
1052
1054
1056
1056
1056
1056
1056
1057
1056
1059
1058
1058
1060
1060
1060
1057
1056
1054
1050
1046
1043
1042
1042
1039
1035
1032
1027
1023
1018
1010
1004
999
993
991
987
987
986
982
980
978
971
966
964
963
962
963
963
962
962
960
958
956
955
953
953
954
955
955
953
956
956
957
958
956
958
959
956
954
958
957
959
962
961
962
960
961
960
959
959
961
961
960
958
959
960
964
963
962
962
960
960
958
957
958
959
959
960
958
959
957
954
953
952
951
952
955
956
957
956
954
955
952
950
951
949
949
947
948
952
949
950
948
949
949
948
948
947
949
949
948
946
946
944
945
951
951
952
949
948
946
947
947
948
948
949
953
954
953
950
948
947
945
946
947
949
951
951
953
951
951
949
947
948
947
949
953
956
960
963
964
964
963
966
966
971
973
975
976
979
979
978
977
976
974
974
972
971
970
966
964
962
962
960
961
961
959
955
952
948
945
942
942
941
943
945
946
947
947
946
942
940
941
940
942
944
945
948
950
952
946
946
946
942
947
946
950
951
955
957
958
962
965
979
992
1018
1050
1088
1132
1176
1218
1249
1266
1263
1234
1185
1119
1043
961
878
806
759
742
759
795
840
884
916
939
953
960
962
962
962
963
964
967
969
970
967
967
968
969
969
970
970
977
978
980
980
980
977
979
977
980
981
984
987
991
994
995
995
994
993
992
994
993
997
997
1002
1003
1004
1006
1007
1009
1010
1013
1014
1018
1022
1024
1027
1031
1031
1035
1036
1040
1044
1043
1045
1046
1049
1053
1055
1058
1060
1061
1062
1062
1061
1062
1059
1059
1058
1057
1058
1060
1060
1059
1057
1056
1053
1047
1044
1041
1037
1036
1033
1028
1025
1024
1019
1014
1007
1003
997
992
990
987
984
984
982
978
977
973
972
967
963
963
963
962
963
962
964
964
964
963
961
960
960
954
959
959
960
961
961
961
961
962
962
961
960
960
960
961
961
963
964
965
965
964
963
964
963
959
958
959
962
962
964
965
965
964
962
962
961
957
959
958
960
961
962
964
963
961
959
957
955
955
953
953
957
958
956
957
958
954
953
952
952
950
951
951
953
955
955
954
955
954
952
951
951
950
949
951
952
952
953
954
955
954
953
952
952
950
949
951
950
949
952
952
954
954
953
953
951
950
949
950
951
950
956
956
956
954
952
951
949
947
949
952
954
952
955
956
954
955
955
955
955
956
959
963
964
970
970
970
972
972
975
976
978
978
977
976
975
972
976
969
968
964
962
958
956
955
954
953
953
951
950
947
944
943
941
941
941
939
939
941
941
941
941
942
944
945
942
937
935
937
938
940
944
944
946
950
949
948
947
951
951
952
959
960
971
986
1008
1035
1067
1106
1151
1190
1226
1243
1241
1217
1170
1104
1025
938
856
796
767
772
803
844
885
925
952
968
974
972
969
965
963
961
961
962
964
967
969
971
974
972
976
973
973
973
973
971
971
976
977
981
982
983
983
983
985
986
986
988
988
992
993
994
997
999
1002
1004
1004
1006
1007
1009
1008
1011
1014
1019
1023
1024
1029
1030
1033
1035
1035
1035
1038
1041
1045
1051
1055
1056
1059
1059
1058
1059
1060
1058
1059
1060
1061
1061
1063
1064
1062
1059
1060
1058
1058
1052
1051
1050
1041
1038
1036
1030
1025
1019
1015
1010
1004
999
992
989
986
983
981
979
975
974
970
969
966
964
958
957
958
958
957
961
961
958
957
956
955
955
955
951
958
960
962
962
962
961
960
959
957
959
956
958
962
963
961
962
963
961
962
962
958
958
959
960
961
960
962
960
961
960
957
958
957
957
954
955
955
957
958
958
959
958
958
952
952
950
948
948
949
951
952
953
953
952
951
949
948
948
945
946
948
949
950
951
950
950
948
945
942
941
942
943
947
952
951
950
948
948
946
947
945
944
943
946
950
949
947
949
949
950
949
949
949
948
944
947
949
950
950
952
954
955
956
959
959
960
960
963
964
968
970
974
975
975
976
973
970
969
967
969
968
966
968
966
964
961
958
953
953
948
947
947
944
943
942
942
942
941
939
939
937
934
935
937
940
940
940
940
941
942
939
939
938
940
939
940
942
941
942
944
948
946
946
947
949
950
952
959
967
980
1000
1027
1056
1092
1131
1171
1204
1229
1241
1230
1198
1142
1071
990
910
837
784
758
763
789
824
863
897
924
943
958
961
963
962
959
958
957
958
959
962
967
970
971
973
971
970
969
968
971
974
975
976
979
980
982
983
984
984
986
987
987
987
989
991
995
997
999
1000
1003
1005
1008
1005
1006
1007
1010
1014
1018
1022
1025
1028
1030
1030
1032
1034
1035
1038
1040
1046
1049
1052
1053
1056
1058
1055
1056
1055
1055
1055
1060
1060
1061
1062
1060
1059
1057
1056
1055
1053
1052
1049
1048
1046
1042
1040
1037
1032
1027
1022
1018
1010
1005
999
994
992
991
989
987
984
983
978
976
972
972
967
966
966
968
967
970
966
966
963
961
961
962
960
960
962
961
968
964
965
964
967
965
965
964
965
966
968
969
968
969
971
969
969
969
969
967
969
968
969
970
968
967
972
970
970
969
965
965
964
965
963
965
965
965
964
966
963
962
961
957
957
957
959
962
962
962
961
959
955
952
953
953
953
951
956
956
956
958
955
952
954
952
952
951
951
951
951
953
953
950
951
954
951
953
950
950
949
951
952
954
954
955
956
956
955
953
951
949
950
950
950
951
956
956
959
960
962
961
962
963
966
968
973
976
979
981
983
983
982
980
979
976
976
975
972
973
974
972
968
967
964
959
958
957
956
954
953
950
948
948
947
947
947
946
947
944
945
945
944
945
946
950
950
952
950
947
946
946
944
947
949
952
955
955
955
957
954
954
954
958
965
973
989
1011
1041
1077
1118
1160
1202
1240
1265
1273
1252
1213
1149
1071
991
906
830
775
751
754
780
819
863
901
933
954
969
974
975
975
972
968
967
967
969
971
974
976
977
980
982
983
984
982
978
980
981
982
986
990
991
994
996
994
993
993
994
993
993
997
1000
1004
1006
1007
1008
1007
1010
1010
1012
1014
1015
1018
1020
1023
1024
1029
1031
1035
1038
1041
1042
1045
1047
1049
1052
1055
1058
1062
1065
1067
1065
1068
1064
1065
1064
1065
1065
1067
1070
1071
1071
1069
1068
1065
1059
1058
1050
1053
1050
1047
1047
1044
1039
1034
1026
1018
1012
1007
1001
999
995
994
990
987
984
981
976
972
968
969
967
966
964
964
967
967
967
965
963
961
962
962
964
963
964
963
963
967
966
964
964
963
966
965
964
962
966
967
969
968
970
970
971
968
966
964
963
966
964
966
967
971
970
969
968
966
964
964
961
964
965
963
966
965
966
965
959
960
959
960
958
957
960
960
960
960
961
960
956
957
956
955
956
956
957
958
959
958
959
957
955
954
955
952
951
952
952
953
956
955
956
956
956
953
953
952
951
950
952
950
952
953
954
954
954
953
950
949
949
949
952
952
955
957
957
960
961
960
959
961
963
964
969
970
973
977
978
978
978
977
978
976
975
976
974
973
973
973
972
968
963
960
959
958
957
955
953
950
950
948
944
945
946
945
947
945
942
943
942
943
944
948
948
946
947
945
945
944
944
942
945
949
948
950
951
951
950
950
952
951
951
952
955
960
966
979
993
1018
1047
1083
1124
1171
1218
1259
1286
1290
1273
1227
1158
1070
970
872
787
736
724
749
794
845
894
933
961
975
979
982
975
970
967
966
970
970
974
978
982
982
983
983
982
979
980
982
983
986
988
990
993
994
995
993
991
993
996
995
998
1004
1005
1007
1007
1007
1007
1008
1009
1012
1013
1015
1018
1020
1023
1027
1027
1032
1031
1034
1035
1038
1041
1043
1047
1050
1054
1057
1059
1062
1062
1064
1063
1064
1064
1064
1066
1068
1069
1071
1072
1071
1071
1069
1068
1066
1065
1062
1061
1061
1060
1059
1056
1054
1048
1044
1034
1030
1024
1017
1014
1012
1008
1005
1001
996
991
988
980
979
976
975
976
976
976
976
974
970
971
969
968
969
968
971
970
969
967
969
969
970
970
970
969
968
968
968
969
971
973
974
975
975
976
972
974
975
971
972
972
972
975
974
977
978
978
977
974
974
972
971
972
974
978
978
978
976
973
974
972
970
968
967
969
969
969
972
971
971
968
967
963
962
963
964
964
965
967
967
966
965
963
963
961
961
958
960
961
963
963
962
961
960
960
958
957
957
956
955
957
960
960
962
961
963
961
959
958
957
956
958
957
958
961
961
960
959
960
959
958
956
955
956
957
959
964
966
968
963
960
960
958
958
958
959
963
967
966
969
971
973
975
975
976
975
978
979
984
983
987
988
990
988
986
984
983
982
981
979
979
977
975
972
969
969
967
965
964
960
957
957
953
955
956
959
962
963
964
964
962
963
963
967
970
976
980
984
987
990
992
994
997
1000
1006
1012
1020
1032
1042
1052
1061
1068
1073
1074
1082
1087
1095
1114
1139
1173
1207
1248
1287
1328
1355
1371
1359
1325
1269
1190
1097
1000
914
851
819
818
835
865
898
923
940
954
960
961
961
959
956
957
954
952
952
951
953
954
958
961
961
962
962
961
959
958
957
958
956
959
961
962
961
962
960
962
958
957
956
957
958
957
960
960
961
962
961
963
962
961
963
962
964
964
962
963
965
968
969
971
969
970
970
968
968
969
968
972
972
979
979
979
980
979
978
977
976
981
982
985
986
988
989
991
989
990
990
986
985
987
984
986
987
984
981
981
977
976
975
974
970
970
970
970
969
968
966
965
967
966
966
963
963
961
963
962
964
963
963
965
965
966
966
964
962
961
962
963
964
967
968
968
968
967
965
964
963
964
966
966
969
970
970
967
967
964
966
966
964
965
966
967
966
970
968
968
968
968
965
967
963
964
964
966
966
968
967
966
966
964
963
962
962
962
960
959
961
964
963
962
963
962
959
960
955
957
958
961
961
965
965
966
964
960
959
956
957
957
956
957
959
960
957
957
955
953
951
952
951
950
952
952
954
951
951
952
951
950
951
951
955
955
956
958
960
959
958
959
958
956
956
957
956
953
953
955
955
958
959
961
963
963
964
967
965
966
971
973
977
981
982
985
987
988
988
985
986
985
986
988
989
991
989
988
985
980
974
970
969
967
969
968
969
965
967
963
958
957
958
960
961
962
964
964
970
972
975
977
980
980
984
987
989
993
998
1000
1007
1016
1022
1034
1043
1048
1054
1061
1068
1072
1076
1083
1089
1103
1120
1145
1177
1215
1258
1298
1336
1357
1362
1343
1298
1231
1140
1044
947
867
819
807
821
853
893
929
956
973
979
976
970
965
959
958
959
959
965
970
969
970
971
971
970
968
966
965
965
965
966
965
968
970
970
971
970
968
967
965
963
963
965
969
969
972
971
970
969
972
972
972
972
973
976
976
980
979
979
979
977
978
978
977
979
979
981
981
984
985
987
986
989
989
991
992
990
993
993
998
995
1000
1001
1003
1003
1007
1004
1003
1004
1000
1001
1002
1002
1002
998
999
995
990
984
983
979
980
981
980
980
981
979
979
978
972
975
973
971
970
969
970
970
973
973
970
970
971
967
971
970
968
970
974
971
973
975
977
979
976
975
972
971
971
971
973
978
978
979
981
979
978
976
974
972
971
972
978
980
980
981
980
978
975
974
974
975
974
978
977
978
981
978
978
977
976
976
976
975
974
972
973
974
974
972
972
973
974
973
971
969
964
965
969
967
972
972
972
973
970
967
967
965
962
965
966
969
970
969
970
967
970
966
965
966
965
968
968
969
969
969
969
967
967
965
966
965
962
964
963
966
967
964
968
967
965
965
965
963
962
965
965
965
968
967
968
968
967
966
967
967
966
967
967
970
974
974
978
978
982
980
980
980
981
984
988
992
998
999
998
997
990
991
990
989
986
989
987
987
986
980
980
974
974
973
972
969
967
965
963
962
962
962
962
964
964
966
965
969
969
972
973
977
980
983
987
989
992
994
998
1000
1004
1012
1019
1029
1040
1052
1062
1071
1079
1082
1085
1090
1099
1114
1136
1168
1208
1251
1296
1332
1356
1359
1344
1311
1255
1181
1094
996
899
828
793
800
831
872
915
950
972
977
977
971
965
960
956
955
958
959
960
962
960
961
961
960
963
967
967
969
967
965
964
963
963
963
964
967
968
971
970
970
968
965
964
964
963
964
966
968
970
969
970
970
968
968
966
967
968
970
972
975
977
974
977
980
979
976
978
982
981
983
986
985
988
991
991
994
991
992
991
991
991
994
995
997
999
1000
1001
1000
996
993
992
988
988
987
989
988
987
984
983
978
975
970
969
968
967
967
967
967
966
967
965
964
962
963
958
961
959
959
960
960
962
962
963
961
959
959
959
957
957
957
959
962
964
966
965
965
964
964
962
962
961
961
966
966
967
966
964
965
963
962
963
961
960
960
963
963
965
964
964
963
963
962
962
961
956
961
960
960
962
961
963
962
963
959
960
958
955
956
956
956
958
962
963
962
958
958
958
954
954
953
955
955
960
960
960
957
956
952
952
951
953
954
955
