975
974
976
977
981
981
985
986
989
986
986
987
987
990
990
990
993
995
995
996
998
997
1000
1000
997
999
999
999
1000
1003
1005
1007
1009
1010
1009
1008
1004
1002
999
997
996
994
994
994
992
992
990
988
986
981
981
979
978
982
983
983
983
985
979
980
977
977
977
979
980
983
982
985
984
984
983
982
982
981
982
982
983
984
983
989
989
989
989
986
985
984
984
983
986
984
986
989
988
989
989
988
986
986
986
986
986
989
986
989
986
990
986
984
984
984
980
982
984
984
987
988
986
987
986
985
983
982
981
982
982
986
985
986
984
986
983
982
980
980
979
979
981
982
984
986
986
986
986
984
982
980
982
979
980
982
981
981
982
982
982
981
981
979
976
977
978
978
979
981
982
982
981
979
980
977
975
975
976
975
976
976
977
979
978
976
976
975
976
977
977
980
981
984
983
983
984
986
987
990
991
993
997
996
998
999
1001
1004
1007
1004
1009
1010
1010
1008
1008
1007
1007
1008
1008
1006
1003
1001
997
992
993
991
992
989
989
988
985
983
981
981
978
979
981
985
987
991
996
999
999
1001
1004
1006
1009
1014
1019
1024
1030
1036
1042
1050
1057
1064
1071
1080
1088
1094
1098
1101
1108
1119
1133
1155
1186
1222
1268
1311
1355
1388
1406
1407
1387
1344
1277
1195
1098
999
915
853
826
830
857
891
924
955
975
986
993
993
988
984
979
975
974
976
977
981
983
986
988
987
988
985
983
982
985
986
984
985
985
986
988
988
985
985
985
986
986
985
987
987
991
992
990
990
990
990
989
986
989
987
989
990
992
993
994
995
996
995
995
998
999
1000
1001
1004
1005
1009
1013
1014
1014
1012
1011
1011
1012
1010
1013
1014
1015
1018
1023
1027
1027
1027
1026
1024
1024
1023
1026
1028
1027
1026
1024
1023
1017
1014
1011
1009
1008
1007
1005
1007
1007
1007
1005
1004
1002
1002
1000
1001
999
1001
1000
997
999
1003
1002
1003
1004
1003
1001
1000
1000
998
1000
1000
1002
1004
1009
1009
1008
1010
1009
1007
1004
1004
1004
1005
1009
1011
1014
1014
1012
1012
1011
1009
1008
1005
1006
1010
1011
1011
1013
1013
1013
1011
1009
1007
1007
1008
1009
1009
1008
1009
1006
1011
1009
1006
1004
1005
1006
1003
1005
1005
1004
1005
1007
1005
1006
1004
1001
999
998
996
996
997
1000
1002
1002
1003
1003
1003
999
1001
1000
1000
1001
1002
1004
1007
1007
1008
1006
1002
1000
1000
1000
1001
1004
1005
1005
1006
1004
1007
1006
1006
1004
1003
1000
996
999
998
1001
1002
1002
1002
1003
1003
1001
1001
1003
1001
1000
1002
1002
1002
1005
1005
1005
1006
1005
1003
1002
1002
1001
1006
1007
1013
1015
1018
1018
1022
1021
1019
1020
1021
1023
1026
1028
1034
1035
1036
1031
1031
1027
1023
1021
1021
1020
1020
1020
1017
1014
1015
1011
1008
1005
1002
1004
1000
998
996
996
997
998
997
1001
1002
1001
1002
1007
1007
1008
1010
1012
1017
1019
1025
1031
1035
1039
1038
1043
1047
1055
1065
1075
1087
1096
1106
1113
1115
1122
1130
1143
1166
1194
1229
1270
1315
1355
1387
1405
1403
1383
1342
1283
1204
1115
1020
937
878
855
860
882
914
946
972
989
997
997
995
992
989
988
986
989
989
991
991
990
992
991
992
995
997
996
993
994
997
995
994
993
993
994
994
993
995
994
997
998
996
996
994
992
993
990
991
991
995
996
996
997
998
994
991
993
994
995
998
999
1004
1006
1011
1010
1009
1010
1008
1008
1009
1013
1016
1019
1021
1022
1023
1022
1023
1024
1025
1026
1026
1027
1031
1031
1030
1032
1036
1035
1035
1032
1032
1030
1030
1025
1023
1022
1018
1018
1017
1017
1014
1013
1011
1009
1005
1004
1006
1005
1006
1006
1008
1007
1007
1006
1003
1001
998
1000
1002
1004
1004
1007
1006
1004
1004
1001
999
1000
1000
1000
1003
1004
1004
1005
1002
1004
1004
1002
1000
999
1000
1001
1003
1004
1004
1005
1004
1005
1006
1004
1003
1001
1000
1000
999
1000
1002
1002
1003
1001
1001
1000
1000
1000
1001
1000
1001
1001
1003
1002
1001
1001
1001
1001
998
995
995
995
995
995
996
996
997
996
997
994
993
991
990
990
992
993
995
996
997
992
990
990
987
988
987
988
990
991
990
990
990
989
987
987
985
985
985
984
985
986
990
990
989
990
988
988
986
988
985
987
987
988
989
990
990
991
991
990
989
987
985
985
985
987
985
988
989
989
989
987
985
981
980
978
978
978
985
986
986
985
987
986
980
980
980
980
980
985
985
986
985
984
984
981
982
981
982
981
985
986
989
993
994
994
997
996
996
998
999
1002
1003
1007
1008
1012
1012
1012
1011
1009
1007
1005
1002
1002
1000
999
998
1000
997
996
995
992
988
986
984
981
984
982
981
978
980
980
979
981
981
981
982
985
985
990
994
997
999
1003
1005
1007
1006
1012
1015
1018
1023
1030
1038
1045
1051
1060
1070
1074
1079
1085
1091
1098
1108
1122
1143
1172
1200
1233
1269
1298
1323
1339
1343
1328
1299
1251
1189
1118
1039
965
903
862
851
860
883
914
940
961
974
979
980
975
970
967
964
963
966
968
970
968
971
972
970
972
973
972
972
969
969
969
968
968
969
968
973
971
971
972
970
970
968
966
966
966
968
970
972
972
973
970
969
967
968
966
969
970
972
973
978
977
978
976
975
976
975
978
980
983
986
987
988
989
990
990
989
989
990
991
992
996
995
999
998
1000
998
997
999
997
999
999
999
1002
999
999
997
999
998
995
993
991
988
985
984
984
986
983
980
982
982
980
980
977
977
975
974
975
976
975
973
976
975
976
972
971
971
969
970
970
968
973
972
974
973
973
972
969
965
968
971
972
975
976
975
975
976
974
974
972
975
973
976
978
980
979
979
979
980
976
976
976
975
974
975
975
976
978
975
975
976
973
970
971
972
969
971
974
972
973
972
969
970
967
965
968
967
968
967
968
968
969
969
969
968
967
966
967
966
961
963
963
964
966
966
968
964
966
964
963
960
962
961
962
964
967
965
967
968
964
962
960
960
960
960
961
964
966
965
966
965
963
959
959
958
961
961
962
961
964
964
962
962
963
961
960
960
960
961
961
960
961
962
963
959
958
959
959
959
959
962
960
961
964
963
963
963
962
963
961
959
957
957
959
959
961
964
964
963
962
960
960
958
958
958
959
960
964
963
966
966
964
964
965
963
965
969
975
976
979
982
983
984
982
985
985
986
986
987
986
986
985
984
983
983
980
976
974
971
969
969
970
970
970
967
966
964
963
961
960
958
959
963
966
968
973
975
978
980
981
982
985
986
989
997
1003
1009
1016
1020
1024
1029
1037
1042
1049
1057
1063
1074
1082
1090
1103
1116
1137
1161
1187
1216
1246
1269
1290
1298
1289
1266
1228
1176
1111
1041
968
913
877
863
866
881
903
924
941
952
956
956
954
951
952
950
949
950
952
954
957
958
959
958
954
954
955
954
955
956
955
956
961
961
962
961
959
961
958
957
956
959
962
961
961
964
964
961
963
960
961
960
959
960
958
958
962
962
964
965
965
966
966
968
967
967
971
972
975
976
980
981
977
979
976
975
976
976
981
984
986
988
989
988
988
985
988
987
987
987
992
991
990
989
990
986
982
978
975
977
975
975
976
975
974
972
975
970
968
968
966
965
965
964
966
966
963
963
966
965
965
963
963
964
964
964
966
967
966
966
964
964
964
967
967
968
967
970
970
969
971
969
968
968
971
971
969
969
969
970
968
971
974
973
973
973
973
971
969
969
967
970
970
970
970
970
972
972
971
969
967
968
965
968
967
970
971
971
971
967
965
965
963
963
963
963
964
965
964
962
962
963
962
961
961
961
962
962
964
962
961
961
962
961
960
959
959
957
958
957
959
960
958
960
962
963
960
960
958
957
956
956
959
959
961
960
963
962
958
958
955
952
955
954
955
957
960
954
956
956
955
956
956
955
955
955
958
958
957
959
958
960
958
954
953
954
956
953
955
956
955
958
956
958
955
957
958
956
956
955
955
957
959
962
963
966
969
970
970
970
970
970
972
977
979
983
984
981
985
983
981
978
976
976
975
972
975
974
972
970
965
964
959
961
959
959
961
959
957
958
956
954
955
955
957
957
959
961
963
964
967
971
973
976
977
982
984
987
992
997
1000
1009
1016
1024
1030
1038
1050
1057
1065
1069
1077
1089
1106
1129
1160
1192
1228
1261
1287
1305
1306
1290
1255
1204
1141
1067
990
919
870
842
841
857
880
908
926
941
949
951
953
951
948
946
943
942
941
942
941
943
945
946
947
947
949
949
949
949
948
948
949
949
950
950
953
954
957
954
954
953
952
950
950
950
951
951
956
957
958
957
956
954
956
957
957
961
960
965
968
969
970
971
970
966
966
968
970
971
977
977
978
980
983
983
983
981
983
981
982
983
983
982
984
987
989
990
989
986
984
980
980
975
976
977
977
976
975
972
971
966
967
963
963
964
966
967
969
968
967
963
960
958
960
957
958
959
960
961
963
962
963
963
961
961
959
961
960
962
957
961
960
962
965
965
965
965
962
965
964
961
964
966
968
968
970
970
967
967
965
965
964
966
967
964
969
965
968
969
968
967
966
964
965
964
967
967
967
969
967
969
965
964
963
962
961
962
962
963
966
966
965
965
964
962
959
959
960
960
961
963
964
964
964
962
963
961
959
958
959
961
961
962
963
965
964
965
963
961
957
955
959
961
960
960
961
963
964
965
963
962
960
959
960
960
961
961
965
962
962
962
962
961
960
960
961
959
959
960
959
962
962
961
961
961
957
960
961
960
961
960
961
961
961
961
959
960
959
959
961
962
962
964
966
967
969
972
973
972
974
975
974
976
981
984
984
988
992
990
991
992
991
990
989
987
987
985
982
984
982
980
979
975
971
967
967
969
969
968
969
967
966
963
960
959
960
962
962
964
970
972
976
978
983
986
991
992
993
998
1001
1006
1013
1018
1024
1033
1042
1050
1059
1069
1074
1080
1084
1093
1103
1118
1138
1162
1189
1216
1242
1266
1280
1286
1282
1258
1224
1176
1120
1053
988
927
884
866
870
885
906
928
946
959
962
965
962
959
955
953
952
954
955
954
956
957
959
960
960
959
957
958
959
957
956
958
959
960
962
963
963
963
963
961
959
957
957
955
956
960
962
962
963
967
965
964
964
963
962
961
966
970
972
975
974
977
976
974
975
975
976
979
983
984
989
991
990
991
990
990
989
990
990
992
992
994
991
994
995
995
997
996
993
989
989
989
989
988
989
988
986
985
984
982
979
978
974
973
973
973
973
972
973
972
971
969
967
965
965
963
967
967
971
969
972
971
969
968
964
964
964
964
965
967
969
971
972
973
972
970
970
969
968
967
968
970
974
974
976
977
976
977
975
974
975
974
971
975
974
976
977
973
972
972
970
967
968
969
972
974
973
973
972
972
972
971
968
968
966
966
966
966
968
968
968
969
967
965
964
961
961
959
961
963
967
968
969
967
968
967
962
962
964
963
966
969
968
969
969
967
965
964
962
961
964
962
963
964
966
965
964
965
967
965
966
966
966
965
965
965
969
966
970
968
965
965
963
965
964
964
964
964
965
967
968
966
970
968
965
964
963
961
959
962
964
967
967
968
966
963
963
964
963
963
964
964
969
970
972
974
973
972
972
971
976
978
979
983
986
989
991
992
992
992
992
991
994
993
993
994
991
993
991
987
985
984
980
980
977
979
979
975
975
975
974
973
972
968
967
967
967
968
969
971
974
979
981
983
986
986
987
990
992
996
1000
1006
1012
1017
1021
1027
1031
1039
1045
1052
1062
1066
1074
1087
1094
1107
1119
1142
1165
1193
1224
1259
1285
1310
1321
1317
1296
1256
1193
1122
1044
964
901
861
851
860
883
908
932
950
963
970
970
967
966
964
961
958
962
962
963
966
967
967
969
970
969
969
967
967
967
968
969
968
968
970
970
967
964
964
962
962
963
966
970
972
972
973
972
969
969
967
965
968
969
972
974
975
977
978
980
978
976
975
976
977
980
981
984
986
987
989
990
988
990
989
991
991
990
993
994
995
997
1000
1001
1001
1002
1000
999
999
998
998
1001
1003
1000
1000
997
995
993
989
984
985
984
986
987
986
986
985
982
978
977
976
975
973
976
980
978
979
980
980
979
974
972
977
976
976
978
979
980
983
982
983
980
980
979
980
978
977
980
981
979
986
986
985
984
986
984
979
980
981
981
984
984
984
985
988
986
984
985
983
981
981
982
982
985
984
985
984
986
980
981
979
977
978
979
977
980
983
984
982
981
978
977
974
974
971
973
975
978
980
978
978
975
978
976
974
972
972
972
972
971
976
976
976
976
972
970
972
972
972
972
972
973
975
975
977
976
976
974
972
972
968
969
970
974
976
976
977
978
975
976
975
972
973
973
975
976
980
980
985
983
980
980
977
977
976
980
981
985
988
990
990
991
991
992
992
995
995
1000
1004
1007
1007
1011
1010
1010
1009
1009
1007
1006
1005
1006
1005
1003
1003
999
1001
998
994
992
988
987
988
987
987
986
982
982
981
980
979
980
979
981
982
983
986
988
993
996
999
999
1002
1006
1007
1010
1012
1019
1022
1025
1035
1042
1048
1057
1063
1072
1077
1085
1091
1101
1109
1122
1137
1158
1184
1212
1240
1270
1295
1314
1324
1317
1298
1257
1204
1139
1066
991
930
887
871
874
891
914
939
958
972
979
980
976
973
969
971
970
968
972
973
975
976
976
977
978
976
978
976
975
974
975
977
978
980
981
980
981
981
979
976
976
974
974
978
978
980
984
983
984
982
982
981
978
979
981
984
986
989
990
992
991
992
992
992
990
993
993
998
997
1003
1002
1005
1003
1004
1002
1002
1004
1002
1000
1007
1007
1006
1006
1008
1008
1009
1010
1008
1008
1008
1008
1009
1008
1006
1008
1004
1006
1005
1000
998
996
993
993
994
993
992
993
991
989
989
986
982
982
981
983
984
987
989
990
989
990
987
985
981
982
983
983
986
989
988
989
990
986
983
985
984
986
984
986
988
987
989
989
989
989
991
989
987
987
987
989
989
988
990
992
992
992
988
988
987
985
982
984
983
988
990
990
990
988
985
983
982
982
981
982
982
983
984
987
986
987
983
982
982
982
980
981
981
985
985
985
988
987
986
984
982
983
982
982
983
985
986
987
988
987
986
985
983
981
981
982
984
984
988
988
985
984
984
984
982
982
983
986
983
986
986
984
982
985
986
983
985
984
983
983
985
984
983
983
985
987
987
986
984
984
983
987
986
988
990
993
996
997
999
1000
1000
1000
1001
1004
1003
1008
1008
1011
1011
1012
1011
1011
1006
1005
1003
1001
1003
1003
1003
1002
1001
1000
997
992
990
991
989
987
989
990
990
991
991
992
993
994
992
995
996
1000
1004
1009
1013
1016
1019
1021
1022
1025
1029
1034
1038
1044
1051
1058
1066
1074
1082
1089
1096
1103
1107
1116
1124
1136
1153
1176
1202
1228
1254
1282
1300
1310
1309
1297
1266
1222
1168
1107
1043
984
942
915
905
913
926
942
957
970
979
984
988
990
988
983
984
984
983
980
983
985
985
988
989
990
990
987
986
985
984
983
985
986
987
989
988
990
987
985
985
986
986
988
987
989
987
987
988
985
985
987
986
986
985
986
985
987
987
988
990
992
994
992
994
994
994
995
994
996
1000
1000
1002
1003
1006
1006
1007
1007
1005
1007
1008
1007
1009
1011
1013
1016
1017
1016
1014
1016
1015
1016
1016
1016
1016
1015
1015
1016
1015
1013
1011
1008
1005
1004
1002
1002
1004
1002
1002
1002
1001
999
997
993
992
994
993
993
994
995
998
996
994
996
996
996
993
993
995
994
994
994
997
996
996
998
999
999
996
994
993
994
993
996
999
1002
1003
1003
1001
999
998
998
999
998
1000
1002
1004
1004
1004
1001
1001
999
999
998
997
1000
1000
1000
1001
999
1000
999
996
997
995
992
991
991
994
992
995
995
996
995
995
994
992
991
990
990
991
991
993
993
994
989
991
986
988
986
984
985
985
986
989
991
988
990
989
988
985
987
985
985
988
989
990
991
990
988
988
988
986
987
987
988
989
990
992
991
993
995
995
993
996
999
997
999
1003
1004
1008
1010
1012
1013
1015
1017
1016
1015
1015
1015
1013
1011
1013
1011
1008
1007
1003
1001
996
994
995
993
992
993
997
998
994
992
990
986
983
984
982
986
992
995
998
1002
1003
1007
1006
1008
1009
1014
1016
1021
1027
1032
1036
1042
1046
1053
1056
1063
1073
1078
1086
1094
1100
1107
1115
1125
1138
1160
1187
1218
1252
1289
1326
1355
1374
1378
1363
1327
1268
1191
1104
1009
927
870
842
844
863
894
928
953
973
981
986
982
979
975
971
971
974
978
980
982
981
980
975
977
977
977
975
978
978
978
980
979
979
979
979
977
978
977
977
979
981
982
982
983
984
984
981
980
981
978
980
982
981
981
982
984
984
983
984
985
984
984
986
987
989
990
993
996
997
999
999
1002
1001
997
999
999
1000
1002
1005
1007
1008
1009
1008
1006
1005
1004
1005
1005
1007
1009
1010
1011
1011
1011
1010
1006
1003
1002
999
998
998
998
997
997
993
993
991
987
983
981
982
981
980
981
983
981
981
980
981
979
978
979
976
976
976
975
978
977
979
981
979
978
976
976
977
977
978
980
980
982
983
984
982
982
980
979
978
978
979
981
982
983
986
986
985
985
984
982
979
979
978
983
985
984
986
981
980
976
977
977
975
977
977
981
983
982
980
981
979
977
973
973
973
975
975
976
977
977
977
977
977
976
972
974
975
974
975
975
976
978
977
977
975
974
968
968
967
967
967
968
970
972
970
