949
946
944
946
942
939
938
939
938
938
939
940
942
942
943
944
946
947
946
946
942
939
937
939
942
941
946
947
949
947
947
943
945
945
946
947
949
951
948
951
947
941
939
937
936
936
939
943
944
945
945
946
941
939
937
938
937
939
940
941
941
941
941
940
938
939
938
938
936
938
939
936
936
938
937
935
936
934
934
937
935
935
935
933
932
933
932
934
934
933
933
931
926
928
930
932
932
933
933
932
932
932
931
931
931
929
933
933
937
938
941
943
946
944
944
945
947
950
955
958
963
967
967
966
961
961
957
958
956
956
956
954
957
956
952
949
946
941
936
938
938
936
936
934
932
931
930
927
926
927
928
926
930
931
929
929
928
929
928
930
930
933
932
933
932
929
930
930
932
934
935
934
934
935
934
938
938
943
945
952
966
982
1007
1041
1079
1123
1168
1208
1243
1258
1253
1217
1157
1073
980
884
798
740
717
724
758
803
849
890
923
946
957
959
959
955
950
947
947
947
953
956
958
960
961
961
962
962
962
962
962
962
962
966
966
967
969
969
971
972
973
973
974
973
976
978
979
981
984
986
986
987
988
989
993
990
992
994
995
998
1004
1008
1009
1009
1008
1009
1012
1015
1017
1020
1024
1026
1031
1032
1030
1028
1032
1029
1028
1030
1033
1036
1037
1035
1037
1034
1033
1031
1027
1027
1026
1028
1026
1025
1024
1020
1014
1011
1005
1000
998
992
990
988
985
980
977
974
970
967
963
960
959
957
952
949
947
945
947
947
950
948
948
946
946
945
944
944
942
943
943
943
943
944
943
945
945
946
945
946
946
950
950
951
954
955
953
953
951
952
951
950
951
953
954
955
956
956
957
951
950
948
947
948
949
952
955
953
954
952
953
949
949
945
945
946
949
949
950
951
947
947
947
946
944
944
944
946
944
943
944
943
943
939
943
940
938
937
940
940
941
940
941
941
941
942
939
938
938
939
936
937
938
939
940
940
941
942
941
943
937
936
933
935
935
938
938
940
945
948
948
948
949
951
951
954
956
961
964
966
969
970
969
969
969
966
967
964
965
965
965
964
965
962
958
955
951
948
947
946
947
947
946
945
942
941
940
933
935
935
936
936
940
940
946
949
951
951
954
957
960
964
967
970
973
979
986
991
997
1005
1012
1019
1028
1038
1045
1052
1057
1063
1070
1082
1098
1120
1147
1180
1218
1259
1296
1327
1346
1343
1319
1268
1195
1111
1018
925
855
810
798
810
837
869
900
925
942
949
950
947
941
938
936
936
939
940
945
945
946
944
945
944
943
942
942
944
946
948
948
950
948
948
947
946
945
943
945
945
945
945
948
948
947
945
947
947
946
947
945
945
945
946
949
948
950
952
951
951
949
950
950
951
954
956
958
959
961
963
963
962
961
960
961
961
963
965
967
971
972
973
973
974
974
974
975
975
977
977
977
979
977
978
978
975
974
971
968
964
966
967
966
966
963
962
962
960
958
958
956
957
955
956
957
955
954
955
957
956
955
953
953
952
953
952
954
956
958
960
959
958
957
957
956
953
956
959
961
965
965
965
966
964
964
961
962
961
961
962
964
967
969
968
969
967
965
965
965
965
966
968
970
971
967
969
969
966
965
963
965
964
961
964
965
964
964
966
965
963
962
960
959
960
959
958
960
961
961
960
962
961
958
957
958
957
959
959
960
963
964
963
962
963
960
958
956
955
959
962
965
965
964
964
961
960
960
960
959
960
960
964
963
962
962
964
963
961
962
961
961
961
962
961
961
963
963
961
963
961
965
968
971
973
975
978
979
984
984
987
988
989
987
986
984
983
985
985
986
986
985
982
980
977
973
970
965
963
963
963
961
964
962
957
956
957
956
955
956
958
963
962
968
972
974
977
979
980
981
985
984
990
995
1003
1010
1017
1021
1028
1035
1043
1053
1061
1067
1076
1084
1090
1098
1113
1138
1166
1203
1240
1276
1306
1325
1327
1312
1277
1221
1153
1071
986
908
850
823
825
849
883
914
941
958
968
967
961
960
954
950
951
950
949
954
955
956
959
958
959
961
956
957
956
955
954
957
956
959
960
960
960
960
959
957
958
957
957
958
959
962
963
965
966
962
960
959
959
959
958
960
958
962
965
965
966
966
968
966
969
969
971
973
974
977
978
978
982
981
982
983
983
983
983
985
984
987
985
986
990
991
990
990
992
991
991
992
991
994
994
994
993
993
989
986
985
982
978
974
975
977
977
977
977
977
972
970
967
967
967
968
970
971
970
971
972
971
969
966
965
965
965
967
966
969
968
967
967
966
966
966
967
968
966
966
966
968
969
969
971
971
968
968
967
967
968
968
968
970
973
973
970
971
970
970
970
969
970
969
970
974
974
973
974
972
969
968
967
965
964
966
965
969
970
971
971
970
968
966
967
968
965
969
967
968
968
967
967
968
966
964
966
965
965
966
961
966
964
969
968
969
970
967
966
964
963
964
967
968
969
971
971
969
967
964
957
957
958
963
965
967
968
969
969
969
965
963
963
963
963
964
966
968
969
968
969
969
966
967
967
967
967
968
970
970
973
973
976
976
978
978
979
981
982
986
988
993
997
997
999
1002
1000
1000
997
997
998
998
998
998
998
996
993
991
986
984
980
979
978
977
977
977
981
978
976
973
975
973
973
971
972
977
979
983
985
989
989
991
996
998
999
1006
1008
1016
1019
1026
1034
1040
1047
1055
1060
1071
1077
1083
1088
1095
1102
1112
1127
1146
1175
1206
1242
1272
1300
1321
1329
1323
1300
1259
1202
1130
1050
974
908
867
849
860
880
907
933
955
971
976
979
974
969
964
962
962
965
967
970
972
971
974
972
972
970
971
970
970
973
974
974
975
977
975
975
973
972
970
970
975
973
973
975
977
975
974
975
974
972
972
971
970
970
970
970
970
975
978
978
978
981
978
979
979
976
981
982
984
986
988
986
987
987
988
985
988
989
991
992
994
996
999
999
1001
1003
1001
1000
1001
1003
1003
1006
1008
1010
1008
1011
1007
1005
1000
999
998
995
998
992
992
990
989
991
990
985
985
979
978
980
980
977
981
983
983
982
981
982
980
977
978
978
978
979
977
980
980
981
980
980
978
976
976
978
978
980
981
984
985
987
987
986
984
984
984
984
984
986
986
991
990
988
987
984
982
983
981
983
983
985
986
987
988
987
985
985
983
984
985
985
984
985
986
984
984
984
983
980
979
977
980
977
979
980
981
981
982
977
977
977
977
977
974
975
977
976
978
979
979
980
982
978
978
977
975
976
976
978
979
979
978
979
979
976
977
976
975
975
976
977
979
979
977
976
975
977
977
973
974
973
975
976
977
980
979
980
979
978
977
975
976
976
976
977
976
980
980
984
985
985
987
986
988
988
990
993
994
1000
1006
1007
1006
1005
1002
999
998
996
996
997
997
996
996
995
992
989
986
983
982
981
980
980
980
975
975
976
975
975
974
973
975
976
978
983
986
990
993
994
996
998
1003
1003
1006
1011
1016
1020
1027
1033
1040
1047
1052
1062
1066
1072
1076
1079
1088
1095
1106
1120
1139
1162
1189
1217
1247
1275
1298
1308
1313
1299
1268
1221
1158
1086
1008
939
891
868
863
877
897
924
944
960
973
978
979
979
975
969
968
966
964
966
969
972
973
976
975
974
972
971
971
968
968
968
973
973
976
975
976
974
974
972
970
972
973
973
976
973
973
978
976
976
975
973
975
974
975
975
979
979
980
981
981
982
983
982
982
983
983
984
983
986
988
988
988
990
990
988
991
988
990
991
991
993
995
997
998
1000
999
998
997
998
999
1001
1000
1002
1004
1005
1003
1001
1001
995
994
989
988
988
988
991
992
990
989
985
984
981
978
978
978
980
980
981
983
984
981
982
981
980
981
981
983
983
984
986
986
987
984
982
982
980
981
982
983
985
986
986
990
990
989
989
990
987
989
984
986
986
987
987
990
991
991
990
988
986
984
984
985
985
986
988
990
991
989
987
986
986
983
984
984
984
985
986
987
985
981
983
980
980
977
979
980
981
981
981
982
981
983
982
981
978
978
977
978
977
978
980
978
981
980
980
981
978
980
977
974
977
977
978
981
981
983
982
981
978
977
978
977
977
978
979
982
983
979
981
978
977
974
969
974
974
976
981
980
979
978
974
975
972
972
976
977
977
976
978
978
979
978
977
976
973
972
974
975
976
976
977
978
977
981
981
981
980
979
982
983
983
987
989
992
993
997
999
998
1000
1000
999
1002
1003
1006
1007
1006
1005
1004
999
996
995
988
987
988
985
985
985
986
986
985
983
978
974
975
974
974
973
971
975
979
979
983
983
982
982
988
988
991
994
1000
1003
1007
1010
1016
1017
1023
1029
1034
1042
1050
1058
1069
1079
1087
1092
1100
1103
1113
1128
1146
1171
1198
1230
1259
1282
1290
1286
1263
1227
1172
1109
1043
973
917
879
864
871
888
913
936
956
970
975
977
971
969
967
967
968
968
972
974
973
972
972
974
972
973
974
975
975
978
978
977
978
976
976
975
974
972
973
973
975
977
978
979
977
975
976
976
974
971
975
975
977
979
983
984
983
982
980
978
980
981
985
985
991
991
994
995
994
995
994
994
994
994
996
997
999
1003
1002
1002
1002
1001
1002
1000
998
1000
1002
1005
1006
1007
1006
1009
1007
1006
1004
1003
1001
999
998
1000
996
997
994
993
989
990
988
984
984
983
982
981
982
981
982
982
983
982
979
979
979
976
978
977
977
979
981
982
980
980
977
975
974
973
977
978
980
979
982
985
984
982
980
978
980
980
979
983
982
985
985
986
984
984
982
983
980
980
980
983
985
987
987
985
984
983
980
980
978
980
979
983
984
984
984
983
982
979
978
980
978
978
979
978
979
979
980
977
978
979
975
974
972
974
973
973
975
975
973
977
974
976
974
974
972
969
973
975
972
973
974
976
976
974
976
973
971
969
970
971
976
978
977
979
978
978
975
973
974
972
976
977
978
978
980
976
974
976
976
975
974
973
975
973
973
977
975
975
975
972
973
970
968
970
972
973
974
972
974
973
973
973
973
974
970
971
972
974
973
976
979
982
984
985
984
985
985
984
987
990
992
997
1000
1002
1004
1002
1001
997
993
991
994
996
996
996
992
990
986
983
980
980
979
978
977
980
978
973
970
971
970
969
969
971
972
974
977
979
983
985
988
991
995
998
998
1001
1004
1007
1011
1016
1023
1029
1037
1045
1053
1063
1068
1074
1078
1082
1088
1098
1110
1130
1161
1190
1224
1260
1293
1319
1337
1340
1328
1294
1244
1177
1101
1021
944
881
846
837
848
873
903
927
950
965
973
976
974
968
964
962
962
962
963
967
966
966
967
966
967
966
965
967
967
968
968
968
969
968
969
971
968
968
969
969
970
967
967
969
969
972
969
970
972
970
969
968
966
967
966
965
967
973
974
974
974
972
973
971
973
973
973
977
977
981
982
982
982
981
981
980
982
983
983
986
987
989
992
993
991
990
990
992
993
995
997
998
1003
1002
999
1000
999
995
992
990
987
982
984
984
985
985
983
982
980
980
978
978
977
976
973
973
973
972
973
975
974
973
974
972
970
969
971
970
972
973
974
976
975
975
972
971
970
970
971
972
974
975
976
977
977
979
977
976
974
974
976
977
980
982
984
982
983
980
980
976
974
974
977
978
978
981
983
983
979
976
975
974
975
973
972
975
977
977
976
975
972
972
970
969
968
967
970
969
969
972
970
970
969
969
966
965
965
963
966
966
967
967
967
966
967
966
967
965
966
964
965
966
966
968
967
969
964
965
965
964
964
963
964
963
965
967
968
967
969
965
964
960
961
958
958
959
963
966
966
967
965
965
965
961
962
961
960
960
964
966
967
969
968
967
966
967
968
971
973
975
979
978
979
980
983
981
982
983
985
986
988
991
990
988
986
987
985
983
978
977
975
971
974
968
968
972
969
970
968
964
962
959
958
956
957
960
960
964
968
969
971
972
970
971
974
976
979
984
989
996
1001
1006
1009
1010
1016
1023
1031
1042
1050
1061
1068
1076
1082
1090
1104
1122
1151
1182
1224
1263
1305
1340
1359
1362
1340
1293
1220
1127
1030
931
853
812
807
827
860
898
929
951
965
967
966
958
953
950
949
952
953
959
959
962
962
960
958
957
954
957
957
960
960
963
964
964
964
962
959
958
958
959
961
961
963
964
963
965
960
961
959
959
962
961
962
964
965
965
966
966
967
968
970
969
972
972
974
975
975
978
981
983
983
985
982
984
983
982
980
983
986
988
986
988
989
988
987
988
989
989
990
991
993
991
991
988
988
984
983
980
979
977
976
976
974
975
974
972
969
969
967
965
964
964
965
963
965
964
967
967
967
967
966
966
964
963
962
963
964
966
968
968
968
968
967
966
965
965
964
965
967
968
969
970
970
971
969
967
967
968
969
971
972
974
975
975
975
972
970
967
968
969
970
971
970
971
971
972
970
969
966
965
966
968
966
968
969
965
967
970
969
970
967
968
967
964
965
967
967
967
968
967
969
965
965
962
963
962
962
964
965
968
968
967
969
968
969
964
965
963
963
965
962
965
967
967
967
965
964
964
964
963
966
967
968
968
968
968
968
964
965
964
963
964
964
967
966
967
968
966
964
966
964
964
964
965
965
966
964
967
967
970
971
970
973
973
974
976
977
978
981
983
986
986
991
991
989
991
993
993
992
992
991
992
992
989
989
986
983
979
976
976
976
974
980
978
975
974
971
967
964
962
961
963
963
967
971
973
976
978
978
979
982
985
986
988
994
997
1004
1007
1011
1017
1022
1028
1036
1046
1054
1062
1069
1075
1082
1090
1101
1119
1140
1165
1201
1239
1277
1315
1345
1362
1359
1335
1292
1227
1146
1058
962
882
830
813
825
856
891
926
954
968
974
973
967
962
958
953
959
962
964
965
966
966
967
963
964
963
961
963
965
967
968
968
969
967
967
967
965
964
967
967
967
969
969
969
970
970
968
970
971
969
969
968
970
969
970
973
971
976
977
977
977
976
975
976
978
980
982
987
985
987
990
990
987
987
984
988
991
994
996
998
998
1001
999
995
996
997
999
997
1000
1003
1002
1000
998
998
996
994
993
990
988
987
985
982
979
982
979
979
980
979
977
974
973
971
969
970
972
974
974
975
974
973
974
971
972
966
967
971
973
975
978
978
977
973
971
971
972
970
972
975
977
974
977
976
975
973
974
973
974
974
975
975
975
977
976
972
974
974
973
975
973
972
973
975
973
975
977
976
976
975
974
972
971
970
967
967
970
971
973
977
974
974
974
971
970
969
967
967
968
970
970
973
972
968
968
967
967
967
966
969
970
970
972
973
969
968
969
969
967
965
966
967
969
968
969
969
966
966
967
965
964
964
965
964
965
966
965
965
965
966
967
962
964
962
961
962
961
964
965
965
966
967
968
965
963
961
961
964
968
969
969
971
967
966
966
965
964
966
965
965
967
968
967
969
970
971
972
971
974
975
979
980
984
985
986
987
987
989
992
993
993
993
994
996
993
992
992
989
988
987
986
982
978
978
977
976
975
975
976
977
975
972
969
965
964
962
963
966
969
974
976
980
981
981
980
982
984
987
989
996
1001
1007
1012
1017
1021
1025
1032
1040
1049
1058
1067
1078
1084
1091
1100
1116
1135
1160
1190
1226
1267
1301
1329
1340
1337
1315
1272
1212
1138
1052
965
890
844
828
840
868
902
935
962
975
983
981
976
969
966
962
963
965
967
970
971
974
973
968
968
967
965
964
967
970
970
971
973
973
972
971
970
967
968
967
968
969
969
972
972
971
970
970
971
971
971
972
970
971
973
975
975
976
978
977
977
979
977
978
978
981
983
987
988
994
996
996
997
997
995
996
994
993
995
1000
1001
1002
1002
997
997
1000
997
998
999
1002
1003
1004
1004
1004
1002
1000
997
992
991
989
988
988
988
988
984
982
981
981
979
979
975
974
976
976
976
976
975
975
974
974
972
971
969
967
968
969
970
970
970
972
971
974
975
975
973
972
972
972
970
972
974
977
978
977
977
975
976
974
974
975
974
974
976
977
978
976
976
976
975
975
973
976
976
979
979
980
978
975
974
974
971
973
973
972
975
974
977
975
975
974
972
969
965
970
972
971
970
970
971
971
970
968
966
964
968
967
967
967
968
970
969
970
970
969
970
970
968
964
965
966
967
968
971
972
972
972
972
968
967
968
966
968
968
968
970
969
969
969
970
966
967
966
966
967
969
971
970
972
972
972
969
968
968
967
968
971
971
973
973
973
972
970
967
968
966
969
966
969
970
969
970
969
970
970
967
968
966
967
964
967
967
966
970
969
969
971
966
963
967
967
966
968
972
972
976
980
982
982
984
982
984
985
987
988
990
994
997
1000
1002
1002
1002
999
997
994
992
992
993
994
994
993
992
989
982
978
977
976
977
975
978
978
977
975
971
971
968
968
969
970
973
976
980
983
984
988
990
990
990
993
1000
1003
1007
1014
1018
1023
1031
1039
1049
1057
1067
1074
1082
1084
1089
1096
1107
1121
1143
1167
1201
1232
1264
1291
1306
1314
1306
