962
957
947
939
931
928
926
929
927
924
923
926
926
924
921
920
921
922
924
922
919
918
919
919
920
920
918
918
920
922
918
921
921
920
924
928
929
927
926
925
927
932
933
934
934
934
936
937
938
939
938
939
940
943
947
948
948
946
951
953
958
956
958
955
958
959
964
965
961
963
962
964
965
966
967
969
967
971
973
973
971
969
973
976
975
976
974
971
971
973
975
974
970
969
973
971
975
975
972
974
973
976
979
976
972
972
975
974
978
977
975
972
974
975
975
974
974
975
975
977
979
976
974
975
976
977
979
977
974
974
977
977
977
977
975
974
976
978
980
978
976
976
976
980
980
978
977
976
977
978
981
978
977
975
975
974
976
977
978
973
974
974
980
978
974
975
975
978
978
979
976
975
977
979
977
978
976
973
978
979
979
979
977
976
975
978
982
980
977
976
977
979
977
975
976
972
974
976
979
977
975
974
974
975
978
978
977
976
976
978
984
979
978
977
979
980
979
978
974
976
979
978
981
979
978
976
980
980
983
981
981
977
979
983
982
979
979
979
980
981
982
979
980
979
980
983
985
984
982
981
981
984
986
983
979
978
980
981
984
980
980
979
980
984
985
983
981
982
983
985
984
985
982
982
985
988
989
988
987
987
989
994
997
999
1003
1005
1011
1016
1023
1031
1035
1038
1045
1058
1070
1082
1090
1097
1108
1115
1122
1123
1124
1128
1132
1141
1152
1158
1160
1159
1156
1150
1145
1141
1137
1132
1124
1114
1098
1083
1066
1051
1042
1038
1036
1031
1028
1022
1022
1022
1023
1021
1021
1025
1028
1026
1021
1011
1002
989
982
979
979
977
972
967
964
962
962
957
951
944
938
934
927
924
924
923
925
925
927
923
921
919
918
919
922
920
914
915
918
918
919
919
916
915
920
922
920
918
915
916
918
920
921
923
919
918
921
926
928
929
926
926
928
933
935
934
935
934
937
941
943
943
942
942
946
949
949
949
950
949
951
955
961
958
957
957
962
964
965
966
962
963
962
965
967
964
965
965
966
971
969
968
966
969
968
973
972
972
970
968
969
970
972
972
969
967
965
971
970
969
967
968
968
971
971
971
968
968
970
972
971
973
969
966
970
970
972
971
968
967
969
972
971
970
969
968
970
970
973
971
969
970
970
973
973
970
965
964
967
970
969
969
968
967
969
969
971
969
968
967
969
971
970
971
971
969
970
973
973
969
968
966
967
967
971
969
967
964
969
970
972
971
970
967
969
972
975
973
968
967
967
968
970
969
966
966
965
970
970
970
969
967
969
972
973
970
970
970
969
973
973
974
970
966
969
973
973
972
968
969
969
971
969
971
969
969
970
972
973
971
969
964
969
973
973
973
971
970
971
972
974
971
967
968
972
973
976
975
974
972
974
976
978
975
975
973
974
973
976
975
971
972
969
974
973
976
973
973
975
979
978
980
975
977
978
978
980
979
975
975
979
983
985
983
985
983
989
995
997
1002
1002
1006
1013
1021
1030
1034
1038
1044
1057
1068
1078
1087
1091
1098
1109
1115
1120
1123
1123
1128
1139
1147
1156
1158
1153
1148
1142
1140
1139
1132
1124
1110
1095
1082
1065
1049
1037
1029
1028
1026
1025
1020
1014
1013
1015
1022
1023
1025
1022
1016
1006
999
991
981
973
967
970
971
967
962
959
957
951
948
944
936
926
918
920
920
920
916
913
913
914
912
914
911
909
909
907
912
912
908
908
908
910
910
911
911
910
908
910
910
910
911
911
910
914
917
922
918
918
919
923
925
925
927
926
927
929
931
932
931
930
932
935
938
943
940
937
941
944
946
948
947
946
948
954
955
958
956
954
953
955
960
960
960
957
959
960
962
963
961
962
961
964
966
967
966
966
964
965
968
967
964
962
960
964
966
966
964
961
961
964
965
967
965
964
962
963
966
965
965
960
961
962
965
964
962
958
957
961
965
966
965
962
961
967
969
966
969
966
964
966
967
969
966
964
964
966
970
967
964
963
962
966
967
967
966
965
963
967
970
967
967
965
963
964
968
968
967
964
966
967
969
968
968
964
964
966
970
970
970
966
965
966
968
971
968
967
965
964
968
969
970
968
965
970
971
973
970
969
968
968
973
972
971
967
967
968
968
969
966
965
964
968
969
970
964
965
964
970
971
971
968
966
966
966
970
971
969
966
966
967
971
969
971
967
967
970
972
972
969
969
970
971
974
972
971
970
968
968
973
974
974
971
973
973
973
975
973
971
970
975
976
978
977
973
974
976
978
977
976
977
976
978
983
987
987
987
987
993
999
1004
1007
1011
1016
1022
1033
1040
1047
1056
1063
1078
1088
1095
1103
1107
1112
1118
1126
1129
1130
1134
1143
1149
1156
1159
1152
1144
1134
1133
1131
1130
1117
1105
1087
1067
1055
1042
1031
1025
1023
1022
1021
1019
1014
1011
1010
1015
1018
1021
1019
1011
1000
993
985
981
974
969
964
967
965
962
961
955
948
943
940
932
923
917
916
920
922
921
918
912
915
916
917
917
912
912
910
911
914
912
912
909
910
913
915
915
914
911
911
914
915
918
916
916
915
919
922
923
922
920
922
923
930
931
928
930
930
932
937
938
937
937
940
943
946
948
947
947
944
948
953
954
954
952
954
957
960
961
959
958
958
962
964
966
962
961
959
963
966
966
967
964
963
965
969
967
967
964
964
965
965
966
964
962
959
961
967
965
965
961
962
965
966
966
967
963
962
963
967
968
962
959
958
961
965
964
963
958
956
959
962
962
963
957
958
962
966
965
964
962
961
962
963
966
965
959
963
963
964
965
964
961
959
962
963
965
964
963
962
965
964
965
964
961
961
963
966
965
962
962
961
962
966
963
963
961
960
965
970
970
968
967
966
969
970
970
968
965
964
966
969
971
966
964
964
967
970
968
969
969
969
970
974
970
970
969
967
967
970
970
967
967
965
965
966
971
967
965
968
968
971
970
971
967
966
970
972
971
970
969
967
972
972
973
970
968
968
969
972
975
973
972
967
972
975
974
972
969
971
971
974
970
969
969
969
970
971
974
973
971
968
974
977
975
976
978
978
982
984
981
981
980
981
985
988
989
991
989
991
996
1003
1006
1006
1007
1011
1021
1028
1035
1044
1047
1057
1069
1083
1092
1099
1103
1110
1119
1125
1127
1130
1138
1144
1153
1160
1158
1149
1138
1134
1131
1134
1127
1107
1091
1072
1059
1045
1031
1023
1019
1019
1019
1021
1018
1017
1016
1018
1019
1024
1030
1025
1016
1006
1000
995
984
974
972
970
967
969
965
960
955
949
944
939
934
926
923
921
922
926
925
919
917
915
917
918
919
917
913
911
911
915
915
916
913
915
917
918
918
913
910
909
914
916
918
916
917
916
920
926
926
925
924
924
928
931
933
934
933
934
938
936
939
939
939
936
943
946
947
947
946
950
952
956
957
955
954
955
961
961
963
962
960
958
961
967
967
967
966
968
968
972
972
970
968
969
971
975
973
973
969
970
971
974
974
971
968
967
970
975
975
974
972
976
978
979
979
977
974
972
975
978
975
970
971
970
973
976
975
972
968
969
972
977
974
969
971
970
970
973
973
972
971
970
973
974
975
974
970
971
973
973
978
975
974
974
976
978
974
974
973
972
975
975
976
973
972
973
975
976
978
974
972
973
976
978
976
976
974
973
975
975
975
974
971
971
973
972
973
974
972
974
976
977
976
975
972
972
978
977
977
973
971
970
974
976
974
972
973
972
974
976
975
974
972
972
976
977
976
972
971
971
973
975
975
971
970
969
975
974
974
973
971
973
975
977
977
976
972
974
975
976
978
976
973
972
976
977
979
977
976
976
978
980
979
979
977
979
981
983
983
984
982
986
987
993
996
999
999
1004
1009
1016
1022
1026
1033
1041
1050
1061
1075
1082
1090
1099
1106
1117
1119
1122
1123
1126
1128
1135
1143
1148
1154
1159
1160
1157
1148
1140
1137
1136
1135
1129
1115
1096
1079
1065
1048
1039
1034
1029
1024
1022
1021
1018
1017
1014
1014
1014
1018
1025
1021
1012
1000
993
985
977
971
968
966
963
962
958
953
953
947
941
937
932
927
922
918
919
922
924
924
921
918
919
920
920
920
916
915
915
916
920
916
916
914
914
917
917
915
914
911
913
915
916
918
916
914
916
917
920
921
919
920
922
923
924
930
926
926
928
932
937
938
936
936
935
937
943
944
943
942
943
945
949
952
950
950
951
955
956
959
956
957
959
961
963
964
961
959
959
965
966
966
963
957
962
967
969
969
967
965
966
970
972
972
969
967
968
970
972
968
968
966
968
967
973
970
967
968
968
969
973
971
967
969
969
969
973
973
967
967
965
964
968
969
968
964
965
966
969
965
967
965
967
968
970
967
967
966
965
968
970
970
967
963
963
968
970
969
968
966
966
967
970
969
969
967
966
972
972
969
968
965
967
968
970
970
967
965
966
969
970
965
969
967
966
967
969
969
967
965
965
969
970
969
967
962
961
965
967
969
966
965
964
969
969
970
969
967
966
971
972
971
969
968
967
970
970
969
967
966
966
969
971
969
968
966
968
971
970
969
970
971
971
974
974
973
969
968
967
969
970
970
968
967
966
971
971
971
967
968
970
970
972
972
970
967
967
970
971
971
968
968
967
969
973
970
970
969
971
970
974
973
971
972
973
977
979
980
980
982
982
989
990
993
996
998
1005
1013
1020
1025
1032
1037
1045
1059
1073
1083
1091
1098
1107
1115
1120
1125
1125
1126
1130
1138
1147
1153
1155
1153
1147
1142
1139
1136
1132
1127
1121
1109
1097
1085
1068
1051
1041
1034
1034
1030
1027
1021
1016
1015
1015
1012
1013
1013
1018
1022
1022
1014
1002
992
985
978
974
969
965
963
961
959
955
952
948
943
937
933
927
922
912
908
906
909
912
913
910
908
905
909
910
908
906
905
903
904
907
907
904
904
902
906
903
906
903
902
904
909
911
907
908
907
907
911
910
913
912
912
912
917
917
914
916
916
919
922
925
923
922
923
924
928
932
933
934
934
931
936
939
939
938
935
938
940
946
944
943
942
944
947
950
948
949
946
949
953
955
956
947
951
952
952
954
954
953
952
952
951
958
955
952
951
950
957
958
957
955
955
954
954
957
958
957
953
951
955
956
956
956
954
956
955
959
955
955
953
953
957
956
956
957
957
958
958
960
959
956
956
955
958
960
958
955
955
956
956
956
961
957
958
960
961
962
959
962
961
958
962
965
963
961
956
957
961
960
961
957
956
958
958
960
960
957
956
958
961
960
961
960
960
959
961
963
961
959
959
959
960
961
963
961
960
960
960
963
963
959
961
960
964
965
964
961
960
962
961
964
962
962
961
960
962
962
964
966
961
962
964
964
966
964
964
962
966
967
967
965
965
965
964
967
967
965
961
962
965
968
965
964
965
964
968
967
969
967
962
963
965
966
966
965
965
964
966
969
969
967
966
966
970
970
968
968
967
966
968
970
970
969
965
967
970
970
970
969
967
969
973
975
975
974
976
980
985
988
993
992
996
1001
1008
1017
1023
1027
1033
1043
1053
1066
1071
1080
1088
1097
1105
1112
1114
1114
1113
1120
1129
1139
1144
1149
1149
1147
1141
1135
1132
1126
1121
1119
1112
1100
1083
1063
1049
1038
1029
1028
1025
1023
1017
1014
1015
1013
1012
1011
1014
1018
1017
1016
1007
998
986
980
973
967
967
964
961
961
959
957
953
951
947
938
936
931
924
916
912
911
911
914
910
906
906
908
909
911
910
906
905
904
907
908
905
906
906
906
907
910
909
906
905
907
908
909
907
906
905
907
909
912
909
907
909
911
914
915
918
918
916
917
922
924
924
921
925
926
927
929
929
929
928
930
934
936
935
936
937
940
943
946
943
947
945
948
951
948
950
952
951
952
955
958
957
955
955
955
960
961
959
957
959
959
962
963
961
960
956
957
960
960
960
958
957
958
960
962
958
958
958
958
962
960
960
962
962
962
963
963
961
959
958
960
963
963
962
961
957
959
961
962
964
962
961
963
966
967
965
965
961
962
963
967
965
963
959
961
963
965
966
962
960
962
966
965
967
964
963
966
967
965
968
964
962
965
966
967
969
967
965
964
965
967
967
966
965
969
968
969
969
967
965
966
966
965
964
964
962
964
966
969
965
965
963
965
967
968
967
965
965
965
967
967
966
965
963
964
966
969
968
967
965
966
968
969
969
965
966
967
968
968
970
966
964
965
967
966
967
964
962
963
967
967
968
964
965
965
968
972
969
968
967
967
969
970
968
965
965
967
970
973
972
971
969
973
976
978
980
982
980
985
989
994
997
1001
1004
1009
1017
1026
1032
1038
1047
1059
1073
1085
1094
1102
1106
1113
1119
1120
1124
1126
1132
1141
1148
1155
1155
1146
1140
1132
1133
1130
1128
1126
1115
1105
1090
1076
1061
1045
1034
1031
1028
1027
1024
1017
1014
1014
1010
1015
1016
1019
1016
1011
1004
998
988
976
970
963
963
967
966
960
954
951
953
952
944
937
927
922
917
918
916
915
912
915
914
913
913
911
910
912
913
915
913
910
908
910
911
912
911
911
908
911
912
914
912
911
910
911
914
914
914
912
915
917
918
921
918
918
917
920
920
924
921
924
922
926
926
929
929
928
929
933
935
936
937
935
937
939
944
944
945
943
942
944
948
949
950
950
949
948
953
954
952
950
954
954
956
958
958
954
954
954
955
956
954
954
952
954
957
955
958
953
954
951
956
958
958
957
956
955
954
956
954
954
954
957
957
959
955
953
955
957
958
959
959
955
952
956
959
960
960
958
956
959
960
960
959
959
958
958
958
960
960
957
952
958
960
961
959
958
959
962
962
963
961
960
957
959
959
961
960
959
956
957
960
959
958
955
957
957
960
960
962
957
957
957
959
958
958
955
955
955
957
957
956
956
955
955
957
959
959
957
957
957
958
958
959
955
955
955
957
959
956
955
956
955
957
959
957
956
955
956
960
961
959
955
955
958
959
957
958
952
954
956
959
961
960
956
956
958
961
963
963
962
961
962
963
962
961
959
956
956
961
964
962
959
960
959
962
965
965
965
966
967
972
972
975
974
974
980
986
990
996
996
1002
1010
1019
1027
1035
1045
1056
1066
1081
1093
1099
1103
1106
1110
1114
1118
1124
1128
1133
1138
1143
1138
1128
1119
1114
1116
1112
1106
1088
1069
1055
1041
1031
1022
1019
1014
1008
1007
1003
1003
1003
1002
1005
1010
1007
997
990
977
968
963
963
962
960
951
946
946
946
943
935
928
919
911
908
907
907
903
901
903
906
907
904
902
902
900
902
902
900
897
897
896
900
902
897
895
896
897
900
904
904
902
900
904
906
905
906
904
905
907
910
914
912
910
910
916
915
919
918
918
918
919
925
926
927
928
927
931
933
935
931
932
933
932
936
941
937
938
938
940
945
946
947
944
945
946
950
952
952
949
948
949
951
950
950
949
947
949
953
952
952
949
949
951
955
954
955
951
949
952
954
954
951
952
950
949
952
951
953
952
951
952
954
956
955
953
953
952
956
956
953
951
950
950
951
952
950
946
945
950
952
951
947
948
946
948
952
953
952
950
949
951
953
954
951
949
947
949
953
952
951
949
949
951
953
953
951
951
949
951
951
952
954
951
949
950
950
953
952
950
948
952
953
954
954
952
952
953
952
950
954
951
949
950
952
953
954
947
947
949
952
951
953
953
950
951
954
956
957
953
955
954
955
952
952
950
948
951
953
955
954
953
952
957
958
958
957
957
956
956
960
961
960
958
957
958
960
961
958
957
957
957
960
959
958
957
958
961
965
966
964
964
964
966
970
974
977
976
978
985
990
996
1000
1004
1010
1023
1036
1047
1060
1067
1077
1085
1096
1101
1103
1100
1104
1110
1120
1130
1133
1131
1125
1117
1114
1110
1106
1099
1093
1082
1067
1052
1031
1016
1009
1005
1004
1003
1000
996
992
993
995
1000
1004
1005
1002
997
995
988
978
969
963
959
960
957
953
946
942
943
942
936
928
919
911
908
907
909
907
903
902
904
905
905
903
901
900
900
903
901
900
897
898
897
902
901
899
900
900
902
906
905
905
902
902
904
909
906
907
906
904
908
913
914
914
912
914
917
919
922
922
921
922
926
928
931
927
926
927
930
932
934
931
929
933
936
938
938
942
940
940
946
945
948
946
945
947
949
951
950
950
948
948
949
952
954
950
948
949
951
954
956
955
951
952
952
958
958
953
953
952
954
958
959
955
952
952
959
957
957
956
955
955
956
959
959
955
953
951
952
956
959
956
953
952
956
957
957
955
955
954
957
958
959
957
956
956
958
960
958
957
954
953
954
955
954
954
954
951
955
955
958
956
954
955
956
961
961
958
958
956
958
960
959
957
958
957
959
961
960
958
958
956
959
962
961
959
957
958
959
960
960
958
957
955
956
961
959
957
955
957
959
963
962
961
959
956
961
964
964
958
957
959
959
963
960
960
958
956
961
964
962
962
958
960
961
964
963
959
958
960
963
965
963
963
961
961
964
967
967
964
963
964
968
971
969
967
968
968
971
975
979
983
981
985
989
998
1005
1010
1015
1022
1036
1047
1058
1068
1078
1085
1096
1104
1109
1110
1110
1112
1123
1134
1143
