999
1000
1001
999
1000
1000
1002
1006
1005
1003
1002
1002
1002
1003
1003
1000
998
998
1001
1001
999
997
997
998
1000
1001
1002
1000
999
1000
1003
1004
1004
1001
999
998
999
1001
998
998
997
995
998
1001
1000
999
998
1000
1002
1003
1004
1001
999
1000
999
1005
1003
1001
1001
998
998
1000
1000
1000
999
997
1001
1004
1000
1002
997
999
1003
1004
1004
1003
1001
1002
1005
1005
1005
1002
1000
999
999
1004
1002
1002
1001
1000
1004
1004
1006
1009
1008
1009
1018
1021
1024
1024
1027
1032
1037
1040
1044
1049
1053
1061
1070
1078
1090
1102
1112
1121
1132
1144
1151
1153
1157
1159
1163
1164
1165
1170
1174
1178
1184
1185
1182
1171
1163
1158
1161
1159
1157
1148
1135
1121
1106
1091
1082
1073
1067
1066
1064
1064
1060
1055
1048
1042
1037
1041
1043
1045
1045
1043
1040
1035
1023
1015
1006
1001
1003
1004
999
993
987
983
984
979
972
963
951
941
939
942
938
936
935
934
936
936
934
932
930
930
931
930
932
928
926
926
928
930
928
927
926
925
928
930
930
928
927
927
928
929
933
931
930
931
933
936
935
933
934
935
938
939
942
938
939
941
944
947
948
945
947
948
952
956
953
953
956
958
961
962
965
963
961
962
967
967
971
965
967
969
972
974
971
973
970
973
974
975
975
974
972
974
976
978
978
976
975
977
978
977
978
977
975
976
979
979
978
977
978
976
977
980
979
975
974
978
978
980
978
972
973
974
977
977
979
979
974
975
976
979
979
975
975
975
978
979
978
977
976
977
980
982
983
979
978
980
982
984
982
983
981
981
982
983
986
979
979
983
985
986
985
982
981
981
986
988
986
985
983
984
985
988
985
981
981
982
985
985
984
980
979
982
983
984
985
981
981
982
983
987
983
983
980
981
982
985
981
979
978
982
982
985
984
985
988
991
996
997
998
995
990
991
990
993
987
985
982
984
983
987
985
984
982
982
985
986
985
984
983
983
986
987
988
983
983
982
984
987
985
984
983
984
987
987
986
985
984
985
988
989
987
988
988
988
989
989
988
987
986
987
991
991
990
989
986
987
991
992
992
990
992
994
996
998
1000
996
1000
1000
1006
1011
1013
1016
1020
1025
1032
1041
1049
1056
1062
1074
1088
1100
1109
1119
1125
1137
1142
1149
1148
1148
1149
1156
1168
1177
1176
1171
1159
1156
1152
1151
1146
1143
1136
1119
1104
1094
1083
1074
1069
1066
1063
1058
1057
1053
1048
1042
1038
1038
1039
1040
1041
1041
1038
1033
1024
1017
1008
1004
1002
1000
998
990
986
982
980
976
974
964
954
948
941
934
932
928
929
932
926
930
927
926
924
923
923
925
923
920
916
918
920
918
920
919
916
917
915
919
919
917
917
920
921
923
922
921
919
919
923
925
924
922
922
925
928
931
930
930
929
933
934
936
940
939
939
940
946
948
947
947
947
949
952
955
957
955
956
960
962
963
961
961
961
965
968
970
967
967
967
969
970
973
973
972
970
973
975
975
974
974
973
977
978
983
983
983
983
986
986
989
989
986
984
989
990
992
991
990
987
989
991
993
995
989
988
988
989
987
986
981
981
980
980
980
978
972
970
971
970
972
972
970
968
966
970
970
972
969
969
968
975
972
970
969
969
967
972
974
974
972
968
970
974
976
976
973
973
974
976
977
977
973
975
975
976
978
976
976
973
974
978
981
979
976
974
977
979
981
982
977
978
979
980
983
979
978
976
979
981
981
982
978
979
979
981
981
979
978
978
981
983
983
983
977
977
980
980
983
981
978
978
982
982
982
982
980
980
980
981
983
981
979
980
979
981
984
980
978
976
977
980
980
983
980
976
978
982
983
980
979
979
983
984
982
980
978
977
979
980
980
978
977
976
979
983
982
982
981
979
982
983
987
983
984
985
986
993
993
997
997
1000
1006
1007
1012
1021
1026
1033
1043
1054
1066
1075
1083
1093
1106
1118
1126
1131
1134
1136
1139
1143
1149
1156
1161
1162
1166
1161
1154
1147
1143
1141
1142
1136
1126
1112
1093
1076
1068
1066
1064
1059
1053
1048
1041
1040
1034
1031
1032
1035
1041
1042
1035
1025
1015
1006
1001
997
996
992
988
979
976
975
970
965
957
943
938
936
934
932
927
927
929
927
926
924
920
919
919
918
919
917
915
913
913
916
918
916
914
912
915
918
918
917
916
916
914
919
920
918
917
915
918
922
924
921
920
920
922
928
929
930
928
929
933
933
938
937
939
938
942
945
948
948
946
947
949
951
955
954
955
955
959
961
964
962
962
961
962
964
965
962
962
962
964
968
967
968
963
963
967
966
969
967
967
968
969
969
967
967
965
964
966
967
967
966
965
962
965
968
968
966
966
965
968
969
971
967
964
963
966
969
969
962
964
965
967
972
972
970
973
973
976
976
978
979
977
975
977
980
982
982
979
980
982
983
983
980
977
975
978
978
977
975
970
970
973
974
973
971
968
967
970
973
973
969
969
968
969
973
972
974
969
972
974
978
972
972
973
971
972
972
972
973
970
970
973
974
977
975
971
973
975
974
974
970
972
970
975
976
977
975
970
970
972
974
974
971
972
970
973
975
978
975
972
974
977
978
975
977
971
971
972
973
975
972
972
972
973
977
974
973
971
971
973
980
979
977
974
973
974
977
977
975
973
972
974
977
976
975
976
973
975
980
980
981
978
979
980
984
983
979
979
977
980
985
985
988
983
987
989
995
999
1002
1005
1010
1017
1029
1037
1045
1049
1057
1068
1086
1096
1099
1110
1117
1131
1135
1139
1139
1141
1145
1157
1167
1169
1164
1153
1146
1143
1145
1144
1139
1128
1114
1098
1085
1074
1065
1057
1053
1054
1048
1044
1038
1031
1022
1028
1036
1039
1035
1030
1022
1014
1011
1002
992
987
987
984
984
978
974
969
963
961
955
946
935
928
920
925
926
923
920
916
916
916
917
919
915
912
909
911
915
915
912
912
911
915
915
916
911
910
909
911
914
913
914
911
912
916
919
920
919
915
916
922
925
925
924
923
924
930
931
931
930
930
929
930
936
934
937
937
938
942
946
946
948
948
949
952
957
957
959
957
957
959
964
964
965
963
962
967
968
971
971
970
967
971
972
973
975
972
972
975
975
971
967
966
963
965
967
967
963
962
960
965
964
965
962
962
962
963
966
965
962
960
957
961
964
964
962
961
960
963
965
966
963
962
966
968
970
968
970
966
964
968
973
972
968
966
971
974
978
974
974
971
973
976
979
977
977
975
973
975
975
977
972
973
974
975
976
972
972
974
972
975
979
978
976
976
975
976
979
978
976
974
971
975
977
977
975
976
974
977
979
977
974
974
974
976
977
976
978
973
975
975
978
976
974
973
972
977
980
977
973
972
972
976
980
979
976
974
975
976
978
976
976
974
974
972
975
977
974
973
973
975
974
977
976
972
975
977
979
979
976
974
974
975
977
977
975
976
976
977
979
981
978
977
977
981
983
982
979
980
979
981
980
982
981
979
979
982
988
988
988
985
990
994
1001
1006
1009
1011
1016
1026
1036
1044
1050
1061
1072
1087
1102
1113
1121
1127
1131
1135
1144
1147
1152
1159
1168
1169
1162
1151
1143
1138
1137
1136
1129
1114
1098
1079
1068
1066
1063
1059
1053
1049
1043
1042
1036
1032
1028
1030
1030
1032
1029
1020
1011
1002
994
991
988
987
984
978
971
970
971
966
959
952
945
939
933
927
923
922
920
917
919
918
915
913
911
914
915
913
913
909
910
910
912
910
908
906
906
909
911
911
906
906
906
908
908
910
910
906
905
909
915
914
914
911
910
913
917
920
918
918
918
921
923
921
921
925
925
928
931
932
929
930
933
937
940
941
938
938
941
939
944
946
942
943
945
944
952
953
951
945
943
950
955
954
951
949
952
956
954
952
951
950
950
955
957
958
955
959
961
961
963
961
959
957
958
956
963
961
959
955
955
959
965
965
961
957
957
962
961
960
959
955
956
956
960
961
960
959
956
959
959
954
946
941
942
949
950
952
954
952
953
948
953
954
950
947
948
949
951
953
950
948
949
955
957
950
948
949
951
954
955
952
954
951
947
945
947
952
956
952
950
949
952
952
952
948
947
948
952
953
954
953
951
952
950
948
951
947
948
952
956
957
953
955
960
961
954
947
944
948
951
955
959
960
957
948
948
954
960
961
956
951
951
954
959
964
966
957
951
951
952
951
950
951
954
957
961
960
950
950
957
964
962
959
954
947
952
959
963
962
956
953
952
956
962
956
948
946
952
963
970
967
956
957
956
951
954
962
968
966
959
959
963
967
965
961
961
963
966
966
960
954
956
963
970
975
971
966
964
966
968
968
966
972
982
984
984
985
983
980
981
991
1005
1011
1011
1011
1017
1033
1046
1051
1057
1061
1070
1080
1093
1103
1109
1115
1123
1119
1119
1116
1122
1137
1154
1165
1164
1153
1138
1132
1138
1150
1150
1141
1122
1112
1104
1088
1063
1044
1029
1024
1018
1011
1000
986
974
967
970
978
982
977
966
954
942
935
926
922
922
923
922
919
919
916
917
920
921
926
920
917
913
911
917
919
923
920
917
915
915
917
917
915
915
909
908
913
913
914
913
913
909
911
913
914
914
910
908
908
913
918
917
911
907
911
918
924
926
923
918
918
922
925
934
930
924
928
929
933
931
934
939
939
938
939
941
941
941
945
951
955
957
957
956
955
955
952
952
958
963
967
963
959
960
964
968
970
971
969
970
969
965
974
977
978
977
975
972
978
975
977
976
972
976
979
980
981
979
978
979
981
984
981
978
979
979
982
985
982
981
979
980
978
982
981
978
977
980
980
982
982
980
979
977
980
981
983
982
980
984
982
981
984
981
981
979
982
984
982
980
978
980
981
984
982
982
980
979
985
986
985
982
979
983
984
987
982
981
981
981
982
985
984
982
981
980
985
988
986
984
985
984
988
989
989
983
984
984
988
991
989
985
986
987
992
993
994
992
991
992
995
996
995
995
994
994
993
998
999
998
996
995
998
1001
1001
998
996
996
998
1000
1000
997
996
998
1001
1001
1001
999
999
999
1000
1002
998
996
994
998
1000
1001
1001
1000
1000
1000
1003
1006
1005
1003
1001
1004
1005
1008
1006
1002
1006
1004
1008
1007
1008
1005
1006
1007
1009
1012
1011
1008
1010
1010
1014
1014
1014
1013
1012
1016
1016
1018
1017
1014
1016
1017
1019
1023
1024
1023
1024
1029
1033
1037
1039
1044
1047
1052
1059
1067
1075
1081
1090
1101
1115
1123
1132
1138
1144
1152
1161
1164
1168
1169
1176
1186
1195
1200
1197
1195
1191
1187
1185
1185
1184
1181
1175
1162
1148
1133
1118
1109
1101
1093
1085
1079
1067
1058
1051
1049
1043
1045
1048
1050
1052
1055
1048
1043
1034
1023
1017
1013
1012
1014
1012
1007
1002
1001
1002
1000
997
989
981
975
971
971
968
966
964
962
962
961
961
960
957
956
958
960
957
955
952
956
957
959
957
957
954
955
961
962
961
960
958
959
961
962
964
962
961
964
967
969
968
966
967
970
976
978
977
976
977
981
984
987
988
988
987
990
995
996
995
995
995
997
1001
1001
1002
1005
1004
1006
1010
1013
1012
1011
1011
1011
1015
1016
1015
1015
1012
1014
1016
1017
1016
1015
1015
1015
1017
1019
1019
1016
1016
1018
1019
1019
1018
1018
1015
1016
1019
1019
1017
1015
1015
1015
1016
1017
1017
1009
1011
1015
1017
1016
1018
1015
1014
1014
1015
1018
1017
1015
1014
1013
1016
1017
1017
1015
1015
1013
1017
1017
1017
1015
1014
1015
1018
1020
1017
1017
1016
1019
1020
1023
1024
1024
1025
1027
1029
1031
1032
1031
1031
1031
1036
1036
1034
1034
1035
1036
1037
1038
1037
1031
1031
1030
1031
1031
1030
1025
1024
1024
1024
1021
1020
1019
1015
1018
1018
1020
1018
1016
1016
1018
1020
1020
1020
1018
1017
1016
1016
1019
1016
1014
1014
1017
1017
1019
1018
1015
1016
1017
1023
1023
1022
1019
1021
1021
1023
1023
1020
1017
1016
1018
1022
1022
1021
1019
1017
1020
1022
1023
1021
1021
1020
1023
1024
1022
1025
1021
1020
1023
1023
1025
1025
1020
1022
1023
1023
1024
1024
1020
1023
1023
1026
1027
1029
1024
1025
1027
1029
1029
1028
1026
1024
1027
1029
1027
1028
1027
1024
1026
1028
1030
1030
1029
1028
1030
1033
1034
1034
1030
1030
1032
1034
1035
1035
1034
1034
1037
1040
1044
1041
1044
1045
1048
1056
1058
1063
1071
1075
1084
1094
1103
1113
1121
1132
1142
1152
1158
1163
1170
1174
1179
1185
1191
1201
1206
1207
1208
1203
1196
1190
1185
1181
1178
1171
1157
1138
1120
1111
1105
1103
1099
1092
1082
1081
1074
1075
1071
1070
1071
1075
1077
1079
1074
1064
1053
1042
1036
1034
1032
1029
1026
1019
1015
1017
1014
1008
999
989
985
980
979
976
973
973
972
973
974
970
966
963
967
969
968
966
962
963
965
966
966
964
962
963
965
966
966
965
964
962
964
967
967
967
967
966
968
970
971
970
972
969
975
979
980
979
977
982
981
984
987
987
985
987
992
996
996
996
995
994
997
1004
1004
1003
1002
1002
1004
1008
1005
1007
1005
1006
1009
1011
1013
1011
1012
1009
1012
1015
1016
1014
1013
1014
1018
1018
1019
1018
1017
1018
1020
1021
1021
1020
1018
1018
1019
1019
1020
1022
1019
1015
1021
1020
1021
1017
1015
1013
1013
1011
1012
1010
1006
1005
1004
1008
1009
1007
1003
1004
1006
1008
1008
1007
1005
1003
1005
1010
1007
1008
1008
1008
1009
1011
1012
1010
1008
1008
1011
1013
1014
1011
1011
1010
1013
1013
1015
1015
1013
1014
1014
1016
1017
1012
1013
1012
1013
1013
1014
1012
1010
1007
1012
1016
1015
1013
1011
1014
1015
1017
1018
1017
1014
1013
1014
1016
1015
1013
1012
1012
1013
1016
1014
1014
1012
1011
1012
1014
1015
1015
1011
1012
1017
1018
1018
1016
1012
1013
1011
1016
1016
1013
1012
1009
1011
1015
1017
1015
1014
1013
1015
1017
1015
1016
1014
1012
1016
1019
1019
1014
1013
1010
1016
1016
1018
1015
1014
1015
1016
1018
1018
1013
1015
1012
1015
1019
1017
1017
1015
1016
1015
1017
1018
1016
1015
1014
1014
1016
1018
1015
1015
1014
1014
1014
1018
1015
1016
1013
1017
1017
1017
1014
1013
1013
1016
1019
1014
1016
1014
1014
1018
1020
1019
1017
1018
1018
1023
1026
1027
1031
1031
1033
1036
1044
1046
1049
1054
1060
1070
1081
1088
1095
1102
1114
1126
1139
1143
1148
1155
1158
1164
1172
1172
1177
1184
1191
1197
1200
1197
1184
1177
1169
1169
1166
1164
1155
1138
1119
1109
1098
1092
1085
1079
1076
1071
1068
1061
1058
1050
1048
1051
1057
1059
1056
1049
1042
1037
1029
1024
1015
1012
1010
1007
1009
1005
1002
997
991
987
984
977
968
960
954
952
951
954
950
949
946
948
950
950
948
944
942
943
947
946
942
940
937
940
943
941
938
937
938
938
943
941
941
943
941
945
947
948
945
941
943
947
948
952
951
951
950
952
954
957
959
957
958
963
966
967
967
966
968
970
975
976
976
974
973
976
982
982
977
978
981
982
987
988
985
987
986
987
991
993
990
992
989
989
996
994
991
987
989
992
994
992
992
990
990
991
994
993
992
989
990
994
998
996
996
991
992
993
998
1001
998
996
995
998
1002
1003
1001
997
996
999
999
1003
1001
999
1000
1003
1006
1004
1001
999
994
999
999
998
994
991
989
991
993
992
990
989
989
991
992
993
987
989
989
991
992
991
988
988
988
991
991
992
986
990
989
993
995
995
992
990
993
994
998
998
993
993
992
993
995
995
994
993
992
994
998
997
993
991
992
995
998
995
995
993
992
994
996
992
993
992
989
993
995
996
995
993
992
992
993
996
994
995
994
995
996
995
992
990
992
989
994
997
994
992
991
993
997
994
992
993
993
995
997
997
995
992
992
993
996
995
994
991
989
994
995
996
995
991
992
995
998
997
995
996
994
998
999
1000
996
993
992
998
996
997
995
993
991
993
997
997
993
996
994
996
1000
999
995
993
994
997
999
999
996
996
995
999
1000
1000
999
1001
1000
1008
1011
1014
1015
1018
1022
1029
1038
1043
1050
1056
1064
1077
1092
1102
1113
1121
1129
1138
1147
1154
1155
1156
1159
1170
1181
1187
1191
1185
1179
1170
1161
1160
1159
1154
1144
1129
1112
1099
1084
1077
1072
1067
1065
1058
1051
1045
1041
1041
1044
1047
1047
1042
1038
1029
1023
1014
1003
999
994
994
992
988
984
978
975
973
965
956
947
938
937
937
938
936
931
927
928
930
930
929
927
926
927
929
931
934
932
929
928
928
933
933
929
928
926
931
934
935
935
934
936
940
944
945
942
942
945
949
954
952
952
950
951
955
957
957
955
953
952
956
959
960
960
959
961
965
968
967
968
968
970
973
978
977
976
973
973
979
981
982
980
977
981
983
986
985
983
983
983
984
987
986
985
981
981
985
983
984
983
983
983
986
986
986
985
982
986
990
991
990
988
987
986
986
988
989
983
986
987
986
991
991
990
986
988
989
992
992
990
989
989
988
992
993
992
991
991
995
997
994
992
990
990
992
996
996
996
994
995
997
998
1000
998
996
995
999
998
997
998
996
997
998
1000
999
998
997
997
1002
1001
1001
998
998
996
999
1000
1001
996
994
996
997
999
1000
997
996
996
996
997
999
998
994
997
1000
1000
999
997
995
995
996
999
998
995
994
996
1000
1000
1000
998
997
994
997
999
1000
1000
997
998
1000
1000
1000
1000
1001
1001
1000
1001
1003
1000
998
998
999
1003
1002
999
999
1000
1003
1007
1003
1000
996
1000
1003
1003
1004
1001
1000
1000
1001
1004
1003
1000
999
1000
1004
1006
1005
999
999
998
1000
1001
1000
999
999
997
1002
1002
1003
1001
998
999
1004
1004
1005
1004
1000
1002
1000
1004
1005
1002
1001
1003
1004
1005
1006
1003
1003
1002
1007
1010
1010
1010
1011
1012
1018
1025
1027
1029
1031
1037
1045
1057
1063
1071
1077
1086
1100
1115
1129
1137
1143
1152
1163
1168
1171
1171
1177
1187
1198
1200
1196
1184
1174
1169
1170
1169
1161
1147
1130
1110
1099
1091
1083
1073
1068
1058
1058
1056
1050
1042
1038
1042
1048
1051
