990
991
988
991
992
997
996
994
992
992
993
994
997
994
992
990
992
993
992
989
991
991
993
995
994
994
990
988
991
996
995
990
992
989
994
997
996
994
993
993
995
996
996
995
992
991
994
995
994
994
991
993
996
997
994
993
993
993
995
997
998
997
996
996
997
998
997
993
993
991
993
996
997
995
993
994
996
996
998
995
993
993
996
998
996
995
993
995
997
997
997
996
994
994
995
999
999
999
997
998
1001
1003
1003
1004
1002
1004
1008
1013
1013
1014
1013
1015
1020
1025
1029
1030
1033
1040
1047
1061
1071
1079
1092
1104
1120
1128
1137
1143
1145
1147
1153
1158
1166
1176
1182
1184
1188
1186
1178
1171
1163
1159
1153
1143
1133
1114
1096
1077
1058
1043
1032
1023
1015
1013
1010
1009
1009
1009
1012
1016
1022
1027
1027
1020
1013
1006
1000
997
991
983
978
977
979
978
976
974
971
964
960
957
951
944
942
939
939
943
943
939
937
938
938
940
941
941
938
938
938
940
940
937
935
935
938
938
939
935
937
937
941
943
946
939
943
941
946
949
947
946
946
945
947
951
953
954
953
953
958
961
960
960
961
962
964
967
972
973
972
972
974
978
979
978
980
980
982
987
986
985
985
985
991
993
994
992
991
992
994
998
998
995
994
995
996
998
998
995
994
995
997
999
1001
1000
997
997
999
999
1002
1000
996
998
998
996
995
996
996
994
995
999
998
997
993
994
996
996
996
995
992
995
996
997
998
992
993
993
994
996
995
993
991
991
992
997
997
995
994
993
996
995
996
995
993
994
997
998
997
993
993
991
993
997
996
996
994
993
995
998
998
997
992
993
997
997
997
995
994
992
993
996
996
993
988
991
995
993
997
996
994
993
993
993
996
995
993
994
998
998
997
992
993
994
996
998
997
994
994
995
998
999
999
998
998
996
1000
999
1001
998
997
999
998
1003
1003
1000
998
995
996
999
999
998
998
998
999
1001
1003
1000
995
998
997
1001
1002
1001
1000
1001
999
1002
1002
1000
997
1000
1001
1005
1005
1001
1000
1001
1004
1006
1004
1004
999
1001
1002
1006
1004
1002
1001
1001
1003
1005
1006
1004
1002
1003
1006
1007
1007
1005
1004
1004
1005
1005
1006
1005
1002
1001
1005
1007
1005
1004
1004
1005
1007
1010
1005
1007
1005
1007
1008
1012
1010
1008
1008
1004
1008
1010
1009
1008
1006
1006
1009
1011
1010
1009
1006
1005
1007
1010
1010
1009
1009
1010
1010
1014
1011
1008
1011
1011
1011
1010
1011
1009
1008
1008
1010
1013
1011
1010
1008
1011
1011
1015
1016
1012
1010
1010
1013
1016
1014
1013
1012
1012
1012
1016
1019
1018
1019
1021
1025
1030
1030
1030
1031
1037
1042
1049
1054
1058
1064
1072
1083
1095
1108
1120
1130
1139
1148
1155
1161
1162
1164
1171
1182
1195
1198
1198
1197
1194
1194
1188
1184
1175
1164
1150
1136
1124
1101
1086
1067
1051
1043
1041
1035
1033
1028
1026
1030
1035
1041
1043
1043
1041
1037
1031
1026
1016
1007
1002
998
999
996
996
990
989
990
989
983
976
971
968
965
966
963
962
958
957
957
960
959
954
954
952
955
958
957
954
953
956
956
957
958
953
955
953
957
958
957
957
951
955
957
959
960
959
961
960
963
967
969
967
966
967
972
975
975
975
975
974
977
981
980
980
977
981
980
986
988
987
990
990
991
995
998
998
999
1001
1002
1006
1005
1005
1004
1005
1010
1013
1010
1008
1009
1009
1007
1014
1016
1012
1010
1012
1016
1017
1015
1012
1011
1014
1016
1017
1016
1013
1013
1014
1012
1017
1017
1014
1013
1015
1014
1018
1016
1013
1014
1014
1015
1018
1016
1015
1013
1014
1012
1016
1015
1012
1008
1010
1010
1013
1013
1011
1009
1012
1011
1014
1013
1012
1010
1009
1014
1014
1013
1008
1008
1007
1011
1013
1015
1012
1009
1012
1013
1016
1013
1013
1010
1011
1015
1016
1014
1012
1010
1012
1012
1012
1013
1010
1009
1010
1013
1013
1011
1011
1011
1012
1014
1017
1017
1013
1014
1014
1016
1016
1019
1014
1012
1013
1012
1013
1012
1012
1011
1013
1013
1016
1016
1015
1011
1011
1015
1018
1016
1015
1012
1013
1016
1018
1016
1015
1011
1013
1016
1015
1015
1012
1015
1016
1016
1017
1015
1015
1015
1015
1016
1018
1019
1015
1015
1015
1018
1018
1018
1015
1012
1013
1015
1015
1019
1016
1012
1013
1015
1021
1019
1015
1014
1017
1017
1019
1019
1014
1015
1015
1016
1017
1017
1015
1014
1015
1020
1019
1016
1017
1015
1015
1018
1020
1019
1016
1016
1016
1017
1019
1020
1015
1015
1015
1018
1021
1020
1017
1014
1015
1017
1021
1017
1016
1017
1018
1018
1021
1019
1016
1015
1016
1019
1018
1018
1017
1015
1017
1018
1023
1020
1019
1017
1017
1017
1020
1018
1016
1016
1012
1018
1020
1017
1012
1015
1020
1022
1023
1024
1018
1017
1021
1025
1026
1025
1022
1021
1022
1024
1026
1024
1021
1021
1021
1022
1025
1023
1021
1023
1027
1030
1036
1035
1035
1039
1043
1046
1051
1056
1057
1064
1072
1083
1093
1105
1118
1130
1141
1150
1160
1164
1165
1169
1177
1190
1200
1204
1205
1203
1201
1199
1194
1189
1181
1173
1163
1150
1136
1118
1097
1078
1062
1055
1051
1048
1039
1035
1036
1043
1048
1049
1052
1051
1051
1044
1041
1033
1024
1017
1013
1011
1009
1009
1008
1002
1004
1001
999
988
983
980
978
975
973
969
967
968
968
970
967
966
962
961
964
965
966
967
964
961
964
966
964
962
959
958
959
960
960
961
961
957
961
964
968
967
966
966
967
971
972
970
973
971
973
978
982
979
978
979
978
983
987
986
984
984
987
991
996
994
993
991
994
998
999
1000
999
999
1001
1004
1007
1004
1003
1001
1008
1012
1013
1012
1010
1009
1011
1014
1016
1015
1012
1011
1012
1016
1017
1013
1012
1010
1012
1015
1014
1015
1012
1013
1011
1012
1012
1012
1010
1011
1011
1014
1016
1014
1011
1011
1013
1016
1014
1013
1011
1008
1010
1014
1016
1013
1011
1010
1013
1013
1015
1014
1011
1008
1013
1015
1015
1012
1010
1009
1010
1013
1011
1011
1009
1010
1007
1009
1014
1012
1011
1009
1010
1014
1012
1010
1008
1008
1009
1011
1012
1007
1007
1009
1010
1010
1012
1009
1008
1010
1010
1014
1013
1013
1012
1010
1012
1013
1012
1011
1009
1007
1010
1012
1011
1011
1010
1009
1008
1011
1013
1011
1012
1009
1014
1013
1017
1015
1014
1011
1012
1014
1014
1011
1008
1010
1013
1015
1015
1016
1014
1011
1016
1016
1015
1014
1015
1011
1011
1017
1017
1015
1013
1011
1010
1011
1016
1014
1012
1012
1012
1017
1013
1014
1012
1011
1013
1015
1016
1016
1011
1011
1012
1015
1016
1012
1013
1009
1012
1014
1016
1016
1014
1012
1014
1016
1018
1015
1012
1013
1015
1016
1016
1013
1011
1011
1011
1014
1016
1016
1012
1012
1014
1016
1016
1015
1014
1013
1015
1019
1023
1022
1021
1021
1023
1024
1026
1023
1021
1020
1023
1027
1028
1023
1023
1022
1023
1027
1025
1024
1021
1020
1020
1022
1021
1019
1015
1012
1013
1015
1015
1013
1009
1007
1010
1015
1014
1012
1009
1010
1011
1011
1014
1013
1009
1009
1011
1012
1016
1016
1011
1015
1016
1021
1026
1026
1026
1029
1034
1039
1045
1045
1046
1052
1058
1067
1078
1085
1095
1109
1127
1141
1151
1156
1162
1166
1172
1178
1186
1193
1199
1206
1210
1210
1205
1199
1190
1182
1176
1166
1150
1133
1112
1093
1078
1066
1058
1051
1048
1042
1039
1043
1046
1048
1049
1054
1054
1051
1044
1033
1025
1013
1012
1012
1013
1007
1002
1003
1001
999
996
988
982
975
971
972
972
970
968
968
969
970
970
968
964
962
966
968
968
966
963
963
965
968
966
965
964
961
962
966
969
967
965
966
970
973
973
973
970
973
977
979
980
980
978
978
983
986
987
989
989
991
991
994
995
997
997
998
1001
1006
1004
1004
1005
1007
1008
1011
1011
1012
1012
1012
1016
1020
1021
1019
1019
1018
1021
1021
1023
1022
1019
1020
1021
1022
1024
1022
1019
1020
1024
1021
1026
1024
1024
1024
1025
1027
1028
1027
1021
1019
1019
1022
1023
1021
1020
1019
1021
1023
1025
1022
1020
1018
1023
1024
1023
1021
1022
1018
1021
1025
1024
1023
1020
1018
1018
1022
1023
1020
1020
1019
1023
1025
1025
1023
1023
1019
1024
1025
1026
1021
1023
1022
1021
1023
1024
1021
1019
1019
1022
1024
1027
1023
1021
1020
1023
1026
1025
1023
1022
1021
1022
1025
1023
1021
1019
1019
1021
1024
1023
1023
1021
1021
1024
1027
1026
1023
1023
1021
1025
1028
1028
1025
1024
1023
1024
1028
1028
1023
1022
1023
1025
1028
1027
1025
1024
1026
1027
1028
1029
1027
1024
1023
1024
1027
1026
1023
1023
1021
1026
1027
1026
1025
1024
1023
1027
1029
1028
1026
1024
1022
1025
1026
1027
1027
1022
1022
1024
1026
1024
1019
1019
1020
1022
1025
1026
1023
1023
1022
1025
1030
1028
1023
1024
1023
1025
1026
1027
1026
1021
1023
1025
1023
1025
1023
1022
1024
1026
1029
1029
1026
1023
1024
1026
1027
1026
1023
1023
1021
1026
1026
1027
1025
1020
1022
1024
1026
1027
1024
1021
1022
1026
1026
1026
1026
1024
1023
1026
1028
1027
1026
1025
1025
1023
1025
1024
1022
1023
1021
1023
1026
1027
1022
1022
1023
1025
1027
1026
1025
1024
1023
1024
1027
1026
1025
1024
1021
1021
1025
1025
1023
1021
1021
1024
1026
1026
1024
1022
1022
1025
1026
1024
1023
1022
1024
1028
1028
1028
1028
1026
1027
1031
1035
1037
1035
1039
1042
1050
1053
1057
1062
1065
1070
1079
1086
1094
1102
1110
1121
1137
1150
1157
1162
1166
1169
1173
1177
1179
1188
1195
1201
1208
1211
1209
1201
1193
1191
1187
1186
1180
1165
1151
1136
1122
1108
1086
1072
1059
1047
1050
1050
1046
1045
1040
1043
1051
1060
1061
1058
1056
1055
1049
1046
1040
1031
1022
1014
1012
1013
1012
1009
1006
1003
1005
1004
998
992
985
981
978
978
976
974
972
969
972
972
970
970
968
965
968
969
968
967
966
966
965
970
968
967
964
965
967
968
970
967
966
967
967
969
966
966
965
969
971
974
970
972
971
971
974
980
980
981
980
980
983
986
984
987
986
986
988
989
991
989
988
989
992
996
997
995
993
993
999
1003
1004
1003
1003
1004
1008
1010
1011
1011
1008
1006
1011
1012
1013
1012
1010
1012
1013
1013
1016
1015
1014
1014
1017
1020
1019
1017
1016
1016
1015
1021
1019
1016
1014
1015
1016
1018
1016
1014
1011
1013
1014
1015
1015
1015
1012
1009
1012
1014
1014
1013
1011
1011
1013
1014
1011
1012
1009
1010
1008
1013
1012
1009
1008
1009
1013
1015
1013
1010
1012
1008
1010
1012
1012
1011
1010
1008
1011
1013
1012
1008
1005
1006
1008
1011
1009
1011
1008
1009
1011
1013
1012
1010
1008
1009
1009
1014
1015
1012
1009
1008
1011
1011
1011
1008
1007
1007
1009
1012
1011
1011
1010
1010
1012
1016
1015
1011
1009
1008
1013
1015
1013
1012
1009
1009
1013
1014
1014
1012
1010
1012
1012
1013
1012
1009
1008
1010
1012
1013
1014
1010
1010
1007
1010
1014
1014
1011
1006
1007
1011
1015
1012
1011
1009
1010
1014
1015
1014
1012
1012
1013
1014
1016
1016
1013
1012
1010
1010
1013
1014
1012
1009
1012
1013
1017
1017
1014
1010
1013
1016
1016
1017
1012
1014
1014
1016
1018
1019
1014
1014
1015
1015
1017
1019
1016
1015
1012
1018
1018
1018
1018
1014
1015
1019
1018
1016
1016
1014
1014
1018
1017
1018
1016
1015
1014
1017
1020
1019
1017
1015
1017
1019
1019
1019
1019
1017
1016
1020
1018
1020
1017
1016
1019
1018
1021
1021
1018
1016
1018
1020
1022
1022
1020
1017
1019
1021
1024
1024
1021
1018
1018
1021
1022
1023
1019
1017
1017
1018
1022
1023
1019
1019
1018
1021
1023
1023
1022
1021
1020
1024
1026
1023
1024
1021
1021
1023
1028
1024
1024
1021
1022
1025
1025
1026
1026
1025
1028
1033
1038
1040
1042
1043
1046
1051
1060
1063
1071
1076
1085
1096
1106
1119
1127
1137
1147
1156
1165
1167
1170
1170
1175
1184
1196
1202
1207
1203
1202
1203
1196
1191
1185
1177
1170
1162
1150
1138
1121
1105
1087
1076
1066
1055
1052
1046
1044
1041
1041
1040
1044
1045
1052
1058
1057
1050
1043
1034
1028
1019
1014
1012
1008
1007
1007
1007
1008
1004
1002
995
991
989
987
980
973
967
967
969
970
967
964
963
961
963
965
962
961
961
962
964
964
965
962
961
961
961
966
965
963
961
962
964
966
964
964
964
964
965
967
968
968
970
969
973
974
973
973
970
970
977
982
980
980
978
981
984
986
987
985
986
986
992
992
992
992
994
996
998
999
1003
1002
1002
1005
1004
1004
1009
1005
1005
1005
1011
1014
1013
1011
1012
1011
1014
1014
1018
1017
1015
1015
1017
1019
1019
1014
1015
1012
1016
1016
1018
1013
1013
1013
1016
1019
1018
1018
1018
1016
1018
1020
1018
1014
1014
1016
1017
1018
1017
1016
1012
1012
1014
1016
1016
1013
1011
1015
1016
1017
1016
1016
1014
1017
1016
1020
1018
1013
1012
1012
1016
1018
1014
1012
1012
1012
1017
1018
1017
1016
1015
1018
1018
1021
1017
1017
1013
1016
1018
1015
1015
1015
1014
1016
1017
1018
1014
1017
1015
1018
1019
1021
1019
1019
1016
1016
1019
1020
1017
1017
1015
1018
1020
1017
1020
1018
1015
1018
1020
1022
1023
1020
1016
1018
1017
1022
1022
1018
1018
1019
1020
1022
1018
1016
1017
1017
1021
1022
1021
1019
1019
1019
1020
1022
1019
1021
1019
1017
1022
1023
1022
1021
1019
1021
1022
1023
1020
1018
1015
1017
1020
1023
1021
1020
1019
1017
1020
1023
1021
1022
1019
1017
1022
1024
1024
1020
1018
1019
1021
1023
1022
1021
1019
1018
1019
1026
1024
1023
1023
1023
1024
1027
1024
1023
1019
1019
1024
1025
1024
1022
1022
1022
1022
1027
1028
1024
1024
1023
1023
1026
1027
1028
1026
1024
1028
1026
1028
1024
1024
1024
1026
1029
1026
1024
1025
1027
1029
1030
1028
1024
1023
1025
1028
1028
1028
1023
1022
1023
1024
1025
1023
1025
1023
1023
1026
1027
1026
1026
1023
1024
1026
1029
1027
1025
1023
1025
1026
1028
1027
1024
1025
1024
1026
1029
1029
1030
1032
1036
1038
1042
1046
1049
1051
1057
1061
1073
1077
1083
1088
1096
1111
1124
1132
1141
1147
1155
1161
1171
1173
1175
1176
1187
1194
1205
1209
1210
1205
1202
1198
1193
1188
1178
1166
1152
1142
1125
1107
1089
1073
1064
1057
1057
1053
1046
1042
1043
1050
1049
1055
1057
1058
1054
1049
1042
1034
1025
1014
1011
1011
1009
1010
1005
1003
1001
1001
999
993
984
978
976
973
972
968
965
964
965
965
962
963
960
958
960
963
964
961
960
958
960
961
963
959
958
957
959
961
960
958
960
960
960
962
966
965
963
962
966
970
970
971
967
967
973
978
977
977
977
977
978
981
984
985
983
985
988
992
994
993
995
994
997
998
1002
1002
1002
1002
1006
1009
1009
1011
1009
1006
1009
1011
1012
1011
1011
1010
1011
1015
1016
1016
1015
1011
1012
1012
1014
1014
1014
1013
1013
1015
1015
1016
1013
1011
1012
1014
1015
1014
1011
1009
1013
1015
1014
1011
1012
1011
1014
1012
1016
1015
1012
1011
1010
1012
1014
1012
1010
1009
1010
1015
1013
1014
1011
1013
1010
1013
1016
1012
1008
1006
1009
1009
1007
1008
1009
1006
1009
1010
1013
1010
1009
1008
1011
1011
1012
1009
1007
1007
1008
1007
1010
1010
1006
1005
1005
1007
1004
1006
1005
1005
1004
1009
1011
1010
1008
1006
1008
1011
1011
1011
1006
1006
1008
1012
1011
1010
1006
1006
1008
1009
1013
1010
1008
1009
1010
1014
1011
1010
1008
1008
1010
1013
1013
1010
1008
1009
1010
1013
1011
1006
1007
1009
1012
1014
1015
1013
1014
1012
1013
1016
1016
1015
1013
1014
1012
1014
1013
1014
1012
1011
1013
1016
1017
1014
1011
1012
1015
1017
1018
1017
1015
1015
1013
1017
1018
1016
1014
1013
1016
1017
1018
1013
1013
1013
1015
1017
1018
1019
1016
1015
1016
1017
1020
1020
1018
1017
1018
1020
1022
1021
1019
1017
1016
1019
1020
1019
1015
1015
1018
1020
1021
1019
1016
1014
1019
1020
1021
1018
1018
1016
1019
1018
1022
1018
1018
1018
1021
1021
1021
1019
1017
1018
1021
1020
1020
1021
1016
1020
1021
1017
1022
1021
1020
1021
1020
1020
1023
1022
1018
1019
1023
1024
1024
1021
1021
1021
1023
1025
1027
1025
1022
1024
1024
1025
1025
1022
1023
1023
1024
1023
1029
1029
1029
1033
1035
1041
1045
1046
1048
1053
1058
1066
1071
1077
1085
1091
1106
1118
1133
1145
1150
1157
1164
1172
1173
1179
1183
1191
1199
1205
1209
1208
1202
1196
1189
1186
1178
1166
1150
1133
1120
1103
1085
1069
1057
1054
1054
1053
1049
1048
1051
1055
1060
1066
1068
1061
1052
1040
1034
1028
1023
1015
1012
1013
1013
1014
1010
1007
999
996
988
986
982
976
971
971
972
975
973
968
967
967
965
967
969
967
964
966
966
969
970
970
966
968
967
972
973
971
970
966
970
973
975
974
973
975
977
980
982
983
978
979
985
987
989
989
989
988
988
992
997
995
995
996
1000
1004
1005
1008
1005
1005
1009
1012
1013
1013
1011
1011
1013
1017
1019
1016
1015
1015
1017
1021
1023
1021
1020
1023
1023
1025
1026
1023
1021
1019
1023
1024
1027
1026
1023
1020
1025
1026
1026
1024
1023
1023
1023
1026
1026
1023
1020
1020
1024
1025
1025
1025
1020
1023
1021
1022
1019
1022
1020
1018
1019
1021
1025
1023
1022
1021
1021
1026
1025
1024
1021
1021
1023
1024
1024
1021
1019
1015
1020
1024
1022
1021
1020
1019
1022
1022
1023
1023
1021
1020
1019
1022
1019
1020
1019
1017
1019
1018
1018
1016
1015
1015
1017
1020
1022
1018
1015
1017
1017
1018
1020
1019
1021
1017
1020
1021
1021
1016
1016
1014
1019
1020
1022
1020
1020
1018
1018
1023
1023
1017
1018
1019
1018
1022
1019
1021
1018
1018
1018
1022
1021
1021
1018
1019
1021
1023
1023
1022
1020
1020
1020
1024
1022
1021
1018
1019
1022
1023
1023
1022
1021
1019
1021
1023
1023
1022
1020
1018
1022
1023
1024
1024
1022
1023
1025
1027
1026
1024
1023
1022
1025
1024
1023
1022
1019
1020
1022
1023
1025
1024
1023
1023
1026
1023
1027
1022
1023
1022
1026
1027
1025
1023
1022
1021
1022
1026
1025
1023
1023
1022
1024
1026
1029
1025
1022
1023
1024
1027
1026
1024
1023
1020
1023
1023
1024
1022
1019
1020
1022
1024
1024
1025
1023
1022
1023
1025
1026
1023
1022
1020
1024
1025
1029
1026
1023
1021
1023
1024
1024
1023
1023
1022
1026
1028
1027
1024
1021
1021
1025
1027
1027
1029
1024
1023
1026
1030
1029
1028
1030
1028
1032
1037
1039
1039
1039
1042
1050
1053
1057
1058
1064
1069
1077
1086
1091
1099
1106
1122
1133
1145
1153
1159
1164
1165
1172
1177
1184
1193
1200
1203
1206
1208
1203
1193
1189
1182
1177
1168
1157
1137
1121
1105
1090
1075
1067
1061
1056
1050
1051
1051
1055
1055
1057
1059
1062
1061
1055
1045
1034
1025
1018
1015
1014
1009
1010
1005
1005
1007
1002
995
991
983
979
977
972
966
964
965
966
966
966
966
961
962
963
965
966
964
962
962
964
966
966
965
963
961
962
966
967
966
963
962
964
967
969
968
968
968
972
974
973
973
974
974
975
978
981
980
981
980
982
986
986
987
985
984
985
992
992
992
992
994
997
998
1001
999
1000
1000
1001
1003
1005
1003
1004
1004
1008
1009
1011
1010
1006
1008
1009
1013
1011
1013
1013
1010
1014
1017
1013
1011
1012
1008
1012
1012
1014
1012
1011
1010
1012
1015
1015
1013
1011
1011
1012
1013
1015
1012
1008
1010
1011
1012
1010
1010
1009
1009
1008
1010
1010
1009
1006
1006
1006
1012
1010
1009
1008
1007
1008
1012
1012
1009
1007
1004
1009
1010
1009
1007
1005
1004
1007
1009
1005
1004
1001
1004
1006
1009
1008
1006
1006
1006
1006
1009
1012
1009
