1142
1144
1131
1129
1125
1124
1119
1109
1095
1079
1063
1046
1029
1023
1020
1020
1018
1012
1009
1004
1006
1010
1016
1015
1007
996
984
976
972
969
965
960
955
957
954
951
941
929
922
921
918
917
916
914
912
915
916
915
911
912
910
913
916
915
913
910
911
911
916
913
911
908
907
911
913
911
909
908
906
912
911
912
913
907
912
916
919
921
918
918
919
920
924
929
923
926
927
930
934
934
931
932
933
938
938
940
939
940
941
944
947
949
945
947
949
948
953
952
953
952
952
954
958
958
958
955
957
959
963
964
960
959
958
962
966
965
965
960
963
963
964
966
965
963
962
964
963
964
963
961
960
963
964
963
961
961
959
962
966
965
961
963
962
960
963
960
962
961
961
962
963
960
962
963
961
964
967
966
964
961
960
960
966
965
962
962
961
963
964
963
963
957
960
963
964
964
963
961
963
965
967
969
966
965
963
965
966
965
966
964
961
966
967
966
966
964
964
968
969
969
969
967
967
968
971
971
967
963
961
965
968
968
966
961
963
965
969
967
965
963
963
967
969
965
967
966
966
969
968
968
965
966
964
966
970
969
967
966
966
968
971
966
969
966
968
970
974
972
970
966
966
969
974
972
969
968
966
969
972
973
970
968
966
971
974
976
972
972
971
974
974
977
974
976
975
979
982
985
984
987
989
996
1003
1006
1011
1018
1023
1033
1041
1046
1057
1068
1075
1087
1096
1103
1106
1110
1111
1122
1125
1127
1132
1140
1146
1153
1156
1150
1138
1132
1130
1130
1130
1126
1113
1095
1081
1068
1056
1041
1031
1028
1024
1022
1025
1023
1018
1014
1011
1013
1018
1022
1019
1018
1008
1002
997
988
978
968
966
968
970
964
958
953
950
948
943
938
927
921
915
916
916
916
913
909
909
909
912
910
908
905
905
909
911
910
907
904
905
907
911
910
909
907
907
908
909
908
907
906
908
910
912
913
911
910
909
912
918
917
915
916
917
921
922
925
921
924
924
929
933
930
930
929
929
935
939
939
937
937
939
943
943
946
946
943
943
950
950
953
950
951
952
950
953
954
952
952
952
955
960
957
954
957
958
961
962
963
961
959
960
962
961
963
962
956
958
960
963
964
962
960
961
961
962
961
958
957
959
964
965
964
963
961
961
960
963
965
960
960
960
961
962
964
961
960
961
962
965
965
962
962
962
963
967
968
965
964
965
966
965
966
962
959
961
962
966
965
966
964
963
965
968
967
965
965
966
965
968
969
967
967
964
967
966
970
966
960
962
966
965
967
964
966
965
967
966
968
967
966
966
968
971
970
968
966
966
967
970
967
965
963
964
966
968
969
967
966
965
971
971
971
968
967
968
970
972
969
969
965
966
969
971
969
969
966
966
967
969
969
967
967
967
970
974
973
973
972
973
974
976
976
974
970
970
973
974
973
969
967
969
972
975
975
973
971
973
976
978
980
977
976
975
980
982
983
983
981
984
990
997
996
999
1002
1007
1014
1021
1027
1030
1036
1044
1056
1069
1076
1084
1092
1100
1108
1111
1114
1115
1121
1127
1138
1147
1148
1142
1131
1124
1122
1122
1120
1110
1097
1082
1067
1053
1038
1025
1019
1015
1017
1015
1013
1009
1004
1003
1007
1012
1018
1022
1019
1013
1007
1001
992
981
975
970
972
971
968
960
956
954
954
948
942
934
927
923
921
924
924
920
917
916
918
920
918
915
912
912
913
915
914
913
912
912
914
915
917
914
912
915
919
920
919
919
917
918
922
923
925
923
923
924
927
931
930
929
930
931
933
936
934
937
934
936
938
942
942
941
942
942
944
948
950
949
947
951
953
955
956
954
957
955
960
962
961
959
957
959
963
964
964
962
961
963
966
966
966
967
964
963
968
970
969
967
968
967
971
970
970
967
966
967
969
969
969
968
965
966
967
969
970
968
969
968
968
973
972
970
964
965
966
970
969
967
967
961
968
971
969
968
967
969
970
972
971
971
970
972
972
976
974
972
971
971
972
974
974
969
970
969
972
975
973
974
972
972
974
974
974
976
977
977
979
981
977
977
976
976
978
980
980
977
975
976
976
979
978
976
974
976
977
982
979
978
978
979
981
981
984
978
980
979
977
978
975
973
972
970
972
973
972
968
967
966
969
971
971
970
966
968
969
971
970
969
969
967
969
970
969
966
969
970
971
973
974
971
972
970
973
973
973
970
970
970
972
972
971
972
971
973
975
977
975
973
974
974
976
978
975
975
978
978
983
984
986
987
990
994
996
1000
1005
1010
1015
1023
1033
1040
1050
1060
1067
1077
1086
1097
1105
1111
1114
1118
1123
1125
1126
1131
1137
1143
1154
1156
1154
1144
1136
1128
1131
1132
1127
1119
1103
1087
1073
1061
1046
1037
1032
1034
1031
1027
1027
1021
1018
1016
1018
1024
1026
1024
1021
1013
1004
999
990
980
976
973
977
974
971
963
960
959
957
953
944
936
927
926
925
926
925
921
920
920
917
918
918
916
912
915
918
919
914
915
915
914
915
918
920
917
914
915
919
919
917
916
914
915
918
920
921
919
918
920
922
924
925
922
924
926
929
932
933
930
932
934
936
939
941
937
941
939
944
947
944
948
947
946
952
952
957
956
954
955
957
960
959
956
958
957
961
963
963
962
962
961
963
965
966
965
963
964
968
969
967
964
963
962
966
969
968
963
963
964
964
966
963
964
962
963
966
969
969
968
966
968
969
970
969
964
961
964
966
966
966
968
967
966
967
970
969
967
966
967
971
973
973
968
968
969
970
972
972
969
967
969
971
972
973
970
969
970
972
972
975
973
971
971
972
973
971
968
968
971
973
975
974
972
971
972
972
974
975
973
972
974
975
977
976
974
974
970
972
975
975
971
971
973
974
975
975
974
973
972
975
977
978
974
973
974
973
977
976
974
973
974
975
977
976
975
974
975
977
976
975
974
971
975
979
978
977
977
975
975
977
978
976
973
976
976
977
979
978
976
974
979
980
982
983
982
983
986
991
990
992
993
997
1002
1006
1012
1018
1020
1023
1035
1044
1050
1061
1071
1081
1093
1104
1111
1117
1125
1125
1130
1135
1137
1144
1151
1155
1160
1160
1156
1148
1141
1137
1136
1137
1134
1124
1108
1093
1080
1065
1054
1044
1038
1033
1033
1031
1027
1022
1016
1014
1017
1024
1029
1025
1015
1002
994
987
983
978
974
973
970
967
962
960
954
951
947
941
935
928
920
916
919
922
923
921
915
916
915
917
919
916
911
911
911
914
915
914
913
913
913
915
914
918
915
917
917
920
921
923
919
920
920
924
925
924
922
923
924
927
928
929
929
927
929
934
938
937
936
936
940
942
943
947
944
942
947
949
954
954
954
953
957
959
962
961
959
961
963
965
966
967
965
962
964
965
968
965
966
964
968
971
971
972
969
970
971
971
975
973
969
972
971
974
974
971
969
967
972
973
974
975
972
971
972
975
975
975
974
973
974
977
976
974
973
971
972
975
975
971
973
974
974
976
976
975
974
972
975
978
978
979
977
976
977
976
979
978
975
974
972
977
976
977
975
972
971
977
978
977
974
972
976
980
981
981
979
976
976
977
979
979
977
975
976
978
978
980
979
977
977
979
982
980
979
978
978
982
983
980
981
978
977
980
978
981
979
978
978
980
982
979
977
977
979
981
981
982
980
979
980
978
982
982
979
979
980
975
981
982
980
977
980
982
985
982
981
981
981
984
988
985
984
983
985
986
988
986
983
982
984
985
987
987
988
986
987
991
996
996
996
995
998
1002
1008
1011
1012
1013
1022
1028
1034
1039
1045
1049
1057
1072
1085
1093
1102
1108
1117
1126
1133
1135
1132
1133
1138
1146
1158
1164
1162
1159
1147
1145
1143
1140
1138
1132
1125
1112
1100
1084
1067
1055
1048
1049
1047
1043
1037
1029
1029
1027
1030
1030
1031
1029
1027
1020
1017
1009
998
990
986
986
987
985
978
973
970
969
967
960
953
947
938
934
933
928
929
927
928
929
929
926
924
924
924
924
925
926
923
923
922
924
926
925
923
924
924
927
930
924
928
928
929
932
931
933
934
932
936
937
939
937
935
937
938
943
945
949
946
945
947
950
952
950
947
945
947
947
949
946
946
947
951
952
955
952
952
953
954
957
958
958
955
957
959
961
965
963
960
959
959
966
966
962
962
960
966
966
966
965
963
962
966
967
969
968
963
965
967
969
968
969
964
965
965
967
969
968
965
963
966
970
971
968
967
965
967
971
971
970
968
966
966
971
971
969
967
965
969
972
971
972
970
970
971
974
975
975
972
970
973
974
977
975
971
969
968
973
974
973
970
971
972
975
975
975
972
972
973
976
979
976
973
970
972
975
976
974
972
971
974
975
976
975
971
971
970
976
976
974
974
972
975
977
977
975
973
972
974
975
976
976
976
974
973
978
979
977
974
975
973
973
979
977
974
973
972
977
978
975
974
973
974
975
977
973
972
975
976
979
977
976
976
976
976
976
977
973
975
975
977
980
981
978
977
977
979
981
985
986
984
986
990
998
1002
1004
1005
1008
1014
1023
1029
1034
1040
1046
1059
1073
1082
1090
1097
1105
1112
1118
1124
1125
1125
1130
1141
1151
1155
1153
1145
1136
1134
1135
1131
1131
1125
1111
1102
1090
1076
1060
1048
1042
1041
1041
1039
1031
1025
1023
1020
1016
1022
1024
1023
1019
1013
1008
1001
993
985
979
980
983
978
973
971
963
961
960
957
953
942
929
927
924
923
924
919
917
919
918
920
920
917
915
916
919
919
916
913
910
913
916
916
915
913
912
915
918
919
917
916
916
917
919
922
920
916
918
922
924
926
924
924
923
925
929
931
931
929
931
936
937
943
943
940
939
943
947
948
946
946
945
951
952
953
955
952
953
956
957
960
959
957
958
959
963
965
965
961
963
964
966
966
966
961
962
967
969
970
967
966
967
969
973
971
971
968
966
971
971
972
971
971
969
970
969
973
972
969
968
971
972
972
968
967
965
969
971
973
973
973
971
973
974
973
971
967
965
967
968
967
963
960
962
964
966
967
960
960
960
964
967
966
964
963
962
964
966
968
966
965
963
968
970
971
971
968
968
970
970
972
969
967
967
970
969
971
967
966
967
965
972
972
970
969
968
970
973
972
971
969
968
969
971
972
970
969
966
971
969
973
970
969
969
971
975
977
973
971
972
974
975
975
973
970
970
972
976
975
974
972
971
973
975
976
975
974
973
976
977
977
977
976
974
975
978
980
978
976
978
983
985
991
994
996
1001
1007
1015
1026
1034
1041
1052
1070
1083
1095
1108
1113
1118
1120
1126
1131
1140
1144
1148
1152
1145
1137
1129
1126
1123
1123
1115
1103
1084
1069
1053
1044
1040
1037
1033
1030
1026
1021
1022
1019
1017
1018
1021
1022
1018
1010
1000
991
983
978
977
977
972
965
962
958
961
958
949
939
934
927
923
920
916
915
914
917
916
917
913
909
911
912
914
913
911
908
910
912
914
912
909
909
910
912
912
913
912
910
912
914
916
917
915
917
916
918
922
925
923
922
922
927
928
929
928
930
927
931
935
937
935
933
936
940
945
947
943
944
945
948
949
951
950
949
950
954
957
956
955
956
955
956
958
962
961
956
958
964
965
965
963
962
961
962
963
965
961
960
963
965
968
967
964
963
964
965
968
968
964
966
965
967
969
966
963
960
957
962
965
963
964
963
963
964
970
971
969
967
968
967
969
967
965
964
964
963
967
967
966
966
965
964
967
969
966
964
965
968
970
970
966
964
964
964
967
965
960
962
959
964
967
969
968
968
967
969
968
968
964
965
966
967
969
970
967
965
967
968
971
970
968
966
965
967
970
970
968
967
967
971
972
973
970
970
970
972
973
973
971
968
967
969
971
975
969
970
969
973
975
976
973
971
973
975
978
977
975
974
974
973
978
978
975
971
972
975
978
977
975
974
973
977
980
981
979
977
976
979
982
984
984
979
985
987
994
994
997
998
1000
1010
1016
1023
1027
1035
1041
1052
1067
1076
1084
1090
1095
1106
1113
1115
1117
1117
1118
1125
1135
1142
1146
1146
1139
1134
1130
1123
1122
1120
1115
1106
1094
1077
1061
1046
1039
1036
1036
1033
1026
1025
1021
1020
1018
1015
1015
1020
1023
1023
1020
1012
1003
993
983
978
976
973
972
967
960
961
961
959
950
946
938
932
929
925
921
920
915
917
920
917
914
913
912
912
916
913
915
912
910
914
913
910
911
911
910
915
916
918
915
914
912
914
916
918
916
918
917
918
921
923
922
920
922
922
924
928
928
928
927
929
936
935
931
936
935
938
940
939
939
941
939
943
945
946
949
949
951
954
956
955
956
956
957
958
963
961
959
959
956
960
961
962
963
960
962
963
969
968
966
966
965
966
972
968
968
966
966
967
973
970
971
968
966
968
970
970
970
966
967
970
971
974
971
969
968
971
970
970
969
969
968
969
969
970
966
967
967
968
971
971
971
968
969
970
974
973
972
968
969
974
975
974
974
972
970
972
973
974
972
973
968
971
976
977
975
974
973
974
977
977
977
975
976
977
977
978
973
972
971
974
977
977
976
973
973
975
978
979
978
976
976
979
980
980
979
978
977
977
979
981
977
977
975
977
979
981
979
976
976
979
977
975
977
978
978
981
983
982
980
978
979
980
983
980
979
976
976
980
980
979
979
980
975
978
980
981
979
978
978
981
984
982
981
977
979
979
983
984
977
978
977
983
985
985
984
983
983
987
989
991
992
991
995
1002
1008
1013
1013
1020
1026
1035
1045
1050
1054
1065
1071
1085
1095
1106
1111
1117
1123
1127
1132
1134
1134
1137
1145
1150
1160
1159
1157
1147
1142
1139
1139
1135
1131
1121
1113
1098
1089
1073
1060
1048
1043
1042
1039
1035
1033
1026
1020
1019
1023
1024
1025
1019
1018
1015
1005
999
993
986
981
985
985
981
977
968
964
966
965
960
954
945
937
935
930
930
923
922
924
927
927
927
924
923
923
924
925
923
920
919
921
921
923
920
920
918
918
919
922
922
921
921
921
927
928
928
926
926
925
927
932
930
929
929
931
930
934
937
937
935
936
939
943
942
942
943
944
947
949
952
950
951
951
953
956
958
957
956
957
961
964
962
964
963
964
965
968
970
970
967
969
971
973
974
968
969
968
972
974
973
969
969
970
972
973
976
974
970
971
975
977
976
974
971
973
972
977
972
972
970
972
974
975
973
971
972
971
974
973
976
973
972
970
975
977
974
968
969
968
972
975
974
974
970
969
972
974
973
971
971
972
975
973
975
973
973
972
975
976
976
975
974
973
975
976
976
974
972
972
974
978
976
976
974
974
976
977
979
976
976
975
977
978
977
975
974
974
979
978
979
977
976
976
978
980
977
974
976
977
980
981
981
978
975
977
979
980
977
978
977
977
978
978
979
977
976
976
978
981
982
978
978
979
983
980
980
978
975
976
978
980
980
978
977
977
978
982
981
980
979
980
985
984
986
982
979
981
984
985
986
982
982
981
982
986
988
988
987
990
993
995
1002
1005
1005
1010
1019
1025
1032
1036
1040
1050
1062
1072
1083
1089
1099
1107
1118
1124
1126
1125
1123
1128
1137
1147
1155
1158
1155
1153
1148
1144
1140
1134
1132
1126
1123
1112
1099
1082
1069
1056
1050
1048
1045
1039
1035
1032
1030
1030
1025
1024
1027
1029
1030
1027
1017
1006
996
990
990
990
989
982
976
975
974
971
969
964
957
951
943
944
938
932
930
929
931
933
930
926
924
925
922
927
926
923
924
923
926
927
927
924
923
921
921
923
924
924
923
924
928
930
926
926
924
923
923
929
925
924
925
926
929
930
932
927
930
930
933
938
938
936
934
939
941
944
947
945
947
948
953
954
956
955
954
953
956
961
960
957
958
959
959
961
963
962
961
963
964
969
967
966
966
966
967
970
971
969
967
968
970
973
973
971
969
967
968
972
969
972
970
971
974
975
973
973
971
971
973
974
972
971
968
971
972
975
972
972
969
970
971
977
974
972
970
971
974
977
975
972
972
971
972
976
976
973
970
972
975
977
974
974
973
974
976
977
978
974
974
974
976
976
976
972
972
971
974
977
977
973
973
972
973
978
975
977
974
972
977
980
977
977
972
976
978
978
978
976
976
975
977
980
979
976
975
973
978
979
979
977
976
977
976
981
981
977
972
976
975
979
978
975
974
975
975
980
980
975
973
977
980
981
980
978
978
980
980
984
980
979
976
978
980
983
980
980
979
978
980
983
981
981
979
980
982
981
983
983
979
983
985
990
991
991
993
999
1000
1009
1013
1016
1019
1024
1035
1042
1047
1053
1063
1073
1084
1094
1098
1104
1111
1117
1123
1128
1129
1130
1134
1143
1151
1158
1157
1152
1143
1138
1137
1136
1135
1126
1117
1105
1092
1080
1066
1055
1047
1044
1043
1042
1037
1032
1025
1023
1021
1023
1026
1030
1026
1019
1013
1007
998
986
981
982
982
980
973
969
964
962
959
958
949
939
930
925
925
925
926
923
920
919
919
921
919
917
915
916
917
920
917
914
910
914
915
919
917
916
913
914
917
917
916
914
914
914
918
921
919
917
919
920
923
927
927
926
926
926
932
933
933
933
934
935
939
938
940
940
940
941
946
950
947
946
949
951
955
957
960
959
960
961
964
966
966
962
966
968
971
974
971
969
969
973
975
977
974
975
972
976
977
977
977
976
