1017
1019
1019
1023
1022
1020
1018
1014
1015
1017
1015
1014
1012
1009
1012
1013
1014
1012
1011
1010
1010
1013
1009
1009
1008
1009
1010
1013
1011
1013
1008
1006
1012
1013
1012
1010
1008
1008
1011
1015
1016
1014
1013
1011
1013
1015
1015
1011
1012
1014
1016
1020
1020
1019
1019
1019
1025
1029
1034
1034
1036
1038
1044
1049
1050
1057
1063
1071
1080
1094
1107
1119
1131
1144
1158
1172
1178
1182
1188
1194
1201
1208
1216
1225
1232
1234
1234
1227
1217
1207
1202
1198
1197
1192
1181
1161
1142
1127
1118
1115
1110
1100
1090
1084
1081
1075
1069
1063
1062
1069
1074
1072
1065
1055
1042
1033
1026
1024
1021
1017
1010
1004
1005
1001
993
980
971
959
953
949
949
945
940
939
939
939
936
934
932
930
932
935
933
931
930
926
927
929
927
926
922
922
927
927
926
924
925
924
928
929
928
929
926
928
932
937
937
936
937
938
940
944
947
949
950
951
953
958
961
959
965
967
970
972
976
978
977
977
979
983
983
983
984
986
990
993
995
994
990
992
996
1000
999
1002
1002
1002
1004
1006
1006
1007
1005
1008
1012
1014
1017
1019
1018
1022
1027
1035
1036
1033
1031
1030
1034
1035
1032
1029
1025
1023
1021
1020
1018
1016
1011
1010
1007
1004
1003
999
994
994
994
994
993
990
986
986
990
990
991
989
990
987
990
989
989
985
983
980
986
992
990
985
981
989
992
996
994
993
992
990
993
995
991
991
992
991
990
991
992
991
994
994
997
998
996
995
993
994
995
997
997
996
992
990
993
992
994
987
985
985
990
992
994
993
997
996
998
994
988
985
987
995
994
996
995
992
987
980
981
991
993
991
987
987
988
989
988
989
989
995
997
993
990
987
984
984
987
991
991
989
990
987
987
989
990
990
988
989
988
992
990
988
981
985
991
993
993
989
985
986
990
992
986
986
983
985
991
991
991
989
986
989
994
994
992
992
993
991
986
986
985
986
985
988
992
992
987
986
987
986
988
991
991
990
990
988
992
994
991
989
988
987
989
989
992
992
992
993
995
994
995
993
991
990
993
997
997
996
998
996
1001
1005
1005
1003
1003
1011
1018
1027
1032
1037
1046
1054
1066
1080
1092
1103
1114
1127
1141
1154
1161
1168
1172
1173
1179
1185
1192
1202
1208
1218
1218
1213
1203
1195
1191
1190
1190
1187
1170
1145
1120
1105
1097
1088
1074
1058
1047
1038
1035
1029
1023
1020
1021
1028
1028
1022
1008
993
983
976
973
972
972
966
956
954
954
953
945
937
924
918
916
917
919
916
911
909
911
912
908
906
905
903
906
905
905
902
900
898
906
907
907
904
904
901
907
907
910
909
910
913
918
925
926
927
927
928
933
935
935
934
933
938
942
946
948
950
949
950
956
959
961
961
961
966
971
974
975
974
974
976
982
986
988
988
985
987
992
993
994
993
989
993
995
997
999
996
994
995
997
999
998
995
994
996
998
999
999
998
996
995
997
999
999
996
995
995
995
997
996
997
993
994
998
1001
1000
996
994
992
997
999
999
997
993
993
999
1000
1000
1000
998
996
1001
1006
1006
1005
1003
1004
1006
1009
1007
1003
1001
1003
1006
1007
1009
1007
1004
1006
1010
1010
1009
1009
1009
1009
1013
1014
1013
1010
1009
1009
1011
1015
1012
1010
1010
1011
1011
1015
1013
1010
1009
1009
1014
1012
1013
1012
1010
1008
1010
1011
1009
1010
1008
1008
1009
1009
1012
1009
1009
1008
1010
1013
1013
1010
1008
1009
1013
1011
1011
1009
1008
1008
1007
1011
1012
1007
1007
1008
1013
1013
1013
1010
1008
1009
1011
1013
1017
1012
1010
1012
1013
1012
1014
1012
1008
1010
1012
1014
1013
1011
1010
1012
1012
1015
1014
1012
1013
1011
1012
1013
1014
1011
1010
1010
1012
1010
1009
1008
1009
1010
1012
1014
1011
1011
1011
1013
1016
1016
1014
1013
1010
1011
1014
1016
1016
1015
1013
1013
1018
1017
1016
1016
1014
1018
1018
1022
1022
1022
1022
1023
1028
1032
1037
1040
1043
1048
1056
1068
1076
1083
1087
1100
1117
1134
1145
1155
1163
1172
1183
1192
1198
1202
1204
1212
1223
1237
1240
1239
1226
1220
1215
1213
1212
1205
1196
1178
1160
1138
1119
1107
1097
1088
1077
1070
1063
1056
1049
1044
1047
1054
1060
1058
1053
1042
1034
1028
1019
1009
1004
1004
1004
996
992
985
979
975
972
963
947
939
935
934
933
931
928
923
921
920
924
925
922
920
920
922
921
923
922
921
918
920
919
920
922
920
921
922
923
923
923
922
921
925
929
929
929
930
930
933
937
939
941
943
945
946
953
955
960
958
960
962
964
966
970
970
973
972
979
982
982
984
985
988
992
992
994
994
994
997
1000
1001
1002
999
997
998
1001
1001
1002
1000
998
999
1000
1000
1001
1000
1000
1002
1004
1006
1006
1001
1001
997
997
1001
1000
995
996
996
997
999
1000
995
995
994
997
999
1000
998
997
996
998
996
994
994
991
990
996
997
997
994
993
995
998
999
998
997
997
997
1000
1002
1004
997
996
999
1001
1004
1004
997
997
999
1000
1004
1003
1003
1002
1001
1005
1008
1003
1003
1000
1002
1007
1007
1004
1001
999
1001
1003
1005
1001
1002
999
1001
1002
1006
1004
1004
1003
1003
1005
1006
1002
1001
1002
999
1004
1005
1004
1002
1000
1002
1003
1006
1003
1002
999
1000
1005
1006
1005
1003
1003
1003
1007
1007
1007
1004
1000
1004
1006
1007
1006
1003
1001
1004
1004
1007
1003
1002
1003
1002
1005
1010
1009
1008
1004
1006
1010
1010
1009
1005
1003
1004
1008
1012
1010
1007
1006
1008
1009
1011
1011
1009
1012
1009
1011
1013
1012
1010
1006
1008
1006
1009
1007
1006
1006
1007
1008
1011
1007
1006
1005
1005
1008
1011
1008
1007
1005
1006
1011
1007
1005
1003
1003
1006
1006
1007
1005
1003
1003
1005
1009
1011
1008
1007
1006
1006
1005
1008
1010
1009
1008
1010
1012
1014
1013
1014
1012
1018
1020
1023
1027
1029
1037
1047
1063
1077
1088
1095
1103
1115
1128
1141
1149
1155
1160
1168
1179
1186
1189
1194
1199
1205
1216
1226
1227
1227
1218
1209
1200
1197
1194
1185
1176
1161
1140
1123
1105
1088
1074
1071
1067
1062
1053
1048
1042
1033
1027
1024
1027
1032
1029
1027
1020
1008
997
987
982
982
984
978
973
970
970
965
960
956
954
946
934
927
924
921
918
919
920
921
919
916
910
903
899
904
906
905
905
903
901
902
902
900
899
897
898
898
901
905
903
903
903
910
909
906
904
903
904
906
906
908
905
905
908
909
916
915
915
916
919
925
929
932
933
931
926
932
937
939
939
937
937
940
947
947
953
952
952
950
953
960
964
965
962
963
967
969
969
965
965
969
974
976
971
967
967
967
973
975
971
971
975
975
974
974
974
972
976
978
978
977
974
971
969
975
975
975
970
965
965
969
972
973
970
968
965
968
968
970
969
966
963
964
965
962
958
957
957
962
965
963
958
953
953
959
964
963
960
956
958
963
969
968
962
962
963
966
968
969
966
963
961
962
967
970
967
965
965
968
970
971
966
965
968
969
976
973
969
968
967
968
970
970
967
967
966
970
973
972
969
969
970
971
970
970
971
969
969
975
975
973
970
965
968
972
972
975
974
973
969
970
974
974
975
974
975
977
972
975
973
972
972
975
976
972
972
970
969
973
975
976
972
969
968
969
973
975
976
975
971
972
971
969
968
967
969
973
973
973
972
971
970
974
976
977
979
973
977
979
980
980
980
977
978
978
983
984
981
979
977
980
983
981
978
977
975
978
982
984
978
977
975
980
982
986
984
979
979
979
983
984
981
979
977
979
982
984
982
981
980
983
985
984
982
981
981
983
987
991
987
989
985
987
991
989
990
989
985
989
992
991
994
994
996
1000
1005
1010
1012
1014
1017
1021
1021
1021
1019
1019
1020
1021
1026
1037
1049
1061
1066
1063
1060
1061
1063
1057
1042
1014
968
922
893
877
884
890
896
902
911
920
928
938
945
955
964
969
977
983
988
992
992
990
989
992
995
995
993
993
992
996
997
998
997
996
994
997
997
999
998
994
998
1000
1004
1003
1003
1002
1004
1005
1008
1011
1010
1009
1010
1014
1017
1016
1019
1018
1019
1023
1025
1028
1026
1028
1030
1037
1040
1041
1043
1044
1045
1050
1052
1052
1050
1049
1049
1053
1055
1056
1057
1055
1056
1058
1061
1061
1062
1062
1063
1067
1066
1066
1066
1064
1063
1065
1067
1065
1063
1061
1061
1060
1060
1061
1059
1055
1054
1055
1056
1055
1053
1050
1049
1050
1050
1049
1043
1039
1035
1039
1040
1038
1036
1031
1033
1034
1035
1030
1026
1026
1025
1027
1027
1025
1024
1021
1019
1018
1020
1019
1014
1011
1012
1014
1017
1015
1011
1008
1012
1011
1013
1013
1011
1010
1010
1012
1014
1013
1013
1008
1008
1010
1010
1012
1011
1008
1007
1007
1011
1014
1010
1008
1009
1011
1014
1012
1011
1007
1006
1005
1008
1006
1004
1004
1005
1006
1010
1010
1010
1011
1012
1014
1013
1013
1010
1009
1007
1008
1013
1012
1012
1007
1009
1008
1010
1011
1008
1004
1003
1001
1002
1006
1003
1003
1005
1008
1008
1010
1005
1006
1003
1004
1006
1007
1005
1004
1001
1005
1007
1007
1003
1003
1004
1005
1010
1009
1006
1006
1004
1007
1009
1008
1004
1002
1002
1004
1008
1009
1005
1005
1004
1007
1009
1008
1007
1004
1006
1009
1013
1008
1008
1007
1005
1008
1011
1008
1008
1003
1003
1009
1012
1012
1008
1008
1008
1009
1011
1010
1009
1009
1009
1011
1013
1014
1011
1007
1009
1011
1013
1011
1011
1012
1011
1012
1012
1014
1012
1011
1011
1013
1015
1015
1014
1012
1012
1014
1014
1016
1014
1015
1012
1016
1019
1016
1016
1015
1015
1018
1020
1020
1018
1018
1018
1019
1022
1020
1018
1015
1016
1021
1023
1023
1022
1025
1023
1029
1030
1031
1035
1038
1044
1046
1052
1060
1067
1075
1083
1095
1109
1120
1135
1144
1157
1169
1181
1189
1199
1202
1203
1211
1221
1233
1239
1245
1243
1237
1232
1222
1217
1212
1208
1202
1184
1160
1143
1129
1123
1119
1117
1106
1098
1090
1083
1083
1078
1075
1073
1074
1081
1086
1082
1074
1061
1049
1040
1033
1035
1034
1028
1020
1013
1013
1008
1004
989
980
970
966
962
958
952
949
947
948
946
944
940
938
936
937
935
935
931
929
929
930
933
931
931
929
927
928
930
929
927
926
928
928
930
932
932
931
933
935
938
937
934
938
936
940
945
947
947
949
950
957
961
964
964
964
964
968
971
973
975
979
981
984
990
994
992
992
997
998
999
998
997
997
996
998
998
999
999
999
1000
1004
1004
1001
1001
1000
1000
1002
1006
1004
1001
1001
1000
999
1000
1001
999
998
994
997
1001
1004
1002
999
999
1001
1002
999
999
999
993
996
996
999
995
995
992
991
995
995
992
987
985
990
993
995
994
994
992
992
995
998
997
999
997
998
998
994
993
993
993
996
999
997
998
995
997
998
1003
1001
1001
1000
999
1001
999
1004
1001
997
995
1000
1003
1005
1002
998
996
997
1003
1004
1003
998
1001
1006
1006
1003
997
995
997
1001
1003
998
991
990
994
998
999
1001
1001
1001
999
998
996
997
997
992
991
995
998
995
992
989
990
992
991
995
993
990
991
996
999
993
993
991
992
993
992
994
992
988
987
991
995
993
991
988
989
991
994
995
992
989
988
989
989
992
991
989
988
988
991
992
990
990
987
988
992
991
990
991
992
992
993
995
994
990
990
989
993
988
988
989
986
989
990
989
990
986
988
992
995
996
991
992
993
991
993
993
992
991
992
994
995
998
999
1000
998
1001
1004
1009
1012
1014
1022
1030
1045
1055
1057
1066
1073
1088
1107
1117
1126
1133
1142
1151
1163
1172
1175
1176
1181
1193
1208
1219
1218
1210
1200
1195
1193
1190
1183
1172
1159
1140
1122
1108
1097
1086
1077
1067
1058
1051
1042
1031
1027
1027
1034
1039
1036
1026
1015
1004
995
988
983
981
978
976
971
970
964
958
952
947
939
931
922
913
911
911
913
911
907
904
902
903
906
908
905
899
898
901
903
904
904
900
899
901
898
898
901
899
901
903
905
905
903
905
907
911
912
914
916
919
921
923
926
926
928
927
933
935
941
942
942
942
944
950
953
956
958
956
957
966
970
971
970
969
968
972
978
977
977
973
972
975
979
980
980
981
977
982
986
989
986
980
978
979
982
983
982
979
980
984
988
985
985
980
980
983
984
983
981
983
979
977
975
976
975
976
978
982
981
978
976
974
972
973
977
974
972
971
976
981
982
980
978
975
973
979
982
983
978
976
975
976
982
981
981
976
975
979
985
986
984
981
982
986
985
984
981
981
983
984
986
984
981
979
982
985
987
988
986
982
982
982
986
983
985
982
983
987
987
986
986
983
982
985
985
982
981
983
980
983
985
983
984
986
985
986
989
987
985
984
983
986
985
983
983
982
977
980
982
983
982
982
985
988
994
994
993
990
994
992
994
992
990
986
985
987
984
983
981
979
979
980
981
982
982
978
977
979
981
978
980
978
977
978
980
981
977
975
976
978
979
981
979
977
976
981
984
984
983
979
981
982
982
983
982
981
982
984
985
984
983
982
983
983
987
988
989
988
989
992
997
997
998
998
1004
1010
1014
1023
1028
1036
1047
1057
1069
1080
1095
1107
1117
1130
1143
1151
1159
1163
1171
1179
1190
1198
1206
1208
1208
1205
1200
1192
1188
1184
1182
1175
1166
1144
1127
1112
1107
1105
1098
1088
1074
1060
1048
1041
1037
1032
1027
1031
1035
1036
1027
1016
1001
990
984
986
986
981
974
967
965
963
958
948
937
925
918
916
916
915
908
908
908
908
906
906
904
902
901
900
900
898
897
894
895
898
899
898
897
895
895
899
901
902
900
898
899
901
903
904
902
905
906
911
914
914
917
918
920
924
930
932
933
936
936
941
944
945
946
945
946
952
953
957
953
957
962
966
968
968
971
969
972
973
978
978
975
975
974
978
977
976
976
976
977
981
982
981
978
979
979
982
984
981
980
975
980
984
988
990
988
988
988
989
989
989
989
985
982
980
981
979
975
975
973
975
978
976
974
972
973
975
975
974
974
972
974
974
977
975
975
976
979
981
982
983
982
979
981
983
985
985
986
984
986
986
992
989
989
987
988
990
994
993
989
988
988
992
992
992
988
988
991
992
994
994
994
991
994
997
1001
1001
998
996
994
999
1002
1000
998
996
996
999
999
998
998
996
992
996
998
997
997
995
995
998
1001
1003
999
997
995
996
1001
998
999
996
999
1001
1001
1000
996
996
997
999
1001
1003
1000
999
1000
1001
1004
1001
999
996
1000
1000
1004
1002
999
998
998
997
1001
1002
1000
999
998
999
1000
1003
1000
999
999
1001
1000
1000
999
999
998
1000
1002
1002
1001
1000
1001
1004
1007
1006
1004
1004
1005
1006
1009
1008
1003
1003
1005
1007
1009
1010
1010
1010
1012
1020
1022
1026
1029
1033
1041
1053
1064
1076
1084
1097
1114
1132
1146
1158
1168
1176
1184
1188
1197
1204
1211
1222
1226
1229
1224
1212
1204
1198
1198
1197
1192
1180
1159
1137
1122
1114
1106
1097
1089
1076
1068
1065
1062
1055
1047
1046
1048
1056
1058
1054
1045
1036
1031
1027
1024
1021
1019
1010
1008
1001
997
992
980
966
955
947
941
938
934
928
927
931
931
923
922
921
920
921
921
920
912
912
914
918
920
919
914
913
917
919
919
918
914
914
918
920
922
922
922
923
925
929
932
929
932
933
935
941
941
942
943
944
948
952
955
957
957
957
963
965
968
969
970
970
976
978
983
985
981
985
986
987
992
990
991
990
992
995
996
998
996
993
996
997
999
999
996
994
995
1001
1005
1004
999
996
997
1002
1001
999
997
997
997
997
995
994
991
995
998
1000
1000
996
997
996
996
995
992
993
995
992
992
992
992
989
987
986
988
990
993
990
988
989
989
991
990
993
992
991
993
995
997
996
990
990
995
1001
999
996
991
992
994
998
1004
1003
998
996
996
1000
993
991
993
994
992
996
997
998
996
993
994
995
995
998
995
993
997
996
995
992
994
992
991
992
998
995
993
992
994
994
990
990
989
989
991
990
992
992
992
987
986
986
986
985
983
982
984
987
988
986
984
982
983
984
991
987
983
982
983
984
986
986
981
980
978
980
981
987
989
986
992
991
992
990
987
985
988
989
987
983
984
980
980
981
981
980
976
973
975
977
979
978
975
976
977
983
978
979
976
978
979
982
982
979
977
977
976
982
979
978
978
975
978
980
981
982
979
980
985
985
985
985
985
985
987
989
990
991
991
991
994
1001
1007
1009
1010
1013
1020
1032
1041
1046
1052
1066
1082
1096
1111
1123
1127
1136
1147
1158
1167
1171
1173
1178
1185
1196
1211
1217
1215
1208
1201
1198
1194
1192
1187
1183
1176
1164
1144
1127
1114
1107
1101
1092
1081
1068
1055
1042
1035
1029
1023
1023
1025
1029
1029
1023
1010
995
983
975
974
975
974
969
960
957
956
958
955
944
936
928
921
914
908
906
903
902
902
904
903
904
902
899
896
894
896
892
893
891
890
892
888
889
888
886
888
890
890
888
889
888
893
896
895
893
892
894
897
901
904
901
905
908
910
911
912
914
914
917
924
930
930
930
929
928
934
941
944
945
945
945
951
955
953
953
953
953
957
964
965
966
964
967
969
973
977
977
975
967
968
969
971
968
970
973
979
982
982
982
976
972
975
977
980
979
978
979
982
985
980
975
976
978
984
986
987
988
984
978
983
990
987
982
978
976
973
973
975
975
972
969
967
967
969
968
967
967
969
976
975
970
967
968
973
975
970
967
966
968
973
976
978
974
973
972
972
974
976
975
975
974
977
981
986
980
974
975
976
979
981
979
979
976
977
982
982
979
980
980
979
983
983
983
981
980
980
983
984
981
981
980
984
989
988
986
983
985
986
988
988
985
981
980
982
985
987
985
984
981
983
986
986
985
986
982
986
989
990
987
985
985
986
990
989
986
983
984
984
986
986
985
986
984
988
990
990
988
986
987
989
990
990
985
986
984
986
986
987
984
986
987
987
987
989
989
986
986
989
990
991
991
989
989
990
992
992
991
989
990
991
993
994
987
989
990
992
994
993
993
992
993
999
1003
1005
1003
1006
1007
1012
1017
1021
1023
1023
1030
1040
1051
1060
1066
1073
1085
