1046
1032
1019
1008
1006
1007
1001
996
988
987
984
979
969
959
948
940
939
940
939
934
933
931
932
933
933
929
924
925
927
927
928
925
923
922
925
927
927
925
923
920
926
927
929
925
926
927
929
930
930
931
931
934
937
939
940
942
944
948
953
956
957
957
958
964
966
965
967
970
970
971
977
979
981
978
981
983
984
985
983
982
983
981
987
986
986
984
982
986
988
988
986
982
984
980
982
984
982
982
979
981
983
986
984
980
979
981
980
984
983
977
978
980
985
984
982
982
979
981
982
985
982
982
980
981
982
986
982
981
978
978
981
984
982
980
979
979
981
985
984
982
983
984
985
985
986
983
984
987
989
990
987
983
982
982
983
987
984
986
986
985
988
986
989
988
985
986
989
988
989
986
983
985
987
989
991
986
984
984
987
986
988
983
979
982
986
988
986
980
980
982
986
990
987
984
983
982
985
986
985
983
981
978
984
984
983
976
976
976
977
979
979
981
981
981
980
979
981
979
975
973
975
975
977
979
978
979
975
980
980
979
979
978
984
980
974
976
972
971
976
978
980
977
975
976
979
976
972
970
972
974
978
979
977
976
974
972
973
972
975
974
968
968
969
973
974
973
972
967
971
972
972
970
967
969
971
974
974
970
973
972
972
975
973
971
969
970
971
973
972
975
976
980
982
986
982
982
981
980
976
976
979
979
975
973
974
977
978
979
980
983
987
994
997
998
1002
1007
1019
1027
1033
1039
1043
1056
1068
1079
1086
1092
1101
1109
1122
1128
1133
1139
1142
1150
1158
1166
1178
1179
1177
1175
1170
1166
1163
1157
1150
1142
1128
1109
1095
1078
1071
1065
1059
1047
1039
1029
1020
1015
1009
1005
1000
999
1004
1007
1008
1001
989
975
963
956
953
954
953
948
943
938
942
944
942
938
935
928
924
919
911
908
907
910
908
909
908
903
901
902
905
907
905
905
901
903
905
906
905
903
902
901
907
907
904
904
902
905
909
910
907
905
908
910
911
914
914
913
915
917
923
923
924
923
925
926
932
934
933
932
934
936
942
945
946
945
947
951
955
957
959
960
961
966
967
971
968
968
968
970
973
975
973
975
974
977
977
979
978
978
975
978
981
981
979
979
979
980
980
983
981
977
979
980
980
980
978
980
978
979
981
982
979
980
977
980
981
983
983
980
980
981
982
983
979
977
976
974
979
981
981
980
979
976
980
983
983
979
979
980
982
984
982
983
981
983
984
985
984
984
982
983
987
989
988
988
987
986
990
991
990
988
986
990
992
994
990
989
988
988
988
990
991
989
985
991
994
995
993
990
989
991
994
995
994
993
991
992
993
992
992
992
992
991
993
993
992
992
993
991
994
997
994
991
994
993
996
997
997
995
993
995
997
995
996
992
993
994
997
999
996
994
993
996
999
1000
996
997
997
998
998
1000
999
997
995
997
1001
1000
999
999
997
999
1002
1003
999
999
999
1002
1001
1003
999
999
1000
1002
1005
1003
1005
1003
1001
1002
1002
1005
1000
1001
1004
1004
1002
1005
1006
1003
1001
1003
1006
1007
1003
1004
1002
1003
1005
1007
1005
1003
1003
1006
1007
1007
1006
1006
1007
1005
1008
1012
1007
1006
1005
1009
1012
1009
1007
1006
1007
1005
1010
1011
1011
1010
1011
1015
1019
1016
1023
1025
1029
1037
1042
1046
1050
1059
1067
1076
1087
1098
1109
1120
1132
1142
1157
1168
1173
1179
1187
1192
1198
1201
1209
1214
1220
1227
1224
1216
1202
1197
1191
1190
1187
1182
1170
1151
1128
1109
1094
1083
1074
1068
1060
1056
1053
1051
1045
1036
1032
1035
1041
1045
1047
1039
1030
1023
1017
1010
1002
994
994
993
994
990
986
980
979
978
975
971
960
951
946
944
943
943
941
936
934
935
937
937
935
931
930
930
932
932
931
929
926
931
932
929
930
928
923
924
929
929
927
927
927
929
934
933
930
929
931
933
937
940
941
941
941
942
948
947
946
947
950
951
954
957
958
957
957
960
964
966
967
965
967
972
975
979
979
978
979
985
987
988
988
985
989
992
995
995
994
994
994
996
997
999
998
997
995
997
999
1002
996
995
997
998
1001
999
997
995
993
997
997
1000
995
993
993
997
997
997
994
992
989
991
996
995
995
991
990
991
993
991
991
988
985
988
991
989
988
985
985
988
991
992
989
987
985
988
992
992
991
989
988
991
993
995
993
991
990
992
996
996
995
993
992
994
997
997
996
993
993
995
996
995
993
993
989
993
998
998
996
996
996
998
1001
1000
1001
998
999
998
1002
1001
1000
997
998
1000
1001
1002
1000
997
997
1001
1005
1003
1000
1000
999
1003
1005
1007
1004
1005
1007
1008
1014
1014
1014
1010
1011
1012
1011
1010
1006
1002
1002
1003
1006
1002
999
997
997
996
999
1000
996
994
991
994
996
997
995
993
994
995
998
998
999
997
997
997
999
1002
1000
996
998
997
998
999
996
995
993
995
997
996
997
995
995
998
999
1001
998
996
995
998
999
1001
998
997
996
998
999
997
996
991
991
997
998
998
998
997
994
995
998
997
998
998
995
997
1000
1001
1000
997
996
999
1001
1001
1000
997
998
998
1000
1000
1001
998
999
1003
1004
1004
1007
1006
1007
1010
1014
1017
1018
1018
1023
1030
1039
1048
1053
1061
1066
1080
1094
1107
1121
1131
1140
1148
1158
1166
1174
1171
1173
1179
1188
1198
1208
1211
1208
1201
1190
1186
1179
1173
1169
1163
1150
1127
1106
1091
1082
1077
1073
1067
1058
1052
1046
1046
1039
1037
1039
1043
1043
1041
1037
1023
1010
1003
997
999
997
992
988
979
976
975
974
970
963
955
947
937
934
928
927
926
925
929
925
924
921
917
913
913
919
918
918
915
911
911
911
915
909
905
905
912
911
907
905
908
911
909
914
914
916
912
914
916
916
914
915
915
915
918
923
923
923
922
923
929
931
935
935
936
940
943
949
946
941
944
949
954
958
956
952
949
949
954
960
961
961
959
956
962
970
975
973
970
970
969
966
971
966
966
968
973
976
976
973
970
969
971
975
973
968
968
973
976
981
978
973
971
969
972
974
972
967
964
965
967
972
966
966
966
965
965
965
965
963
962
961
964
965
965
963
957
955
958
961
963
963
962
961
962
962
964
965
964
962
967
968
971
969
966
963
966
971
969
966
967
966
969
972
967
964
964
965
967
968
965
966
964
971
973
978
978
975
971
972
975
978
978
976
976
974
974
974
973
969
969
964
972
972
974
974
970
973
972
975
973
970
970
971
971
972
974
973
973
971
971
977
978
979
974
976
975
979
980
977
973
972
974
977
975
976
974
975
976
981
979
978
975
976
978
983
984
980
980
976
980
981
980
977
977
975
975
979
980
979
981
978
980
983
986
984
983
984
983
986
984
984
982
982
984
986
987
984
981
978
981
986
985
986
985
984
988
988
990
988
984
985
990
991
990
988
985
987
989
991
991
990
990
988
989
992
995
992
991
989
992
995
995
994
992
992
994
1000
998
998
998
998
1002
1010
1012
1014
1017
1018
1026
1033
1041
1047
1051
1059
1070
1080
1094
1105
1117
1127
1141
1151
1162
1168
1171
1174
1181
1189
1199
1210
1214
1216
1212
1204
1196
1193
1188
1184
1183
1170
1151
1131
1111
1099
1091
1086
1075
1061
1054
1047
1044
1041
1035
1031
1033
1038
1043
1037
1027
1013
1002
994
990
992
992
987
981
976
977
974
969
961
951
943
939
934
936
930
928
925
927
929
927
920
921
922
923
922
923
920
919
918
920
923
924
923
920
919
917
922
922
920
919
920
922
925
926
926
925
926
932
935
935
934
937
937
942
946
947
946
946
948
952
956
957
958
956
959
963
967
967
970
970
971
976
980
981
979
980
980
985
986
985
982
983
986
984
988
988
986
985
985
988
992
992
992
992
994
992
997
995
997
991
990
992
994
994
993
993
993
997
999
1001
1000
1000
1000
1002
1004
1003
1000
997
996
997
998
998
995
991
990
990
990
989
985
984
983
985
986
988
985
983
984
988
989
985
985
984
983
987
989
989
987
985
985
990
992
993
991
991
989
991
994
993
991
987
987
989
993
993
990
987
986
990
996
995
994
993
994
995
997
993
992
991
990
994
993
995
992
991
990
992
995
993
992
992
994
995
998
998
995
993
990
993
996
997
995
991
991
995
997
997
994
993
995
996
999
1000
997
993
997
997
1001
1000
998
996
998
998
1001
999
996
994
995
998
999
999
997
998
998
999
1001
1002
1000
997
997
998
1000
1000
994
994
997
1000
1001
1000
998
995
996
999
1001
1002
1000
997
999
1001
998
999
999
997
994
997
1001
1003
998
998
998
1001
1002
1005
1002
1004
1001
1004
1006
1006
1002
1001
1001
1004
1004
1004
1003
1002
1002
1003
1004
1006
1003
1002
1006
1006
1010
1012
1012
1013
1015
1021
1030
1035
1034
1042
1053
1063
1073
1087
1097
1111
1125
1139
1152
1160
1168
1175
1181
1190
1196
1198
1208
1211
1220
1224
1223
1213
1199
1192
1191
1192
1187
1172
1149
1127
1111
1099
1094
1088
1076
1065
1060
1057
1051
1044
1038
1039
1047
1051
1048
1039
1023
1011
1000
998
1001
999
993
984
980
979
979
975
963
951
943
937
933
929
927
925
922
926
924
922
920
918
918
920
920
918
915
912
913
914
916
914
911
911
913
912
915
913
915
915
916
917
921
922
920
920
921
923
924
927
923
926
928
931
935
934
935
938
940
946
950
951
952
952
955
958
963
960
959
961
963
969
970
971
973
974
975
978
983
982
979
980
979
982
985
988
985
980
983
985
987
990
990
988
990
988
989
988
986
981
981
984
987
989
984
982
986
986
985
981
977
978
978
980
981
984
985
988
991
990
987
984
980
980
980
985
986
981
977
976
979
982
980
983
983
977
973
976
985
983
983
977
979
984
988
986
985
983
984
981
984
984
983
984
984
985
983
982
986
987
981
978
980
979
982
980
983
985
989
990
985
982
979
981
984
985
982
981
982
983
985
984
984
986
983
979
980
980
980
979
977
981
982
982
981
976
978
980
985
985
980
977
976
978
982
982
981
979
980
983
984
982
977
976
976
979
981
981
978
977
979
980
981
981
979
980
981
983
981
985
982
983
980
984
986
983
980
980
980
984
983
983
979
977
981
984
986
984
982
983
982
986
984
986
982
981
981
983
985
984
981
982
982
984
984
985
981
979
981
984
984
985
984
983
985
988
988
987
983
983
984
985
988
986
986
986
989
991
992
991
991
990
993
995
997
996
992
991
996
995
998
999
997
995
996
1000
1003
1002
1004
1003
1008
1010
1017
1021
1022
1025
1032
1042
1051
1062
1072
1084
1099
1118
1133
1145
1155
1164
1176
1186
1193
1199
1206
1220
1230
1232
1225
1216
1209
1203
1203
1195
1179
1153
1133
1117
1105
1099
1089
1076
1064
1057
1050
1047
1040
1037
1039
1041
1043
1041
1027
1013
1000
993
989
992
992
988
981
972
974
975
972
966
954
946
938
934
931
928
925
923
925
927
932
930
926
929
932
933
938
936
932
931
930
931
932
931
926
924
921
923
922
920
921
919
919
921
924
921
922
923
926
929
931
933
933
935
936
941
944
943
941
941
946
949
954
954
954
955
959
963
967
967
967
968
971
978
979
982
978
981
986
985
989
991
991
989
992
993
994
996
995
995
995
999
1003
1000
998
999
999
1002
1005
1002
1001
999
1000
1003
1003
999
996
996
999
1001
1001
1002
1000
999
999
1003
1003
1003
1000
1001
1002
1004
1001
999
997
997
998
1000
1001
1001
999
999
999
1001
1003
1002
1000
999
1000
1002
1006
1004
1001
999
1000
1004
1005
1003
1003
1003
1003
1007
1008
1008
1003
1001
1005
1006
1007
1008
1006
1008
1009
1010
1010
1009
1009
1008
1006
1008
1009
1008
1006
1006
1005
1009
1011
1012
1006
1009
1010
1013
1014
1012
1011
1008
1010
1011
1009
1010
1006
1006
1010
1013
1013
1013
1008
1007
1009
1013
1013
1014
1011
1012
1010
1015
1012
1013
1009
1010
1010
1011
1011
1010
1010
1009
1010
1012
1012
1013
1011
1010
1010
1012
1013
1014
1011
1009
1011
1013
1014
1013
1009
1009
1011
1013
1016
1015
1014
1013
1015
1015
1017
1016
1016
1015
1017
1019
1017
1018
1012
1012
1015
1016
1018
1017
1013
1015
1016
1019
1019
1017
1017
1016
1018
1018
1021
1020
1018
1018
1019
1018
1021
1022
1015
1015
1018
1021
1020
1018
1018
1018
1019
1022
1023
1023
1020
1018
1021
1024
1023
1023
1020
1018
1018
1020
1021
1020
1020
1019
1021
1023
1023
1021
1020
1021
1022
1026
1029
1029
1029
1027
1034
1037
1039
1041
1043
1046
1053
1061
1067
1076
1083
1090
1098
1110
1122
1133
1142
1155
1167
1178
1187
1192
1198
1204
1209
1214
1220
1228
1237
1243
1243
1240
1229
1216
1208
1205
1203
1197
1183
1159
1137
1121
1110
1104
1097
1087
1078
1069
1069
1069
1064
1058
1057
1062
1067
1070
1067
1056
1045
1037
1030
1028
1023
1023
1017
1014
1009
1003
999
994
988
979
973
963
954
946
943
942
940
941
942
940
934
935
936
937
938
936
931
927
929
931
930
927
925
924
923
929
930
929
925
925
927
932
934
933
932
933
936
938
940
940
939
936
943
944
945
946
947
949
951
956
958
958
961
962
963
969
972
973
971
971
972
977
979
980
977
977
982
986
991
990
987
989
993
996
999
999
996
996
999
1003
1003
1003
1001
1000
1001
1004
1004
1003
1001
1002
1001
1005
1002
1005
1003
1005
1004
1006
1009
1006
1004
1005
1005
1008
1008
1007
1004
1002
1001
1003
1003
1003
1002
1001
1002
1003
1004
1003
1001
1001
1001
1002
1003
1002
1000
1001
1002
1004
1005
1003
1001
1001
1003
1005
1006
1005
1004
1002
1005
1006
1009
1009
1006
1006
1008
1009
1009
1006
1003
1004
1004
1003
1008
1006
1003
1004
1005
1008
1009
1008
1006
1006
1009
1009
1010
1005
1004
1003
1006
1008
1008
1006
1004
1002
1004
1006
1007
1005
1006
1005
1004
1006
1004
1006
1006
1004
1007
1008
1008
1007
1004
1005
1005
1007
1008
1008
1005
1004
1004
1006
1007
1007
1004
1005
1005
1009
1010
1008
1006
1004
1002
1008
1008
1011
1009
1005
1004
1006
1006
1002
1004
1004
1005
1004
1007
1006
1005
1007
1007
1009
1011
1008
1006
1005
1006
1009
1010
1007
1007
1006
1005
1005
1001
1001
1001
1000
1003
1009
1011
1009
1004
1006
1008
1010
1007
1002
999
999
999
998
998
997
997
1001
1004
1005
1007
1004
1001
1003
1006
1007
1006
1003
1000
999
997
1002
998
997
996
997
997
998
998
1001
1001
1002
1006
1006
1003
1002
1003
1007
1006
1004
1000
994
992
992
995
1002
1001
999
1000
999
1001
998
1001
1004
1003
1001
1000
1005
1007
1007
1003
1007
1017
1024
1027
1027
1031
1036
1043
1050
1060
1072
1084
1096
1108
1115
1128
1137
1150
1159
1172
1182
1185
1185
1185
1191
1203
1215
1219
1216
1208
1202
1201
1204
1204
1200
1192
1180
1155
1131
1115
1108
1098
1085
1074
1065
1055
1046
1040
1033
1025
1017
1017
1021
1027
1028
1024
1015
1001
990
978
969
962
965
963
958
951
945
948
947
948
943
930
920
920
919
914
912
911
907
908
906
910
908
903
896
897
898
898
899
900
900
905
905
898
896
894
892
893
898
900
895
895
899
903
905
905
905
909
910
911
910
908
907
907
912
916
922
921
925
926
927
926
935
936
936
934
937
946
950
947
950
948
952
958
963
962
961
958
963
967
971
975
974
973
970
974
979
983
981
983
983
983
984
980
982
980
977
979
982
988
985
980
979
984
989
989
985
982
982
985
986
989
985
982
978
980
985
985
983
982
981
983
983
982
979
975
976
981
983
985
983
983
977
979
980
982
976
979
978
981
982
983
981
978
978
980
982
983
982
978
978
982
986
984
985
984
982
985
987
988
988
985
983
982
985
984
986
982
983
984
990
992
992
988
988
990
991
993
992
988
987
990
991
993
989
989
987
991
991
993
993
987
988
989
992
994
992
991
989
991
991
992
993
989
990
990
990
993
994
991
991
995
994
995
995
995
991
991
997
998
996
993
989
991
995
996
995
993
992
993
994
996
995
994
992
994
999
1000
998
997
995
997
999
998
997
994
993
994
995
997
997
996
995
998
998
1001
1000
995
997
999
1001
1002
999
998
998
998
1002
1001
999
997
999
1000
1003
1002
1000
998
997
1002
1004
1002
1003
1001
1000
999
1002
1004
1000
998
998
999
1005
1004
1001
1000
998
1003
1008
1008
1006
1006
1004
1002
1009
1010
1009
1009
1009
1011
1012
1013
1015
1012
1011
1017
1022
1023
1029
1032
1039
1048
1061
1073
1083
1087
1101
1115
1127
1140
1151
1156
1166
1174
1187
1194
1199
1199
1207
1216
1229
1235
1236
1230
1223
1214
1208
1207
1203
1200
1189
1174
1155
1131
1109
1095
1083
1075
1067
1061
1053
1047
1038
1037
1037
1041
1043
1048
1044
1039
1031
1019
1010
998
994
995
997
995
989
982
979
977
972
967
955
944
934
931
930
930
926
925
923
921
924
922
919
917
914
917
917
916
916
914
912
914
917
919
916
913
914
916
919
919
918
917
915
919
921
921
920
920
921
922
927
929
930
931
932
937
941
945
945
944
946
945
954
956
956
956
956
962
967
969
968
967
970
975
979
979
979
982
983
986
991
990
988
988
988
991
992
992
993
990
989
993
996
998
992
995
996
1000
1001
1001
997
995
994
996
998
995
994
992
991
993
996
994
992
992
991
993
993
992
993
990
990
991
992
993
991
989
988
991
993
992
990
990
989
994
996
992
993
994
993
995
994
996
998
992
994
995
998
995
996
994
996
999
999
1000
999
999
997
1000
1003
1003
1000
1001
1002
1002
1002
1004
1001
1000
999
1002
1006
1005
1005
1003
1001
1003
1007
1006
1005
1003
1005
1004
1009
1010
1007
1003
1005
1006
1008
1006
1005
1006
1004
1008
1011
1010
1008
1006
1006
1009
1011
1011
1008
1008
1006
1008
1010
1011
1009
1008
1004
1005
1010
1008
1009
1007
1006
1009
1009
1006
1006
1006
1006
1006
1006
1008
1009
1007
1008
1010
1013
1011
1011
1011
1010
1012
1015
1017
1015
1016
1017
1019
1021
1023
1026
1025
1023
1027
1028
1025
1019
