1005
1004
1003
1007
1007
1006
1004
1001
1006
1008
1006
1005
1005
1003
1006
1009
1007
1003
1003
1003
1003
1005
1006
1004
1001
998
1003
1007
1008
1004
1001
1000
1002
1003
1007
1005
1002
1000
1004
1006
1004
1002
1003
1000
1005
1005
1006
1003
1004
1002
1003
1007
1007
1004
1002
1001
1002
1003
1004
1002
999
1000
1004
1006
1003
1002
1002
1002
1002
1006
1006
1003
1001
999
1001
1006
1005
1004
1002
1001
1000
1004
1004
1001
1000
998
1001
1004
1004
1001
1001
1000
1002
1004
1002
999
1000
997
1000
1004
1001
1001
999
998
1000
1003
1004
1001
1000
1002
1001
1006
1004
1001
999
998
1001
1002
1006
1003
997
996
1003
1002
1003
1001
1001
999
1002
1005
1005
1003
1001
1001
1004
1005
1005
1003
1002
1002
1002
1002
1004
999
1000
1000
999
1004
1005
1004
1003
1000
1005
1005
1006
1002
1004
1002
1005
1008
1006
1004
999
1002
1005
1008
1007
1007
1006
1011
1013
1017
1019
1020
1022
1024
1030
1034
1037
1041
1044
1052
1060
1071
1081
1089
1102
1111
1124
1135
1143
1147
1147
1151
1153
1163
1171
1180
1183
1185
1183
1182
1176
1162
1161
1153
1147
1136
1119
1103
1086
1070
1057
1052
1051
1044
1036
1032
1032
1034
1037
1038
1037
1041
1044
1042
1034
1024
1013
1005
1001
998
998
995
990
989
989
987
982
977
969
966
960
959
953
950
947
946
950
949
949
946
946
944
947
947
947
944
945
941
944
946
946
945
943
943
944
946
947
946
941
943
944
949
949
948
947
949
952
953
954
954
955
955
957
957
961
959
960
960
964
966
966
965
966
965
970
975
977
975
976
977
979
984
986
984
981
983
985
988
986
986
984
985
990
993
993
992
992
992
996
997
998
997
996
996
997
1000
999
997
995
992
996
1001
999
998
995
997
1000
1001
1000
998
998
997
1000
999
1000
1001
998
998
1001
1002
1000
998
996
994
998
999
999
996
997
997
1000
1000
998
996
998
996
1000
1001
1001
999
1000
997
996
999
999
996
993
994
996
1000
998
996
996
996
1000
1003
1000
998
997
996
997
1000
999
996
995
995
997
997
1000
997
997
997
1000
1000
1000
997
996
995
998
1001
999
996
994
994
999
1000
1000
997
995
995
997
998
998
996
994
995
995
999
1000
997
995
997
999
999
1000
998
994
995
994
996
996
994
994
994
999
1000
999
999
999
998
999
1001
1000
998
998
995
999
1003
999
999
994
995
997
999
998
996
995
996
1001
1000
1000
997
997
996
1000
1001
998
998
994
996
998
999
998
996
994
993
997
998
999
997
996
996
999
1001
1000
997
996
998
999
999
1000
997
993
997
996
997
998
995
995
994
997
998
999
997
992
994
999
998
995
995
994
994
995
999
996
994
988
992
994
997
996
995
993
995
998
1000
997
995
993
992
999
1000
999
997
995
994
995
995
996
992
992
993
994
1000
997
993
992
996
995
997
997
992
993
994
997
998
996
996
994
995
996
1000
998
997
995
997
1001
1005
1004
1004
1005
1006
1011
1016
1018
1019
1023
1025
1032
1039
1045
1049
1055
1063
1076
1087
1100
1108
1115
1124
1134
1138
1142
1143
1142
1151
1163
1170
1175
1174
1170
1168
1162
1157
1151
1141
1138
1128
1117
1103
1086
1069
1052
1041
1036
1035
1029
1024
1019
1020
1024
1027
1028
1031
1030
1031
1028
1021
1014
1004
993
990
989
988
986
980
978
979
978
978
973
965
959
955
950
948
943
939
937
940
943
943
940
937
937
938
940
937
939
937
935
936
937
938
938
933
934
932
935
936
935
932
936
935
937
940
942
939
938
941
944
947
948
944
944
946
949
952
951
951
951
953
956
957
959
956
958
962
962
967
968
966
964
969
973
974
975
971
973
974
977
979
980
976
978
977
981
982
983
981
983
985
987
988
989
987
988
987
990
994
993
991
985
985
988
991
991
989
989
989
990
990
993
992
992
991
994
994
992
991
989
988
991
992
990
988
987
988
989
991
990
985
986
987
989
992
990
988
988
989
986
990
990
986
986
987
989
990
989
987
987
986
988
988
987
987
985
987
992
993
991
990
989
989
991
992
991
990
988
987
990
990
990
986
985
987
988
991
990
988
988
988
992
990
990
985
989
991
993
993
993
992
989
990
994
993
990
990
988
989
991
993
991
991
989
991
993
994
990
988
985
989
989
992
989
987
984
987
991
989
990
990
987
988
990
992
990
988
986
988
990
992
991
990
988
990
991
991
990
987
986
987
990
992
992
989
987
987
989
993
991
989
989
988
991
991
988
988
987
989
993
993
990
986
987
991
990
992
992
986
989
987
994
995
993
992
991
992
994
995
994
989
989
988
988
992
993
990
990
993
994
995
994
995
992
992
998
997
997
995
992
992
995
997
993
993
990
995
997
997
995
994
992
995
996
997
996
992
992
993
997
995
995
992
991
995
998
996
994
992
991
992
994
997
993
995
990
996
996
998
996
994
990
991
998
995
998
994
993
992
997
998
995
995
993
995
1000
1001
996
997
996
1000
1003
1006
1006
1006
1007
1009
1015
1018
1019
1018
1020
1026
1036
1043
1048
1053
1059
1067
1081
1092
1102
1109
1116
1125
1133
1138
1141
1139
1143
1150
1162
1169
1175
1176
1172
1166
1164
1162
1156
1148
1145
1136
1128
1116
1107
1091
1075
1060
1049
1041
1037
1033
1029
1025
1024
1025
1028
1026
1030
1036
1038
1035
1024
1015
1006
997
991
990
988
986
984
982
982
980
975
966
958
953
951
945
941
941
938
940
942
942
940
938
937
938
939
936
939
934
932
936
940
937
938
936
935
936
938
938
936
938
934
938
942
942
942
940
939
941
945
948
948
946
947
945
950
953
953
952
954
957
957
960
963
961
962
966
969
970
969
969
971
970
972
973
975
972
974
976
980
982
982
983
983
985
986
990
989
985
988
988
994
994
993
991
990
991
991
992
991
990
990
991
994
996
994
994
991
991
996
994
994
991
992
995
997
998
995
992
991
993
995
994
992
989
989
993
994
996
994
992
994
993
997
997
994
994
994
992
995
993
992
990
989
991
993
995
992
992
991
992
994
994
993
993
989
990
995
995
995
990
991
990
993
992
990
989
988
990
993
997
994
993
992
994
994
995
994
993
992
994
996
996
993
993
991
992
993
992
993
989
988
992
993
996
995
992
991
994
996
996
995
993
992
993
995
992
993
988
988
991
989
992
990
990
989
989
992
993
993
989
986
990
991
994
990
989
987
990
991
993
992
990
992
992
993
995
993
992
991
992
994
992
992
989
992
993
994
994
991
990
989
989
993
995
993
991
990
993
995
995
993
991
989
992
994
995
993
987
985
987
991
991
991
989
988
991
995
995
993
991
992
992
994
994
991
989
990
993
995
993
995
992
992
996
998
999
997
996
995
996
995
997
995
993
994
995
997
996
994
994
990
992
994
995
993
987
990
993
997
998
996
996
994
995
998
999
997
995
996
999
998
999
996
996
995
997
999
1001
1000
997
997
999
1001
1002
1000
1000
999
1000
1005
1007
1003
1006
1006
1011
1017
1020
1023
1022
1027
1034
1045
1052
1055
1059
1068
1081
1094
1104
1115
1120
1128
1136
1142
1141
1146
1149
1155
1166
1174
1180
1180
1174
1171
1163
1162
1157
1152
1146
1133
1121
1111
1093
1075
1059
1045
1039
1038
1034
1030
1022
1019
1022
1026
1032
1034
1035
1035
1030
1027
1018
1009
998
991
988
988
989
984
980
974
975
974
969
963
952
948
946
942
940
938
937
936
936
938
935
935
934
933
934
933
935
931
932
929
935
934
934
934
933
932
931
938
938
936
933
934
938
940
942
941
938
937
940
945
945
947
944
946
950
953
956
953
954
954
960
960
963
965
964
964
969
970
971
971
970
973
974
978
981
981
979
979
982
986
988
987
987
985
986
989
990
990
986
987
989
992
993
990
988
990
992
994
994
993
991
991
993
995
994
993
993
990
993
994
993
993
990
990
991
996
994
992
991
990
992
992
992
990
989
988
989
994
992
989
988
987
989
990
987
989
989
988
990
992
992
992
990
988
992
990
991
989
984
987
987
989
989
988
986
987
989
992
992
991
987
988
991
991
990
992
992
989
989
989
993
989
988
985
989
989
987
990
987
989
989
992
993
990
990
989
992
994
994
990
985
986
990
992
992
992
988
987
992
991
992
990
991
990
993
997
995
994
993
991
994
998
994
992
991
989
989
993
995
993
990
991
994
994
996
994
990
994
994
997
996
996
992
989
992
995
995
994
992
990
995
998
994
994
993
991
994
997
995
994
993
992
990
995
992
992
992
989
993
995
996
994
994
993
994
997
996
994
993
992
993
995
994
993
992
991
992
993
991
991
991
991
995
998
997
995
995
994
996
997
994
996
995
993
996
999
997
997
994
993
994
999
999
996
993
992
995
996
994
992
992
995
994
997
995
994
992
990
994
995
993
992
992
992
994
999
998
994
996
993
997
1000
998
997
996
998
1001
1004
1004
1004
1003
1005
1011
1018
1022
1023
1025
1030
1038
1047
1056
1063
1067
1078
1092
1106
1117
1123
1130
1133
1139
1144
1148
1153
1159
1168
1174
1180
1179
1173
1163
1158
1155
1152
1144
1131
1112
1095
1078
1064
1048
1040
1036
1029
1029
1028
1026
1026
1026
1029
1036
1038
1030
1020
1009
1001
994
992
989
980
982
977
977
977
974
969
961
954
950
947
942
937
936
935
935
938
933
935
932
930
931
934
934
929
929
927
932
935
932
931
930
927
932
933
932
933
930
932
932
936
936
934
933
934
935
938
941
939
941
941
943
944
946
947
946
947
951
956
957
954
952
954
958
963
963
961
964
963
966
969
970
969
968
969
973
977
977
976
976
976
978
981
983
980
979
979
982
983
983
985
984
981
983
986
986
984
982
981
983
986
984
982
979
977
979
983
982
980
979
979
981
982
982
979
975
977
980
981
983
981
979
980
981
981
982
981
978
979
983
985
982
980
980
979
982
985
985
983
982
979
983
988
985
981
980
980
983
985
985
983
983
983
986
988
991
987
984
983
986
990
989
986
987
984
986
988
987
986
984
984
987
989
989
986
985
986
989
991
989
989
986
984
989
990
989
988
987
987
989
990
991
989
985
990
990
992
991
992
987
988
989
993
992
992
989
986
991
994
995
991
988
989
992
994
989
990
990
988
992
993
993
992
990
987
991
992
991
987
985
986
991
992
994
992
988
989
990
994
992
993
989
991
994
997
995
993
991
989
993
996
993
992
989
989
995
996
998
996
994
992
996
996
999
995
992
994
995
998
998
996
994
995
995
997
997
996
996
995
998
998
996
998
996
995
998
999
997
997
992
992
993
997
999
998
999
999
1001
1002
1003
1002
999
997
1003
1002
1004
1001
999
998
1000
1003
1000
998
998
999
1003
1004
1003
1000
1001
1001
1006
1008
1008
1008
1006
1008
1013
1016
1020
1022
1021
1026
1034
1043
1050
1050
1058
1070
1083
1094
1107
1116
1123
1129
1136
1143
1142
1145
1152
1162
1172
1176
1175
1167
1158
1154
1151
1147
1137
1120
1103
1088
1070
1054
1040
1032
1031
1028
1028
1028
1028
1026
1025
1030
1037
1039
1036
1027
1017
1008
1005
1000
993
986
981
981
978
978
976
970
964
955
955
951
944
939
940
939
941
941
941
938
935
934
936
937
938
935
932
933
936
939
935
937
935
935
936
938
938
934
934
936
937
940
940
940
936
936
937
943
946
945
945
947
951
955
954
954
953
956
958
960
962
960
957
961
965
967
969
966
965
965
970
974
974
974
973
974
977
981
981
981
977
980
984
983
985
983
982
982
984
987
985
986
985
982
986
988
988
986
985
982
985
988
988
986
983
986
986
987
985
985
982
981
986
986
987
985
984
980
983
986
985
983
983
982
985
986
985
984
981
980
981
984
983
981
979
980
979
983
984
985
980
982
983
985
983
977
978
981
982
984
983
983
979
980
983
987
983
983
980
980
980
985
984
982
981
979
980
984
984
981
981
982
984
982
980
977
976
979
981
980
982
981
979
980
981
984
986
985
981
981
984
987
985
983
981
981
983
984
983
980
980
982
982
985
986
982
980
981
985
984
986
982
978
982
984
987
985
982
980
980
983
983
986
981
982
983
983
987
987
984
982
983
984
986
985
984
982
983
987
988
988
982
986
987
986
990
991
991
988
993
996
1000
999
997
997
996
1002
1004
1004
1004
1002
1002
1002
1002
1000
999
993
993
992
993
988
984
984
982
983
985
981
979
977
978
979
982
981
978
975
977
976
979
978
976
976
977
979
981
978
978
977
978
979
981
980
979
978
979
980
982
980
978
977
977
978
982
979
978
979
981
981
985
984
982
979
981
981
985
986
981
980
980
982
983
982
980
978
979
983
985
986
983
982
983
986
988
990
985
986
988
991
993
995
993
997
1000
1003
1010
1014
1016
1021
1026
1033
1043
1049
1054
1064
1075
1086
1096
1103
1108
1111
1118
1123
1124
1129
1132
1140
1147
1154
1158
1158
1153
1146
1141
1137
1137
1132
1122
1110
1099
1089
1080
1064
1049
1035
1028
1028
1029
1024
1016
1012
1011
1015
1018
1019
1020
1022
1022
1020
1014
1003
996
986
981
977
977
976
971
968
963
963
962
960
949
945
940
937
936
932
927
925
926
926
925
924
921
920
921
923
923
922
918
918
916
919
921
920
917
914
919
920
922
924
922
918
919
923
924
926
924
921
924
928
930
928
924
925
928
931
933
934
932
931
935
938
941
940
939
940
942
947
950
950
949
948
951
954
956
955
956
957
958
959
963
960
961
962
965
964
967
970
967
966
968
973
974
973
975
971
972
975
976
978
974
970
974
973
977
977
973
973
976
978
981
980
978
977
977
979
980
976
977
974
974
976
979
981
977
977
978
980
981
980
977
976
977
979
978
976
975
973
974
974
977
974
972
971
972
973
975
976
972
972
972
975
977
977
973
974
974
975
974
976
974
974
974
977
974
977
975
971
973
975
977
976
973
972
974
978
977
978
976
974
976
978
976
977
976
975
976
978
979
974
974
972
974
978
980
980
979
977
978
979
980
979
977
974
976
981
981
979
977
976
977
977
977
976
978
974
975
981
983
982
980
977
980
982
980
982
980
977
977
981
982
979
978
977
975
978
979
978
976
978
980
982
983
982
979
978
981
982
983
982
981
979
981
983
984
983
980
981
980
981
983
979
981
980
978
983
984
982
979
978
977
980
981
980
976
976
976
979
983
980
980
979
977
982
983
982
982
980
981
981
984
979
979
979
979
981
980
977
978
974
975
980
983
981
980
980
981
983
982
983
981
980
981
981
982
984
979
977
976
981
981
979
980
980
980
984
982
979
978
980
981
985
985
982
981
981
981
985
984
981
980
979
980
983
983
982
981
980
982
983
987
987
985
983
986
988
993
993
993
992
996
1002
1005
1008
1009
1015
1022
1033
1038
1044
1050
1059
1070
1083
1096
1106
1109
1119
1124
1126
1132
1136
1142
1152
1159
1165
1168
1161
1151
1148
1145
1144
1139
1131
1118
1105
1091
1077
1062
1047
1034
1029
1027
1024
1022
1017
1013
1010
1016
1020
1027
1026
1025
1019
1012
1005
999
992
981
975
974
976
973
973
968
962
962
959
952
945
938
931
927
928
926
927
926
922
923
925
925
923
920
919
920
921
922
917
917
917
919
921
922
920
920
918
920
923
926
925
922
922
926
928
930
928
926
926
928
932
932
931
932
931
933
938
940
941
940
937
941
946
949
948
947
947
949
952
955
954
951
954
955
957
960
960
960
958
963
965
969
968
968
965
969
972
972
973
970
971
974
973
973
974
973
974
974
975
975
975
973
974
977
977
981
979
976
976
972
976
978
977
973
973
974
976
978
976
974
974
976
980
983
980
979
976
979
980
980
979
976
976
975
978
978
978
975
976
977
978
981
980
979
975
978
983
981
980
981
979
981
982
984
981
980
977
979
981
981
979
974
978
974
979
980
979
979
978
979
982
985
982
980
978
978
978
979
978
976
975
977
979
976
978
975
975
977
980
981
980
978
979
978
983
981
982
979
978
978
979
982
979
979
976
978
982
983
979
979
978
980
982
983
981
979
982
981
982
984
981
980
979
980
981
984
981
980
978
979
980
980
982
979
979
980
980
982
979
978
976
978
979
982
979
978
979
982
979
983
980
975
976
980
983
982
981
978
978
979
978
982
980
978
977
979
980
982
981
978
979
980
981
981
981
978
977
980
983
982
982
979
976
979
980
982
978
979
979
982
983
983
981
981
979
981
984
984
982
980
978
980
983
982
981
980
978
982
982
983
979
982
978
982
985
986
981
983
984
983
987
986
984
980
978
981
985
987
985
985
982
986
988
989
989
989
985
989
995
997
998
999
1002
1005
1010
1011
1015
1019
1025
1036
1045
1057
1059
1069
1082
1093
1108
1114
1120
1122
1124
1128
1133
1141
1147
1152
1157
1161
1160
1154
1147
1140
1132
1130
1126
1114
1098
1078
1061
1047
1037
1030
1027
1023
1015
1014
1013
1017
1015
1016
1020
1022
1020
1011
1002
988
980
975
972
970
968
966
962
960
958
956
952
941
933
930
926
924
921
919
916
919
920
923
919
915
914
918
918
919
914
915
914
914
918
917
916
913
911
912
914
915
917
916
916
919
921
922
921
918
919
926
926
927
925
923
924
926
929
932
931
931
932
937
940
941
938
939
941
942
948
948
949
947
945
949
953
955
953
953
955
957
960
962
960
960
961
963
967
970
970
966
967
970
971
971
971
967
967
971
974
973
972
970
966
972
976
976
973
972
972
