934
939
940
937
934
933
936
939
938
935
933
932
934
935
937
934
932
931
934
936
939
939
935
932
931
936
934
935
935
933
937
937
939
937
935
935
936
939
942
940
935
934
934
938
940
940
936
933
937
940
942
940
938
935
936
942
941
940
937
933
935
938
942
938
937
935
936
940
943
941
939
935
939
940
947
943
941
941
941
943
947
946
943
940
944
946
946
943
943
940
940
940
941
941
941
939
943
946
949
949
946
945
945
946
949
948
944
947
949
950
951
951
949
947
946
951
952
952
946
947
949
951
952
953
950
951
951
957
955
955
947
951
954
959
959
959
957
953
957
960
965
962
961
965
965
969
975
978
977
979
985
995
1009
1019
1020
1018
1019
1019
1018
1020
1019
1016
1012
1006
1000
991
985
982
978
975
972
966
961
960
962
965
967
964
963
960
962
964
962
957
952
951
966
997
1049
1126
1214
1289
1334
1362
1367
1344
1295
1210
1108
998
912
884
898
925
935
937
938
939
944
947
951
952
950
949
948
945
948
953
953
952
950
949
949
953
953
954
952
954
955
957
957
956
953
952
954
957
955
954
955
958
958
963
964
965
961
960
964
966
968
969
969
970
971
974
976
976
975
976
978
982
985
987
987
986
990
991
997
998
1001
1003
1007
1013
1014
1015
1017
1018
1023
1030
1037
1038
1037
1044
1049
1054
1057
1059
1061
1065
1069
1075
1080
1082
1080
1080
1085
1091
1093
1089
1086
1085
1084
1087
1086
1083
1079
1078
1074
1074
1071
1067
1058
1055
1054
1053
1050
1045
1037
1028
1027
1027
1025
1023
1014
1012
1009
1008
1009
1003
999
995
994
992
994
990
987
987
984
986
988
986
984
986
988
992
993
994
992
989
994
998
1000
999
999
1000
1002
1009
1012
1011
1013
1015
1019
1025
1032
1038
1049
1066
1084
1107
1132
1148
1167
1184
1206
1228
1256
1289
1322
1355
1392
1412
1423
1419
1409
1397
1375
1346
1308
1251
1172
1089
1022
977
949
935
927
921
919
920
922
925
929
932
929
929
929
926
922
915
914
913
913
910
901
900
898
898
895
893
890
888
889
895
895
893
888
889
893
898
903
905
907
905
904
905
907
908
903
900
897
896
899
897
892
891
888
889
892
888
882
879
878
881
882
877
876
873
872
874
876
875
871
871
874
877
879
881
883
883
890
893
898
898
900
905
911
919
924
927
931
933
937
943
948
949
950
952
956
961
963
963
961
961
964
966
972
972
970
970
972
973
977
975
972
973
974
976
979
976
974
971
976
979
980
981
976
975
978
982
981
985
979
978
981
982
986
984
982
981
983
988
990
989
986
986
986
990
995
996
994
992
994
996
1000
999
995
994
995
999
1002
1000
997
997
995
995
996
993
994
990
992
996
995
992
990
989
988
989
992
986
983
983
983
987
985
985
982
976
981
983
982
981
977
977
974
978
979
978
978
975
975
975
976
976
976
970
974
978
979
977
970
971
973
976
977
975
972
969
973
974
975
973
970
972
971
974
975
973
972
971
971
974
974
975
972
970
971
975
976
973
972
969
970
972
973
971
971
972
973
975
976
975
973
971
973
974
976
973
969
964
966
971
973
974
972
971
970
971
977
973
972
973
974
976
978
975
974
970
973
975
977
976
972
970
973
976
980
977
976
973
974
975
980
979
977
973
973
975
976
976
975
973
976
976
978
978
977
976
978
981
983
981
976
976
978
979
980
979
974
976
977
977
980
979
980
975
976
978
984
980
979
980
981
981
985
982
978
973
976
980
983
980
979
979
979
981
986
983
981
979
980
984
985
984
982
981
986
991
993
993
994
997
1004
1008
1011
1012
1015
1026
1040
1050
1053
1049
1048
1048
1048
1050
1049
1046
1038
1027
1021
1018
1014
1009
1003
997
992
990
990
988
985
983
986
987
989
987
983
981
979
975
971
971
986
1025
1093
1182
1265
1324
1362
1383
1390
1379
1334
1251
1143
1022
928
905
930
956
962
960
961
969
975
974
971
969
968
969
975
972
969
967
968
972
973
974
971
969
970
972
974
975
970
967
968
973
976
975
971
973
974
977
980
978
976
976
979
983
986
985
980
984
987
989
989
989
995
994
996
998
1004
1005
1007
1006
1011
1014
1019
1018
1020
1023
1026
1030
1038
1039
1042
1042
1049
1055
1063
1066
1067
1069
1075
1082
1087
1091
1093
1094
1102
1108
1113
1114
1115
1113
1119
1119
1126
1122
1120
1117
1116
1117
1116
1111
1103
1100
1098
1092
1089
1087
1076
1072
1070
1068
1067
1060
1052
1047
1044
1043
1042
1037
1028
1024
1024
1022
1022
1015
1012
1006
1008
1009
1009
1005
1003
1002
1003
1006
1007
1008
1004
1002
1005
1007
1010
1010
1008
1007
1005
1012
1017
1017
1017
1017
1020
1025
1028
1031
1041
1053
1068
1088
1103
1120
1141
1161
1193
1225
1258
1288
1323
1355
1383
1400
1408
1402
1387
1371
1344
1306
1250
1174
1087
1020
985
967
954
935
921
915
914
923
928
934
933
937
937
938
937
933
925
923
922
921
922
916
910
907
903
903
902
900
899
897
899
899
901
904
903
905
908
916
919
915
912
911
912
913
917
914
912
909
909
908
911
910
906
902
902
902
903
901
901
898
899
899
905
907
903
904
904
910
913
919
918
921
926
931
937
935
941
940
948
955
960
965
965
966
969
976
979
979
979
978
978
979
982
979
978
981
981
981
984
983
978
977
974
974
977
975
970
972
975
975
975
974
972
971
974
973
977
972
967
967
970
970
972
970
969
967
967
970
972
969
967
966
965
970
973
970
968
970
971
976
977
975
974
973
974
976
980
980
976
975
975
976
981
978
975
974
975
977
977
976
972
970
971
974
977
968
969
966
965
965
965
966
961
961
961
961
962
960
958
955
956
958
958
958
955
952
951
955
955
955
950
947
952
952
953
951
948
947
949
952
954
951
949
946
949
949
951
949
943
947
949
950
953
952
950
949
946
951
951
950
947
946
946
949
952
952
949
945
942
949
952
949
947
944
947
947
953
951
945
946
947
948
948
949
947
944
947
950
948
949
946
945
944
948
952
950
946
943
945
947
950
950
948
946
947
950
950
946
946
944
949
948
949
949
946
944
945
946
951
949
947
947
946
951
949
947
947
950
950
955
954
952
948
948
949
952
954
950
947
946
949
951
952
955
951
950
948
953
954
952
951
951
953
954
958
956
954
953
955
956
959
957
956
954
955
958
960
961
958
953
957
960
963
962
956
957
958
959
960
960
960
961
961
962
964
963
963
962
958
967
967
966
967
963
962
965
967
967
965
966
967
971
972
974
969
973
979
984
988
986
987
996
1010
1025
1035
1033
1029
1029
1030
1033
1034
1028
1020
1011
1004
1001
998
992
984
976
975
974
976
975
970
966
965
973
974
972
968
964
962
960
964
971
995
1040
1115
1204
1287
1338
1363
1368
1354
1317
1241
1131
1011
915
879
906
933
940
939
940
945
952
958
958
956
953
953
954
959
960
957
956
957
958
961
959
960
956
958
963
963
961
960
957
955
961
963
962
961
960
961
965
967
967
966
963
964
967
971
969
970
970
973
978
978
980
978
977
982
984
987
988
988
987
988
998
1001
1003
1006
1006
1008
1015
1018
1022
1023
1024
1029
1036
1038
1040
1043
1048
1052
1056
1062
1066
1066
1068
1071
1077
1081
1083
1085
1085
1088
1092
1091
1092
1090
1088
1087
1087
1089
1088
1082
1078
1078
1078
1076
1072
1067
1060
1053
1056
1054
1050
1044
1036
1032
1031
1030
1024
1017
1015
1010
1013
1011
1007
1004
997
997
998
996
995
993
988
991
995
994
990
990
988
990
992
993
997
994
994
997
998
1001
1001
1001
1001
1003
1006
1010
1013
1009
1010
1016
1017
1017
1022
1020
1021
1025
1031
1037
1041
1041
1045
1055
1065
1075
1079
1087
1102
1124
1155
1181
1199
1199
1183
1159
1131
1098
1053
999
921
841
773
736
730
744
766
781
790
792
784
779
779
787
799
804
813
822
835
848
863
878
889
898
901
908
915
922
925
925
925
931
934
937
936
938
942
947
955
962
967
967
966
967
969
977
977
975
971
975
978
985
982
982
982
981
985
988
992
994
992
995
999
1002
1004
1005
1006
1010
1017
1024
1028
1030
1034
1042
1051
1057
1065
1070
1076
1082
1090
1101
1106
1112
1117
1124
1132
1137
1146
1148
1153
1158
1164
1167
1167
1169
1166
1164
1167
1168
1163
1158
1156
1149
1149
1145
1140
1132
1127
1126
1122
1119
1111
1101
1092
1086
1083
1080
1071
1065
1054
1049
1046
1044
1037
1030
1026
1025
1023
1023
1019
1011
1005
1007
1004
1009
1005
1002
1000
1000
1000
1003
999
998
997
998
1000
1002
1001
1000
997
999
1000
1001
1001
1000
997
1000
998
1001
1000
998
995
993
998
1000
999
994
993
993
991
992
994
992
986
985
988
989
984
983
977
978
979
982
979
974
973
969
968
971
971
966
966
961
965
969
966
962
957
958
960
961
959
957
955
956
959
961
956
951
952
952
955
954
952
950
949
950
952
949
951
948
945
947
947
951
948
945
945
945
947
949
948
946
945
944
948
947
947
944
942
943
945
949
947
943
942
943
943
946
946
944
945
945
947
949
945
942
943
941
946
946
947
941
941
944
942
947
944
940
942
943
944
946
946
944
942
943
946
946
947
946
943
947
947
950
947
946
945
946
948
952
949
945
943
943
947
951
951
948
946
948
948
951
951
947
948
947
947
950
946
946
945
946
949
950
949
947
946
947
950
952
948
949
946
947
951
953
951
947
945
944
947
952
954
951
947
947
951
955
952
948
947
948
953
955
953
951
949
947
949
953
949
950
947
949
952
956
954
951
949
949
952
956
954
954
950
950
952
958
955
952
949
950
954
958
957
954
954
956
956
960
957
954
954
956
956
958
960
957
957
958
961
961
962
962
962
967
971
978
980
976
978
980
986
999
1009
1020
1021
1023
1025
1026
1026
1023
1022
1022
1024
1020
1013
1003
991
986
984
982
975
968
961
958
961
965
963
962
959
959
962
963
960
953
950
942
939
948
966
1002
1063
1148
1235
1303
1348
1372
1383
1377
1345
1291
1209
1106
1004
920
889
907
930
935
933
935
939
950
951
943
944
944
946
947
944
941
939
941
946
946
947
942
942
940
946
949
949
947
944
946
949
952
949
946
944
945
949
947
947
950
948
953
952
957
958
956
951
950
958
961
961
963
961
963
969
967
970
967
968
970
976
979
979
980
981
984
989
994
995
992
993
999
1005
1012
1014
1013
1018
1022
1030
1034
1036
1037
1040
1046
1051
1058
1060
1065
1063
1070
1078
1084
1086
1088
1086
1091
1094
1100
1096
1094
1090
1095
1097
1099
1096
1090
1086
1083
1086
1081
1077
1072
1068
1063
1063
1061
1054
1047
1041
1035
1034
1032
1027
1024
1018
1016
1016
1015
1012
1006
1002
999
1000
1000
995
994
989
989
990
987
989
986
984
986
986
987
987
985
982
984
984
989
989
993
991
993
995
998
997
997
994
996
1002
1004
1008
1007
1008
1015
1022
1037
1051
1063
1075
1098
1123
1146
1168
1187
1209
1238
1269
1305
1339
1367
1389
1408
1415
1413
1398
1381
1357
1324
1275
1213
1135
1061
1008
970
948
935
918
904
897
895
902
910
912
916
917
916
918
918
916
912
908
901
903
904
902
896
890
884
889
887
885
880
876
874
881
883
879
875
876
878
885
890
896
893
894
891
895
897
894
895
893
894
896
896
895
893
889
887
887
888
886
882
883
881
882
885
881
878
876
876
877
881
882
880
878
882
887
891
892
893
892
900
907
912
916
919
920
925
931
937
939
939
939
941
950
952
954
955
954
957
957
964
962
960
958
959
964
966
967
964
962
964
965
968
966
964
962
960
965
968
966
964
960
962
965
969
969
965
964
966
969
971
966
966
964
963
968
971
970
968
965
962
967
969
967
966
965
967
969
972
971
970
968
971
973
976
977
975
974
976
980
982
980
978
971
975
977
980
980
976
970
971
977
976
972
971
970
968
971
975
972
968
965
966
970
971
970
963
958
961
961
964
965
964
962
960
962
966
962
960
956
959
957
962
960
955
951
951
959
960
960
956
954
956
958
960
958
955
952
954
957
958
958
954
954
953
955
957
954
953
950
949
953
954
955
951
949
950
951
954
951
951
948
946
952
954
951
949
947
949
950
954
953
950
950
949
953
958
955
954
950
948
955
957
956
955
949
949
953
951
953
952
951
952
952
956
954
954
949
948
952
956
953
952
949
951
954
957
958
955
950
953
956
957
957
956
951
953
956
959
961
955
955
956
958
960
959
959
953
955
957
961
959
957
953
957
958
963
960
957
954
956
959
963
961
959
956
957
958
963
959
958
957
958
961
963
960
960
957
958
960
962
963
958
960
956
961
962
958
960
958
958
964
966
965
963
960
959
963
965
963
961
960
959
963
966
967
961
961
962
965
968
965
964
960
966
969
971
969
968
966
968
970
973
968
970
968
969
969
974
972
967
966
969
971
972
975
977
972
974
978
980
981
983
983
988
995
999
1000
1002
1012
1029
1039
1047
1043
1036
1035
1037
1040
1041
1034
1022
1012
1005
1005
1002
997
991
983
981
977
980
979
978
973
975
976
979
978
975
968
966
963
969
983
1012
1066
1150
1243
1315
1358
1381
1386
1371
1335
1265
1155
1043
940
891
899
932
946
946
945
951
958
965
960
960
956
956
960
963
964
961
961
961
963
966
965
963
959
961
962
968
966
963
958
960
964
967
966
965
964
962
970
969
967
969
968
970
972
976
978
976
975
978
979
981
981
981
981
984
988
991
992
995
994
996
999
1006
1004
1006
1006
1013
1018
1023
1026
1023
1026
1029
1035
1041
1043
1044
1049
1055
1059
1065
1069
1071
1072
1077
1083
1087
1090
1088
1090
1093
1096
1099
1100
1099
1097
1098
1098
1095
1096
1091
1088
1084
1085
1080
1077
1069
1061
1058
1056
1058
1052
1047
1041
1039
1038
1037
1028
1022
1016
1018
1016
1015
1010
1007
1004
1004
1004
1005
1005
1000
996
998
999
1000
1001
1000
996
998
998
1004
1002
1003
999
1002
1004
1009
1010
1005
1005
1006
1013
1018
1016
1016
1016
1017
1021
1026
1023
1024
1023
1030
1037
1045
1050
1055
1057
1066
1073
1082
1092
1105
1128
1156
1187
1205
1206
1189
1159
1127
1096
1059
1001
927
842
771
732
727
743
765
778
782
782
776
773
779
785
790
803
821
839
850
856
876
891
903
908
913
916
919
927
931
932
931
934
940
947
957
962
964
962
963
966
970
972
970
970
975
979
981
982
981
980
982
987
991
992
992
990
996
1001
1005
1009
1010
1010
1013
1018
1027
1030
1033
1034
1043
1053
1060
1068
1074
1083
1091
1100
1110
1119
1123
1127
1140
1150
1158
1161
1164
1165
1170
1169
1179
1176
1172
1170
1168
1169
1170
1163
1156
1148
1144
1139
1135
1130
1120
1110
1106
1104
1100
1091
1082
1073
1067
1062
1059
1051
1042
1031
1031
1031
1027
1021
1017
1014
1009
1010
1011
1010
1006
1003
1001
1003
1005
1005
1004
999
1002
1001
1003
1001
998
998
998
1001
1005
1004
1002
997
999
1000
1005
1002
998
998
996
997
1000
995
996
991
993
994
994
992
987
985
983
983
984
984
979
976
976
976
979
976
973
972
970
971
972
970
966
964
962
962
964
961
960
958
956
958
959
958
955
953
950
954
955
956
951
949
952
952
954
950
948
947
947
946
946
947
948
944
944
945
950
950
946
940
941
945
948
948
946
942
944
944
946
946
944
941
944
947
946
946
945
943
943
945
951
949
944
943
943
944
949
947
945
942
942
945
946
946
947
946
945
946
948
947
945
943
946
947
950
948
945
943
942
946
949
949
948
946
945
948
950
951
947
945
946
947
952
952
949
948
948
950
952
952
950
948
946
948
955
953
951
948
949
952
952
954
953
950
950
953
957
952
947
950
948
953
956
957
953
952
949
955
954
954
954
952
951
958
959
959
955
952
954
956
960
958
955
954
955
956
959
960
954
954
957
958
958
958
959
955
955
959
963
964
964
959
960
964
963
964
960
958
962
961
962
963
963
961
963
960
964
963
962
961
964
965
968
966
966
963
965
965
968
970
967
964
969
973
978
977
978
981
985
990
1000
1000
1001
1012
1026
1038
1041
1039
1037
1036
1036
1040
1038
1030
1017
1006
998
995
996
989
983
974
974
977
976
974
971
970
975
973
975
969
963
956
953
959
981
1023
1090
1178
1262
1330
1376
1399
1398
1370
1305
1202
1080
969
900
906
935
950
954
951
950
952
960
959
962
961
957
953
954
956
961
961
957
956
959
961
963
964
961
956
959
960
964
963
963
961
962
962
965
963
963
960
964
969
970
969
967
968
970
973
978
978
974
976
976
982
986
986
985
984
989
992
998
1001
998
1002
1004
1011
1016
1018
1021
1021
1022
1031
1037
1038
1042
1044
1048
1057
1061
1065
1068
1071
1076
1085
1092
1094
1095
1097
1101
1104
1109
1110
1110
1111
1111
1112
1114
1114
1110
1104
1101
1101
1100
1094
1089
1082
1079
1076
1073
1067
1064
1056
1051
1048
1044
1040
1035
1029
1025
1025
1025
1019
1015
1007
1008
1007
1009
1005
1002
998
996
997
1001
996
992
995
994
995
998
996
997
993
993
996
1001
1004
1001
999
1000
1004
1006
1009
1010
1004
1008
1014
1021
1020
1022
1026
1033
1050
1069
1093
1114
1131
1148
1171
1193
1212
1232
1254
1283
1317
1355
1396
1430
1452
1465
1465
1455
1431
1406
1374
1344
1301
1233
1150
1065
1001
951
936
937
932
928
918
921
926
930
927
925
918
913
909
908
907
902
895
893
894
893
889
882
879
878
878
884
882
877
876
874
878
884
886
887
887
890
893
892
893
887
890
886
887
885
886
881
880
877
876
875
874
871
866
864
861
863
860
857
848
848
850
851
850
845
844
846
846
851
851
850
849
852
856
865
867
866
869
875
881
886
889
896
898
902
911
917
917
922
921
