958
959
956
954
957
960
959
959
957
954
957
960
958
958
957
958
960
963
962
963
959
958
960
967
969
966
965
965
968
972
973
973
972
972
975
980
983
983
984
987
993
997
998
996
992
994
990
994
993
991
990
987
985
988
987
981
975
975
980
982
978
980
978
980
983
988
987
987
987
991
996
1002
1008
1015
1020
1036
1062
1092
1123
1146
1162
1167
1175
1169
1153
1119
1086
1045
1011
991
982
981
978
974
974
975
972
970
969
963
964
961
964
960
956
954
956
959
959
958
956
955
957
958
959
958
955
953
956
957
958
957
953
955
958
961
958
961
958
957
959
965
965
963
962
963
965
966
970
972
970
972
974
979
980
981
980
983
986
988
992
991
993
996
999
1007
1009
1009
1009
1012
1018
1024
1027
1029
1027
1031
1037
1043
1048
1049
1053
1055
1057
1066
1071
1073
1075
1079
1080
1086
1091
1091
1091
1090
1096
1102
1102
1098
1095
1095
1098
1097
1098
1093
1090
1087
1087
1086
1085
1079
1072
1066
1066
1066
1060
1051
1045
1045
1041
1042
1038
1033
1026
1024
1022
1021
1017
1013
1008
1005
1005
1006
1000
999
995
995
996
997
998
992
991
987
989
995
995
993
992
991
994
999
1000
1000
1002
1002
1006
1012
1014
1020
1020
1022
1029
1038
1047
1054
1061
1073
1083
1095
1108
1117
1125
1138
1152
1164
1175
1188
1198
1213
1229
1246
1254
1257
1254
1251
1247
1236
1225
1206
1172
1136
1097
1058
1022
995
979
970
964
955
944
940
931
923
921
918
915
910
903
898
896
893
891
887
880
877
875
877
874
870
864
863
864
866
867
864
858
855
858
865
865
864
862
859
861
861
860
858
854
853
853
852
851
849
845
842
842
842
841
839
833
829
831
833
831
828
823
822
821
823
824
822
819
820
821
825
827
827
825
826
830
833
838
839
842
846
849
854
860
862
864
867
874
880
884
883
885
890
891
899
902
904
905
907
910
917
919
919
921
921
924
929
931
929
930
931
936
938
940
939
939
939
943
945
946
948
949
947
950
954
954
953
950
951
953
957
957
956
956
956
955
959
960
962
958
960
962
965
967
966
964
964
964
966
967
968
968
966
968
971
972
972
970
971
974
974
977
974
971
969
973
975
975
974
973
971
971
976
977
974
969
969
971
976
975
976
972
970
972
973
974
971
968
966
967
972
973
971
967
968
969
969
971
969
965
965
968
971
971
968
964
965
964
970
969
967
963
964
967
968
968
965
962
961
964
968
971
968
965
964
967
969
970
969
966
966
967
971
972
969
968
969
971
974
972
973
969
966
969
972
973
972
969
969
973
974
973
975
971
970
974
975
977
973
970
970
972
975
977
975
971
971
972
975
975
975
968
969
973
975
973
975
971
971
974
977
976
975
974
974
975
978
977
976
973
972
974
973
975
976
971
973
973
977
977
975
974
973
974
977
976
975
975
971
973
977
974
973
971
974
978
978
979
978
972
970
977
979
981
975
975
972
973
978
976
979
977
978
982
982
984
983
980
981
980
981
982
982
980
978
978
983
983
981
981
981
981
985
987
987
983
983
986
988
987
985
983
984
984
987
987
985
984
985
987
989
990
990
986
984
987
991
992
990
989
988
989
992
995
993
989
989
993
994
995
990
990
992
992
998
1000
994
995
993
998
1005
1001
1005
1002
1004
1005
1009
1012
1013
1012
1017
1021
1027
1027
1026
1026
1025
1023
1026
1026
1026
1021
1021
1022
1022
1019
1017
1008
1006
1011
1009
1011
1010
1006
1007
1012
1016
1016
1016
1014
1015
1019
1023
1027
1033
1043
1063
1092
1130
1163
1189
1201
1211
1214
1203
1183
1149
1105
1057
1022
1010
1011
1009
1005
1002
1002
1000
999
996
990
987
989
993
990
987
985
985
986
989
990
987
985
983
987
989
990
986
983
984
985
989
989
988
985
985
989
988
988
990
989
989
993
997
995
995
996
994
999
1000
1005
1006
1003
1003
1009
1014
1015
1016
1016
1017
1022
1024
1031
1030
1028
1031
1038
1044
1051
1052
1052
1055
1059
1068
1070
1073
1075
1078
1083
1089
1091
1093
1091
1100
1102
1107
1110
1110
1108
1108
1114
1116
1118
1115
1112
1109
1109
1108
1108
1101
1095
1092
1090
1090
1087
1082
1075
1071
1067
1067
1064
1060
1053
1048
1047
1050
1045
1041
1034
1032
1032
1031
1027
1026
1021
1020
1019
1022
1017
1016
1015
1011
1013
1017
1016
1014
1011
1010
1012
1016
1016
1013
1010
1010
1010
1015
1017
1017
1015
1016
1021
1022
1022
1022
1024
1025
1030
1034
1038
1042
1045
1049
1052
1060
1067
1069
1073
1084
1098
1114
1138
1156
1174
1188
1193
1192
1179
1159
1134
1102
1064
1021
980
945
925
915
909
901
893
883
877
870
869
869
871
875
878
882
890
897
906
909
912
915
921
924
924
925
928
929
933
938
941
942
941
941
948
952
952
953
954
951
953
955
956
959
955
959
962
965
967
965
965
968
971
973
975
976
976
975
981
984
988
990
990
995
1000
1006
1013
1018
1018
1020
1028
1036
1043
1047
1050
1057
1066
1075
1077
1078
1083
1085
1092
1096
1101
1101
1101
1102
1103
1104
1101
1104
1099
1096
1098
1098
1093
1087
1082
1079
1074
1075
1072
1066
1061
1055
1050
1051
1046
1040
1034
1030
1030
1028
1025
1021
1013
1009
1011
1008
1005
1002
999
995
994
995
994
992
985
985
986
988
988
984
983
982
982
983
982
982
980
979
983
984
985
982
979
979
984
985
987
985
981
979
981
982
982
980
975
976
978
981
979
976
972
972
975
977
973
972
970
967
968
973
973
969
967
963
966
969
967
964
963
960
961
961
961
961
959
957
959
961
961
960
956
951
957
958
956
953
950
952
953
954
958
954
951
949
947
952
954
951
949
948
949
950
950
950
944
945
948
948
949
948
944
944
947
946
948
945
943
943
946
946
945
946
943
941
943
945
947
940
941
941
942
943
946
944
939
938
943
945
944
943
939
936
938
941
941
941
938
935
941
941
941
941
935
936
936
939
939
939
935
934
935
938
939
940
937
934
936
938
941
937
935
933
937
938
939
935
935
935
936
940
941
937
936
933
935
941
941
940
937
937
939
942
942
942
940
938
941
942
942
941
940
938
940
945
943
946
943
941
943
946
946
944
943
943
946
950
949
949
947
945
946
951
949
950
950
942
947
950
953
951
948
949
950
950
955
952
949
951
954
957
957
955
953
953
952
959
959
958
956
957
958
959
963
961
959
959
960
964
964
963
960
961
963
969
967
965
965
964
969
972
972
972
973
972
977
979
984
981
980
984
988
992
994
995
995
998
1003
1006
1003
1003
1000
998
1001
1004
1002
999
995
993
994
996
993
990
989
987
989
993
993
993
991
992
995
998
999
1002
1000
1005
1012
1020
1035
1054
1078
1108
1139
1166
1179
1187
1182
1175
1164
1143
1107
1067
1028
998
988
991
991
985
978
974
975
981
979
975
968
968
969
969
970
968
965
964
960
965
963
967
963
962
964
965
967
965
963
961
965
967
968
966
963
964
966
968
970
968
965
966
967
972
974
974
973
973
977
980
980
978
978
981
985
986
992
988
991
992
993
1000
1003
1005
1005
1006
1011
1016
1019
1022
1024
1024
1030
1037
1042
1046
1044
1048
1051
1054
1060
1063
1063
1068
1072
1078
1078
1080
1078
1083
1085
1091
1095
1092
1085
1088
1093
1092
1093
1088
1083
1083
1084
1086
1082
1080
1073
1073
1068
1068
1064
1056
1052
1050
1048
1047
1044
1040
1036
1034
1033
1032
1029
1025
1022
1020
1018
1017
1019
1018
1009
1008
1013
1009
1013
1009
1007
1007
1009
1012
1010
1011
1010
1011
1015
1016
1021
1018
1020
1019
1022
1025
1031
1029
1032
1034
1041
1049
1058
1060
1068
1077
1091
1102
1112
1120
1126
1137
1150
1162
1175
1181
1190
1202
1215
1230
1240
1247
1255
1260
1264
1268
1267
1260
1250
1235
1219
1201
1173
1137
1101
1063
1031
1009
997
987
975
967
961
954
949
942
935
927
923
921
916
909
900
894
895
894
892
887
881
877
879
876
877
871
869
867
868
870
871
869
867
864
867
867
867
866
861
860
859
861
858
856
849
849
850
848
848
844
840
834
836
838
835
831
828
823
823
823
824
820
811
812
810
814
815
811
807
806
808
811
811
811
808
810
812
814
815
816
817
821
826
831
834
835
837
839
847
850
856
857
858
861
864
868
874
877
877
877
883
887
888
889
892
893
896
900
904
904
903
905
910
913
913
914
912
913
917
921
924
924
922
923
924
926
928
930
927
927
930
936
937
935
936
934
938
941
938
939
939
938
942
947
948
950
948
944
948
952
952
951
953
951
953
955
954
955
955
954
952
956
958
958
956
954
956
961
957
955
954
953
955
957
957
956
952
950
952
957
957
954
948
950
952
953
955
954
947
947
950
951
948
946
944
943
946
952
949
947
945
945
946
948
949
945
943
943
944
948
945
944
943
941
943
946
948
946
942
942
943
946
945
941
940
941
944
946
944
942
938
935
943
944
945
942
940
938
939
940
941
941
938
937
941
942
944
939
937
936
941
943
943
941
938
937
939
943
941
940
934
937
938
942
942
940
935
936
939
941
941
939
937
935
938
942
938
939
935
935
935
938
941
938
934
934
937
937
938
937
931
932
937
938
940
938
937
935
938
940
940
938
933
931
935
935
936
937
934
934
936
938
939
937
932
933
938
939
939
939
937
935
936
941
939
941
934
937
939
939
939
940
938
939
940
942
941
941
940
937
941
943
942
939
938
936
941
942
942
941
938
938
941
944
944
941
941
940
943
944
947
942
941
941
944
947
949
947
943
942
945
946
947
948
944
944
945
949
951
948
947
947
951
952
951
944
942
943
945
949
952
949
947
947
947
954
954
952
951
953
955
955
961
959
960
958
965
971
972
972
970
972
976
983
986
988
987
989
992
994
995
992
988
988
988
990
987
982
971
967
970
973
972
970
966
964
967
970
970
968
967
968
973
978
979
979
980
985
990
1002
1015
1032
1051
1078
1107
1134
1145
1151
1149
1140
1124
1103
1069
1031
995
969
965
967
968
965
960
956
956
959
955
953
950
948
948
951
949
947
941
942
945
948
946
945
942
941
944
946
944
944
941
942
944
943
945
943
941
942
944
946
946
948
945
944
947
950
951
950
949
952
953
957
956
954
953
955
957
964
965
967
964
967
968
975
977
978
977
976
982
987
991
988
990
993
998
1001
1004
1007
1004
1010
1017
1023
1028
1027
1026
1031
1038
1044
1048
1050
1049
1053
1057
1061
1065
1065
1067
1068
1071
1077
1077
1076
1072
1071
1072
1077
1075
1070
1068
1065
1065
1067
1063
1058
1054
1050
1050
1049
1046
1040
1033
1030
1028
1030
1025
1021
1017
1012
1013
1010
1006
1000
998
996
996
997
995
992
986
984
984
987
983
983
980
977
981
981
984
982
981
978
979
983
984
982
981
979
982
983
981
980
982
982
983
987
989
988
986
986
986
989
992
991
987
986
984
992
993
992
985
983
987
987
990
986
983
983
985
986
985
981
977
975
977
977
979
976
969
970
970
971
970
970
964
964
964
964
965
962
957
958
958
958
959
958
952
953
953
956
955
955
951
950
949
952
953
948
945
945
947
949
949
947
943
943
944
948
946
946
942
941
941
946
945
943
940
941
941
947
946
943
944
943
945
943
946
943
942
942
943
946
945
943
939
940
940
943
945
942
941
941
943
946
947
944
942
939
942
946
946
941
941
937
942
943
946
940
941
942
945
950
946
949
945
947
952
955
955
953
955
955
958
961
963
964
964
966
970
974
977
981
979
983
986
989
990
989
983
980
982
985
983
977
972
968
969
971
968
961
961
959
960
964
964
964
963
964
966
969
969
967
967
967
971
981
985
991
1000
1020
1048
1083
1117
1142
1158
1169
1172
1173
1163
1143
1108
1066
1023
985
961
953
952
952
955
954
953
950
950
948
948
950
950
947
942
942
944
946
946
943
940
938
942
947
946
941
941
941
943
945
946
946
941
940
943
946
950
946
946
943
947
948
954
952
951
952
950
954
956
957
956
956
960
963
965
964
963
967
969
974
975
976
975
975
984
985
988
988
988
990
994
1000
1003
1003
1005
1010
1013
1019
1021
1023
1026
1028
1035
1043
1047
1049
1050
1056
1061
1067
1073
1073
1076
1079
1083
1088
1090
1090
1088
1089
1090
1093
1090
1089
1085
1082
1082
1082
1078
1073
1069
1065
1063
1063
1057
1050
1043
1036
1034
1033
1027
1022
1016
1012
1009
1009
1005
999
993
989
986
988
985
979
973
969
972
972
970
967
962
960
962
962
962
958
956
954
956
958
959
956
952
953
955
959
957
956
957
953
956
956
960
960
957
958
962
965
968
966
966
966
971
977
979
981
981
986
992
999
1004
1010
1012
1014
1026
1034
1043
1053
1068
1086
1103
1118
1120
1110
1093
1075
1052
1031
998
955
906
865
842
834
832
831
825
820
813
809
808
811
811
816
825
833
840
844
849
858
869
875
883
888
890
897
905
913
916
917
919
919
924
927
930
931
929
932
934
937
938
936
939
941
944
947
947
949
946
945
951
956
958
958
958
960
964
969
972
972
972
974
979
987
990
986
993
997
1003
1012
1020
1025
1028
1035
1043
1052
1056
1060
1066
1072
1079
1086
1091
1093
1093
1098
1101
1106
1108
1107
1104
1103
1107
1107
1104
1102
1097
1093
1093
1093
1090
1085
1075
1070
1069
1068
1062
1055
1046
1041
1040
1039
1035
1029
1022
1016
1012
1012
1007
1002
995
991
991
988
988
982
981
978
978
979
975
972
971
969
973
974
973
970
967
968
968
970
971
968
965
965
966
968
970
967
964
963
964
967
967
967
963
964
962
963
964
964
964
960
960
965
960
960
960
959
960
959
959
957
957
955
956
957
956
952
951
948
950
953
952
954
946
944
948
952
952
946
944
944
943
947
947
945
942
942
944
945
945
944
941
939
940
943
944
942
938
938
938
942
941
936
937
934
936
941
940
939
936
936
936
938
939
937
936
935
936
939
941
937
939
937
939
941
939
938
936
935
940
942
941
940
938
936
938
941
943
941
937
936
939
940
943
941
938
939
939
944
944
944
942
940
943
946
946
945
941
941
943
943
947
945
942
942
945
945
944
943
943
943
946
947
948
944
943
941
943
947
948
945
945
942
944
949
952
946
945
943
944
950
951
950
945
947
949
951
951
950
943
945
949
951
952
948
945
947
949
951
951
951
950
948
954
954
957
955
953
950
951
951
951
951
950
949
948
949
949
951
946
948
948
951
953
953
952
952
958
957
959
954
950
948
950
950
947
947
949
948
953
956
957
953
949
952
953
954
960
960
956
957
963
966
967
972
967
969
971
979
982
979
982
985
989
992
995
994
993
990
991
993
991
987
982
979
984
980
978
976
973
973
975
979
979
978
977
976
979
984
984
988
989
994
1009
1030
1054
1086
1120
1145
1162
1175
1171
1156
1126
1081
1037
995
964
961
965
965
962
961
960
956
957
956
958
960
957
957
955
953
953
958
956
955
954
955
959
960
958
957
956
954
958
960
961
958
956
952
952
958
961
961
956
957
961
966
968
965
967
964
967
971
972
975
977
982
985
990
990
986
987
991
995
1001
1003
1006
1004
1006
1012
1019
1022
1024
1025
1028
1034
1041
1044
1046
1048
1053
1061
1063
1071
1076
1077
1081
1086
1089
1091
1090
1089
1093
1094
1102
1104
1104
1100
1098
1098
1098
1099
1091
1085
1084
1082
1082
1081
1073
1064
1063
1059
1060
1052
1047
1039
1034
1032
1030
1028
1026
1023
1019
1021
1020
1011
1006
1001
1002
1004
1004
1002
999
996
992
995
1000
999
998
997
995
996
1000
1004
1000
998
998
1003
1006
1011
1009
1010
1010
1018
1023
1026
1028
1031
1035
1043
1053
1063
1073
1081
1093
1106
1120
1130
1140
1148
1160
1177
1191
1207
1218
1231
1246
1258
1271
1281
1287
1287
1286
1283
1276
1258
1236
1202
1163
1120
1073
1038
1015
1003
994
981
972
964
954
944
941
936
937
934
924
918
913
911
908
905
900
895
890
894
892
894
888
883
882
884
887
889
888
886
882
883
886
884
883
880
877
876
879
875
875
870
869
868
870
869
862
859
857
859
857
856
851
849
846
844
844
841
835
834
831
833
836
837
833
830
832
833
837
839
837
836
838
842
847
850
852
851
857
863
867
870
874
873
877
882
889
893
893
893
894
901
908
908
907
909
910
914
918
920
923
918
921
926
931
932
932
930
930
935
937
940
940
936
937
941
943
946
946
943
945
949
952
951
953
949
949
953
954
960
959
957
957
961
963
966
966
963
963
969
969
971
971
965
968
971
975
977
974
970
968
972
975
979
977
974
972
975
979
979
977
972
971
974
976
974
976
971
969
972
974
973
970
969
969
974
974
973
971
967
967
968
968
972
972
965
967
968
969
970
967
964
963
967
968
970
970
963
960
965
966
966
967
964
967
964
970
969
966
966
966
964
969
970
968
964
963
962
965
968
970
963
965
964
966
967
967
965
962
966
970
970
969
962
962
967
968
968
971
966
964
969
972
970
968
966
966
967
970
971
968
965
966
965
969
972
970
966
966
966
970
972
971
968
969
972
973
972
971
970
969
970
975
975
969
972
970
972
975
973
973
969
969
970
974
974
974
970
970
970
973
974
971
967
970
969
972
976
974
971
969
970
971
971
971
967
968
970
974
973
972
970
969
972
974
975
973
972
972
972
973
975
976
970
970
969
972
974
973
973
970
974
976
976
974
972
971
971
975
973
975
970
973
974
977
976
971
968
969
973
976
977
976
972
970
975
977
977
976
974
975
977
977
981
977
974
973
978
979
982
979
976
979
980
985
986
983
980
981
985
987
989
986
989
993
997
1002
