999
1011
1016
1012
1008
1010
1011
1017
1018
1015
1010
1001
996
990
985
979
969
967
963
963
958
961
953
951
955
956
957
955
951
947
944
941
939
945
964
1005
1073
1162
1246
1308
1343
1370
1381
1375
1348
1292
1203
1092
980
892
864
887
911
918
920
925
926
931
931
931
934
932
932
931
928
927
932
937
936
932
931
932
935
940
936
937
930
928
934
939
939
935
934
933
933
935
935
931
928
933
943
945
947
945
942
939
942
948
950
946
943
944
944
947
948
951
952
958
961
964
967
966
964
965
969
976
976
976
974
982
986
990
993
994
998
1002
1005
1013
1016
1018
1019
1024
1025
1033
1035
1035
1035
1037
1036
1036
1040
1042
1037
1039
1041
1043
1042
1039
1035
1031
1029
1030
1027
1023
1013
1011
1012
1013
1008
1005
1000
999
997
995
995
991
986
981
982
985
983
976
972
970
972
971
971
970
966
963
971
972
969
968
966
968
972
975
976
975
971
975
978
983
984
982
983
982
987
992
997
990
992
994
1001
1008
1010
1012
1013
1016
1023
1031
1038
1053
1068
1088
1108
1125
1143
1157
1171
1196
1224
1254
1279
1304
1331
1361
1392
1422
1445
1466
1467
1463
1452
1427
1372
1293
1203
1111
1044
1014
1001
980
961
956
952
950
943
936
930
925
920
918
912
910
902
899
897
893
889
886
880
879
880
886
887
883
880
879
884
889
893
896
894
894
896
896
894
893
890
888
888
888
885
882
877
874
875
874
874
870
862
861
859
859
857
849
844
839
839
838
834
828
824
822
824
824
825
825
825
825
826
829
836
838
840
845
853
860
866
870
871
875
883
887
896
898
901
906
911
917
921
922
921
918
927
932
935
936
936
939
944
949
948
945
945
945
951
955
961
961
958
963
965
966
967
965
961
963
969
973
973
971
970
971
974
978
979
977
975
978
980
982
984
984
984
984
987
989
992
992
988
990
991
996
997
998
996
996
1000
1000
998
997
995
996
997
996
997
998
994
994
994
996
995
996
991
991
994
997
992
990
985
983
988
993
999
992
988
986
989
992
987
987
981
980
984
986
987
982
977
981
980
985
984
980
977
977
976
980
981
981
978
977
976
977
973
976
975
973
978
980
979
976
972
972
973
978
977
973
970
969
970
971
974
974
971
971
975
976
978
977
973
970
973
976
973
975
970
970
972
976
981
979
976
974
978
979
978
975
975
973
975
976
980
982
979
979
980
978
976
974
978
985
985
984
985
983
980
979
984
989
990
988
983
982
980
984
987
986
981
982
985
988
990
987
983
982
986
989
989
985
986
984
989
992
992
991
987
988
988
990
989
988
985
984
986
992
994
989
991
988
989
991
991
986
989
992
989
991
988
989
987
988
992
995
996
991
991
990
989
993
992
990
989
989
993
991
995
994
994
990
1003
1006
1010
1014
1017
1021
1024
1031
1038
1045
1051
1061
1067
1068
1065
1061
1063
1062
1064
1065
1054
1041
1029
1024
1021
1015
1004
995
986
984
989
995
998
991
985
983
984
982
977
968
956
951
963
995
1046
1126
1220
1308
1370
1405
1421
1422
1401
1350
1257
1135
1007
910
895
930
960
969
968
970
970
966
969
970
969
963
958
958
960
969
973
969
969
965
963
963
971
975
975
973
970
972
974
976
976
975
979
979
978
978
982
979
975
980
981
980
981
987
988
987
991
994
999
1000
995
998
999
1003
1003
1007
1009
1014
1016
1020
1023
1025
1031
1036
1035
1038
1043
1053
1054
1054
1056
1065
1078
1084
1089
1091
1088
1085
1086
1084
1080
1084
1098
1098
1092
1087
1088
1095
1096
1091
1082
1081
1079
1075
1073
1073
1072
1061
1056
1056
1053
1044
1038
1035
1036
1030
1025
1022
1016
1013
1011
1014
1013
1008
997
992
995
999
995
992
991
989
992
999
1005
1003
991
988
986
997
1006
1005
1003
1001
1002
1005
1009
1008
1009
1011
1017
1016
1014
1019
1024
1030
1038
1050
1070
1087
1101
1112
1131
1152
1165
1171
1186
1201
1225
1250
1277
1307
1335
1361
1387
1407
1421
1430
1433
1442
1449
1447
1435
1411
1361
1282
1181
1084
1026
997
979
956
935
920
916
910
902
894
891
894
891
883
869
864
862
857
856
852
848
849
852
853
850
853
852
856
857
859
859
854
850
846
852
861
866
861
852
844
847
849
848
843
837
833
830
832
833
831
824
816
816
817
811
800
795
790
792
795
794
790
784
781
782
786
790
783
783
795
807
809
809
808
812
820
833
840
845
848
849
851
853
860
870
875
876
887
897
903
906
910
910
907
903
913
927
928
919
915
915
924
926
927
926
923
925
935
935
924
923
937
942
940
936
942
942
941
939
942
937
941
945
952
959
966
967
969
969
971
979
985
986
981
974
976
978
982
983
985
983
983
987
988
987
984
985
991
989
986
989
989
982
977
975
979
979
980
978
980
981
981
977
975
972
971
969
968
971
969
969
968
966
967
964
960
963
970
968
964
959
956
956
962
968
968
962
960
959
958
958
955
954
952
948
946
950
957
957
957
953
952
955
953
950
950
950
952
955
959
957
954
949
948
950
958
960
955
948
948
952
956
959
959
951
947
951
953
953
952
951
951
950
948
950
955
954
954
959
962
958
952
950
950
951
953
950
949
948
952
955
953
952
952
949
948
951
959
956
954
950
951
957
957
959
956
954
951
953
958
958
956
955
953
955
958
960
957
954
954
957
957
958
958
954
954
951
953
955
954
955
956
957
957
956
957
955
953
955
957
956
956
955
956
956
965
967
967
966
966
970
981
987
985
984
990
995
1003
1010
1018
1018
1018
1023
1026
1028
1030
1024
1022
1017
1008
998
988
983
977
975
971
967
962
959
959
960
960
962
962
960
959
958
953
951
952
963
997
1055
1135
1220
1289
1332
1359
1376
1372
1334
1257
1143
1015
910
868
885
917
930
931
936
944
951
948
943
943
944
944
944
939
939
940
943
946
945
942
937
934
941
947
946
944
941
939
943
944
942
939
939
939
944
949
951
949
949
949
954
958
959
957
955
957
960
965
968
966
972
973
973
978
981
986
988
991
994
997
1001
1001
1001
1007
1012
1017
1018
1023
1027
1030
1034
1041
1050
1055
1051
1054
1060
1068
1074
1074
1070
1073
1079
1080
1080
1075
1074
1072
1075
1076
1076
1068
1063
1059
1060
1060
1054
1046
1039
1032
1033
1032
1027
1024
1016
1010
1009
1006
1005
996
990
986
989
996
993
989
983
982
980
983
980
979
973
976
979
982
975
977
975
972
979
979
979
975
978
982
989
993
995
992
987
987
993
998
999
1002
1003
1008
1012
1024
1036
1050
1064
1087
1116
1145
1161
1176
1189
1205
1225
1247
1275
1302
1339
1381
1414
1440
1447
1440
1427
1409
1394
1371
1326
1259
1177
1087
1007
947
925
918
914
911
911
912
909
902
893
885
882
881
882
874
867
861
858
854
851
849
846
846
842
843
848
845
843
844
848
853
859
855
844
844
845
853
853
846
841
840
839
841
838
833
825
819
819
822
820
815
801
799
803
806
803
797
799
798
794
793
793
793
796
801
803
807
812
815
820
825
834
841
847
854
855
859
865
875
883
885
886
887
893
900
905
907
905
907
906
912
913
913
913
916
918
921
921
919
917
917
921
923
923
923
923
922
924
926
927
927
924
926
928
931
933
931
926
924
931
936
937
935
930
930
932
937
935
934
935
933
939
947
951
952
946
946
950
956
953
949
947
944
945
944
945
944
944
944
945
947
949
946
943
943
946
947
944
940
939
938
940
940
941
939
938
935
938
938
940
939
934
933
933
934
934
930
928
931
930
933
931
931
927
929
930
933
934
930
923
921
924
929
929
925
920
921
924
925
923
925
925
923
925
926
928
927
926
926
924
926
928
926
928
928
929
934
934
930
926
925
926
926
927
926
924
925
927
928
930
929
929
925
929
934
936
929
926
926
929
931
930
932
928
927
932
936
937
936
933
933
936
936
935
929
926
925
931
937
932
932
929
926
931
936
937
933
934
931
933
937
941
940
935
935
935
937
938
936
930
933
937
940
938
935
931
931
933
938
938
940
937
936
939
943
943
944
941
939
940
939
942
940
938
938
937
941
945
941
935
937
939
945
946
948
945
942
943
948
948
947
944
945
944
944
943
943
939
942
947
952
953
950
947
944
945
951
951
952
949
951
954
958
957
960
959
962
967
971
974
976
983
994
1005
1011
1015
1015
1015
1015
1016
1020
1017
1011
1000
991
986
988
983
979
972
968
967
962
958
956
949
949
948
952
955
953
950
947
952
946
934
929
936
959
1000
1062
1149
1238
1310
1356
1384
1395
1380
1339
1257
1140
1021
918
871
880
905
915
912
915
918
920
925
929
929
929
930
928
926
930
933
936
935
934
932
929
934
933
935
935
932
932
934
939
939
939
938
939
943
947
945
942
943
945
952
954
949
944
942
944
949
957
958
955
953
953
958
961
966
972
969
975
977
980
981
981
985
985
993
996
999
1001
1000
1003
1010
1015
1020
1023
1026
1029
1035
1041
1046
1047
1044
1047
1052
1053
1057
1055
1054
1057
1059
1061
1060
1059
1059
1057
1055
1054
1051
1049
1044
1042
1041
1038
1034
1027
1021
1021
1021
1020
1014
1011
1003
1002
1001
1003
1001
998
989
987
987
987
986
981
977
975
975
978
978
978
974
974
974
978
982
980
977
974
979
980
983
979
978
979
985
986
988
987
983
987
990
993
1002
1003
1000
1003
1006
1012
1020
1027
1035
1048
1069
1090
1111
1126
1136
1154
1177
1195
1216
1239
1259
1283
1315
1352
1388
1422
1441
1446
1440
1427
1405
1379
1347
1298
1230
1150
1063
985
938
922
927
938
943
941
934
928
926
928
926
919
912
910
903
902
901
894
891
887
886
885
883
881
877
876
880
880
877
878
876
875
875
880
881
883
882
885
886
884
884
878
874
877
883
885
884
879
873
868
864
865
867
863
861
860
856
856
855
853
848
849
849
852
846
845
843
846
849
855
857
856
860
861
867
870
873
876
881
885
896
902
911
915
915
915
918
922
925
930
931
932
935
936
933
928
925
923
926
934
944
951
955
956
960
963
963
962
960
962
963
964
964
959
959
958
962
969
967
967
967
968
971
974
976
973
969
963
972
975
976
976
975
978
984
992
991
987
984
982
988
990
993
992
988
986
987
991
992
994
995
999
999
1005
1001
1004
1003
1002
1005
1006
1001
996
991
990
991
993
993
987
982
987
987
991
990
988
982
979
979
981
984
982
979
978
982
984
984
980
978
978
978
980
975
971
970
971
973
974
971
972
968
968
970
973
971
968
965
967
971
971
971
969
969
967
966
966
966
965
958
961
965
969
968
964
964
964
965
967
968
965
963
964
967
970
971
968
961
956
955
958
960
960
962
960
964
966
966
966
963
961
966
967
966
962
964
964
967
967
962
964
962
964
964
967
963
961
960
959
959
962
963
963
962
961
962
966
965
963
961
962
963
966
966
964
959
955
956
960
961
960
954
955
960
964
965
963
957
956
961
964
962
958
958
961
966
969
968
967
960
960
961
966
966
967
965
965
963
962
961
959
953
950
953
960
961
964
964
965
969
970
971
968
965
963
966
970
968
966
965
961
967
967
967
967
967
965
965
969
967
967
961
962
960
969
968
967
965
967
968
967
970
969
967
968
969
969
974
973
971
971
973
976
978
978
977
980
981
981
982
985
986
991
994
1000
1005
1004
1008
1017
1030
1037
1038
1039
1034
1033
1035
1037
1037
1032
1023
1015
1009
1006
1001
994
987
978
976
978
976
972
969
964
967
972
968
967
962
959
955
949
944
945
959
993
1056
1141
1236
1307
1353
1382
1405
1411
1387
1332
1238
1113
991
908
889
913
933
940
939
941
945
949
944
944
944
948
947
943
940
943
946
946
948
947
944
942
942
944
946
945
940
936
942
947
949
947
945
944
947
951
950
950
948
948
949
957
958
956
955
954
958
962
962
960
956
958
959
966
971
972
970
972
974
974
976
975
980
981
984
990
993
995
993
999
1003
1009
1013
1019
1019
1019
1024
1030
1033
1037
1040
1043
1049
1051
1053
1054
1058
1063
1063
1064
1069
1070
1071
1070
1077
1079
1075
1076
1071
1066
1067
1065
1069
1066
1061
1056
1057
1056
1051
1047
1040
1034
1034
1034
1030
1024
1018
1011
1012
1010
1010
1006
1002
998
999
1000
999
994
989
989
990
990
990
988
984
985
987
990
990
988
982
983
984
989
992
993
990
992
998
1004
1005
1004
1001
1003
1007
1014
1017
1027
1036
1055
1074
1101
1124
1149
1170
1189
1207
1228
1244
1267
1292
1322
1361
1400
1436
1458
1471
1476
1469
1455
1433
1404
1355
1291
1212
1125
1033
961
935
934
938
936
924
922
919
919
918
917
913
906
904
900
898
897
897
892
885
881
878
873
871
869
864
866
871
872
871
870
866
865
866
874
880
878
872
869
870
874
873
874
869
864
864
864
862
859
847
846
843
845
840
836
827
827
831
830
827
822
817
819
822
825
825
823
825
830
838
845
853
857
855
860
861
866
870
877
886
896
903
908
911
916
916
920
929
937
940
940
945
945
952
956
959
959
955
954
955
963
962
960
953
952
954
959
961
965
968
965
966
967
965
964
964
965
970
974
979
979
976
978
981
985
988
989
989
992
996
1000
1001
999
995
995
997
1001
1003
1003
997
998
1003
1006
1012
1016
1019
1021
1025
1028
1027
1018
1002
991
984
989
993
998
997
994
994
996
994
994
992
991
993
996
1000
995
993
989
992
995
991
989
987
987
989
989
989
989
989
987
989
990
989
985
981
980
983
985
987
990
988
987
985
987
987
988
981
980
983
985
986
986
983
982
983
986
987
986
985
985
986
987
986
988
992
1003
1015
1025
1019
1000
986
981
992
991
974
952
943
948
962
970
975
973
965
969
975
981
982
978
976
976
978
979
981
985
985
982
983
978
981
983
980
978
980
983
984
983
980
980
979
986
986
985
984
985
988
993
991
987
986
992
1005
1011
1002
982
971
966
967
978
980
978
978
977
981
983
984
984
982
983
983
985
983
980
984
986
987
988
988
983
982
981
984
992
988
995
992
990
991
997
1004
1006
999
986
982
985
985
979
970
963
964
970
977
981
980
978
981
983
984
982
980
982
988
991
994
998
998
996
992
992
989
984
979
980
988
1001
1006
1000
995
991
993
995
998
1002
1004
1008
1015
1016
1020
1024
1027
1041
1059
1073
1074
1067
1059
1052
1053
1059
1054
1053
1041
1028
1023
1021
1019
1012
1003
1000
1003
1007
1004
998
992
987
987
990
988
980
971
963
961
974
1009
1068
1153
1242
1321
1376
1413
1425
1414
1364
1276
1163
1035
938
910
938
971
981
979
983
984
978
968
960
963
966
967
964
966
966
968
967
965
965
969
971
972
969
963
963
964
967
972
970
970
970
973
979
979
975
975
976
974
977
978
977
977
978
983
990
994
996
995
996
1000
1004
1006
1005
1008
1009
1009
1012
1015
1015
1020
1023
1029
1036
1038
1038
1035
1040
1048
1056
1060
1064
1064
1068
1077
1078
1081
1079
1078
1082
1090
1094
1093
1095
1090
1092
1092
1094
1090
1088
1085
1082
1080
1081
1077
1073
1066
1060
1055
1057
1055
1047
1040
1039
1040
1039
1034
1031
1026
1023
1022
1021
1019
1011
1009
1012
1012
1018
1018
1017
1013
1013
1012
1013
1017
1018
1014
1019
1025
1024
1021
1015
1012
1019
1023
1025
1024
1024
1026
1028
1032
1034
1043
1049
1050
1054
1058
1064
1070
1086
1104
1125
1151
1177
1201
1220
1238
1259
1286
1317
1347
1376
1397
1408
1408
1395
1374
1352
1322
1282
1232
1173
1105
1042
1003
972
954
945
943
945
947
948
950
954
953
946
941
942
940
942
939
932
923
918
919
918
916
913
911
911
914
917
913
912
912
913
919
927
932
934
930
926
927
929
930
929
928
926
927
930
927
923
918
916
918
918
920
919
913
912
909
913
909
908
906
910
912
917
919
922
922
929
934
937
941
948
954
956
964
973
978
981
979
982
984
992
992
993
995
996
997
998
999
999
994
996
996
996
992
987
978
980
981
986
983
980
976
976
977
982
984
980
979
974
981
985
987
985
984
982
983
984
986
989
987
983
983
983
987
989
986
987
992
997
999
998
995
993
993
996
996
995
994
992
994
996
999
997
995
994
998
997
998
992
991
988
990
993
992
987
983
985
988
992
987
985
978
978
977
979
979
978
977
975
973
977
976
975
974
974
971
972
975
973
972
968
970
973
972
967
962
965
970
972
974
970
964
964
966
970
969
969
968
967
970
972
969
962
958
960
963
965
963
961
961
962
962
964
962
962
961
960
962
965
962
962
962
965
963
966
966
963
960
960
963
966
967
964
963
964
966
965
966
962
962
962
965
965
964
964
963
962
964
967
967
964
960
957
962
966
966
965
963
960
967
969
972
971
966
964
964
963
960
956
957
957
959
962
963
963
960
959
959
963
968
967
965
965
965
968
970
969
966
964
967
967
966
963
962
961
965
971
971
967
965
965
969
971
971
971
968
968
973
973
971
971
969
966
970
973
974
972
972
967
969
976
976
971
970
969
972
973
973
973
971
973
974
978
977
975
971
969
972
975
974
973
972
973
977
979
978
976
976
974
977
981
982
979
976
974
978
979
982
982
979
983
985
990
995
997
998
998
1000
1006
1019
1035
1036
1039
1041
1044
1042
1041
1041
1039
1036
1032
1023
1015
1007
1005
1002
1002
995
987
979
970
977
977
978
976
975
976
979
980
977
972
964
962
972
995
1039
1102
1180
1259
1319
1361
1388
1396
1383
1345
1276
1183
1073
968
907
902
927
947
951
951
948
950
956
961
965
964
957
958
957
957
957
959
955
951
