970
975
975
975
974
976
976
978
974
969
966
964
963
965
967
970
970
970
975
977
978
979
980
985
987
993
1000
1004
1012
1025
1034
1039
1040
1036
1032
1030
1030
1031
1026
1011
999
990
991
990
988
979
971
968
972
975
970
969
966
971
972
973
971
965
954
944
945
960
990
1044
1124
1219
1297
1350
1377
1385
1366
1307
1211
1084
963
897
897
928
949
950
947
950
952
955
957
957
956
952
952
953
954
955
955
953
951
950
957
958
958
954
951
952
953
958
958
955
952
955
957
963
962
962
959
955
958
960
962
960
957
962
968
973
973
969
969
970
972
978
976
976
976
979
989
995
995
996
997
993
998
1003
1003
1006
1011
1018
1024
1031
1036
1033
1036
1041
1043
1052
1056
1062
1061
1065
1070
1079
1082
1085
1084
1085
1089
1095
1098
1098
1100
1102
1103
1099
1094
1089
1084
1085
1084
1086
1085
1080
1070
1061
1059
1063
1059
1049
1036
1025
1025
1026
1022
1017
1014
1011
1014
1013
1010
1005
1002
1000
1000
1003
998
992
990
989
991
993
990
990
988
992
992
993
995
994
994
995
999
1002
1006
1004
998
994
995
1000
1008
1008
1012
1023
1039
1055
1076
1096
1117
1137
1159
1182
1206
1235
1263
1300
1338
1368
1388
1394
1391
1383
1368
1350
1311
1258
1194
1126
1062
1016
988
961
937
924
918
919
920
920
925
928
931
934
930
922
919
916
915
914
914
911
904
899
896
898
898
892
889
886
891
896
899
893
887
890
891
898
904
902
902
902
904
908
907
903
899
898
896
900
902
899
895
894
897
902
898
892
886
886
885
885
883
882
882
886
889
892
887
879
875
878
887
896
900
899
904
911
919
926
929
931
932
937
944
950
952
953
952
957
962
966
969
967
969
970
972
975
976
976
971
974
976
982
981
980
981
981
981
984
982
978
976
977
979
984
985
982
981
984
983
985
984
979
976
980
981
982
983
981
980
980
984
989
990
990
988
988
988
991
990
991
990
992
998
998
1000
995
995
991
993
997
999
995
996
995
997
997
995
991
990
989
991
994
992
992
987
986
991
997
998
998
997
988
978
970
966
971
971
974
977
980
976
977
975
975
975
977
977
975
974
974
979
980
979
978
975
975
977
980
980
977
976
973
977
981
980
979
975
975
977
980
978
976
976
975
980
979
975
972
973
972
979
981
980
977
974
975
978
980
977
976
978
977
975
983
978
977
977
977
981
982
981
976
975
977
977
980
980
977
973
975
980
986
987
982
981
979
982
985
982
980
980
982
986
990
986
982
977
977
982
982
985
982
981
979
982
983
985
983
981
981
983
987
987
985
981
981
983
984
987
985
982
984
986
989
989
988
983
986
987
990
995
996
998
1001
1000
991
983
974
972
978
985
988
986
981
979
980
981
985
987
988
984
985
990
996
992
988
984
985
989
993
996
993
990
990
992
992
995
993
990
990
993
995
995
994
993
990
992
996
998
996
993
998
1000
1004
1000
999
996
998
1003
1008
1009
1011
1011
1014
1021
1025
1032
1039
1048
1058
1064
1066
1061
1059
1057
1059
1061
1063
1058
1044
1036
1028
1027
1023
1020
1011
1006
1005
1002
1006
1007
1006
1000
1000
1003
1004
1002
996
986
978
980
995
1025
1079
1156
1244
1317
1364
1394
1413
1411
1385
1330
1241
1126
1010
934
927
961
982
981
980
980
983
989
991
991
987
984
984
984
989
989
984
984
985
988
991
992
988
986
987
989
990
992
987
988
988
989
992
992
990
989
989
992
996
995
992
993
993
992
999
1000
999
1000
1000
1004
1009
1010
1009
1007
1009
1011
1016
1018
1019
1018
1018
1023
1029
1033
1033
1032
1036
1041
1052
1054
1055
1058
1062
1065
1071
1072
1078
1080
1081
1088
1096
1098
1098
1100
1109
1113
1121
1124
1125
1121
1125
1130
1135
1136
1133
1127
1127
1127
1127
1128
1122
1116
1113
1112
1112
1103
1099
1091
1086
1082
1083
1078
1071
1067
1057
1059
1057
1054
1048
1041
1038
1037
1038
1032
1028
1027
1025
1025
1024
1022
1019
1015
1012
1015
1020
1016
1013
1015
1014
1014
1018
1017
1016
1012
1013
1016
1021
1021
1019
1019
1020
1022
1028
1027
1026
1025
1032
1040
1048
1060
1068
1070
1077
1084
1092
1106
1118
1132
1153
1171
1193
1213
1224
1221
1206
1183
1154
1126
1090
1052
1008
955
903
848
808
788
787
796
807
813
817
817
819
812
811
814
817
827
843
859
875
887
899
914
927
937
946
949
953
952
951
959
963
963
962
961
963
966
964
965
972
972
970
973
977
974
976
978
984
988
994
996
993
991
992
995
1001
1005
1009
1011
1014
1016
1014
1014
1014
1014
1018
1023
1028
1031
1034
1039
1043
1053
1061
1067
1070
1072
1080
1090
1099
1103
1108
1111
1122
1130
1136
1139
1141
1142
1149
1154
1160
1162
1161
1159
1160
1161
1163
1163
1159
1155
1153
1153
1152
1147
1141
1133
1128
1124
1126
1117
1113
1105
1103
1098
1096
1091
1083
1077
1072
1071
1070
1064
1056
1048
1048
1046
1041
1037
1035
1028
1025
1023
1021
1020
1016
1013
1012
1012
1013
1011
1008
1007
1005
1005
1010
1008
1003
1003
1002
1003
1004
1001
1003
1000
999
1003
1004
1003
1000
1000
1000
998
1005
1002
997
995
997
993
998
999
995
992
989
992
994
993
988
986
986
986
986
982
979
979
976
978
979
979
974
970
972
971
971
973
969
965
963
965
967
965
962
960
959
957
963
962
958
956
955
960
958
957
955
952
952
953
954
952
948
949
944
946
950
949
945
944
944
945
951
946
943
942
944
945
950
947
946
942
941
941
945
944
942
939
939
941
943
941
940
938
934
937
944
943
939
934
934
938
939
938
934
935
936
941
942
941
939
934
936
937
940
941
941
937
935
938
939
939
937
934
935
937
942
942
939
936
935
937
944
942
939
938
937
940
941
941
940
936
939
937
943
941
940
935
939
940
943
938
939
937
936
939
944
946
943
939
940
937
941
938
941
940
939
939
939
943
942
938
940
944
946
946
942
940
938
943
944
945
943
942
942
941
946
944
943
941
943
944
944
944
943
943
939
945
948
947
946
943
943
947
948
950
949
946
946
948
952
951
950
946
943
949
953
952
949
948
946
947
949
949
950
946
945
947
952
950
949
949
948
953
954
953
946
950
950
953
957
957
959
956
958
964
968
971
969
970
970
979
998
1008
1012
1011
1009
1009
1013
1014
1012
1009
1007
1005
1000
992
982
976
974
974
971
968
962
953
951
953
958
958
957
956
956
957
960
957
950
949
945
942
943
952
976
1016
1085
1171
1248
1302
1334
1351
1355
1344
1299
1222
1120
1013
924
884
898
924
931
928
927
931
940
946
945
946
944
946
947
950
946
944
944
946
949
950
946
945
942
945
946
946
942
943
944
948
949
951
951
948
948
948
952
954
953
952
953
955
959
958
953
954
955
960
963
963
964
964
963
967
971
973
971
970
971
977
981
983
984
982
984
984
994
996
995
996
1002
1005
1011
1013
1013
1014
1018
1023
1030
1036
1039
1040
1044
1050
1056
1059
1060
1060
1066
1070
1079
1079
1081
1080
1080
1085
1087
1088
1087
1085
1081
1085
1087
1085
1081
1075
1074
1071
1072
1067
1060
1053
1046
1050
1049
1049
1044
1036
1031
1030
1028
1021
1018
1012
1012
1011
1009
1007
1001
997
995
996
997
995
990
984
984
983
989
986
984
983
981
981
985
985
984
979
985
992
995
995
992
989
993
994
1001
1002
1002
1003
1006
1009
1016
1023
1027
1031
1045
1062
1080
1101
1123
1139
1160
1181
1205
1232
1259
1292
1327
1355
1370
1374
1368
1359
1348
1327
1297
1253
1199
1134
1069
1019
986
964
944
926
919
918
922
924
923
924
929
934
937
933
928
918
920
921
925
921
916
911
914
914
915
911
905
900
897
900
900
895
890
889
891
894
893
894
896
896
899
905
911
910
905
904
904
909
909
909
904
902
897
900
903
898
896
891
892
891
893
893
890
884
887
886
888
886
887
886
888
894
897
896
895
898
899
906
911
917
919
921
921
925
933
937
940
944
945
953
958
961
960
958
959
961
967
968
962
961
963
966
966
971
970
967
967
969
971
974
971
966
971
974
975
974
975
973
975
976
978
975
972
974
972
975
977
975
972
972
973
972
978
981
981
978
978
978
981
983
981
976
979
984
986
987
987
984
984
987
989
991
989
986
985
990
994
992
991
984
989
992
990
988
989
985
986
990
992
992
986
985
985
986
988
987
981
978
976
980
982
980
978
973
974
976
979
977
974
971
971
974
975
975
974
968
966
969
971
971
966
965
964
967
970
967
965
966
964
965
966
966
965
961
961
962
966
967
966
964
963
965
968
965
963
961
962
965
965
963
959
959
960
962
965
962
964
964
960
963
964
963
965
960
961
963
963
960
962
960
960
962
965
965
962
957
958
962
964
964
960
962
959
962
963
965
961
960
961
964
968
964
966
961
961
962
964
964
964
962
961
966
970
970
965
963
958
963
969
964
964
964
963
967
970
968
968
962
963
967
967
969
969
967
966
967
969
970
968
965
965
969
970
969
965
966
966
971
971
973
970
969
969
970
972
971
970
970
971
972
975
972
969
967
968
971
975
974
972
971
972
977
981
984
988
989
990
989
979
967
957
955
959
970
973
972
969
967
968
971
975
975
973
972
972
975
980
980
977
976
978
979
982
984
979
974
976
983
992
996
997
998
1000
1006
1012
1019
1030
1036
1043
1044
1047
1047
1044
1040
1040
1039
1035
1026
1016
1008
1004
1001
998
993
988
985
981
982
988
987
986
984
981
981
982
980
973
960
960
971
1002
1055
1135
1219
1292
1347
1380
1392
1379
1333
1248
1136
1024
936
905
927
950
960
963
965
964
966
965
968
967
965
965
962
957
962
966
962
963
963
963
964
967
965
964
962
962
964
969
969
969
966
964
963
968
965
965
966
964
968
972
968
971
969
967
973
980
981
980
978
978
982
987
986
987
985
988
994
996
998
998
1001
1004
1009
1015
1019
1020
1018
1018
1023
1030
1035
1037
1038
1041
1047
1054
1058
1062
1061
1065
1071
1079
1082
1084
1086
1090
1095
1099
1104
1103
1103
1104
1107
1108
1108
1104
1100
1097
1098
1097
1097
1088
1081
1080
1077
1077
1074
1064
1057
1051
1049
1046
1044
1037
1029
1027
1024
1024
1022
1016
1011
1007
1007
1007
1005
1004
996
995
994
999
997
995
987
988
989
990
989
988
989
988
992
993
992
989
988
991
995
998
1002
1001
999
1003
1006
1014
1018
1023
1030
1043
1060
1074
1087
1101
1120
1144
1172
1206
1245
1277
1305
1330
1346
1348
1334
1314
1296
1270
1235
1183
1109
1028
968
936
928
925
916
909
902
903
910
921
926
930
931
931
929
929
927
924
917
920
919
917
914
910
905
904
904
907
907
903
900
902
903
910
914
915
915
913
920
921
920
918
919
920
922
924
922
919
917
915
916
920
922
920
918
916
918
920
920
918
915
917
921
920
920
922
925
926
931
938
941
942
943
948
956
960
964
965
966
973
975
985
990
988
991
991
995
1002
1004
1002
998
995
998
1002
1001
998
992
993
994
994
993
992
989
987
984
985
986
982
979
976
977
980
981
977
973
974
972
976
975
974
973
971
971
971
973
974
970
969
973
974
975
973
972
972
974
980
979
976
975
979
982
983
983
982
980
980
982
985
985
984
982
979
982
980
981
980
979
979
978
980
979
979
975
975
975
978
977
975
972
969
968
970
971
967
965
962
963
966
966
962
961
964
966
967
967
966
961
957
961
961
959
956
955
957
957
960
959
957
953
954
955
959
960
957
955
954
954
957
956
956
952
952
954
954
958
953
950
949
951
958
959
956
954
953
955
956
955
953
948
950
950
953
955
952
950
948
950
954
957
950
950
950
953
955
955
954
951
952
953
954
955
954
951
952
953
954
955
953
953
951
956
956
956
955
951
949
951
953
955
954
951
951
952
952
954
954
951
950
953
955
958
953
949
949
952
955
955
950
951
950
952
956
957
953
954
954
954
955
955
955
951
950
955
958
956
954
954
952
953
956
958
956
954
955
957
958
959
954
954
952
953
955
958
955
951
952
953
958
959
956
953
955
951
957
954
955
952
955
954
958
958
957
955
955
955
962
957
958
957
956
957
962
962
960
957
958
958
963
964
962
958
963
966
967
968
967
965
969
976
982
985
987
988
991
1002
1017
1026
1030
1025
1020
1025
1029
1032
1025
1018
1011
1005
999
995
989
985
981
974
972
971
968
967
969
968
971
970
968
966
964
962
960
955
957
972
999
1059
1141
1228
1294
1336
1354
1365
1354
1313
1236
1128
1012
918
883
902
931
940
935
940
947
952
955
953
953
954
956
958
955
952
950
953
956
956
954
951
952
955
958
958
956
956
957
959
960
960
959
957
957
960
964
964
962
957
961
963
966
970
970
966
966
970
974
976
976
977
976
979
983
985
984
982
987
991
997
999
1000
1000
1001
1005
1009
1012
1018
1018
1021
1025
1031
1037
1040
1039
1047
1051
1057
1061
1064
1067
1070
1073
1081
1083
1085
1084
1083
1088
1090
1090
1086
1087
1084
1083
1084
1086
1082
1074
1072
1071
1068
1064
1058
1051
1045
1041
1043
1040
1033
1026
1025
1020
1022
1020
1015
1007
1002
1001
1005
1002
998
995
993
992
994
994
991
988
987
990
992
993
991
985
986
989
993
995
994
994
995
997
1000
1001
1001
999
1000
1005
1009
1013
1013
1013
1016
1025
1032
1038
1044
1051
1063
1078
1095
1116
1141
1170
1206
1245
1275
1284
1277
1263
1242
1221
1193
1162
1111
1042
974
930
913
904
891
880
871
873
880
881
881
881
888
896
907
921
925
928
926
926
927
925
920
918
918
915
918
916
912
907
907
909
909
911
913
909
908
909
915
919
921
923
928
933
935
934
932
931
932
935
937
938
936
933
935
936
939
941
940
935
938
940
947
950
947
951
950
956
960
966
968
968
975
982
988
995
1000
1001
1004
1010
1017
1021
1023
1025
1028
1033
1036
1039
1038
1039
1040
1039
1039
1039
1034
1031
1029
1028
1027
1024
1020
1016
1014
1014
1013
1008
1008
1003
1002
997
1002
998
994
988
982
984
988
986
980
975
975
978
975
975
974
969
969
974
975
977
973
971
971
972
977
976
975
970
973
974
976
975
976
972
975
977
979
981
980
981
976
980
981
985
980
978
978
981
985
985
982
980
979
977
983
980
979
974
972
973
973
975
971
968
966
968
971
970
966
962
961
963
965
965
961
957
955
957
960
958
958
955
953
955
956
956
953
950
951
951
955
953
952
947
945
943
948
949
947
944
943
945
948
945
944
940
939
939
942
945
943
941
940
943
944
946
945
942
938
940
946
950
943
940
936
940
942
945
941
938
939
943
942
941
939
939
940
940
943
943
945
941
940
942
945
945
942
940
940
943
945
942
941
939
938
941
943
946
943
941
939
942
945
947
943
942
942
940
947
946
943
941
941
945
946
946
946
939
939
947
951
950
947
943
943
948
949
949
947
944
942
945
949
952
950
946
947
947
948
950
950
948
947
948
952
952
951
950
949
951
953
955
953
949
950
951
957
958
955
952
949
951
954
954
952
952
951
954
956
957
956
953
954
955
956
959
959
954
954
954
960
960
959
955
955
958
961
961
961
959
958
963
962
964
964
961
957
961
963
965
964
963
961
966
966
967
968
965
962
965
972
977
978
982
988
992
997
999
1003
1009
1018
1027
1032
1034
1035
1032
1033
1033
1038
1039
1031
1023
1012
1006
1004
997
993
986
982
979
979
976
975
971
970
972
976
973
972
967
966
969
965
957
951
954
975
1015
1079
1163
1244
1306
1346
1376
1395
1385
1349
1281
1181
1069
970
912
908
935
954
955
956
957
964
963
963
964
961
964
965
962
961
963
964
966
964
961
959
963
964
967
967
966
962
965
970
970
968
966
965
965
967
968
967
965
968
973
974
978
976
974
973
978
978
980
978
976
979
982
984
987
986
986
987
989
993
995
997
994
997
1001
1003
1006
1006
1008
1011
1017
1021
1024
1026
1025
1028
1034
1040
1043
1045
1047
1047
1055
1059
1065
1068
1070
1073
1078
1084
1091
1094
1093
1094
1100
1103
1107
1112
1110
1111
1109
1114
1114
1115
1109
1107
1108
1110
1109
1100
1095
1093
1091
1088
1083
1077
1072
1065
1064
1063
1060
1054
1047
1042
1040
1039
1037
1029
1025
1020
1022
1021
1018
1015
1008
1006
1008
1008
1008
1002
999
996
997
1000
1000
997
996
993
996
999
1001
999
997
997
998
998
1002
1000
997
997
1000
1005
1005
1006
1005
1006
1010
1012
1017
1021
1026
1038
1049
1062
1071
1076
1087
1101
1123
1147
1178
1209
1238
1276
1306
1325
1333
1325
1303
1280
1260
1239
1207
1155
1089
1019
964
928
909
899
895
894
896
895
895
898
902
909
919
926
934
935
928
927
928
930
929
927
921
914
915
914
913
911
907
905
907
909
909
906
902
904
910
915
916
919
920
919
923
926
924
925
925
923
926
928
929
924
926
925
928
930
931
929
925
925
926
930
930
929
926
927
931
936
937
936
938
941
945
953
955
956
957
963
970
976
980
982
986
989
994
1000
1006
1005
1007
1009
1013
1017
1017
1018
1017
1016
1016
1020
1017
1015
1011
1006
1006
1010
1009
1005
998
996
994
994
992
989
986
985
985
987
986
981
979
978
976
977
979
973
969
969
968
971
968
968
965
965
968
967
971
967
963
961
966
967
970
968
966
965
968
971
970
967
966
967
970
972
974
973
971
969
973
974
974
972
968
969
970
972
971
970
966
966
967
969
969
968
963
958
958
963
961
962
959
955
957
959
958
956
954
952
953
956
957
955
952
947
949
951
952
948
946
943
945
946
947
946
942
943
945
945
947
945
943
941
943
943
943
942
940
938
939
941
940
940
938
936
939
941
940
941
937
936
937
940
943
939
937
933
935
939
940
937
933
933
