987
985
989
1004
1028
1067
1118
1167
1202
1228
1250
1257
1247
1219
1172
1113
1051
1002
964
949
950
956
960
959
958
954
955
953
956
961
956
956
953
952
956
956
954
953
950
951
954
957
958
954
950
947
948
952
950
950
946
947
951
956
953
954
950
951
958
961
959
958
955
957
959
961
964
961
959
963
966
966
968
970
970
970
974
980
982
980
979
982
987
992
994
994
991
996
1003
1013
1015
1016
1017
1022
1026
1035
1040
1042
1044
1049
1055
1060
1063
1065
1064
1068
1077
1085
1086
1086
1084
1084
1087
1094
1095
1093
1088
1086
1090
1093
1091
1086
1087
1085
1083
1081
1070
1063
1055
1054
1055
1055
1051
1048
1041
1033
1033
1031
1029
1022
1016
1007
1005
1010
1006
1006
1002
999
995
997
990
986
986
988
991
995
994
990
985
984
986
990
991
990
989
992
993
996
996
996
997
1001
1003
1011
1009
1011
1009
1010
1012
1015
1020
1025
1029
1039
1051
1067
1084
1099
1115
1132
1152
1169
1184
1194
1206
1226
1254
1287
1317
1346
1373
1386
1392
1391
1382
1361
1338
1306
1266
1204
1134
1062
1008
971
953
950
944
935
925
928
935
936
932
921
910
903
901
904
903
898
891
887
886
887
883
881
875
877
879
881
878
876
878
878
883
884
883
880
876
875
876
881
882
880
877
872
876
879
876
872
867
867
867
867
866
861
857
854
854
853
853
849
844
835
836
839
838
837
834
834
840
845
843
841
842
845
849
859
864
865
867
878
885
895
897
895
893
893
898
906
911
914
912
915
922
927
926
925
923
931
938
943
946
948
942
944
947
952
953
949
944
947
956
962
960
961
960
957
956
960
961
966
970
969
966
963
964
965
966
966
972
975
976
973
974
974
969
962
964
962
965
969
971
978
978
975
972
975
979
982
983
981
979
979
984
993
994
989
984
981
982
984
982
978
971
971
971
972
972
976
977
977
978
981
976
972
966
965
970
973
973
971
968
967
968
969
970
967
965
966
971
972
969
967
964
965
963
969
967
963
962
962
963
968
967
965
960
958
961
965
963
961
960
962
962
962
963
961
960
960
960
963
960
958
955
959
962
965
963
958
958
958
959
960
962
959
956
960
965
965
963
960
961
960
961
964
962
963
958
959
957
961
958
955
954
956
956
960
960
959
955
954
956
960
959
959
957
958
960
960
957
954
952
953
953
956
956
955
952
952
953
954
957
954
953
951
952
956
957
954
953
953
953
955
955
955
952
954
958
960
960
955
949
952
954
956
954
953
952
950
954
956
956
953
950
950
952
956
956
956
955
950
955
957
956
954
954
953
954
957
957
954
951
952
955
958
961
959
955
954
953
952
955
954
951
954
954
956
955
954
950
949
954
957
958
957
955
954
957
964
960
957
955
954
956
958
955
955
954
954
955
957
954
951
952
950
956
960
959
955
954
956
957
962
963
960
958
957
962
966
967
967
965
969
975
979
982
983
986
994
1004
1009
1015
1009
1011
1010
1014
1012
1009
1004
994
988
985
984
980
973
970
968
971
977
975
971
965
956
957
966
968
967
967
969
980
999
1025
1073
1131
1197
1241
1276
1284
1275
1248
1196
1131
1054
977
925
918
935
947
950
948
945
944
945
946
951
952
946
946
945
947
949
950
947
946
944
949
951
952
947
946
947
950
954
952
952
948
949
949
953
953
951
951
950
953
957
957
957
956
958
959
964
965
964
964
964
969
973
974
977
976
980
982
989
987
992
990
991
992
997
999
1006
1007
1011
1017
1021
1025
1024
1026
1031
1039
1049
1053
1055
1058
1062
1071
1077
1079
1082
1080
1084
1089
1092
1093
1094
1092
1092
1090
1090
1089
1089
1086
1081
1081
1082
1077
1068
1065
1059
1056
1055
1052
1047
1038
1033
1031
1030
1024
1018
1013
1008
1008
1010
1008
1003
998
996
995
993
992
988
987
988
990
993
991
986
985
987
989
990
994
992
992
991
993
997
998
1000
1000
1004
1009
1014
1018
1020
1023
1032
1045
1064
1079
1096
1106
1121
1138
1153
1172
1188
1198
1211
1231
1257
1284
1313
1348
1379
1409
1430
1438
1434
1421
1402
1373
1325
1250
1156
1071
996
950
935
934
933
927
922
921
923
919
914
906
902
900
900
896
892
889
886
885
884
882
878
871
869
867
870
866
866
862
863
867
873
876
875
871
868
870
872
873
871
864
865
862
864
861
859
856
854
854
853
849
842
839
837
837
839
836
832
829
824
825
827
821
817
814
815
816
822
821
820
822
824
832
838
841
842
841
845
851
860
867
869
874
881
887
894
896
896
894
901
905
911
917
915
918
920
926
934
936
936
934
937
939
945
947
949
951
954
958
961
962
958
956
954
960
962
963
964
962
963
965
963
962
962
959
963
967
971
970
970
970
971
975
979
982
985
985
986
990
990
986
983
981
979
980
979
982
981
977
978
980
983
978
977
976
974
978
982
986
985
983
982
981
980
980
976
974
975
980
983
979
970
963
964
964
970
969
967
967
966
970
971
965
960
958
960
964
963
958
956
956
962
968
971
970
963
956
953
956
963
965
962
960
961
962
964
962
963
958
957
957
959
960
960
960
955
952
954
956
959
958
958
959
961
961
959
957
960
965
969
968
965
960
955
954
954
958
960
958
956
960
961
959
962
959
958
959
961
967
965
961
964
964
965
964
966
959
963
963
964
967
967
966
967
969
968
968
963
968
967
974
974
976
970
971
971
972
976
976
970
970
971
973
974
974
974
972
969
972
974
976
974
973
970
970
976
977
974
975
972
975
979
978
976
978
978
981
983
989
992
996
989
979
969
967
967
967
967
969
977
979
981
976
976
981
983
982
979
981
984
987
989
984
975
971
973
987
992
989
974
963
961
960
961
961
966
967
976
979
986
984
985
982
980
983
986
989
987
988
989
991
995
999
999
1001
1002
1006
1014
1021
1028
1029
1033
1038
1037
1035
1034
1033
1030
1029
1027
1021
1015
1007
1002
997
997
996
993
990
986
990
991
990
989
986
984
988
989
988
982
979
986
1004
1040
1098
1172
1241
1294
1334
1355
1356
1329
1279
1207
1115
1029
950
919
928
952
961
964
964
964
965
966
968
968
968
964
960
961
963
963
965
966
963
963
962
962
961
958
958
957
958
958
960
959
961
963
966
966
969
967
968
972
978
983
986
986
980
972
967
967
965
968
972
974
980
987
990
989
991
993
995
995
994
991
997
1003
1008
1014
1017
1019
1018
1022
1028
1035
1039
1043
1045
1049
1057
1064
1070
1074
1080
1084
1088
1092
1097
1099
1102
1103
1109
1111
1114
1113
1111
1115
1116
1116
1115
1111
1108
1104
1103
1103
1095
1090
1085
1078
1076
1070
1067
1062
1058
1053
1052
1051
1042
1038
1029
1025
1025
1024
1024
1022
1018
1017
1018
1018
1011
1009
1007
1007
1009
1006
1002
999
998
998
1001
1002
1001
1004
1003
1002
1005
1007
1008
1006
1005
1007
1010
1020
1022
1023
1017
1016
1016
1019
1020
1019
1022
1024
1032
1042
1048
1053
1057
1062
1070
1081
1087
1094
1113
1145
1183
1227
1260
1278
1283
1273
1255
1230
1188
1130
1055
965
888
840
816
812
820
822
817
813
807
795
785
784
788
801
811
822
833
846
860
875
886
896
903
906
912
916
920
919
921
923
925
930
932
939
938
941
946
950
953
951
948
952
954
959
959
959
954
958
960
965
965
964
965
967
970
970
969
968
967
968
968
975
978
977
980
982
989
991
999
1004
1011
1019
1028
1034
1036
1040
1043
1050
1062
1071
1077
1083
1090
1099
1103
1104
1107
1111
1113
1115
1120
1124
1123
1122
1118
1117
1117
1118
1115
1109
1102
1099
1101
1096
1091
1079
1072
1066
1065
1062
1058
1051
1044
1037
1036
1033
1030
1025
1021
1015
1019
1019
1018
1012
1007
998
996
995
996
992
990
987
991
992
992
990
983
982
985
990
989
987
984
982
987
991
988
992
984
984
986
992
993
991
987
986
988
991
987
988
981
983
983
981
983
978
979
979
979
983
984
980
975
970
971
971
967
966
964
966
966
971
971
966
963
962
962
962
962
960
958
960
962
964
965
961
961
957
956
959
958
956
952
952
954
952
953
953
946
945
948
950
952
950
947
945
949
953
956
954
950
953
952
957
954
950
949
949
950
947
946
943
939
942
948
952
947
940
935
935
937
944
948
947
946
944
942
942
945
947
945
942
941
941
940
938
942
950
951
953
946
942
938
941
946
951
956
954
951
942
937
935
936
945
949
953
953
954
947
939
938
937
942
947
948
946
941
940
942
948
949
947
943
944
943
945
944
944
945
945
945
947
947
947
945
946
950
954
954
950
947
947
946
948
945
940
938
937
939
941
945
952
948
947
947
951
953
952
948
946
954
960
961
958
946
941
942
946
946
945
943
944
949
953
954
954
953
950
953
956
963
965
961
961
955
954
952
952
950
951
953
957
957
960
959
961
966
966
965
962
960
960
964
970
967
962
956
953
958
963
967
967
966
963
965
970
972
973
968
970
974
979
981
984
987
993
1007
1020
1022
1021
1020
1019
1017
1024
1027
1024
1017
1007
1003
1002
997
991
987
981
981
981
978
971
967
968
971
973
973
971
967
966
966
966
961
958
970
1002
1060
1140
1229
1299
1342
1365
1372
1357
1316
1243
1141
1029
939
891
899
928
941
942
940
942
949
950
951
951
956
955
955
950
945
946
945
950
951
945
948
949
955
960
960
953
950
949
953
954
956
957
954
953
952
954
956
956
953
955
958
960
961
961
956
957
959
962
967
965
965
966
969
971
972
973
970
971
980
985
987
984
988
989
993
1001
1005
1008
1009
1009
1013
1019
1021
1023
1024
1027
1036
1040
1041
1047
1051
1054
1060
1069
1072
1072
1077
1084
1089
1095
1100
1098
1101
1099
1102
1108
1107
1103
1098
1095
1092
1094
1088
1085
1075
1071
1075
1073
1073
1067
1060
1054
1053
1051
1044
1032
1030
1028
1027
1027
1022
1014
1008
1004
1003
1003
1004
999
993
992
991
994
992
987
984
980
976
979
979
977
975
976
980
983
984
984
981
986
990
994
995
995
995
995
1002
1005
1007
1008
1007
1012
1017
1026
1036
1047
1061
1081
1100
1117
1132
1142
1159
1172
1196
1216
1233
1245
1266
1297
1334
1378
1418
1442
1454
1459
1461
1457
1448
1425
1385
1315
1227
1131
1039
961
924
918
921
925
922
916
912
913
913
911
904
898
889
888
887
888
887
886
881
874
869
867
872
870
866
859
862
861
858
855
854
858
864
871
872
867
862
862
857
860
861
861
857
854
853
852
848
845
843
843
843
844
843
837
832
829
829
827
828
820
812
808
808
810
808
801
800
801
800
803
801
804
805
808
813
815
818
820
821
827
836
840
839
841
839
843
852
862
866
872
877
883
892
899
901
901
899
902
907
913
919
924
920
924
924
929
931
933
930
933
939
941
944
938
938
941
949
950
951
951
950
952
954
960
958
961
958
958
961
965
966
962
961
960
966
970
968
960
960
959
962
965
969
965
965
967
970
974
978
976
975
976
977
980
982
981
978
980
980
986
986
986
983
982
982
981
987
985
982
977
977
981
982
981
976
976
978
979
978
976
975
974
973
975
975
974
972
969
975
982
980
974
970
970
968
972
970
964
962
962
970
975
977
971
964
965
970
977
976
969
964
961
960
963
966
963
958
957
955
957
958
960
960
963
963
964
965
963
962
961
965
968
970
968
966
965
969
972
970
969
966
965
964
968
966
966
963
963
966
970
972
968
963
962
965
967
968
964
962
964
968
970
970
968
966
969
975
980
981
975
966
959
960
961
964
963
963
963
967
970
969
967
964
969
973
976
974
970
969
966
970
973
970
969
963
962
968
972
972
972
970
975
977
981
985
984
978
977
980
979
976
970
966
961
963
971
975
973
968
967
968
973
977
982
980
979
979
980
983
984
979
974
970
973
974
977
976
974
974
976
978
979
979
976
979
983
985
987
979
974
972
975
974
975
972
976
978
984
992
988
983
980
979
982
982
980
976
972
973
975
978
976
974
976
980
984
984
984
980
980
980
978
976
977
973
973
972
977
978
976
974
977
981
984
984
980
978
978
976
977
976
973
976
978
979
984
985
989
987
991
997
1001
1005
1008
1008
1009
1016
1023
1032
1032
1031
1031
1033
1037
1043
1048
1043
1037
1027
1017
1009
1004
1000
996
992
989
989
985
978
979
979
982
985
987
986
985
983
975
965
957
960
976
1017
1080
1167
1251
1317
1368
1401
1417
1409
1371
1302
1194
1069
954
892
902
939
959
960
960
962
962
957
957
956
959
961
959
956
957
959
963
962
958
956
961
966
972
972
969
959
957
958
957
961
961
961
963
966
966
963
961
958
963
965
968
971
974
972
977
980
984
985
976
973
975
978
985
989
985
989
992
998
1005
1010
1010
1006
1006
1012
1018
1022
1022
1025
1030
1037
1047
1052
1061
1059
1064
1068
1077
1077
1078
1080
1087
1097
1105
1108
1109
1109
1116
1122
1129
1134
1134
1131
1128
1127
1129
1127
1121
1114
1109
1105
1104
1103
1095
1088
1084
1079
1079
1074
1073
1068
1061
1052
1045
1040
1037
1028
1026
1021
1017
1012
1011
1008
1007
1008
1008
1008
1010
1009
1006
1001
996
993
985
979
982
990
1001
999
996
991
995
996
1000
1001
998
996
999
1000
1006
1009
1012
1012
1019
1032
1048
1070
1094
1115
1131
1150
1163
1181
1198
1209
1228
1254
1283
1321
1363
1412
1445
1467
1472
1465
1453
1439
1415
1378
1310
1212
1101
1003
929
896
897
903
904
903
905
910
917
915
910
903
899
893
895
893
890
886
881
879
876
872
866
863
862
864
867
870
870
866
859
861
863
866
865
873
873
875
874
871
869
869
870
867
869
870
868
862
858
858
859
851
849
844
843
840
836
838
834
826
823
823
823
821
821
819
819
823
827
823
825
824
827
838
843
847
852
853
857
863
871
878
882
884
890
896
905
907
906
907
911
917
923
927
931
933
933
935
934
940
942
942
941
946
948
952
949
945
947
955
959
956
950
951
957
963
966
966
970
970
967
966
969
970
971
970
967
970
969
973
974
972
968
972
974
976
975
971
971
972
979
981
984
984
986
988
990
987
985
981
983
988
989
989
988
984
984
986
986
985
984
983
979
979
982
981
981
980
981
985
986
986
982
979
976
975
977
975
974
971
973
973
975
977
977
971
970
972
975
974
969
965
967
967
969
972
973
970
969
970
969
969
970
967
968
971
972
968
962
964
966
968
970
970
968
966
966
966
968
967
967
962
965
967
972
973
972
966
960
961
964
968
965
963
963
968
973
974
970
964
964
966
962
966
967
966
969
972
971
968
964
963
965
965
967
969
967
967
968
969
975
980
979
975
972
968
967
967
965
965
966
968
972
975
975
972
973
977
976
976
973
970
969
970
974
974
974
973
971
971
970
968
968
966
972
978
979
977
974
972
973
981
985
984
978
973
972
973
980
983
982
971
966
968
973
977
977
982
981
981
979
978
979
976
974
976
980
979
978
979
979
982
980
978
979
977
975
978
981
984
983
977
973
971
978
980
981
978
977
978
980
977
977
977
976
976
982
983
979
976
979
980
986
988
984
978
978
978
987
992
992
992
993
998
1002
1003
1000
1007
1016
1030
1039
1042
1039
1038
1036
1039
1045
1043
1037
1028
1016
1008
1004
1001
995
990
984
984
985
990
987
984
978
978
981
984
985
979
973
968
965
976
1001
1053
1140
1235
1318
1370
1402
1402
1386
1341
1264
1153
1027
922
894
925
957
965
960
957
958
961
966
966
966
960
959
961
962
961
960
960
960
962
963
960
958
959
957
957
962
966
965
960
957
963
965
964
965
962
963
968
971
967
966
963
963
969
971
972
974
972
973
980
983
984
986
982
987
996
1001
1004
999
998
996
1000
1005
1011
1010
1010
1019
1027
1037
1040
1043
1045
1046
1054
1062
1066
1070
1074
1081
1090
1098
1104
1107
1104
1106
1111
1120
1126
1129
1127
1127
1125
1129
1129
1125
1121
1114
1113
1113
1112
1106
1099
1092
1089
1086
1083
1075
1069
1061
1056
1051
1045
1039
1034
1026
1027
1029
1028
1022
1013
1008
1006
1010
1003
1003
1000
1002
999
1005
1007
1006
1005
998
995
994
994
989
990
993
994
999
1001
1004
1006
1004
1007
1007
1011
1006
1002
1001
1006
1018
1029
1037
1053
1079
1105
1129
1151
1163
1179
1197
1217
1241
1274
1317
1367
1416
1452
1466
1463
1453
1437
1407
1361
1290
1189
1081
1003
952
915
901
893
893
890
899
911
919
918
911
904
904
902
904
901
895
884
880
880
881
877
874
869
867
867
871
871
866
869
870
876
883
884
881
877
875
875
880
881
876
874
871
873
875
871
869
865
866
869
869
869
861
852
847
846
852
852
847
840
842
844
843
846
845
845
849
852
859
860
864
868
872
878
883
890
891
895
899
909
913
917
925
929
932
937
944
944
944
942
943
947
947
945
945
948
951
952
954
955
957
955
953
952
953
953
953
952
950
954
957
956
952
954
955
961
961
960
953
949
948
955
957
961
961
957
956
960
964
964
961
959
962
968
972
972
969
968
972
976
982
979
977
973
975
978
983
984
983
984
980
981
983
980
975
974
976
974
981
982
977
971
967
972
979
980
974
975
973
972
973
971
966
965
965
970
973
970
965
964
965
964
965
965
960
955
956
955
958
959
960
958
955
956
961
960
960
954
953
957
960
955
954
948
949
951
954
956
956
952
958
959
960
953
950
949
947
950
956
952
949
949
949
951
949
952
951
949
950
953
954
952
948
947
949
946
950
951
952
947
948
946
947
949
949
948
946
948
953
951
950
949
948
949
951
950
947
943
943
947
950
949
946
949
950
950
952
