991
993
996
995
992
990
991
994
998
997
999
997
1002
1003
1006
1002
998
994
996
1000
1001
1003
996
992
989
989
996
996
995
996
1000
1002
1011
1015
1012
1013
1015
1019
1022
1024
1029
1033
1043
1056
1066
1061
1060
1054
1055
1059
1062
1066
1069
1060
1049
1037
1028
1023
1022
1017
1017
1015
1016
1010
1003
997
995
1001
1004
1004
1003
1000
998
996
996
1001
1020
1052
1117
1202
1286
1345
1378
1393
1395
1372
1319
1233
1127
1011
930
909
941
967
975
971
974
979
988
988
986
981
982
984
989
988
986
986
988
991
988
984
985
983
986
987
987
987
984
979
976
982
986
984
978
981
986
988
991
989
985
984
987
989
992
993
991
993
998
1003
1009
1008
1006
1008
1008
1005
1007
1012
1017
1021
1023
1025
1029
1033
1036
1040
1040
1040
1046
1052
1053
1054
1057
1067
1076
1082
1086
1086
1090
1092
1099
1106
1109
1111
1113
1115
1125
1128
1127
1127
1130
1133
1133
1133
1131
1126
1126
1126
1126
1123
1120
1116
1110
1102
1099
1094
1089
1080
1074
1071
1071
1063
1060
1045
1039
1039
1040
1033
1031
1026
1027
1027
1025
1023
1017
1010
1008
1011
1012
1007
1005
1006
1009
1015
1017
1015
1009
1003
1002
1004
1004
1006
1005
1007
1010
1011
1015
1014
1014
1007
1010
1011
1020
1025
1026
1026
1031
1036
1052
1068
1087
1111
1139
1163
1182
1197
1207
1223
1240
1262
1300
1343
1390
1434
1472
1488
1492
1485
1467
1442
1404
1347
1264
1163
1075
1007
960
939
936
934
927
923
928
929
933
932
927
918
913
911
912
910
906
899
899
898
898
891
884
878
882
886
890
891
887
884
881
884
890
890
887
884
885
888
897
895
889
884
877
876
876
876
875
874
872
868
859
850
843
844
847
843
843
838
830
829
831
836
836
830
825
826
829
838
844
845
846
848
853
861
871
876
882
885
888
899
910
916
915
918
925
925
933
936
938
942
946
945
950
950
949
947
950
955
963
965
963
964
964
967
970
970
970
967
969
977
983
982
976
976
977
980
981
980
975
975
980
985
987
989
986
984
989
994
1001
1001
998
993
996
1001
1004
1005
1008
1006
1005
1001
999
1001
1002
1002
1003
1003
1005
1004
1000
1000
1000
997
997
997
999
994
999
1002
1005
1002
994
989
988
991
997
993
987
982
984
987
990
991
986
981
979
982
984
987
984
977
976
975
980
979
977
975
974
976
980
979
975
971
969
978
983
981
973
966
967
967
968
970
969
970
974
976
975
972
969
965
969
972
973
970
965
965
969
970
970
968
967
967
969
971
971
971
968
969
969
970
969
971
971
968
965
967
968
969
968
966
964
966
967
966
963
961
963
968
969
971
969
966
968
969
969
970
969
966
966
969
970
976
976
973
971
969
972
970
971
972
970
969
971
973
972
967
967
969
976
976
973
971
971
974
972
969
966
967
966
975
976
978
975
973
973
974
979
974
972
969
971
975
977
976
973
973
974
978
978
978
970
967
968
973
979
981
978
970
970
973
977
976
974
972
971
975
978
977
978
976
976
980
978
979
973
971
974
977
979
982
977
975
977
979
982
982
981
977
975
980
985
986
985
985
983
984
983
980
981
981
983
982
977
975
976
981
984
985
986
986
980
979
983
984
987
984
978
978
980
983
983
985
984
982
982
985
987
989
987
982
981
983
985
981
982
983
985
992
996
998
992
992
995
1000
1006
1003
1005
1009
1018
1028
1041
1052
1056
1050
1045
1033
1024
1021
1020
1022
1024
1021
1014
1003
998
996
994
995
997
994
989
988
992
988
993
994
996
992
994
990
986
984
987
993
1008
1041
1101
1178
1257
1312
1349
1364
1359
1326
1270
1180
1073
976
911
899
924
948
955
956
961
966
970
966
967
969
972
973
973
970
970
975
980
980
979
972
973
975
982
981
975
966
967
973
978
977
973
973
974
978
983
983
982
981
981
985
989
990
989
985
984
984
989
989
994
993
995
999
1002
1002
999
998
1000
1006
1009
1014
1014
1017
1018
1025
1030
1035
1036
1038
1050
1058
1061
1060
1057
1057
1059
1058
1062
1069
1072
1077
1084
1095
1098
1102
1102
1103
1107
1117
1125
1122
1118
1108
1109
1109
1113
1113
1105
1093
1087
1089
1093
1089
1083
1072
1070
1067
1071
1067
1062
1055
1051
1046
1044
1043
1032
1023
1022
1021
1025
1023
1018
1012
1008
1007
1009
1009
1004
999
997
999
1003
1004
1003
1001
1003
1008
1007
1006
1003
1003
1005
1012
1022
1019
1021
1021
1023
1028
1035
1041
1044
1043
1047
1053
1060
1073
1090
1104
1126
1151
1173
1189
1202
1208
1220
1236
1265
1301
1334
1368
1410
1448
1473
1482
1477
1465
1449
1411
1345
1241
1120
1022
975
967
976
987
988
983
977
971
967
954
946
941
937
932
925
923
918
912
910
909
915
917
913
909
904
901
903
902
898
892
892
887
884
882
877
876
879
884
890
892
890
887
888
892
894
890
887
881
877
880
880
881
877
872
869
866
868
863
863
857
851
846
843
841
839
831
829
828
828
825
823
823
821
824
823
821
824
825
830
833
843
847
848
847
848
858
862
869
874
875
880
887
893
899
900
902
904
910
917
923
927
931
932
935
941
945
943
943
946
952
961
965
964
961
958
959
965
966
969
963
964
969
977
977
975
970
974
976
984
985
983
983
985
987
993
995
993
991
994
997
1001
1001
1001
999
1003
1001
1005
1003
1002
998
1001
1008
1012
1009
1005
1003
1006
1009
1013
1013
1015
1011
1012
1012
1013
1009
1008
1003
1005
1011
1015
1009
1000
992
990
993
997
998
998
995
994
996
1000
1000
999
994
992
988
983
986
987
988
991
994
995
990
982
977
980
985
992
991
986
979
980
983
987
993
987
978
974
974
974
978
977
978
978
981
981
978
975
975
981
981
984
982
977
972
976
980
982
980
977
976
977
978
981
982
981
980
981
982
982
980
975
974
978
982
987
983
979
975
977
980
984
985
983
980
978
982
984
988
989
985
981
978
975
977
976
976
981
983
984
983
978
977
981
984
986
985
983
984
981
983
981
976
981
979
978
975
976
975
974
975
977
980
985
988
985
981
980
976
979
979
981
981
985
987
991
988
982
974
970
977
978
982
982
976
977
978
984
982
981
979
981
985
982
981
981
980
983
985
992
990
988
984
984
985
989
989
993
992
996
998
997
990
982
981
983
988
992
995
995
993
988
988
987
983
984
984
985
990
994
991
988
989
991
994
1000
999
998
993
987
989
990
994
990
992
995
1003
1004
1002
990
984
980
987
992
995
992
989
992
1003
1005
997
990
983
983
986
993
1000
998
995
992
990
992
991
992
994
996
998
999
998
995
995
993
997
996
995
991
992
993
994
999
996
992
991
990
997
1002
1000
998
997
997
1002
1002
1004
1004
1005
1010
1014
1019
1019
1020
1018
1022
1031
1040
1043
1047
1050
1059
1069
1071
1066
1057
1044
1033
1034
1038
1041
1035
1027
1017
1015
1013
1010
1005
1002
1003
1010
1012
1005
1000
993
993
998
1007
1010
1005
998
988
981
982
998
1024
1072
1151
1234
1301
1348
1373
1386
1383
1359
1308
1225
1124
1020
938
911
935
962
974
971
971
977
982
983
985
983
980
982
984
984
982
980
979
983
987
986
983
979
980
982
987
986
986
988
992
999
1002
1004
1001
1000
996
990
981
971
972
974
981
984
988
991
991
991
996
1000
1007
1011
1016
1016
1016
1012
1008
1004
1005
1010
1015
1022
1024
1022
1023
1024
1031
1037
1043
1048
1051
1051
1054
1058
1067
1073
1077
1083
1089
1093
1098
1101
1101
1099
1104
1111
1120
1123
1125
1127
1125
1131
1133
1135
1137
1134
1132
1130
1130
1128
1126
1122
1122
1120
1120
1113
1105
1100
1096
1092
1096
1090
1084
1076
1069
1064
1061
1054
1046
1038
1037
1036
1038
1035
1031
1027
1023
1025
1026
1021
1021
1018
1017
1017
1019
1019
1016
1013
1015
1014
1019
1019
1018
1016
1014
1018
1019
1022
1021
1017
1016
1022
1024
1027
1023
1024
1028
1034
1041
1044
1047
1048
1056
1067
1090
1116
1145
1161
1177
1191
1206
1221
1238
1257
1289
1329
1374
1420
1454
1477
1488
1486
1480
1460
1439
1402
1351
1272
1180
1096
1028
979
945
932
931
930
928
930
935
942
944
938
930
919
918
921
922
919
914
912
909
906
902
896
894
891
889
888
885
877
872
873
877
884
887
889
889
888
890
889
892
895
898
893
889
878
875
870
868
866
864
862
862
861
859
852
847
843
842
840
838
832
831
827
831
825
822
823
823
826
829
827
823
818
819
826
835
839
841
840
845
853
856
860
863
871
880
885
895
900
902
905
907
917
924
924
929
926
932
939
945
945
946
946
948
950
956
956
958
957
960
965
970
972
971
970
971
975
981
977
976
975
978
983
984
986
984
982
983
987
992
990
994
992
995
998
1000
1002
997
996
994
998
998
998
994
991
996
996
1003
1003
1000
999
1003
1008
1009
1007
1005
1005
1007
1009
1010
1009
1010
1010
1009
1010
1012
1015
1013
1011
1005
1003
1012
1010
996
993
1003
1016
1017
1003
989
985
991
1002
1005
1005
997
986
981
992
1011
1014
1008
1001
997
993
994
995
995
990
994
994
993
991
994
992
994
1000
1002
994
990
994
994
989
999
1005
1003
995
993
998
1001
1003
1000
993
992
995
1002
1001
999
996
994
995
1001
1002
999
998
998
999
1001
1003
1005
1000
992
985
977
982
988
995
998
996
997
1001
1000
996
1001
1005
1010
1006
1001
992
991
998
1007
1011
1002
994
997
1005
1004
1001
1005
1005
1005
1004
1011
1012
1009
1003
999
1006
1015
1020
1012
999
1002
1008
1009
1004
1008
1010
1011
1010
1009
1010
1011
1010
1009
1009
1016
1017
1017
1013
1009
1011
1015
1016
1017
1016
1014
1014
1016
1014
1007
999
1001
1008
1013
1013
1013
1013
1008
1004
1006
1011
1011
1010
1007
1007
1013
1015
1016
1010
1008
1015
1018
1020
1023
1019
1017
1013
1017
1021
1020
1019
1017
1017
1018
1021
1022
1015
1013
1017
1022
1022
1018
1021
1025
1024
1026
1024
1023
1021
1018
1021
1023
1021
1024
1028
1027
1025
1028
1024
1025
1023
1019
1021
1029
1034
1032
1024
1018
1020
1025
1030
1026
1029
1025
1024
1026
1022
1018
1021
1026
1027
1032
1033
1029
1023
1020
1026
1034
1034
1029
1026
1030
1028
1030
1029
1031
1031
1029
1028
1031
1029
1026
1022
1025
1028
1034
1034
1029
1034
1035
1041
1048
1050
1052
1051
1049
1053
1060
1064
1069
1077
1091
1096
1091
1086
1087
1087
1081
1076
1076
1071
1062
1052
1048
1043
1044
1044
1039
1033
1030
1033
1036
1032
1026
1023
1028
1032
1030
1032
1033
1030
1038
1057
1087
1129
1190
1257
1314
1352
1371
1375
1363
1325
1261
1176
1093
1009
953
947
976
996
1001
1001
1004
1006
1013
1020
1024
1016
1009
1013
1011
1012
1012
1014
1018
1013
1013
1012
1019
1022
1020
1015
1014
1019
1020
1017
1014
1016
1016
1013
1021
1027
1026
1022
1023
1026
1030
1029
1027
1026
1025
1027
1026
1033
1039
1041
1039
1040
1044
1042
1039
1038
1044
1054
1056
1054
1049
1053
1061
1067
1066
1066
1068
1072
1075
1078
1087
1091
1092
1092
1093
1102
1110
1115
1117
1115
1117
1122
1131
1137
1137
1137
1137
1138
1145
1147
1145
1141
1143
1148
1146
1139
1131
1132
1132
1133
1133
1126
1120
1113
1106
1106
1110
1106
1098
1090
1084
1081
1080
1078
1075
1068
1064
1067
1066
1058
1051
1050
1052
1054
1054
1048
1046
1045
1046
1047
1050
1052
1050
1041
1038
1047
1056
1054
1049
1052
1054
1051
1052
1055
1057
1057
1059
1068
1072
1074
1070
1062
1066
1083
1096
1099
1106
1119
1144
1167
1192
1216
1235
1254
1283
1318
1356
1386
1400
1409
1415
1416
1411
1392
1359
1304
1218
1129
1068
1027
1005
986
963
949
946
946
946
952
959
965
970
963
952
941
946
947
941
940
938
929
928
926
925
926
923
920
920
916
923
922
924
922
923
927
933
932
927
926
930
933
936
935
929
929
923
914
905
905
913
909
908
908
912
909
905
902
901
902
909
906
904
902
904
915
917
918
913
909
920
933
947
948
948
954
961
967
974
980
982
986
990
995
995
998
997
1000
1002
993
996
1005
1011
1010
1007
1004
1005
1003
1004
1001
999
1001
1004
1003
1001
999
1002
1009
1006
997
996
997
999
1001
1005
1012
1013
1009
1005
1004
1007
1006
1008
1002
1003
1009
1016
1013
1007
1011
1015
1013
1005
1006
1014
1018
1016
1014
1014
1015
1016
1008
1001
1004
1013
1018
1012
1003
1000
1000
1003
998
992
994
995
998
997
993
989
986
989
991
992
987
980
978
983
982
985
987
983
978
975
975
974
970
970
970
970
971
975
970
962
954
958
968
971
967
960
960
957
956
962
962
957
954
956
956
957
956
956
956
949
942
949
957
955
951
952
952
951
951
945
940
941
944
952
951
947
940
943
948
947
943
942
942
944
948
949
948
943
938
941
943
942
940
945
948
945
948
947
944
944
938
933
937
946
948
943
938
939
946
947
946
947
944
944
942
945
946
944
942
936
944
949
944
941
938
944
950
949
943
939
944
945
946
947
948
944
941
943
946
946
946
948
944
945
940
940
942
953
951
945
944
943
952
950
949
943
945
951
954
950
941
943
945
954
957
952
947
947
950
955
955
953
952
948
942
941
951
955
955
955
954
952
952
951
949
945
946
949
954
953
951
949
952
953
954
951
948
950
955
958
956
951
946
945
951
957
954
954
950
946
949
956
959
955
951
948
955
956
951
947
952
954
955
956
955
951
946
950
955
958
954
948
945
946
955
960
958
953
946
948
954
959
958
954
952
949
950
956
958
956
957
957
962
964
965
966
966
972
979
980
986
992
1002
1014
1022
1022
1018
1015
1012
1008
1010
1004
998
995
988
983
972
969
965
965
959
953
947
956
964
961
950
954
958
962
960
957
956
957
969
996
1039
1101
1180
1253
1301
1320
1322
1305
1264
1190
1084
979
885
846
862
895
912
914
912
914
919
929
931
931
927
928
926
923
925
928
929
927
926
926
923
930
930
929
926
926
930
933
936
936
933
929
932
934
937
936
929
932
939
945
947
944
938
939
944
950
951
949
944
945
953
958
961
962
960
959
962
965
974
978
974
977
983
984
987
988
988
992
998
1003
1011
1013
1013
1017
1023
1032
1031
1028
1032
1042
1048
1045
1048
1050
1052
1053
1056
1061
1061
1059
1055
1056
1059
1062
1063
1057
1048
1043
1045
1051
1051
1046
1038
1035
1033
1029
1020
1018
1019
1017
1014
1008
1005
1003
1000
1000
1000
1000
996
998
995
988
979
986
991
992
985
980
982
988
987
982
980
984
986
986
986
985
989
990
993
999
1000
999
998
998
1001
1005
1006
1002
1003
1006
1010
1012
1012
1014
1010
1008
1011
1013
1009
1009
1014
1017
1019
1021
1022
1025
1026
1023
1020
1013
1006
996
988
985
983
973
948
909
862
814
782
774
770
768
757
747
739
743
746
755
771
791
817
850
880
909
940
977
1004
1020
1020
1005
990
972
961
952
949
946
945
943
944
942
944
947
946
943
940
944
948
953
957
956
961
963
965
968
966
968
972
977
974
970
964
970
982
988
987
983
985
987
992
995
997
996
1001
1007
1012
1016
1019
1020
1022
1031
1042
1052
1054
1057
1056
1064
1073
1082
1093
1097
1104
1111
1123
1131
1137
1142
1147
1156
1167
1176
1181
1184
1185
1189
1197
1198
1209
1206
1207
1202
1201
1198
1191
1189
1189
1187
1185
1182
1177
1167
1157
1152
1146
1147
1139
1129
1117
1106
1101
1099
1094
1083
1069
1058
1055
1051
1046
1039
1032
1026
1024
1024
1023
1018
1015
1015
1012
1011
1009
1009
1010
1008
1011
1013
1011
1008
1006
1006
1006
1008
1007
1005
1000
999
999
1002
1003
1000
999
998
995
991
990
992
988
989
989
989
986
983
980
980
978
981
978
976
972
970
969
970
967
969
967
965
962
958
959
961
957
952
952
956
956
953
947
944
946
950
953
948
945
947
944
945
945
942
940
939
938
942
943
942
940
936
937
936
935
935
935
936
935
935
938
937
928
929
931
933
935
929
927
930
932
933
932
931
927
928
931
931
931
928
929
928
930
934
935
936
931
929
929
930
931
930
930
932
929
927
928
930
930
928
926
928
928
930
927
924
926
929
931
929
927
927
930
929
928
927
927
925
927
928
930
930
929
930
930
931
931
929
928
929
931
934
933
930
929
929
933
933
926
925
925
925
928
932
933
931
928
927
934
940
938
934
934
934
934
935
936
934
930
934
936
936
935
935
932
934
937
941
937
932
936
939
941
939
938
938
938
942
941
937
933
934
939
942
941
941
943
941
937
937
941
947
947
941
938
938
936
943
946
944
942
942
944
948
945
941
941
942
941
944
946
946
940
940
945
946
948
945
938
939
941
946
949
945
942
942
945
948
951
947
945
940
940
947
951
949
945
943
945
946
945
945
943
947
949
946
945
945
946
947
948
953
954
951
949
947
952
953
953
951
952
955
951
954
955
951
949
951
953
957
956
954
954
956
959
963
967
967
968
972
978
983
987
992
994
1004
1018
1026
1023
1020
1021
1023
1021
1018
1014
1007
999
993
989
986
983
976
970
964
963
964
959
958
957
954
958
958
954
953
956
956
958
957
953
951
951
960
991
1037
1104
1179
1243
1286
1317
1335
1343
1329
1287
1214
1122
1030
946
885
869
896
923
931
933
939
937
939
943
949
951
946
942
943
943
947
944
947
942
939
941
949
951
952
949
949
945
942
945
948
951
945
945
949
951
951
947
948
948
951
959
958
955
957
957
961
968
964
960
961
963
969
973
969
968
969
972
978
979
981
982
981
985
991
994
991
987
992
999
1008
1009
1009
1009
1015
1019
1024
1027
1031
1034
1037
1045
1050
1054
1056
1055
1055
1065
1074
1075
1076
1073
1080
1084
1086
1087
1091
1088
1089
1088
1090
1084
1084
1078
1078
1079
1077
1066
1060
1059
1061
1061
1056
1051
1041
1033
1033
1033
1028
1022
1017
1011
1009
1013
1011
1004
1001
997
996
997
1001
999
996
991
987
992
993
991
987
983
985
992
999
991
982
983
992
995
994
991
989
993
993
997
999
996
995
997
1000
1000
999
1005
1005
1002
1002
1001
1004
1009
1015
1021
1033
1051
1065
1082
1094
1104
1121
1138
1162
1181
1197
1210
1227
1250
1274
1309
1341
1373
1405
1434
1451
1458
1450
1438
1418
1400
1371
1315
1247
1174
