980
979
976
974
974
971
969
964
964
966
965
963
960
955
955
960
960
959
956
954
956
956
958
956
954
950
953
955
957
958
952
951
952
954
956
955
954
952
955
956
962
961
960
960
958
962
963
964
959
963
967
970
974
974
971
973
975
978
980
982
981
980
984
986
993
994
990
990
993
993
996
998
996
1002
1002
1005
1009
1008
1007
1004
1009
1014
1015
1016
1015
1013
1016
1017
1016
1017
1013
1014
1015
1017
1021
1015
1011
1009
1010
1010
1010
1005
1003
999
1001
1003
1005
1000
996
994
993
996
997
991
992
986
989
988
992
989
987
987
986
986
990
987
986
983
988
991
994
992
990
988
990
992
994
996
996
995
998
1004
1008
1009
1008
1008
1013
1016
1023
1027
1030
1033
1041
1050
1064
1071
1079
1088
1101
1118
1132
1143
1150
1164
1177
1188
1200
1198
1193
1181
1167
1155
1142
1124
1098
1071
1042
1012
988
968
952
940
934
928
928
930
929
929
930
931
934
937
932
929
928
933
934
934
928
927
928
929
932
930
927
925
930
931
938
936
933
930
928
932
934
928
926
925
924
923
929
926
919
918
920
923
923
921
918
915
915
918
921
920
916
912
914
919
921
918
917
917
918
922
928
928
926
928
934
937
943
945
945
945
949
955
960
961
965
965
968
971
975
977
976
971
976
978
982
983
980
979
980
982
984
982
978
976
977
980
980
978
974
969
970
969
973
972
969
967
967
969
971
970
967
963
964
966
969
964
961
962
961
963
967
963
958
956
960
961
963
964
964
964
964
970
971
968
968
964
964
971
974
971
971
970
969
972
975
974
970
970
967
970
970
968
965
964
964
967
970
968
965
960
960
962
967
963
962
959
960
963
963
961
959
958
958
959
958
957
953
954
956
961
962
960
953
952
954
951
957
959
953
952
955
956
958
956
954
952
953
954
955
956
952
950
953
955
955
956
954
954
953
955
957
953
952
951
953
954
957
956
957
954
954
958
958
955
955
955
954
956
960
958
955
952
953
955
953
960
956
954
955
959
964
958
958
959
958
964
960
962
962
958
960
962
963
964
960
959
960
966
966
966
961
960
962
963
965
967
964
961
959
964
964
966
962
959
961
964
967
968
965
961
965
966
969
971
963
964
966
969
975
971
973
969
972
980
982
985
983
982
987
991
994
995
993
990
999
1008
1012
1014
1011
1007
1010
1015
1017
1017
1012
1005
1006
1005
1004
997
990
987
989
989
990
987
985
983
982
983
985
986
983
983
983
988
991
988
987
986
992
1003
1023
1046
1073
1104
1141
1170
1190
1199
1199
1193
1177
1155
1119
1075
1027
995
978
980
982
978
968
964
967
968
969
966
960
960
961
960
960
963
960
957
954
955
956
955
952
951
957
957
960
955
952
951
952
954
959
957
951
950
953
956
956
956
954
955
954
957
960
961
960
959
959
963
960
961
960
962
963
968
970
966
963
963
964
969
973
976
972
974
976
983
983
985
982
985
985
990
992
991
993
993
999
1002
1005
1004
1001
1003
1007
1011
1014
1016
1013
1016
1017
1020
1023
1024
1021
1019
1019
1021
1024
1024
1020
1015
1016
1018
1018
1016
1013
1011
1012
1012
1013
1009
1004
1001
999
998
1003
1000
993
992
993
995
995
990
985
983
982
986
989
987
987
984
981
984
986
987
986
989
990
994
997
998
998
998
1001
1007
1011
1013
1015
1014
1017
1022
1033
1037
1043
1050
1063
1078
1094
1108
1120
1130
1148
1166
1182
1190
1203
1215
1231
1246
1254
1252
1247
1232
1216
1201
1183
1158
1125
1093
1061
1030
1010
990
973
956
953
952
947
945
939
940
943
946
948
942
939
935
933
936
936
934
929
925
925
926
926
921
916
913
915
918
922
918
913
914
917
920
924
924
923
918
919
921
922
920
917
916
918
916
921
917
916
914
916
918
918
919
915
915
916
921
923
925
926
923
929
930
935
937
937
938
942
947
954
957
958
959
962
968
974
978
976
978
979
984
987
985
984
984
983
984
987
982
981
980
983
986
986
983
981
977
975
979
979
977
976
974
975
976
979
980
974
974
975
978
981
978
973
970
972
975
980
977
979
977
978
980
979
977
978
974
975
980
982
982
980
978
979
982
983
981
980
978
980
982
984
984
980
978
977
977
976
977
973
973
975
978
980
976
970
966
967
973
970
970
969
967
969
971
972
969
967
966
964
969
969
970
968
966
969
970
973
970
966
964
963
966
971
972
968
964
965
968
968
969
966
964
963
967
968
969
966
962
966
967
970
968
965
964
966
969
972
971
970
967
967
970
971
968
965
963
964
965
968
966
966
964
964
963
968
968
969
967
966
970
970
967
966
965
967
967
968
968
967
967
968
970
973
972
969
966
969
969
973
972
968
963
963
968
971
968
969
967
967
966
969
967
963
962
963
968
971
969
967
963
968
973
975
970
967
966
969
969
970
968
966
965
963
967
972
968
968
967
965
970
974
973
973
970
966
970
977
975
975
972
975
977
980
980
979
977
982
987
993
995
994
992
991
996
1002
1007
1008
1007
1010
1009
1009
1010
1006
1002
999
997
999
993
987
985
981
982
983
979
976
976
979
982
982
979
973
973
973
972
975
972
975
979
998
1026
1066
1104
1140
1166
1191
1204
1208
1196
1176
1143
1099
1046
997
968
960
961
962
960
958
956
954
951
949
949
948
945
942
937
940
939
940
940
933
936
935
936
936
936
930
929
929
932
936
936
930
929
931
935
938
934
932
930
932
934
934
929
928
929
933
935
937
936
933
933
936
938
942
940
940
939
945
948
952
948
951
950
955
959
964
963
962
960
961
966
971
970
972
971
973
980
982
983
980
981
984
990
994
992
990
986
986
990
995
994
988
987
986
988
992
990
984
982
982
986
985
984
978
974
974
974
974
972
966
962
961
964
964
962
958
956
958
958
961
960
957
957
958
961
963
963
960
958
961
966
970
971
971
969
975
981
987
983
987
988
995
1001
1010
1017
1026
1038
1055
1072
1089
1104
1119
1134
1150
1170
1188
1204
1210
1215
1216
1209
1200
1177
1153
1124
1092
1061
1027
994
962
942
927
921
917
914
911
909
909
911
910
906
903
896
896
898
901
899
891
889
887
890
890
888
883
883
882
883
890
888
889
887
889
893
894
894
889
883
884
884
887
883
879
877
876
879
881
880
877
876
874
878
875
873
871
869
872
876
877
878
879
874
877
884
891
891
895
894
898
905
907
914
914
917
918
922
927
926
929
931
932
936
944
940
943
940
942
947
947
944
941
939
942
944
949
948
946
944
946
948
949
946
944
942
946
946
950
947
945
943
945
948
952
951
949
943
943
948
950
951
949
945
947
950
955
956
955
951
951
954
960
958
954
952
955
958
958
956
955
953
952
958
957
957
954
950
953
957
959
957
954
952
954
958
956
955
952
950
951
952
955
953
948
949
951
950
952
950
949
944
947
948
951
952
946
943
944
948
950
948
945
941
941
943
948
948
942
943
941
944
948
945
944
942
940
940
945
950
944
945
946
948
946
945
944
942
946
949
949
945
943
939
943
944
945
945
938
939
941
943
946
944
940
939
943
945
947
945
941
941
942
947
948
942
938
938
940
944
949
948
940
940
942
944
944
945
941
943
941
946
947
944
944
941
943
946
949
950
947
940
946
947
950
948
945
942
946
949
952
951
945
942
943
947
950
951
948
946
946
951
956
954
955
957
960
962
965
967
964
964
964
972
981
985
983
980
982
982
984
984
982
977
975
973
973
968
963
961
960
961
961
960
956
955
956
961
966
965
962
959
962
967
973
982
996
1023
1065
1111
1151
1180
1194
1196
1191
1176
1147
1099
1046
992
961
953
958
955
946
942
939
941
941
939
935
931
931
929
931
929
928
925
925
927
926
922
924
923
921
925
925
923
920
914
919
921
924
924
926
925
925
925
922
924
925
924
922
925
927
927
927
929
930
935
935
933
933
934
938
939
941
941
942
941
942
948
949
952
954
953
954
956
960
960
962
963
965
967
970
972
973
974
978
982
985
985
985
986
988
993
992
989
989
987
988
988
993
993
989
986
988
991
989
986
984
981
982
983
982
982
977
975
972
971
972
970
970
966
968
968
969
966
964
962
963
967
968
966
966
963
966
969
971
972
973
972
975
978
981
984
985
990
988
994
997
1002
1003
1007
1010
1021
1031
1040
1051
1062
1074
1093
1110
1125
1136
1146
1168
1187
1206
1227
1247
1264
1276
1282
1280
1261
1235
1204
1172
1144
1113
1075
1045
1014
991
978
975
968
957
948
944
944
946
940
936
931
929
932
932
926
921
917
918
917
919
915
914
915
922
925
924
922
915
911
912
914
913
907
903
900
901
903
904
899
895
890
890
892
894
891
887
880
881
883
885
884
881
874
875
878
875
873
871
869
870
873
877
876
879
878
881
885
891
896
895
898
901
905
910
912
912
915
919
927
931
935
934
934
937
943
944
945
943
940
942
947
952
951
951
948
949
951
952
953
951
952
953
953
959
959
956
955
956
960
962
961
963
963
965
968
972
970
970
970
969
975
978
976
974
972
978
982
982
982
981
980
981
986
991
990
988
987
988
988
992
992
990
984
987
989
990
991
987
986
986
988
996
995
991
988
986
986
988
988
985
982
980
983
982
982
979
978
978
981
981
980
979
975
980
980
982
983
982
977
977
978
979
977
973
973
974
976
976
980
978
974
976
979
984
984
979
974
977
975
977
972
969
969
972
973
971
972
970
973
979
979
983
981
978
975
979
977
980
980
976
974
977
980
983
979
976
970
971
974
979
978
974
971
975
977
981
979
982
978
978
979
983
985
980
979
976
975
979
981
982
979
979
981
985
986
984
985
986
985
987
989
986
984
987
992
997
997
1000
1002
1005
1010
1011
1014
1015
1021
1024
1028
1034
1035
1033
1031
1031
1033
1030
1025
1019
1011
1015
1011
1012
1008
1001
997
996
1001
1006
1004
1001
996
995
996
997
1001
993
989
987
998
1016
1042
1080
1125
1174
1210
1235
1253
1250
1242
1217
1182
1132
1072
1018
987
984
987
987
982
980
976
978
979
978
977
975
971
972
972
972
972
969
963
958
962
966
967
963
960
958
961
963
963
959
958
958
960
966
963
960
956
958
960
965
963
959
955
958
962
969
969
964
965
962
968
970
968
969
969
969
972
977
976
974
974
977
978
983
982
981
980
980
986
989
991
988
987
990
994
998
998
1000
998
998
1006
1010
1010
1009
1006
1009
1011
1015
1015
1011
1009
1011
1012
1015
1016
1012
1010
1011
1013
1014
1012
1011
1007
1005
1010
1012
1008
1001
999
1001
1002
1004
1001
999
993
993
995
996
994
987
984
982
985
987
985
983
982
983
986
987
987
985
979
980
980
985
986
985
984
987
989
990
990
990
988
992
996
999
1000
996
994
997
1001
1005
1005
1010
1013
1017
1024
1033
1038
1047
1051
1059
1071
1078
1084
1091
1089
1083
1067
1042
1008
970
925
886
857
828
796
769
752
751
758
770
781
789
792
801
810
818
829
838
845
856
868
877
893
907
920
939
954
967
972
975
977
984
990
992
995
990
989
985
988
990
992
989
986
990
996
999
997
995
992
995
1000
1007
1008
1011
1011
1014
1019
1025
1026
1028
1031
1035
1044
1051
1057
1057
1062
1063
1071
1084
1090
1095
1101
1108
1116
1124
1129
1137
1139
1145
1151
1154
1162
1160
1163
1166
1168
1171
1171
1170
1166
1164
1163
1165
1156
1154
1146
1141
1138
1133
1127
1121
1115
1111
1107
1105
1097
1090
1079
1074
1072
1068
1063
1057
1048
1043
1040
1038
1035
1028
1021
1018
1016
1019
1014
1010
1007
1003
1002
1006
999
993
994
992
993
991
988
984
984
984
986
987
983
980
976
972
978
982
980
976
973
974
975
975
975
971
967
966
968
970
970
965
958
959
961
963
961
957
954
956
956
960
956
953
950
952
952
954
953
946
943
945
945
949
946
943
940
937
944
947
946
945
938
937
938
939
936
937
934
935
937
940
940
940
937
935
937
939
943
939
939
938
939
941
941
937
934
934
933
936
934
932
932
932
933
936
935
936
934
933
936
938
939
936
932
933
935
937
936
933
931
932
936
937
937
938
934
936
939
941
940
936
935
936
939
941
937
934
930
933
935
934
932
932
932
936
936
939
938
937
935
937
940
944
947
944
946
948
953
956
954
954
950
951
955
959
962
961
963
966
971
977
980
981
982
986
989
992
993
991
988
989
986
984
981
972
970
965
964
964
961
956
953
952
954
957
956
957
955
955
958
962
965
959
962
963
971
984
1005
1033
1074
1118
1157
1187
1201
1206
1197
1181
1154
1111
1056
1000
959
947
950
954
948
942
940
942
942
946
940
937
934
933
932
930
926
925
924
922
926
930
929
925
923
923
930
932
931
927
926
927
929
934
933
929
928
928
930
932
933
933
931
931
934
937
939
936
933
933
936
942
941
940
937
939
944
947
950
952
950
950
954
958
956
957
958
959
960
966
966
968
966
972
975
981
980
979
979
978
987
992
993
993
992
994
997
997
996
997
996
998
1001
1002
1002
995
992
995
998
999
996
992
990
989
989
991
990
987
984
977
978
978
976
974
971
966
965
970
966
964
962
960
962
961
963
959
956
957
961
965
962
962
961
961
964
966
968
969
969
970
977
984
986
987
987
992
996
1003
1007
1014
1019
1028
1041
1057
1071
1086
1098
1115
1135
1151
1168
1180
1197
1214
1234
1256
1275
1290
1298
1306
1305
1299
1286
1262
1235
1203
1170
1135
1099
1063
1024
994
977
971
962
953
942
940
945
948
946
941
940
935
932
938
940
936
935
938
939
936
934
924
922
918
922
922
919
914
908
900
898
893
892
888
881
875
877
878
874
871
865
865
865
866
864
859
851
848
847
846
845
843
836
836
835
835
832
832
829
831
834
837
837
835
834
832
836
841
846
845
847
852
859
866
867
869
870
872
880
884
889
892
892
894
900
905
906
909
911
915
916
918
915
911
910
916
921
929
925
925
923
926
928
931
931
929
929
931
936
940
942
941
938
938
941
944
944
942
940
942
947
954
951
952
946
946
947
953
958
955
953
956
959
965
969
964
966
967
969
973
973
973
971
975
978
981
980
975
975
976
981
985
983
980
978
978
980
981
982
981
981
981
982
985
983
982
978
979
979
977
977
976
973
974
975
978
981
975
974
975
976
978
977
978
975
971
974
976
978
976
975
973
971
975
975
970
969
967
974
978
977
973
972
972
972
972
971
969
968
970
975
973
970
970
967
966
967
973
973
972
970
967
970
972
971
969
969
971
971
975
971
967
967
973
976
977
979
974
968
968
971
975
976
974
973
974
972
979
978
972
969
971
974
977
978
974
972
972
974
975
975
977
978
977
978
979
981
980
979
980
987
994
996
995
991
993
1000
1010
1012
1009
1010
1013
1021
1030
1034
1036
1032
1033
1033
1036
1037
1034
1029
1030
1027
1024
1020
1010
1004
1003
1004
1004
1002
996
996
993
992
997
999
1001
1002
1001
1004
1004
1009
1006
1010
1020
1034
1058
1082
1113
1148
1185
1210
1228
1234
1230
1219
1196
1162
1112
1057
1005
981
982
991
991
991
983
979
982
983
982
979
978
973
974
977
981
980
975
972
971
973
976
968
969
968
966
972
976
976
974
970
970
971
975
975
973
973
975
976
976
978
977
978
976
982
985
982
981
982
982
985
989
990
991
992
991
998
1002
1001
998
997
999
1004
1007
1008
1013
1013
1016
1020
1024
1028
1027
1027
1030
1034
1043
1043
1045
1041
1037
1042
1051
1056
1058
1056
1057
1059
1063
1066
1064
1062
1061
1063
1067
1069
1064
1060
1056
1055
1057
1054
1051
1049
1046
1048
1047
1046
1042
1033
1031
1031
1034
1032
1028
1020
1019
1018
1016
1016
1012
1004
1005
1008
1011
1010
1003
997
996
1001
1002
1001
1004
998
1001
1005
1007
1008
1009
1008
1010
1012
1017
1020
1020
1022
1024
1031
1039
1044
1051
1057
1068
1083
1098
1115
1125
1136
1151
1165
1179
1194
1204
1221
1237
1257
1279
1300
1317
1326
1323
1328
1324
1315
1298
1274
1242
1201
1156
1108
1065
1028
1006
998
994
988
976
972
970
972
970
967
960
957
957
954
960
957
951
945
940
940
938
937
929
920
915
910
906
899
892
881
880
877
876
872
865
859
856
858
858
851
849
843
839
838
837
835
832
826
822
820
821
817
810
806
804
805
806
805
802
799
798
801
808
810
806
809
812
816
824
828
832
837
841
849
856
859
863
864
871
877
885
889
890
888
888
895
901
903
906
905
907
914
921
921
920
919
924
927
931
932
933
933
934
935
937
940
939
937
940
941
944
946
947
947
944
950
955
957
954
952
953
954
961
962
964
965
965
968
972
973
974
973
976
980
983
983
982
980
978
982
984
985
983
981
981
985
987
988
984
982
979
983
985
986
981
982
979
978
980
983
981
980
978
977
980
981
978
975
976
977
979
976
976
973
971
976
977
976
973
973
972
974
974
973
972
972
972
975
977
974
969
967
967
969
971
971
970
970
969
971
971
971
970
967
964
967
968
972
970
966
965
967
969
969
967
963
962
967
969
969
966
962
962
968
976
977
974
973
970
972
974
975
972
969
970
973
975
976
974
971
972
975
979
979
977
975
973
975
981
980
976
976
978
978
981
980
976
974
974
981
984
985
984
982
982
985
991
993
993
993
993
1002
1007
1008
1011
1014
1020
1028
1037
1036
1033
1026
1027
1032
1033
1033
1026
1022
1016
1012
1013
1012
