919
914
913
913
916
917
914
912
910
916
916
918
916
912
912
912
914
919
917
916
913
914
917
917
917
914
915
916
921
918
918
918
918
923
926
927
925
924
927
927
934
935
937
934
935
940
944
945
947
946
947
952
957
959
960
961
963
968
974
976
977
979
983
984
992
996
998
1001
1004
1008
1008
1014
1012
1011
1009
1011
1011
1009
1007
1008
1004
1004
1005
1001
996
992
989
987
986
982
977
974
971
970
970
968
962
956
952
958
957
955
953
948
945
946
949
950
946
944
944
944
946
944
943
941
939
942
944
946
945
942
942
947
949
948
951
950
952
954
958
958
957
958
960
963
968
969
973
971
975
980
988
994
990
993
1002
1009
1018
1025
1036
1044
1060
1077
1094
1103
1104
1093
1079
1063
1053
1031
1001
962
918
882
852
839
836
839
843
846
844
839
833
830
832
840
849
855
858
862
867
873
885
892
899
901
899
908
914
920
924
926
932
937
941
945
945
944
944
947
947
949
950
953
955
956
962
964
962
957
960
961
963
963
964
963
969
967
977
981
980
980
981
985
990
993
996
996
1000
1008
1016
1023
1029
1030
1033
1041
1049
1058
1063
1065
1070
1073
1080
1086
1089
1090
1093
1095
1102
1105
1100
1098
1099
1099
1101
1100
1095
1089
1087
1083
1084
1084
1077
1071
1064
1066
1068
1064
1058
1056
1050
1048
1048
1048
1046
1044
1040
1041
1043
1040
1035
1032
1033
1036
1041
1043
1043
1041
1044
1049
1058
1064
1072
1077
1086
1099
1109
1125
1139
1150
1161
1175
1187
1197
1205
1206
1202
1192
1186
1175
1161
1146
1130
1119
1108
1103
1092
1084
1076
1068
1054
1037
1016
997
987
980
974
971
962
956
950
950
947
941
935
928
922
924
924
921
916
912
913
912
911
909
908
907
907
909
908
904
901
902
904
908
911
907
903
900
899
899
898
897
897
892
891
892
891
893
887
882
884
886
888
888
886
885
883
887
889
890
890
891
889
894
896
900
902
902
908
914
920
926
926
928
930
937
948
955
954
955
960
966
974
982
983
983
982
985
991
991
991
993
995
1001
1005
1005
1001
999
997
1004
1007
1007
1003
1001
1000
1003
1011
1009
1011
1007
1008
1008
1010
1013
1013
1011
1009
1008
1012
1015
1013
1011
1011
1015
1014
1012
1013
1012
1012
1010
1013
1014
1012
1008
1009
1008
1013
1011
1009
1004
1005
1007
1009
1010
1006
1003
998
1000
1001
1001
1002
998
997
1000
1001
1002
998
994
990
992
993
994
995
989
989
990
994
993
990
986
988
984
984
987
985
982
982
983
988
987
984
979
980
981
983
983
981
977
975
979
982
983
981
975
976
976
978
979
977
972
972
975
977
979
978
977
972
975
980
980
976
973
975
973
975
980
976
975
973
976
976
980
979
976
975
976
980
979
978
974
970
975
978
977
976
975
973
974
976
977
976
973
972
975
979
978
977
977
975
979
979
982
978
975
975
978
980
981
980
975
976
974
979
980
980
976
977
978
980
979
976
970
973
977
978
980
978
975
975
975
978
979
976
977
977
978
982
982
979
975
974
977
980
981
979
976
974
979
979
981
980
975
974
973
977
976
975
975
975
978
980
980
981
976
973
975
979
977
978
976
976
978
978
979
977
975
975
978
977
978
979
976
976
976
979
979
980
978
977
976
981
980
979
976
975
978
981
980
981
977
973
978
985
982
982
977
977
981
983
984
984
982
985
986
990
991
989
989
987
988
996
1000
1000
1001
1002
1005
1006
1010
1016
1021
1025
1029
1032
1033
1030
1028
1026
1026
1031
1028
1023
1017
1010
1009
1011
1011
1003
999
995
998
1000
997
992
989
986
991
995
996
995
995
991
994
1001
1006
1019
1036
1062
1101
1146
1179
1202
1215
1219
1219
1212
1186
1148
1096
1043
997
976
971
974
970
967
967
968
970
968
967
963
961
961
960
957
956
956
957
961
961
958
952
955
957
960
959
957
954
954
956
960
959
956
951
950
954
956
958
958
957
956
958
960
961
959
957
956
960
961
965
962
964
964
967
969
973
972
970
970
973
976
978
976
977
975
981
984
983
982
985
987
988
993
995
996
995
993
997
1001
1004
1006
1005
1003
1008
1010
1010
1011
1010
1009
1013
1014
1014
1015
1010
1008
1012
1015
1016
1016
1011
1011
1012
1015
1016
1013
1010
1008
1011
1012
1015
1011
1009
1005
1007
1009
1005
1004
1001
1001
1003
1006
1005
1002
998
997
999
1002
1002
998
998
997
996
997
998
996
992
992
993
995
996
994
991
992
997
998
998
996
998
997
999
1000
1004
1003
1003
1003
1006
1005
1010
1009
1007
1005
1011
1011
1014
1013
1011
1014
1020
1022
1019
1017
1016
1013
1012
1015
1017
1013
1004
999
991
980
964
948
935
925
921
919
918
915
909
911
914
919
926
929
936
946
959
972
987
1002
1010
1016
1017
1015
1007
997
986
978
972
972
969
970
964
958
959
959
957
954
948
949
950
951
951
950
946
947
949
952
952
954
957
958
960
964
966
967
967
968
972
978
982
982
981
982
986
989
991
992
993
996
1001
1006
1007
1008
1010
1016
1024
1031
1039
1043
1046
1051
1056
1062
1065
1069
1075
1077
1087
1095
1101
1102
1103
1107
1114
1121
1124
1124
1121
1120
1127
1127
1127
1127
1119
1120
1120
1119
1118
1113
1107
1103
1104
1099
1099
1091
1085
1079
1077
1077
1074
1070
1064
1059
1056
1055
1053
1047
1042
1037
1036
1038
1035
1034
1027
1028
1028
1028
1030
1029
1025
1024
1023
1023
1023
1020
1018
1017
1019
1019
1017
1017
1013
1010
1011
1010
1010
1009
1005
1002
1004
1007
1005
1001
997
995
995
994
994
993
991
991
989
990
992
989
985
984
981
983
984
980
977
977
974
977
978
979
976
974
975
977
977
975
971
970
972
973
972
971
969
965
967
969
967
968
963
964
968
967
969
966
963
963
965
969
969
968
963
963
962
964
965
967
963
962
965
968
968
964
961
959
963
967
968
966
961
960
961
965
965
960
958
955
957
960
958
958
954
955
956
962
963
960
958
957
960
961
959
959
958
956
960
963
964
961
959
957
962
960
961
958
956
957
961
962
962
962
959
956
955
954
959
956
955
953
956
959
961
960
956
954
958
960
963
962
959
954
954
956
958
959
957
959
958
962
961
961
957
955
958
963
963
963
961
960
961
966
965
964
961
962
961
963
964
962
961
961
962
966
965
966
963
962
964
968
967
965
965
963
969
970
971
970
966
965
971
973
973
973
970
973
972
974
975
977
976
974
976
980
982
980
979
980
979
985
989
984
987
987
990
995
998
996
998
1000
1003
1010
1013
1016
1016
1019
1023
1027
1027
1026
1025
1025
1029
1027
1024
1022
1016
1010
1012
1013
1011
1007
1000
1000
1001
1002
1006
1003
1001
1000
1004
1006
1009
1007
1009
1011
1019
1026
1041
1058
1080
1112
1152
1179
1195
1205
1205
1199
1182
1152
1113
1064
1018
993
991
997
999
996
991
989
989
994
995
990
989
985
987
989
988
986
979
978
984
985
985
982
978
979
983
984
983
981
981
979
981
982
986
986
981
977
979
983
985
982
978
982
980
987
988
987
983
986
990
993
995
995
997
998
1000
1006
1008
1009
1007
1006
1009
1012
1014
1013
1013
1012
1017
1021
1023
1023
1022
1024
1028
1033
1035
1031
1033
1033
1039
1044
1047
1045
1044
1043
1046
1051
1052
1052
1048
1047
1051
1055
1052
1051
1045
1044
1046
1052
1050
1047
1038
1038
1039
1042
1039
1038
1034
1030
1028
1030
1030
1030
1025
1024
1024
1025
1024
1024
1020
1019
1020
1019
1019
1019
1016
1014
1017
1016
1017
1016
1012
1012
1013
1014
1016
1017
1014
1010
1013
1017
1016
1015
1016
1017
1020
1022
1022
1021
1019
1022
1023
1026
1027
1026
1023
1027
1030
1031
1033
1030
1031
1030
1032
1033
1034
1033
1029
1027
1029
1026
1026
1027
1021
1018
1011
1004
993
977
958
950
943
940
936
930
921
919
919
923
928
934
940
951
962
978
993
1007
1015
1026
1024
1023
1016
1006
999
994
990
993
992
987
982
980
981
982
984
981
980
980
983
986
989
988
984
982
984
988
993
994
990
994
999
1004
1006
1004
1002
1003
1006
1011
1014
1014
1012
1014
1017
1020
1025
1026
1027
1028
1034
1042
1042
1045
1046
1051
1055
1059
1066
1067
1070
1072
1074
1085
1090
1091
1091
1094
1099
1108
1112
1111
1114
1115
1116
1122
1121
1120
1116
1120
1121
1121
1123
1119
1117
1114
1113
1117
1115
1110
1105
1103
1106
1102
1097
1091
1088
1085
1082
1080
1080
1074
1067
1066
1067
1066
1064
1057
1051
1047
1048
1049
1049
1044
1038
1035
1036
1039
1039
1035
1033
1032
1030
1034
1033
1032
1029
1026
1027
1027
1026
1025
1023
1024
1026
1026
1025
1022
1020
1017
1016
1016
1018
1016
1012
1011
1013
1014
1014
1010
1006
1001
1003
1006
1005
1004
1000
998
997
1004
1002
1000
996
993
998
997
999
995
993
992
992
993
992
988
982
981
980
982
981
979
981
979
980
983
984
981
976
976
977
979
974
974
970
969
971
971
971
972
968
965
965
966
967
965
961
960
963
966
967
966
963
962
966
968
968
968
966
965
966
968
967
965
962
966
968
968
966
966
963
963
961
964
966
965
958
957
960
965
967
965
961
963
963
967
966
968
963
960
962
962
963
964
962
961
965
964
963
961
961
960
962
963
963
961
960
959
962
963
965
965
962
959
962
963
965
963
962
958
962
961
962
960
960
958
960
962
964
964
961
961
962
965
966
963
964
961
961
966
965
967
960
961
964
964
966
965
962
962
962
965
968
966
963
963
964
966
965
965
963
963
967
966
969
966
966
963
968
971
974
971
967
970
971
979
981
978
977
981
985
988
992
989
992
995
1002
1009
1012
1011
1011
1009
1012
1013
1014
1012
1008
1006
1003
1002
1001
997
993
990
990
990
990
989
988
986
987
989
991
990
987
985
988
991
990
991
991
1001
1019
1042
1072
1104
1132
1151
1165
1172
1170
1156
1129
1092
1048
1011
985
972
974
977
980
978
974
973
969
967
966
967
968
964
960
960
957
960
961
960
958
957
957
960
962
958
954
955
957
962
963
963
958
958
960
963
961
963
958
960
961
965
967
966
961
964
963
970
971
971
967
967
974
978
980
977
979
981
988
992
992
990
988
989
992
994
996
998
994
1000
1002
1007
1009
1011
1010
1015
1017
1023
1026
1027
1027
1028
1031
1037
1038
1038
1035
1037
1039
1043
1051
1048
1046
1047
1044
1046
1042
1038
1034
1032
1033
1034
1033
1031
1030
1030
1031
1032
1032
1027
1023
1021
1024
1025
1022
1020
1017
1015
1017
1017
1017
1015
1012
1010
1014
1015
1014
1014
1013
1011
1010
1015
1016
1016
1012
1012
1013
1019
1019
1019
1015
1016
1016
1019
1019
1015
1014
1015
1018
1020
1021
1018
1016
1018
1018
1022
1022
1021
1019
1019
1021
1025
1025
1021
1021
1014
1018
1021
1022
1019
1013
1014
1016
1016
1011
1014
1008
1007
1008
1009
1010
1008
1005
1003
1003
1007
1005
1001
999
997
999
1002
998
997
995
993
994
996
996
991
989
988
993
995
996
995
992
994
997
1005
1006
1005
1004
1004
1013
1014
1020
1021
1020
1023
1022
1024
1025
1024
1019
1014
1012
1010
1006
999
996
988
988
990
987
985
982
979
981
985
988
985
981
977
979
982
986
985
981
982
993
1003
1027
1055
1088
1122
1156
1176
1190
1186
1175
1148
1113
1067
1016
975
961
964
969
969
964
961
959
956
959
959
959
957
950
952
951
953
949
949
946
946
948
951
951
950
947
947
951
952
957
956
953
952
954
957
959
956
956
956
958
961
961
959
955
959
962
964
963
965
963
965
970
973
973
974
973
976
980
985
987
984
986
986
990
998
1000
998
997
1002
1007
1011
1017
1018
1016
1017
1022
1027
1030
1027
1028
1028
1035
1035
1035
1034
1030
1029
1029
1028
1028
1026
1022
1019
1016
1017
1014
1009
1004
998
1002
1003
1000
995
992
988
989
990
988
985
983
980
980
982
981
978
976
971
974
976
977
976
971
968
971
973
974
974
970
970
976
976
976
977
976
975
979
982
983
982
980
976
982
986
984
985
983
984
984
987
989
990
983
984
987
992
995
991
990
989
992
993
991
991
982
989
985
987
991
988
985
984
983
986
986
984
977
976
976
981
983
982
979
980
980
982
983
979
977
977
980
983
982
981
979
980
982
984
987
986
984
984
985
993
997
996
996
995
999
1005
1010
1014
1014
1011
1019
1020
1018
1016
1018
1013
1015
1018
1012
1006
1000
995
995
996
995
991
987
983
983
986
985
987
984
986
987
992
992
992
990
990
997
996
1004
1013
1026
1053
1094
1132
1164
1184
1191
1193
1190
1176
1149
1107
1055
1010
983
979
984
983
977
974
974
976
978
970
965
964
965
967
967
964
961
960
962
963
964
961
956
957
959
961
965
965
961
959
961
967
969
967
964
966
968
971
975
975
974
978
984
990
986
975
967
962
963
970
970
974
971
976
978
983
985
989
988
990
992
998
1003
1005
1007
1006
1011
1015
1017
1020
1020
1024
1026
1031
1037
1038
1038
1040
1042
1044
1046
1048
1046
1045
1049
1050
1049
1046
1043
1043
1040
1042
1043
1040
1034
1028
1031
1030
1030
1024
1020
1018
1017
1014
1010
1003
999
997
997
997
997
994
990
989
990
993
993
992
990
988
989
993
993
991
988
988
987
990
994
995
993
990
988
991
994
993
991
992
996
1001
1003
1001
996
993
989
993
994
994
994
994
998
998
1000
999
1001
1000
1000
1002
1000
992
984
985
989
994
992
991
989
986
986
990
994
989
987
986
988
989
987
987
986
985
985
985
987
985
983
982
984
987
985
984
980
978
981
987
986
986
982
981
981
988
987
985
986
984
988
992
996
996
995
998
1001
1007
1013
1012
1013
1015
1016
1023
1024
1022
1019
1018
1019
1016
1012
1005
999
997
997
996
995
993
988
984
983
989
987
990
987
987
990
992
994
994
993
992
995
1002
1010
1019
1034
1059
1095
1129
1155
1167
1173
1174
1168
1156
1125
1086
1043
1003
984
984
987
986
979
974
974
979
972
970
967
965
964
968
966
964
957
957
960
960
961
960
958
957
959
962
960
954
951
950
950
952
954
951
949
949
953
954
954
956
952
952
953
959
961
961
960
958
961
966
967
965
963
964
965
971
972
971
971
971
975
979
981
983
981
984
985
990
993
997
997
996
1002
1008
1012
1012
1012
1014
1019
1024
1026
1026
1026
1024
1030
1032
1035
1032
1030
1030
1032
1035
1038
1033
1027
1027
1028
1028
1027
1022
1015
1012
1014
1010
1007
1003
998
996
995
1000
997
991
989
984
985
982
982
976
977
978
979
984
984
979
973
974
974
978
974
975
974
971
973
978
978
975
972
971
975
977
977
974
975
974
975
978
981
979
976
975
976
981
982
981
977
974
980
983
983
983
980
979
981
983
982
982
976
976
980
980
980
976
976
972
976
979
977
975
972
974
974
974
975
972
970
970
970
969
975
971
968
968
968
973
970
968
966
964
967
970
969
966
964
968
968
971
971
971
970
970
972
979
979
981
979
980
983
986
987
989
991
995
999
1004
1004
1003
1004
1003
1004
1008
1006
1001
999
988
987
988
990
987
983
975
978
980
978
978
974
975
976
979
979
979
978
976
982
985
987
991
992
995
1010
1030
1054
1087
1114
1137
1156
1165
1164
1152
1130
1096
1055
1019
989
974
969
972
972
973
973
969
965
964
961
965
963
960
953
955
960
966
966
961
957
952
949
950
951
950
949
949
951
955
952
951
947
950
950
955
955
956
952
955
958
960
960
961
960
960
961
963
964
965
964
966
969
970
974
974
972
971
977
979
981
982
979
981
983
989
993
992
992
994
997
999
1005
1006
1005
1007
1009
1013
1014
1016
1014
1019
1022
1027
1029
1028
1028
1028
1031
1034
1035
1035
1033
1030
1031
1033
1030
1029
1025
1025
1023
1025
1023
1019
1014
1011
1010
1014
1011
1006
1002
1001
998
1000
999
994
992
990
990
990
992
987
984
979
981
983
985
982
977
974
975
977
977
978
977
974
976
977
977
975
972
972
975
977
976
971
967
964
966
972
973
972
970
970
973
976
977
980
975
976
981
982
984
984
983
984
984
988
985
988
984
987
988
991
994
991
988
985
988
989
987
987
982
981
981
984
986
985
980
978
980
981
977
981
977
978
981
984
982
979
973
973
974
977
979
979
977
974
974
974
971
966
963
962
961
966
967
965
963
963
965
966
966
965
959
959
964
970
969
970
963
964
961
965
964
960
962
960
961
966
968
970
971
973
977
981
982
981
977
975
980
986
993
997
997
1000
1003
1000
997
996
993
993
996
997
992
984
976
972
970
971
968
967
963
963
963
967
963
963
963
953
956
965
967
967
967
965
967
970
974
980
996
1020
1054
1094
1128
1154
1167
1175
1173
1165
1142
1105
1061
1015
984
972
974
971
963
960
958
958
956
954
949
945
948
948
946
946
942
940
943
945
942
941
939
938
938
940
938
937
935
935
940
940
945
943
936
934
936
939
943
938
939
942
945
947
943
944
943
943
946
949
950
947
947
948
949
952
950
954
952
953
957
960
962
963
960
964
970
975
975
977
972
972
977
982
985
986
988
987
991
997
1000
1002
1001
1002
1006
1009
1009
1013
1012
1011
1015
1018
1018
1020
1016
1015
1015
1019
1013
1010
1010
1008
1006
1006
1006
1002
997
995
993
995
994
991
986
984
983
981
983
978
975
974
971
975
974
972
967
968
967
969
968
966
963
961
962
967
966
962
959
957
961
963
963
957
960
959
961
964
963
961
961
961
962
965
962
963
963
960
963
963
970
968
964
962
967
967
968
969
969
967
969
971
974
971
969
968
972
974
972
972
968
969
971
975
975
974
973
972
972
972
973
971
964
969
972
973
975
969
964
960
964
968
968
970
966
964
965
968
969
970
967
966
969
969
970
967
962
958
959
960
963
961
959
960
961
962
964
963
962
964
964
967
967
961
958
958
962
969
968
967
966
964
967
970
972
972
969
972
974
978
982
983
981
984
989
990
994
997
997
999
1000
1004
1005
1004
1000
1002
1003
1008
1009
1005
1002
999
997
994
989
982
976
974
975
977
978
