931
935
937
937
934
931
934
939
945
945
944
942
943
947
947
948
949
948
949
952
954
952
951
954
959
962
966
967
969
970
972
978
982
983
984
987
993
997
1002
1006
1010
1009
1011
1017
1024
1026
1026
1026
1032
1037
1041
1047
1045
1047
1051
1056
1059
1060
1060
1063
1064
1065
1064
1065
1060
1058
1056
1055
1056
1050
1047
1043
1039
1039
1039
1033
1027
1020
1015
1013
1013
1011
1009
1004
997
999
998
997
997
995
994
989
986
982
980
978
982
985
988
989
986
980
984
987
987
987
984
985
987
992
996
999
997
1001
1002
1009
1016
1015
1014
1016
1019
1030
1038
1044
1051
1065
1077
1096
1108
1124
1138
1154
1173
1197
1219
1236
1251
1268
1286
1309
1326
1342
1344
1343
1333
1313
1278
1230
1170
1112
1066
1041
1020
1009
994
979
971
963
955
948
942
934
929
926
926
922
914
908
907
906
902
897
894
888
890
894
897
895
892
891
889
892
894
894
890
890
892
891
891
885
886
880
880
879
882
879
874
872
866
866
866
862
853
848
852
851
853
848
842
840
840
845
844
837
835
832
839
841
842
845
846
850
857
860
864
865
873
876
879
884
892
898
903
905
911
917
923
927
927
930
930
938
940
945
945
947
949
954
957
955
958
958
959
965
969
970
970
971
972
976
979
979
977
980
982
987
988
985
987
989
987
989
991
994
994
994
994
998
1001
1001
999
996
995
1001
1004
1004
1000
998
1000
1002
1004
1003
1000
996
1000
1001
1003
1003
1000
998
998
998
1000
1001
999
996
998
1002
1001
998
998
995
997
997
998
997
994
993
994
994
997
996
993
989
988
990
992
993
990
986
989
989
989
989
987
983
984
988
989
986
984
982
984
987
990
987
982
980
982
982
983
985
983
981
983
983
982
983
982
981
979
984
984
982
979
979
980
982
985
982
978
974
974
979
983
982
981
979
977
982
981
981
978
980
980
980
982
980
977
977
978
980
984
983
982
980
982
981
984
983
981
976
976
983
986
981
981
976
978
981
982
980
977
975
978
980
981
982
980
976
979
981
982
980
980
975
979
980
983
979
978
973
978
981
984
984
980
978
978
982
986
985
982
979
978
978
983
981
977
976
976
979
982
981
979
978
982
986
989
988
982
981
981
984
987
986
985
986
983
986
989
990
986
985
984
988
993
992
989
988
991
990
993
995
994
990
998
1002
1010
1011
1011
1012
1019
1025
1033
1035
1035
1034
1035
1038
1041
1038
1036
1032
1028
1024
1022
1018
1014
1010
1004
1006
1005
1001
1000
999
999
999
1003
1001
1003
1002
1002
1006
1012
1016
1019
1024
1041
1067
1102
1138
1169
1189
1200
1202
1198
1183
1156
1119
1068
1016
974
950
947
951
960
961
963
966
966
967
969
970
974
972
971
969
972
975
972
975
971
971
973
972
974
975
969
970
970
972
975
977
973
972
974
978
980
978
975
975
976
980
985
984
984
981
984
987
992
991
991
990
993
994
997
997
999
998
1001
1004
1006
1009
1008
1010
1014
1019
1025
1028
1027
1027
1027
1033
1037
1040
1041
1041
1047
1051
1054
1055
1055
1056
1059
1062
1065
1066
1062
1060
1061
1063
1065
1062
1060
1056
1056
1057
1058
1054
1049
1045
1042
1044
1043
1039
1031
1026
1023
1024
1022
1021
1015
1009
1009
1009
1007
1007
1003
998
996
999
999
1000
995
992
995
997
998
996
992
990
989
992
997
995
995
994
994
997
1000
1001
999
999
1000
1004
1007
1007
1006
1006
1002
1008
1010
1013
1012
1009
1010
1012
1018
1021
1019
1021
1027
1036
1042
1045
1048
1051
1055
1059
1066
1072
1075
1078
1077
1073
1070
1053
1034
1013
995
975
952
929
912
905
905
911
922
931
939
946
958
972
983
989
987
983
974
967
960
950
940
932
928
928
927
920
914
913
907
906
908
906
903
903
904
910
911
911
909
905
908
913
913
912
908
904
904
907
907
908
904
903
903
905
908
909
907
902
905
908
910
910
909
910
911
917
920
921
916
920
922
926
929
932
932
935
938
943
949
951
953
955
958
963
967
970
974
971
975
982
987
989
990
990
989
994
999
997
996
995
996
1001
1000
1003
997
995
995
996
996
993
990
988
986
987
988
986
980
976
976
975
976
977
972
969
967
969
969
968
964
960
963
964
966
966
963
961
962
967
966
966
961
960
961
962
966
966
962
960
961
965
965
967
964
960
962
965
964
965
962
958
960
961
965
961
957
956
952
955
956
953
954
950
950
950
952
951
946
944
944
945
946
943
943
942
940
944
945
941
938
937
938
940
941
940
936
930
936
937
938
940
936
931
932
935
938
938
933
931
931
934
934
935
932
931
929
931
935
932
932
929
931
932
936
937
933
931
930
932
937
934
930
928
931
931
935
933
931
929
931
932
935
933
928
927
931
933
934
934
932
932
932
934
934
935
930
929
929
933
935
932
931
929
931
931
933
932
929
927
926
929
933
933
930
928
930
932
937
937
935
933
934
934
939
936
933
926
928
934
933
933
929
928
930
933
936
934
934
931
933
935
938
936
934
932
936
936
939
938
938
935
937
940
944
943
939
937
938
939
941
942
943
939
943
945
949
949
944
940
944
944
951
949
945
942
942
948
953
954
950
949
952
952
956
957
956
958
956
958
963
965
967
969
976
981
984
985
986
986
989
995
998
997
996
991
992
988
993
989
984
980
976
972
972
963
960
956
957
958
963
960
958
958
960
964
965
962
961
963
966
971
983
994
1009
1035
1066
1108
1142
1166
1178
1186
1187
1175
1153
1117
1068
1017
977
950
949
948
946
943
942
943
945
944
942
940
937
939
944
939
939
936
938
940
940
937
933
932
931
932
934
935
935
932
932
931
934
933
931
933
931
935
935
934
932
932
936
940
943
944
942
939
942
948
950
950
946
943
946
951
957
954
956
957
957
965
969
969
969
969
974
979
985
988
992
989
994
996
999
999
999
1004
1010
1016
1020
1022
1023
1025
1030
1035
1040
1039
1036
1037
1042
1049
1054
1052
1053
1051
1051
1051
1052
1048
1041
1037
1034
1036
1037
1035
1032
1033
1032
1028
1027
1023
1017
1014
1011
1013
1015
1015
1014
1009
1004
998
994
994
986
977
970
972
977
976
972
967
962
961
964
963
961
964
966
971
977
974
973
966
960
956
956
952
952
953
958
962
965
967
966
965
969
971
975
976
976
973
978
981
988
991
991
993
996
1002
1005
1004
1005
1009
1017
1030
1042
1055
1065
1080
1098
1109
1117
1119
1122
1135
1152
1164
1177
1184
1193
1198
1198
1192
1183
1163
1140
1112
1084
1058
1039
1021
998
979
970
971
971
968
957
952
948
947
949
943
931
917
909
910
909
910
907
904
905
901
904
904
903
901
899
900
902
902
905
906
906
909
912
908
904
897
899
904
905
908
908
908
909
907
910
912
906
899
897
905
915
919
920
913
906
903
894
879
870
869
876
883
886
886
886
887
897
909
916
915
915
914
919
929
935
936
930
922
921
926
936
938
940
939
942
947
953
958
953
947
945
948
950
948
949
950
953
955
954
952
950
944
940
944
950
950
951
947
948
954
958
959
951
945
946
954
965
961
951
942
940
947
950
947
945
940
942
943
944
939
938
938
943
951
958
958
956
958
954
956
955
954
952
950
948
948
951
959
956
951
947
950
956
956
954
952
954
952
953
950
949
946
946
948
951
952
951
949
949
953
954
956
953
953
953
952
948
938
936
935
936
938
938
936
929
928
932
930
933
934
931
930
927
933
936
936
936
937
935
934
932
927
923
925
923
928
934
932
924
923
923
927
929
925
926
924
920
925
927
930
926
927
925
918
919
918
919
913
916
921
924
924
922
922
922
925
926
923
921
921
920
921
924
924
920
918
921
925
928
927
923
921
922
920
924
922
924
923
923
924
927
926
923
920
921
923
924
924
922
921
922
923
925
923
922
920
922
925
927
926
927
922
921
920
925
923
924
922
923
924
927
927
925
922
922
924
922
924
922
924
923
928
931
930
929
929
931
935
934
932
927
926
927
932
933
933
930
929
930
930
937
934
934
929
932
935
937
940
938
938
942
947
953
955
955
954
958
963
970
975
977
979
979
985
988
988
987
982
981
975
975
971
963
960
956
956
957
954
951
948
948
951
953
951
951
948
949
952
956
959
957
960
961
971
983
999
1022
1054
1093
1130
1156
1173
1173
1166
1148
1123
1086
1036
990
955
940
940
944
942
935
933
933
935
940
938
934
930
931
930
934
933
931
929
928
926
929
926
928
924
927
930
931
929
927
927
929
933
937
942
940
937
933
933
934
933
933
938
944
951
955
952
945
937
934
937
941
949
947
945
949
952
957
960
959
960
962
966
971
975
976
978
979
984
989
991
993
996
1000
1008
1014
1018
1021
1017
1022
1025
1031
1032
1031
1029
1035
1038
1042
1046
1044
1042
1042
1044
1044
1044
1043
1040
1039
1042
1046
1040
1034
1028
1025
1023
1024
1018
1007
999
996
994
997
995
992
991
993
997
997
992
988
981
980
981
984
984
982
979
978
978
975
978
974
973
976
980
981
981
979
980
983
986
987
987
985
983
992
998
1001
1001
996
992
996
998
1004
1009
1014
1016
1018
1021
1029
1036
1042
1049
1061
1074
1085
1094
1103
1118
1133
1151
1175
1195
1208
1219
1229
1232
1230
1224
1206
1180
1145
1107
1069
1032
1004
985
982
985
983
976
965
959
955
952
951
944
940
936
930
933
933
930
926
923
923
924
926
926
925
926
928
931
932
932
933
929
928
926
921
915
909
906
902
906
906
908
905
904
903
906
910
910
910
902
905
905
905
906
906
905
904
903
904
901
900
899
901
904
908
907
909
912
916
925
927
932
937
941
944
951
956
960
960
960
960
963
968
970
971
966
963
962
964
960
960
954
955
958
962
960
956
957
959
963
962
960
956
954
956
957
963
959
958
954
957
959
961
962
957
959
963
969
969
971
968
965
967
970
976
975
975
972
974
979
979
983
981
980
978
983
987
985
985
985
985
987
993
991
988
982
982
983
987
985
979
979
976
977
982
982
981
981
982
984
983
978
975
966
970
972
980
980
971
964
965
963
964
962
963
962
960
966
970
968
965
959
959
958
963
961
958
956
956
959
961
960
957
957
958
960
963
962
960
958
958
960
962
964
962
957
958
956
958
954
951
950
952
953
958
958
956
953
955
954
960
959
957
956
957
958
963
962
960
957
959
958
957
957
950
949
952
957
960
960
960
962
963
966
969
967
965
962
961
960
960
956
956
956
958
958
957
956
957
959
960
954
948
944
940
942
947
951
954
954
952
950
950
955
958
957
952
947
950
955
959
960
958
958
953
959
964
963
962
956
955
957
961
963
958
956
959
960
959
954
946
942
942
946
955
958
962
963
961
963
964
964
960
955
957
964
975
976
976
976
979
985
995
1003
1007
1009
1007
1013
1012
1009
1005
1000
998
997
994
987
982
979
978
981
985
980
976
974
973
976
979
983
982
980
980
979
978
972
967
963
966
976
986
1005
1030
1065
1105
1142
1169
1184
1190
1188
1174
1152
1112
1061
1005
970
955
957
957
948
941
940
942
945
949
950
944
942
940
941
949
953
952
947
938
933
925
922
924
922
926
933
936
933
927
924
923
928
930
928
931
926
928
932
936
933
924
918
920
930
939
943
938
935
934
941
948
945
944
944
948
952
956
957
955
958
962
965
971
968
962
960
965
975
985
987
986
982
984
992
999
1004
1005
1004
1008
1016
1021
1020
1020
1018
1019
1024
1027
1029
1028
1027
1029
1036
1042
1043
1038
1029
1020
1019
1019
1012
1000
987
981
982
981
979
976
973
976
980
984
982
982
974
966
958
955
956
957
955
954
959
961
963
958
959
960
961
967
966
964
958
957
962
965
966
964
962
961
961
965
966
965
962
964
966
970
969
969
967
969
971
974
976
977
980
982
991
994
998
995
998
1001
1010
1018
1020
1026
1033
1038
1042
1037
1018
992
963
937
918
906
886
863
838
816
800
801
803
812
815
817
818
820
821
821
823
831
843
855
858
864
861
860
869
877
884
887
892
897
909
915
921
921
926
933
941
947
952
956
960
962
971
973
976
974
970
966
965
970
971
975
980
992
1001
1008
1006
995
984
977
975
985
995
1003
1012
1022
1033
1041
1044
1043
1044
1044
1051
1060
1066
1072
1083
1091
1101
1106
1106
1105
1108
1113
1123
1128
1131
1130
1135
1135
1139
1141
1138
1140
1135
1130
1131
1129
1128
1123
1116
1113
1107
1101
1095
1091
1083
1079
1077
1078
1070
1060
1052
1046
1042
1041
1039
1036
1030
1027
1028
1031
1030
1027
1023
1023
1028
1033
1025
1014
1008
1007
1016
1022
1022
1027
1027
1037
1051
1060
1068
1072
1070
1084
1103
1121
1133
1133
1132
1141
1161
1183
1201
1209
1214
1222
1231
1228
1217
1206
1204
1206
1211
1215
1209
1195
1175
1145
1113
1077
1043
1014
989
973
964
956
947
934
926
922
915
904
889
880
874
872
866
863
860
853
850
843
841
845
843
844
842
845
847
845
841
839
832
828
827
827
823
821
817
816
816
818
815
809
808
809
805
808
803
793
786
780
780
779
780
775
772
772
773
774
775
774
777
776
778
785
782
785
781
784
790
799
806
803
799
796
797
806
812
816
821
826
832
841
845
846
852
856
862
869
874
876
878
884
885
889
891
894
898
901
908
910
914
914
914
917
920
925
928
929
929
932
937
938
936
935
930
932
937
944
946
947
945
943
951
954
955
953
948
947
951
955
954
956
954
954
955
960
960
958
957
954
954
957
955
953
954
952
956
957
959
957
956
959
961
961
962
958
955
954
956
956
953
948
945
943
947
950
952
952
949
949
948
951
950
949
947
948
953
957
957
952
950
950
952
951
949
949
943
943
948
952
950
948
942
939
939
939
939
939
938
938
943
945
943
944
943
945
948
947
945
942
943
944
947
953
952
948
944
945
943
944
939
934
931
936
937
942
944
942
937
938
939
943
943
940
940
945
950
952
952
948
941
938
934
937
939
939
935
939
946
949
949
950
949
951
951
945
938
937
939
939
939
941
935
932
926
929
934
942
943
942
941
940
940
944
942
937
936
943
947
950
946
938
938
936
936
937
934
935
935
938
940
945
943
943
938
936
938
943
945
943
939
939
942
945
943
940
938
941
939
944
942
940
940
943
942
944
943
942
941
940
942
946
947
944
943
943
946
948
947
947
945
946
949
952
950
949
948
948
950
955
954
950
948
947
949
952
953
950
949
949
952
955
956
952
949
950
957
958
960
959
957
961
965
968
971
972
973
975
979
989
993
995
997
996
1002
1006
1004
1002
999
998
995
996
991
985
980
981
981
978
978
975
972
973
979
977
979
977
974
974
978
982
984
983
984
993
1014
1041
1075
1113
1148
1174
1195
1203
1201
1185
1160
1120
1076
1029
988
968
966
963
966
964
959
957
953
948
948
952
952
946
944
945
944
946
944
942
939
941
940
944
942
939
936
936
934
938
942
938
936
940
940
942
941
938
937
938
941
946
945
943
941
941
944
950
949
946
950
949
952
956
956
956
955
958
962
964
967
968
969
972
975
980
983
979
981
986
988
991
994
995
996
1001
1007
1013
1015
1017
1017
1021
1026
1028
1030
1030
1028
1029
1033
1038
1038
1038
1033
1035
1038
1038
1038
1033
1030
1030
1030
1031
1029
1025
1019
1019
1023
1023
1022
1016
1015
1012
1016
1017
1015
1010
1006
1004
1003
1007
1004
1001
997
997
1000
998
997
998
995
992
994
997
998
996
993
994
996
1000
999
999
998
1001
1002
1006
1007
1008
1006
1008
1011
1015
1016
1016
1022
1026
1030
1042
1049
1057
1062
1073
1084
1097
1108
1114
1120
1127
1138
1151
1162
1168
1173
1176
1176
1168
1152
1133
1113
1097
1078
1061
1041
1025
1010
1003
1001
1000
992
982
974
973
972
971
969
964
960
958
959
960
956
951
949
948
947
949
947
944
940
939
941
943
940
939
936
935
937
939
938
937
936
938
938
941
940
939
935
939
940
942
938
934
930
931
931
929
929
924
921
921
920
926
924
923
917
919
921
926
925
922
922
926
930
932
932
932
934
935
939
947
950
945
950
953
959
963
966
968
967
966
973
978
979
978
977
980
984
986
988
985
986
987
990
994
997
994
993
995
997
1000
1000
998
996
995
998
1001
1000
993
993
995
999
1002
1001
1000
998
996
1002
1011
1006
1007
1006
1006
1009
1012
1014
1012
1013
1014
1016
1021
1019
1017
1013
1015
1016
1020
1017
1015
1013
1013
1014
1019
1016
1012
1008
1011
1015
1017
1019
1015
1013
1012
1013
1015
1015
1013
1012
1011
1010
1015
1012
1013
1011
1010
1013
1013
1013
1010
1005
1002
1003
1004
1001
1000
998
997
999
1000
999
998
994
996
996
998
999
997
994
995
996
999
998
997
993
994
995
998
996
996
993
993
995
997
998
998
994
993
995
996
997
995
990
989
993
998
995
995
991
989
993
997
997
994
990
991
990
992
992
990
987
990
991
993
995
993
991
986
992
995
998
993
992
992
995
996
994
993
986
990
993
996
995
995
995
996
996
1001
1000
995
995
995
996
999
1002
995
994
996
996
998
1000
997
994
993
995
999
999
994
992
992
994
995
995
996
995
996
1001
1001
1002
1001
1000
1003
1002
1006
1005
1002
1000
1000
1001
1005
1007
1002
998
1002
1007
1008
1007
1007
1009
1006
1012
1013
1014
1011
1011
1009
1010
1015
1016
1015
1014
1015
1020
1021
1022
1016
1018
1018
1020
1023
1025
1026
1025
1027
1029
1032
1037
1036
1038
1039
1043
1049
1053
1051
1049
1051
1052
1056
1057
1056
1051
1050
1048
1050
1045
1040
1035
1034
1033
1033
1030
1026
1023
1024
1023
1028
1027
1024
1024
