1211
1204
1175
1134
1084
1039
999
971
946
931
923
914
905
899
897
888
879
869
864
861
859
855
847
844
843
844
843
839
831
831
828
836
839
838
836
835
834
837
839
837
836
832
836
834
832
830
824
818
819
817
815
810
802
798
799
795
794
791
788
783
782
785
783
779
775
773
773
773
777
775
775
779
785
787
792
795
797
801
809
815
823
827
830
840
846
855
865
871
875
880
888
898
904
909
914
920
922
931
935
936
937
937
945
946
950
952
949
949
953
958
960
959
958
958
960
964
965
963
963
965
966
968
971
971
967
966
966
969
972
971
968
967
968
972
972
970
966
966
966
968
969
964
965
963
962
965
965
964
961
959
961
964
963
960
953
953
954
958
957
954
956
952
954
957
958
956
953
949
952
951
952
950
950
946
949
949
953
951
946
948
947
949
951
950
947
945
944
946
947
948
945
942
942
947
944
942
943
941
942
944
946
946
944
942
942
945
947
944
942
937
941
943
946
943
942
940
943
944
946
945
942
941
942
945
946
942
941
941
940
944
946
945
942
941
940
946
947
946
944
943
946
944
948
945
940
942
945
946
947
946
941
943
945
949
951
949
946
948
946
947
949
945
946
945
948
950
950
951
949
944
946
949
949
949
946
946
946
951
951
950
948
945
948
947
948
947
945
946
946
953
955
954
951
949
950
953
954
952
948
948
951
953
953
953
950
950
952
954
958
956
952
951
951
953
956
956
952
949
951
954
955
956
954
950
952
957
957
958
952
949
954
955
957
957
953
952
954
960
961
958
951
951
955
959
959
958
957
958
958
961
963
960
957
955
957
961
962
960
958
956
957
962
961
960
958
956
955
963
964
962
961
958
961
962
965
963
962
958
958
963
965
964
961
961
964
965
967
965
963
963
962
968
968
966
966
964
966
967
966
968
965
969
970
975
978
980
978
979
980
988
992
994
1002
1007
1021
1031
1033
1032
1028
1027
1027
1031
1031
1025
1016
1008
1002
1002
1000
995
982
978
975
975
976
974
971
970
974
976
979
978
976
974
973
978
983
990
1011
1046
1111
1189
1264
1314
1339
1344
1336
1311
1271
1200
1098
999
910
866
871
902
924
927
931
938
945
951
949
949
952
954
954
950
949
950
951
956
957
957
953
955
957
957
956
954
950
951
954
956
958
955
955
954
954
957
958
958
955
954
954
959
963
962
960
962
962
965
970
969
967
969
972
975
977
978
976
974
976
981
984
987
984
984
986
992
998
1000
1001
1001
1006
1012
1019
1019
1019
1021
1030
1033
1035
1033
1027
1027
1037
1044
1047
1048
1043
1040
1049
1055
1058
1059
1057
1059
1061
1065
1067
1065
1062
1064
1066
1070
1071
1066
1060
1056
1055
1056
1053
1048
1043
1042
1040
1041
1037
1033
1028
1027
1025
1027
1021
1021
1016
1012
1014
1017
1014
1010
1008
1005
1003
1004
1005
1005
1000
997
997
1005
1006
1005
1006
1002
1005
1011
1009
1011
1009
1010
1012
1012
1016
1019
1019
1024
1027
1030
1032
1028
1023
1023
1027
1032
1036
1033
1030
1033
1041
1049
1057
1060
1052
1048
1045
1038
1031
1023
1008
1007
1003
995
978
946
903
863
841
833
828
818
803
788
774
767
760
763
766
777
800
829
855
885
918
954
995
1023
1037
1032
1017
1003
990
975
968
963
961
962
960
960
956
951
948
939
939
944
945
946
946
947
950
953
955
955
958
960
964
967
966
965
964
967
969
975
975
973
972
974
974
978
981
985
983
986
990
994
999
1001
1002
1002
1008
1016
1020
1017
1022
1027
1039
1046
1053
1059
1064
1071
1079
1091
1102
1108
1111
1117
1127
1138
1149
1154
1159
1167
1173
1179
1187
1188
1191
1188
1193
1195
1198
1197
1192
1186
1187
1186
1186
1180
1172
1164
1160
1155
1149
1140
1130
1120
1114
1110
1105
1101
1093
1086
1080
1073
1065
1059
1053
1045
1036
1033
1029
1026
1027
1024
1024
1027
1029
1026
1021
1016
1013
1017
1020
1019
1020
1020
1016
1012
1011
1008
1007
1012
1019
1017
1007
993
982
983
993
996
997
997
994
994
994
994
994
990
988
985
986
983
984
982
980
982
983
985
984
980
977
974
977
980
982
980
975
968
963
959
962
965
962
958
959
957
959
959
954
954
958
962
961
954
952
951
954
956
958
960
960
957
950
946
946
948
947
952
954
954
955
949
946
944
941
946
951
952
947
943
942
945
946
944
943
945
946
946
950
949
944
942
941
944
945
946
942
943
944
948
948
948
946
945
943
943
944
946
944
945
946
947
948
947
946
942
946
952
948
944
943
943
945
948
946
943
942
941
942
943
944
943
942
940
944
945
943
940
939
937
940
942
945
946
943
940
943
947
947
946
945
944
944
948
942
938
933
934
937
947
949
941
937
935
937
939
941
941
941
939
940
943
946
943
941
942
948
955
958
956
949
945
946
946
947
940
929
925
930
936
944
942
942
939
941
942
942
941
941
941
945
949
951
945
939
933
936
941
942
941
937
938
940
945
945
948
946
943
941
944
946
950
950
949
947
947
948
943
941
940
943
945
946
944
943
942
946
950
951
946
939
942
947
951
950
947
940
941
943
950
956
951
942
935
941
950
952
946
942
944
943
948
950
950
948
950
951
953
955
955
955
956
957
964
971
969
965
975
988
1007
1013
1012
1010
1008
1007
1006
1007
1007
1002
995
988
985
977
970
962
961
963
963
959
952
945
943
943
945
944
946
945
949
950
949
945
939
942
966
1005
1067
1151
1232
1291
1325
1346
1349
1327
1273
1183
1075
971
888
866
881
908
916
917
920
927
928
931
933
936
935
931
925
921
925
931
939
938
936
935
936
941
938
935
929
924
922
927
932
935
939
938
937
938
937
934
936
943
941
945
945
945
943
949
947
949
948
948
947
951
949
957
963
967
966
964
965
969
972
976
975
974
975
980
987
991
995
999
1001
1005
1013
1017
1021
1020
1025
1032
1044
1053
1051
1045
1047
1055
1063
1065
1061
1062
1070
1077
1079
1078
1075
1073
1075
1078
1077
1075
1072
1073
1071
1067
1063
1054
1047
1045
1044
1043
1036
1035
1029
1026
1022
1020
1019
1018
1011
1003
995
993
996
1000
999
994
992
993
991
989
986
986
987
989
987
985
981
985
988
988
990
992
993
995
996
999
1005
1007
1006
1005
1006
1011
1017
1021
1024
1032
1038
1048
1069
1090
1110
1123
1140
1161
1180
1199
1216
1233
1261
1297
1337
1381
1426
1457
1475
1477
1466
1439
1382
1296
1172
1044
946
908
911
931
950
956
953
945
934
921
919
918
916
914
910
907
903
901
899
898
890
883
879
882
884
880
872
870
867
869
870
877
881
883
883
883
887
886
882
879
879
884
887
882
876
868
862
857
860
859
858
854
846
847
849
846
841
828
824
822
826
830
828
824
822
825
833
836
830
824
828
841
852
860
861
860
864
872
881
891
895
898
907
917
922
925
922
922
923
929
938
947
947
942
940
949
955
961
962
962
962
961
957
960
964
967
966
970
969
973
974
971
973
974
978
979
983
981
981
982
984
983
985
987
988
994
995
993
993
992
993
991
994
996
999
997
994
1000
1006
1008
1003
1000
999
1004
1009
1008
1004
997
993
996
1000
999
998
993
993
1000
998
996
990
988
984
988
995
997
992
982
975
978
986
988
987
983
982
986
988
985
982
979
982
983
984
980
974
971
972
979
980
977
972
970
967
973
979
984
982
978
972
976
977
978
981
979
979
978
975
974
974
973
976
976
979
976
972
970
972
972
971
973
972
973
972
975
977
978
979
976
979
977
975
972
973
976
979
979
976
973
974
973
973
968
972
978
976
977
975
974
976
979
980
975
977
976
972
972
975
973
974
973
972
971
969
970
971
974
976
978
977
973
975
978
981
984
985
984
979
975
977
978
982
984
977
972
970
971
972
975
977
980
984
992
992
985
982
985
991
989
980
974
973
978
984
986
981
976
973
981
989
991
990
984
982
983
981
986
986
986
987
992
995
995
988
979
978
982
987
995
992
986
983
985
989
990
988
987
991
992
990
994
991
986
985
990
993
996
997
994
993
990
995
994
992
990
991
993
996
999
998
994
992
997
1002
1002
999
993
995
1001
1009
1011
1006
1004
1007
1014
1015
1020
1020
1026
1033
1046
1057
1062
1059
1055
1053
1058
1064
1064
1059
1052
1041
1035
1034
1035
1022
1014
1004
1002
1006
1007
1006
998
995
997
1004
1008
1007
999
990
984
988
1016
1062
1129
1211
1290
1353
1392
1415
1421
1404
1360
1285
1183
1067
963
910
918
959
976
976
974
974
978
981
985
987
984
983
986
989
988
982
982
982
984
983
983
980
978
976
982
988
987
984
976
974
974
982
985
986
985
985
987
991
992
988
984
984
990
991
997
996
996
998
997
997
999
1001
1003
1004
1009
1012
1016
1014
1011
1013
1018
1027
1035
1037
1036
1037
1045
1049
1052
1050
1054
1060
1070
1079
1086
1089
1091
1097
1098
1099
1101
1106
1111
1118
1124
1131
1134
1137
1132
1132
1128
1126
1130
1130
1128
1125
1122
1121
1118
1112
1105
1101
1100
1103
1099
1088
1077
1070
1064
1064
1064
1061
1047
1041
1038
1040
1042
1037
1035
1033
1031
1032
1034
1034
1029
1021
1015
1015
1020
1021
1016
1013
1015
1022
1022
1021
1020
1019
1022
1026
1032
1031
1030
1028
1030
1027
1028
1029
1031
1034
1035
1032
1032
1033
1037
1042
1049
1060
1076
1094
1114
1139
1167
1184
1205
1224
1249
1285
1327
1371
1415
1450
1471
1483
1486
1476
1456
1415
1353
1265
1163
1069
1005
965
940
922
913
913
916
921
920
923
928
931
934
931
928
921
913
911
908
905
894
888
894
900
902
896
888
881
889
894
898
900
899
900
902
904
899
894
892
894
897
897
891
888
883
883
882
880
881
878
874
869
865
866
867
865
863
853
849
850
852
848
842
840
839
844
847
851
850
851
854
864
872
874
874
876
886
897
906
910
914
916
925
931
938
934
932
931
934
941
947
952
952
953
955
958
955
957
952
957
964
970
971
972
973
975
974
974
969
967
965
964
962
969
975
974
971
966
973
978
985
988
986
981
979
982
986
988
984
982
987
988
991
990
985
987
990
995
1001
1000
997
992
995
999
1004
1006
1003
1002
997
994
992
995
995
994
997
999
996
992
989
989
995
996
992
981
981
982
989
988
988
985
984
982
981
981
980
982
979
977
978
976
976
979
980
979
979
979
982
979
973
968
978
984
986
975
965
961
965
970
968
962
961
966
976
984
987
981
974
963
957
960
964
970
970
969
969
967
967
963
964
961
963
971
972
970
968
966
967
972
972
971
971
967
969
973
976
975
975
975
975
975
972
966
964
965
969
975
979
976
977
974
975
976
979
980
979
975
970
968
965
969
965
970
973
979
981
981
983
976
971
973
974
978
976
974
980
983
987
985
985
982
982
978
978
977
977
979
981
982
980
974
970
968
973
979
983
982
979
977
982
987
988
988
984
979
979
984
988
988
988
983
977
973
976
976
978
977
978
984
986
986
980
979
984
984
985
984
983
983
987
992
989
986
981
977
976
985
987
986
989
989
991
990
991
986
988
983
981
985
987
986
984
985
989
994
993
984
977
979
982
986
991
993
996
990
991
993
994
993
989
985
984
984
989
991
995
995
994
997
1002
1001
992
988
986
987
992
986
988
990
991
993
998
996
999
995
997
997
1002
1006
1002
1002
1005
1011
1021
1031
1036
1038
1044
1049
1054
1053
1046
1046
1048
1055
1059
1055
1046
1034
1027
1023
1017
1008
1003
997
996
999
1001
1002
998
998
1002
1008
1012
1005
996
989
989
992
1000
1015
1038
1085
1165
1256
1324
1366
1387
1388
1372
1332
1260
1159
1049
954
906
915
947
962
966
963
971
974
979
981
983
982
989
993
994
980
972
965
973
978
989
984
980
977
981
984
985
984
982
977
979
979
985
991
990
991
992
995
993
991
983
978
984
989
993
991
987
985
990
996
1001
1002
995
992
997
1006
1012
1017
1014
1009
1002
1005
1013
1023
1024
1020
1023
1029
1037
1040
1038
1038
1040
1051
1059
1061
1062
1064
1066
1072
1079
1079
1081
1083
1088
1095
1100
1104
1105
1108
1114
1117
1118
1119
1119
1123
1124
1123
1120
1117
1115
1113
1113
1111
1109
1102
1102
1098
1098
1096
1089
1079
1073
1070
1070
1070
1066
1062
1057
1055
1048
1043
1039
1038
1033
1032
1030
1028
1028
1027
1023
1022
1015
1016
1018
1017
1016
1013
1015
1019
1022
1018
1019
1015
1015
1020
1020
1020
1019
1014
1011
1018
1020
1023
1025
1028
1036
1041
1044
1045
1044
1045
1055
1071
1089
1109
1124
1141
1161
1182
1198
1216
1231
1244
1260
1275
1303
1338
1373
1411
1451
1488
1506
1511
1505
1494
1482
1460
1416
1346
1249
1140
1045
982
951
938
940
941
947
954
958
965
958
949
939
933
931
929
930
925
919
914
915
915
916
912
906
903
903
897
893
886
882
882
888
890
887
883
883
886
888
888
891
894
899
901
898
895
890
888
888
890
886
880
874
871
875
874
873
870
866
856
855
853
855
849
846
841
836
838
839
839
836
833
833
834
830
829
828
825
828
834
844
847
850
852
857
865
872
875
879
885
895
903
913
916
916
918
923
934
942
948
941
933
931
938
944
951
948
950
954
959
960
965
961
964
969
970
970
972
973
973
980
981
983
981
979
980
986
992
993
991
986
989
992
995
998
999
995
993
995
998
1003
1009
1006
1006
1006
1008
1009
1008
1004
1002
1006
1005
1006
1007
1009
1014
1017
1020
1029
1028
1026
1018
1015
1015
1019
1019
1018
1017
1019
1022
1023
1021
1016
1017
1016
1013
1010
1012
1011
1011
1010
1015
1018
1015
1009
1005
1006
1008
1010
1007
1001
1000
1001
1004
1010
1012
1009
1003
997
996
999
998
994
997
1000
1002
1005
1004
1001
1000
997
998
1002
1004
1001
993
991
993
1000
1002
998
996
1002
1001
997
993
991
992
995
999
1004
1006
1003
995
991
991
994
993
994
992
1000
1005
1005
998
992
987
993
997
1001
1001
999
995
996
999
1002
999
995
993
993
997
999
999
998
997
995
994
996
996
993
992
995
995
999
996
994
991
991
997
1001
1003
1003
1002
999
1004
1009
1010
1001
991
987
990
996
997
993
991
995
998
1003
1001
998
996
998
998
1003
1007
1005
1001
1002
1004
1005
1003
1000
994
996
1001
1007
1008
1005
999
997
998
1002
1004
1004
1002
999
1006
1010
1011
1006
1004
1000
1000
1003
1002
999
998
999
1002
1004
1004
1003
1001
1002
1005
1013
1010
1011
1008
1003
997
1003
1005
1010
1008
1011
1013
1014
1011
1008
1006
1006
1009
1012
1013
1006
1001
1003
1010
1011
1006
1007
1006
1008
1005
1002
994
994
995
1002
1010
1013
1018
1015
1005
999
1004
1010
1013
1008
998
993
998
999
1004
1001
999
997
998
999
996
995
1000
1006
1006
1007
1005
1008
1004
1006
1001
999
997
998
999
1003
1005
1013
1011
1002
995
991
998
1003
1008
1008
1005
1004
1007
1013
1012
1004
992
993
1001
1005
1009
1007
1005
1008
1014
1020
1024
1024
1025
1028
1034
1046
1060
1069
1069
1068
1064
1063
1058
1057
1053
1049
1044
1039
1033
1029
1023
1019
1018
1015
1008
1002
1001
1006
1008
1007
1001
999
1000
1005
1007
1009
1002
991
985
987
994
1019
1057
1126
1207
1287
1344
1386
1411
1426
1417
1377
1312
1216
1099
992
926
922
948
973
975
973
973
976
982
992
993
987
978
976
978
982
989
987
987
986
984
983
982
983
983
985
983
982
982
981
981
982
987
991
991
988
987
990
994
999
996
993
987
983
984
990
993
994
997
1006
1009
1007
1003
1002
1006
1013
1017
1018
1012
1008
1013
1023
1031
1039
1038
1037
1033
1037
1044
1052
1057
1058
1060
1064
1069
1080
1083
1083
1082
1092
1097
1108
1114
1118
1117
1122
1129
1135
1139
1136
1135
1136
1140
1147
1145
1143
1131
1130
1131
1132
1128
1124
1121
1118
1117
1117
1112
1100
1089
1083
1083
1084
1079
1070
1060
1058
1058
1049
1046
1048
1044
1037
1035
1032
1028
1023
1020
1022
1028
1028
1020
1014
1014
1015
1013
1015
1015
1022
1022
1015
1014
1018
1020
1016
1012
1015
1020
1027
1031
1033
1034
1031
1029
1036
1048
1062
1077
1093
1112
1136
1160
1181
1200
1217
1232
1249
1264
1277
1302
1334
1371
1411
1455
1488
1505
1513
1511
1505
1487
1457
1407
1335
1250
1157
1047
962
930
940
953
953
946
940
937
935
937
932
929
922
912
911
915
916
916
909
900
894
888
886
885
888
885
884
886
885
877
877
879
886
896
899
895
886
886
886
896
897
889
880
873
872
873
875
877
872
870
869
867
864
856
853
849
845
846
841
836
833
830
826
815
821
825
824
821
821
827
831
833
832
834
841
850
858
861
864
863
865
879
890
896
897
900
903
911
919
919
918
925
932
944
948
947
943
941
947
957
962
965
962
962
965
975
980
982
983
981
974
971
973
978
985
987
992
993
999
999
1000
995
991
991
996
997
998
998
1000
1003
1006
1004
1007
1009
1013
1018
1018
1009
1004
998
1004
1012
1019
1022
1017
1011
1008
1012
1014
1014
1010
1010
1009
1009
1012
1012
1014
1017
1017
1013
1003
994
993
999
1004
1007
1005
1005
1002
999
1005
1004
998
993
993
993
995
995
995
990
991
990
993
995
997
997
996
995
999
999
1000
998
995
996
992
982
981
986
983
988
988
987
986
988
990
988
987
993
996
992
984
976
976
985
993
997
989
984
980
983
987
989
987
985
992
996
996
993
993
991
987
984
982
980
986
985
989
988
988
987
986
990
989
986
985
984
987
986
989
987
991
991
994
990
985
982
986
987
987
990
990
991
988
985
985
987
994
989
993
986
979
973
975
987
993
987
983
980
982
988
990
990
992
987
990
989
994
996
994
989
990
992
994
991
990
991
996
999
996
992
983
977
980
988
992
989
985
985
986
992
994
994
993
988
991
994
991
993
992
994
996
998
997
998
993
986
980
982
988
990
994
994
991
991
992
990
986
984
992
994
1000
998
991
990
990
992
994
995
994
987
987
990
996
1000
997
988
