1079
1104
1121
1139
1158
1173
1193
1212
1230
1260
1306
1354
1406
1450
1475
1479
1478
1475
1463
1433
1390
1324
1224
1115
1013
932
885
875
881
884
884
883
893
899
905
907
904
895
886
882
879
879
878
869
864
859
858
859
860
859
858
854
855
859
864
866
867
870
873
874
872
870
869
868
873
872
873
868
861
859
857
859
860
857
856
853
854
854
850
842
832
828
829
833
832
829
825
822
826
828
824
821
822
820
828
836
839
839
839
838
849
857
864
868
870
875
881
887
891
895
899
902
909
909
915
915
916
921
922
926
928
931
928
930
934
935
937
937
937
938
941
942
941
941
941
943
947
951
951
949
947
946
946
950
955
953
951
952
951
955
957
959
958
957
961
963
961
961
959
961
964
966
965
965
966
966
967
971
973
975
972
973
973
973
973
970
972
971
972
976
977
976
971
969
972
974
969
968
968
964
969
971
969
971
969
967
969
969
966
964
959
958
964
965
964
965
961
956
957
959
960
959
957
955
958
958
956
957
955
953
951
953
954
952
950
954
955
958
959
958
957
956
960
957
958
953
954
954
956
960
958
956
955
950
954
954
957
956
955
953
955
957
958
958
956
955
958
959
957
955
958
958
960
959
962
961
958
954
957
959
959
959
957
959
960
962
963
960
959
959
963
961
963
963
958
954
958
963
966
965
962
956
960
963
963
965
960
955
959
964
967
966
960
961
962
966
968
966
965
962
965
966
970
967
962
961
965
967
970
969
967
968
968
970
969
964
964
965
967
970
973
973
970
971
973
975
974
971
966
963
968
974
975
977
975
975
973
976
976
974
973
971
971
969
970
972
976
972
971
973
977
979
976
972
974
975
979
979
972
973
977
979
981
979
976
974
981
980
981
978
975
976
978
977
978
973
970
966
973
977
984
980
978
978
981
988
988
987
980
982
979
984
982
983
980
981
985
992
999
1000
1001
996
997
1000
1008
1018
1027
1037
1042
1047
1045
1035
1031
1028
1031
1031
1031
1021
1009
1003
998
998
997
991
985
984
985
988
991
989
985
981
980
984
986
979
969
963
983
1017
1080
1167
1262
1338
1390
1417
1423
1402
1351
1261
1144
1028
929
892
915
947
963
962
956
958
959
960
964
967
966
965
960
959
960
967
966
964
959
957
956
958
961
963
961
960
961
963
966
963
959
959
964
970
973
970
967
968
971
974
974
972
971
966
972
974
977
979
983
983
984
986
988
990
988
989
993
998
1000
1005
1006
1011
1017
1024
1021
1024
1026
1028
1032
1040
1048
1049
1051
1053
1059
1067
1079
1087
1088
1092
1096
1103
1108
1109
1110
1116
1125
1128
1131
1130
1127
1124
1126
1126
1129
1122
1117
1113
1108
1107
1106
1101
1092
1085
1082
1079
1075
1070
1060
1053
1048
1046
1045
1037
1031
1027
1023
1023
1021
1009
1005
1005
1004
1002
999
996
991
991
992
994
995
990
988
987
990
996
993
991
991
988
994
1000
1003
1002
1001
1000
1006
1007
1014
1019
1023
1028
1038
1050
1068
1089
1111
1136
1158
1183
1203
1224
1240
1257
1285
1319
1367
1412
1454
1482
1496
1498
1491
1476
1450
1411
1345
1248
1132
1026
950
913
906
909
905
901
900
906
909
915
912
903
894
889
887
887
882
885
881
879
877
873
867
862
858
853
855
855
858
851
848
852
858
866
870
870
863
861
861
868
870
869
862
855
853
853
854
852
849
849
850
847
841
830
822
818
820
823
823
821
814
809
809
814
815
812
811
810
816
821
825
823
823
829
838
844
857
863
862
861
866
870
885
890
892
894
899
905
910
913
914
916
920
927
928
929
928
926
928
935
937
940
937
936
941
948
949
942
935
934
939
943
947
946
948
948
947
954
955
953
954
956
959
958
955
956
955
960
966
969
966
963
960
962
965
970
968
966
963
965
971
969
973
970
965
971
973
978
979
978
978
977
980
980
980
978
974
971
968
972
975
974
971
970
970
974
975
973
970
967
967
966
967
968
962
961
960
963
965
960
956
951
956
958
957
956
955
955
955
957
957
955
949
946
949
955
958
956
950
952
954
955
948
946
946
950
952
954
954
955
951
946
948
950
953
951
948
947
948
949
952
950
944
945
952
953
954
951
947
946
947
952
952
951
946
946
949
951
954
949
947
947
946
949
947
946
947
948
949
951
953
949
947
950
951
956
954
949
946
943
945
946
952
954
953
951
950
950
953
953
952
955
954
956
954
954
949
947
952
955
955
954
952
952
955
956
957
953
951
950
951
958
960
955
949
950
958
961
965
964
957
954
952
956
957
956
954
955
954
962
964
961
956
956
958
960
961
961
957
956
953
955
958
957
957
956
961
965
966
966
967
962
957
958
960
959
954
955
959
962
960
962
957
961
960
967
971
970
965
961
959
960
961
962
961
964
967
970
968
965
958
956
957
959
965
967
964
962
964
967
969
966
959
958
964
966
970
969
971
968
965
969
967
965
962
961
963
967
971
972
965
963
966
969
970
966
965
967
965
969
973
973
971
976
981
984
988
988
982
989
996
1008
1021
1034
1039
1040
1036
1033
1029
1018
1015
1018
1017
1011
1000
988
980
980
981
982
979
974
966
964
964
969
972
969
964
966
968
967
972
971
968
960
957
956
962
982
1021
1093
1192
1276
1345
1388
1414
1420
1400
1362
1284
1170
1046
934
880
895
931
947
944
939
941
945
948
947
945
944
948
951
953
952
946
944
943
943
947
944
944
943
941
944
944
942
937
937
942
948
952
947
948
946
950
951
953
954
951
950
954
957
962
961
958
956
960
962
966
967
967
966
967
969
974
972
974
978
978
981
983
981
982
987
991
999
1004
1004
1004
1006
1009
1018
1024
1025
1029
1030
1038
1042
1051
1050
1055
1059
1067
1080
1084
1083
1082
1084
1090
1103
1110
1112
1114
1116
1120
1126
1127
1124
1122
1125
1124
1127
1129
1127
1119
1120
1116
1114
1110
1103
1097
1092
1090
1086
1080
1071
1063
1056
1054
1050
1045
1041
1033
1031
1027
1027
1023
1016
1009
1004
1003
1005
1006
1004
1000
995
993
987
988
986
983
984
986
987
989
988
984
982
981
983
981
980
980
978
980
984
988
987
989
990
998
1001
1004
1004
1001
1004
1008
1013
1022
1033
1042
1059
1082
1111
1135
1155
1166
1178
1194
1218
1236
1253
1272
1304
1347
1397
1443
1479
1495
1499
1500
1494
1488
1474
1446
1403
1336
1249
1141
1032
946
893
880
890
896
894
891
888
894
898
898
888
883
878
878
877
874
868
866
863
863
859
856
855
853
849
843
842
846
842
843
840
841
847
852
855
854
853
857
856
857
855
850
848
848
851
851
849
847
842
842
841
844
841
836
830
826
827
829
826
819
816
814
817
817
812
810
804
804
804
805
803
801
804
804
808
811
813
817
822
827
832
838
842
846
846
850
856
864
868
874
879
882
888
894
892
895
898
903
907
908
906
905
909
915
919
922
921
919
921
926
929
931
931
931
934
937
939
939
938
937
940
942
947
946
949
949
947
949
954
956
955
949
948
948
953
953
954
947
948
953
958
959
957
957
954
957
956
960
962
963
962
963
969
972
971
971
966
969
974
972
971
969
971
975
980
981
978
967
959
959
964
970
968
966
966
969
971
972
965
962
960
962
965
965
965
964
962
963
965
967
959
958
957
956
957
958
955
954
954
953
953
957
952
951
947
949
951
955
954
952
950
950
948
951
953
952
953
956
958
958
954
948
943
945
946
949
947
948
947
949
948
952
950
945
943
948
950
953
950
946
945
949
953
955
953
953
951
950
951
954
955
953
952
950
949
948
948
945
944
948
951
956
956
950
948
947
949
953
953
951
951
953
957
956
953
948
947
951
951
954
955
949
953
953
955
958
955
955
954
953
956
958
957
953
949
950
954
954
953
950
949
952
955
956
956
954
951
958
963
961
963
957
954
954
957
958
958
954
952
950
955
957
956
952
956
958
960
960
961
956
953
957
961
960
959
955
955
956
956
960
962
960
959
963
963
965
961
956
953
957
961
958
959
959
960
963
964
965
961
956
958
962
963
969
964
964
958
959
962
961
961
961
961
963
966
964
961
957
955
956
963
964
966
967
963
966
967
966
964
961
960
962
970
973
969
966
962
964
968
973
971
971
970
971
975
981
982
979
983
986
992
996
1001
1007
1014
1020
1022
1030
1030
1026
1025
1030
1033
1031
1028
1017
1006
1002
999
996
989
982
975
975
974
972
969
966
963
963
966
967
968
965
963
965
964
958
953
954
972
1015
1087
1186
1279
1349
1388
1415
1427
1415
1373
1305
1198
1081
968
892
885
917
942
947
945
943
943
945
944
947
947
948
947
946
944
943
946
945
946
944
945
943
946
946
945
946
943
945
948
946
949
947
943
943
946
953
950
947
946
946
951
954
956
957
960
962
962
965
962
961
962
964
969
974
977
975
973
976
982
985
990
988
992
994
1004
1009
1012
1012
1014
1020
1029
1035
1033
1038
1043
1052
1063
1068
1071
1071
1078
1084
1091
1098
1102
1104
1106
1115
1119
1125
1129
1128
1129
1130
1131
1125
1122
1120
1117
1117
1116
1114
1109
1099
1093
1089
1086
1083
1075
1069
1060
1054
1050
1043
1036
1032
1028
1025
1023
1020
1009
1009
1005
1004
1003
1000
1001
996
994
995
996
992
987
985
986
985
991
995
990
988
987
986
990
994
992
995
998
999
1002
1006
1002
1000
1003
1013
1015
1016
1023
1029
1045
1065
1090
1117
1146
1166
1187
1205
1226
1256
1290
1332
1382
1436
1482
1506
1507
1501
1489
1472
1441
1395
1322
1220
1111
1020
956
917
894
890
887
885
890
898
906
910
914
913
907
903
896
891
889
886
880
879
876
872
868
867
870
870
869
864
864
872
876
877
876
878
881
882
882
883
882
877
876
876
880
881
879
877
871
875
872
871
866
864
864
861
860
859
856
851
845
845
847
847
847
847
844
847
848
849
857
855
859
865
872
879
885
889
890
899
909
916
919
922
924
929
931
937
944
942
943
949
949
951
951
949
949
953
959
959
957
956
958
960
959
963
963
958
957
962
965
964
960
958
959
963
964
965
961
962
963
962
968
966
964
965
964
965
973
978
978
974
975
974
981
983
981
980
980
983
987
986
986
984
987
990
993
996
994
993
992
993
993
996
989
988
987
988
991
995
992
990
989
988
991
988
984
984
981
981
984
984
981
978
976
981
981
980
980
972
971
973
971
970
968
964
966
969
972
973
970
965
961
965
968
968
967
961
959
961
961
962
962
959
961
960
958
962
963
962
961
962
965
965
961
959
957
960
959
961
955
953
955
960
964
962
961
954
951
956
960
963
966
957
951
952
957
958
955
952
953
957
958
956
954
952
952
952
957
964
960
957
954
952
954
957
959
954
952
953
957
962
964
960
956
954
954
957
956
954
951
956
958
959
960
959
956
958
962
959
958
954
951
954
957
957
958
953
953
956
957
962
960
954
953
961
964
963
959
956
958
959
962
963
961
954
957
959
962
964
961
957
956
955
959
958
960
953
953
956
960
962
962
961
961
962
961
964
962
963
964
963
963
963
963
960
957
956
965
966
963
961
959
960
961
965
963
962
961
961
964
963
964
961
962
964
970
970
969
964
959
963
968
969
970
970
968
965
968
970
968
962
963
963
966
971
965
964
962
965
968
972
973
973
971
972
973
977
977
977
985
987
990
988
986
990
1001
1016
1033
1036
1034
1031
1026
1022
1017
1013
1010
1006
999
994
989
987
983
976
972
969
969
974
971
968
969
969
975
975
974
966
962
959
961
972
998
1045
1124
1218
1301
1360
1396
1408
1396
1363
1298
1198
1076
963
895
896
925
947
948
943
943
946
946
950
951
951
949
948
949
949
947
946
941
944
948
949
949
946
946
948
951
951
950
947
944
946
950
950
952
951
953
955
957
958
957
956
958
961
967
969
971
965
963
963
963
970
973
976
974
979
980
988
987
992
987
987
991
998
1001
1003
1006
1010
1018
1024
1027
1034
1036
1045
1055
1062
1067
1071
1076
1080
1084
1088
1090
1095
1102
1106
1114
1120
1118
1119
1120
1124
1125
1126
1124
1118
1117
1115
1113
1114
1108
1100
1094
1087
1083
1079
1071
1066
1060
1057
1051
1047
1040
1034
1027
1021
1017
1013
1013
1006
1000
997
992
993
992
988
984
984
984
983
979
975
973
977
982
986
986
985
981
979
983
988
988
990
991
995
1000
1007
1006
1010
1017
1028
1048
1078
1108
1134
1153
1176
1193
1208
1226
1248
1273
1308
1357
1412
1459
1489
1496
1494
1491
1480
1457
1414
1335
1234
1112
1002
925
890
886
893
900
902
906
911
913
909
906
899
890
887
884
883
885
883
876
870
866
862
859
853
852
849
847
849
852
853
847
851
854
858
861
863
862
862
863
863
864
863
859
855
848
851
852
851
848
839
836
829
829
833
830
827
821
822
822
822
818
816
814
813
814
813
817
815
814
816
823
829
832
834
837
844
852
856
860
861
864
874
880
886
891
896
899
903
908
910
912
914
917
920
924
928
930
933
933
936
937
938
935
939
937
939
943
945
949
950
947
951
956
958
958
956
955
954
959
963
962
959
959
957
960
964
962
962
962
964
967
963
963
960
963
966
968
972
974
974
975
980
981
982
978
975
974
978
982
986
986
986
984
982
983
984
978
976
974
972
975
979
975
974
971
974
983
983
980
975
970
968
969
973
972
970
966
969
972
972
969
967
963
965
969
970
969
963
960
958
960
967
966
962
959
962
963
963
962
959
957
958
961
963
959
957
956
961
961
962
961
958
956
956
961
963
963
958
958
956
957
959
956
955
952
958
959
962
962
959
955
954
955
955
954
953
954
957
959
962
958
955
952
956
959
963
961
959
957
957
960
962
960
958
956
958
959
960
961
962
963
959
960
958
955
952
953
952
953
956
956
954
955
960
963
962
962
958
953
954
958
961
960
962
960
959
961
962
960
959
957
958
957
957
958
954
956
956
961
965
965
960
957
962
965
966
965
962
955
961
963
964
965
964
962
959
958
961
963
963
961
959
963
967
963
963
965
964
965
966
969
967
964
958
963
965
965
962
959
959
962
966
965
962
961
959
962
963
967
965
964
966
964
964
967
966
967
967
965
967
962
960
956
959
967
972
971
966
961
961
963
965
966
966
964
966
969
970
967
966
964
967
972
973
967
967
965
966
971
975
980
981
981
983
987
991
994
995
998
1010
1022
1026
1025
1023
1023
1026
1025
1034
1035
1032
1024
1013
1009
1006
998
990
979
975
974
975
969
967
966
967
971
970
972
971
967
966
961
956
950
953
972
1014
1085
1182
1274
1345
1394
1425
1432
1417
1372
1295
1183
1058
943
884
896
930
945
946
947
949
947
948
948
946
949
946
944
939
937
938
942
943
946
944
942
943
945
947
943
939
940
941
945
947
947
943
942
945
951
952
954
954
953
952
951
952
949
947
951
956
958
961
961
961
961
961
968
972
975
974
974
979
983
987
985
986
988
992
1000
1005
1007
1006
1006
1009
1019
1021
1025
1024
1028
1035
1044
1053
1057
1059
1063
1070
1078
1086
1088
1091
1096
1100
1107
1114
1120
1122
1119
1124
1128
1130
1132
1127
1125
1126
1129
1133
1131
1127
1117
1114
1113
1112
1106
1102
1097
1093
1087
1083
1073
1066
1059
1056
1050
1049
1044
1040
1037
1035
1031
1025
1017
1009
1005
1008
1008
1008
1006
1000
995
993
992
994
989
984
982
981
988
991
990
988
986
984
984
986
987
985
986
987
990
992
992
993
989
993
998
1002
1004
999
1002
1003
1007
1012
1019
1025
1034
1049
1065
1083
1101
1120
1140
1157
1177
1195
1220
1248
1289
1339
1396
1445
1481
1492
1492
1489
1486
1472
1441
1396
1315
1212
1108
1025
968
935
906
884
870
865
866
871
879
888
902
909
906
899
890
888
888
887
887
879
878
875
875
875
872
867
865
866
869
871
868
865
864
867
871
875
877
875
870
876
881
884
880
882
877
873
874
877
874
869
863
864
868
868
870
864
861
859
858
861
858
857
852
854
858
858
852
848
851
857
864
871
872
877
881
880
886
891
898
904
909
915
925
933
938
941
945
951
955
962
963
961
964
966
969
971
974
975
970
966
968
969
970
968
968
967
967
967
962
958
953
956
962
964
962
958
955
955
957
961
957
956
953
953
958
964
964
959
954
956
960
964
965
963
963
964
966
969
971
964
962
964
970
972
972
968
968
970
976
980
977
974
977
979
983
986
984
981
978
981
986
984
984
979
975
974
980
982
983
979
975
976
973
974
970
968
967
972
972
973
968
964
963
960
963
965
964
962
962
962
963
965
963
959
959
960
960
956
955
952
951
954
956
955
953
952
950
952
954
952
952
949
945
950
954
957
957
951
944
942
946
946
942
945
943
947
949
949
950
947
944
946
945
946
939
944
942
945
947
947
947
941
942
948
952
950
949
945
943
940
939
941
941
938
942
947
947
950
947
941
940
942
947
948
949
948
943
945
950
950
949
946
945
946
947
949
949
947
947
950
954
954
951
950
948
950
951
953
951
950
949
945
951
954
952
949
947
947
951
954
952
952
950
949
950
952
952
949
948
951
954
956
956
955
955
954
957
958
954
948
950
952
951
952
954
954
956
956
961
960
955
955
952
954
958
960
958
956
956
957
960
961
960
959
957
960
958
964
962
956
956
958
960
960
956
950
950
953
957
962
960
958
957
955
958
961
962
959
957
957
958
