837
838
835
837
835
837
838
840
838
836
838
835
831
832
834
835
838
840
841
843
845
843
841
837
841
842
844
847
845
844
846
847
848
846
849
850
849
853
860
876
899
924
960
993
1026
1061
1103
1141
1184
1230
1275
1318
1356
1382
1399
1410
1414
1411
1402
1390
1376
1359
1345
1335
1339
1346
1349
1350
1344
1327
1302
1269
1238
1201
1154
1094
1025
953
891
843
812
804
807
811
810
805
795
788
781
774
769
770
766
763
758
750
747
744
743
740
743
738
740
741
737
735
731
729
726
725
721
719
719
722
723
726
722
723
719
718
718
714
714
715
718
719
725
727
726
724
716
709
702
696
687
679
673
669
660
651
639
621
608
595
583
575
566
560
559
558
554
551
547
545
541
537
538
537
536
539
544
549
555
560
566
571
578
588
596
604
611
624
635
646
661
673
682
692
702
710
722
726
736
744
753
763
770
775
779
779
783
781
783
781
784
785
788
790
791
793
792
791
790
786
788
786
788
785
791
793
795
799
798
800
795
795
798
796
796
794
799
800
802
802
803
804
802
801
802
801
801
798
803
804
807
811
810
808
806
804
806
804
805
804
806
807
810
813
814
814
806
806
808
807
806
809
809
811
814
813
811
808
808
808
809
811
813
811
811
810
816
819
818
817
816
815
812
813
810
812
812
817
816
819
818
819
817
818
818
817
817
818
818
819
819
820
823
822
823
821
818
815
816
818
818
823
823
827
823
825
822
818
818
816
817
816
814
819
819
825
827
826
825
824
825
819
820
821
821
825
827
827
825
823
824
820
822
822
823
823
826
829
825
829
828
828
826
826
826
825
824
822
825
825
826
830
831
830
829
828
825
826
826
824
825
827
832
833
833
836
831
830
829
826
827
826
828
830
828
830
830
827
827
823
822
824
823
825
827
831
834
833
834
833
831
831
830
828
827
826
828
829
831
831
834
834
832
832
828
829
828
827
829
829
831
835
836
833
833
831
828
826
829
829
829
833
835
834
836
835
833
828
828
827
826
827
831
829
830
830
833
831
830
829
831
830
829
830
834
839
843
849
853
856
859
854
855
858
861
866
873
881
893
900
901
902
901
898
893
892
896
894
894
889
881
869
862
853
842
836
832
828
826
828
825
829
828
832
832
830
829
824
827
824
821
821
822
827
829
832
830
828
818
810
808
809
819
841
877
924
986
1055
1128
1190
1233
1254
1257
1239
1204
1136
1049
952
866
815
804
819
845
868
878
875
867
853
842
831
829
830
832
830
828
828
825
824
825
819
819
825
823
825
823
824
822
821
823
816
817
818
818
822
824
824
826
824
824
822
822
820
820
820
824
823
825
825
826
825
826
826
825
824
824
827
827
830
832
834
833
834
833
836
832
832
831
834
836
839
841
846
847
850
848
846
848
844
849
851
858
863
867
870
873
874
874
876
879
879
884
883
888
889
891
900
903
905
906
907
907
907
909
912
913
919
922
925
929
931
932
933
932
931
930
927
928
928
924
923
920
912
908
905
899
892
888
883
881
881
874
876
874
869
866
863
860
861
859
857
858
860
861
866
860
862
860
862
862
859
859
858
860
864
863
867
869
869
869
868
866
866
861
865
865
871
873
875
873
871
867
867
866
863
864
865
869
879
895
915
941
966
994
1026
1059
1093
1132
1176
1222
1269
1314
1349
1378
1399
1420
1429
1430
1430
1422
1410
1394
1378
1363
1357
1357
1361
1360
1355
1342
1319
1286
1251
1208
1156
1097
1022
948
881
837
819
813
820
821
822
818
810
804
792
786
781
776
772
768
767
761
759
759
758
758
753
755
749
752
748
742
739
735
734
732
731
729
727
727
726
723
720
720
717
715
713
713
711
715
716
715
716
718
717
715
709
701
693
686
683
679
674
664
650
638
620
608
597
580
574
565
566
567
564
566
561
561
563
564
562
565
572
577
584
593
598
605
617
627
634
644
651
662
677
689
697
707
719
730
741
747
756
761
767
771
775
782
785
790
793
795
794
797
796
795
793
791
794
794
795
794
795
795
797
799
800
799
798
792
797
799
799
801
805
806
806
804
804
804
800
800
803
803
805
805
807
806
807
807
805
804
802
804
801
802
808
811
813
815
813
813
810
811
808
802
806
805
807
810
813
816
816
815
816
812
807
811
812
813
815
816
820
818
819
816
815
809
806
806
807
807
815
815
818
818
819
815
814
812
812
811
811
817
820
820
822
823
819
819
814
815
815
814
813
813
817
820
820
821
821
819
819
819
816
816
816
817
819
821
821
824
824
823
820
819
818
815
817
817
821
821
825
823
822
822
821
821
818
820
820
819
823
825
826
826
824
828
826
821
822
820
821
823
824
828
826
826
827
827
822
818
816
819
821
824
823
825
825
828
827
828
822
821
821
824
823
823
825
828
827
830
827
826
826
821
824
823
825
824
822
828
829
829
832
830
831
830
827
825
823
824
827
829
829
834
830
830
828
826
826
825
825
825
829
828
831
832
830
830
830
828
824
823
825
826
827
831
831
833
833
831
829
828
829
827
829
829
829
833
831
834
833
832
831
827
825
827
828
829
832
831
833
834
832
833
833
832
832
830
829
830
832
833
835
835
836
834
838
834
837
838
840
845
851
855
858
864
866
868
867
868
873
879
884
893
899
904
906
905
903
902
897
900
898
891
885
877
868
860
847
843
834
830
831
830
830
831
831
828
828
827
830
830
830
831
832
828
827
827
827
827
827
827
824
821
815
818
829
856
894
948
1015
1094
1165
1220
1254
1259
1239
1199
1130
1033
933
857
813
809
829
850
873
885
880
866
850
840
828
825
825
827
830
831
829
833
831
829
824
824
820
820
819
822
824
823
824
827
828
824
821
822
821
819
816
819
818
820
825
828
822
824
821
822
822
821
820
820
824
826
827
830
829
829
830
828
826
822
828
829
829
834
837
841
841
841
842
838
839
838
841
844
847
851
855
858
865
859
866
865
866
870
874
873
881
883
885
892
894
894
896
900
901
904
907
911
912
915
920
925
927
926
929
930
930
932
933
932
935
932
930
932
930
923
920
914
910
906
904
901
898
890
889
889
882
879
875
870
865
864
860
862
860
858
860
860
859
855
854
854
850
853
851
852
858
856
859
857
859
858
859
856
853
855
856
856
861
863
864
865
865
865
862
863
861
859
862
861
864
865
868
867
866
865
864
860
860
865
882
903
931
961
994
1024
1061
1099
1145
1188
1239
1281
1322
1358
1390
1413
1425
1431
1430
1418
1411
1394
1375
1361
1356
1356
1361
1363
1361
1353
1329
1301
1263
1233
1189
1146
1089
1022
951
893
847
826
821
821
823
822
818
808
796
792
786
782
778
777
773
773
768
762
760
757
754
750
749
749
748
748
745
746
742
738
734
734
733
732
734
732
736
737
736
736
734
731
725
725
728
733
738
738
739
733
726
721
712
707
701
696
688
675
666
651
640
627
609
599
590
583
578
572
568
565
564
564
559
559
554
555
554
554
552
550
553
556
566
573
577
585
590
593
601
604
613
623
633
642
655
667
681
692
699
708
719
729
735
742
746
756
761
770
773
778
780
780
781
779
783
781
782
780
785
787
788
790
791
790
789
786
781
783
784
783
786
787
788
793
792
792
792
789
790
787
787
791
791
797
794
799
799
799
800
794
796
795
795
799
796
800
801
807
802
801
804
799
802
801
802
804
806
805
806
811
805
810
810
807
807
805
805
806
810
812
814
814
812
815
814
811
815
813
811
812
814
814
815
816
814
810
812
812
814
814
814
817
820
816
819
821
822
822
819
817
816
818
818
821
824
825
824
829
825
824
822
827
825
825
823
823
825
828
829
834
834
834
833
826
825
830
827
829
830
833
835
836
836
837
834
833
832
829
829
831
834
836
839
840
837
840
839
836
836
833
831
832
834
836
839
842
843
838
839
836
830
831
834
836
839
842
843
847
845
845
843
841
838
840
839
842
843
841
846
848
848
846
846
845
844
844
845
844
845
847
848
853
851
851
853
848
846
845
842
846
844
846
846
850
849
852
851
850
847
847
843
843
847
851
851
852
853
851
851
847
845
847
846
845
849
851
851
855
854
856
856
855
848
851
850
852
853
857
854
857
857
854
853
852
850
847
847
851
855
855
857
860
861
862
859
858
855
856
856
857
858
861
863
867
871
872
874
875
876
876
877
882
884
890
896
905
910
916
926
925
924
922
917
917
918
921
926
918
915
903
893
881
869
864
857
854
854
856
858
863
863
860
860
856
856
852
852
852
853
855
855
857
856
857
857
855
850
844
839
839
850
871
902
944
999
1064
1137
1203
1253
1284
1288
1278
1246
1185
1102
1006
912
856
834
848
869
897
909
904
898
886
875
867
863
863
863
862
860
859
859
859
856
859
859
862
861
856
854
854
853
852
849
847
851
852
853
857
858
858
855
854
853
852
851
851
852
850
856
858
858
858
856
856
853
853
854
853
855
858
859
866
864
866
865
864
862
867
867
868
869
871
873
877
882
880
883
880
883
885
885
889
895
900
904
906
908
910
912
912
915
915
918
921
924
928
935
937
941
943
948
948
949
950
954
957
958
961
966
969
969
967
965
964
958
955
949
946
945
941
941
937
933
928
921
917
914
909
905
900
897
898
897
893
892
893
889
888
886
880
884
883
885
885
887
888
888
885
883
880
880
879
877
880
880
884
887
889
891
892
891
888
889
888
887
887
887
892
893
898
899
896
894
892
890
888
888
887
889
890
891
892
893
892
891
888
886
884
885
882
886
883
885
890
891
889
887
883
878
877
878
880
879
883
892
898
919
937
966
990
1018
1044
1076
1107
1143
1181
1220
1260
1294
1322
1349
1368
1386
1396
1402
1409
1411
1411
1411
1404
1398
1391
1390
1386
1388
1388
1387
1378
1360
1340
1309
1270
1228
1170
1100
1019
942
884
852
844
850
860
866
869
866
857
847
841
838
834
836
840
846
853
857
859
855
847
844
837
834
831
826
820
811
803
792
779
769
759
749
742
737
733
728
724
724
720
717
713
710
705
698
692
686
680
673
670
669
662
660
656
649
639
638
633
626
619
612
604
605
601
596
594
593
588
581
576
575
573
571
569
571
572
574
579
579
583
583
589
593
597
603
610
619
633
643
658
669
680
692
702
712
722
731
739
754
765
774
782
791
795
800
806
801
805
808
807
811
813
818
818
820
820
820
817
817
816
814
816
815
817
819
822
822
823
822
819
818
818
818
818
822
822
825
827
830
830
830
829
827
823
827
828
826
829
833
835
835
837
836
836
837
835
833
833
836
837
839
843
843
844
843
842
843
842
842
843
841
847
848
848
848
848
846
846
845
846
845
845
847
847
848
847
849
849
851
848
848
844
846
848
850
849
850
851
855
850
852
850
847
846
845
847
851
853
856
858
860
859
856
856
855
850
853
854
856
857
861
862
863
859
859
861
855
855
854
857
857
859
862
864
863
864
860
860
859
857
854
855
854
855
857
859
859
860
861
860
859
858
859
857
856
858
863
864
867
864
862
861
862
859
861
859
861
861
863
866
866
864
862
861
858
862
857
859
863
867
868
868
869
871
867
867
865
864
861
866
865
865
866
868
871
872
872
869
871
866
864
867
869
870
869
871
872
873
872
869
867
865
865
867
866
870
872
875
876
875
875
873
866
871
867
870
868
868
869
871
874
875
874
873
875
874
872
870
872
874
871
871
875
872
875
872
872
870
868
869
875
873
875
877
877
875
876
876
877
875
873
871
873
880
886
888
892
897
898
899
899
898
900
904
909
916
926
932
938
936
931
923
915
911
907
901
900
897
892
892
886
878
871
867
865
865
866
868
867
869
873
872
873
870
873
869
869
869
866
869
869
874
876
879
877
872
864
857
857
862
880
909
956
1014
1087
1161
1226
1273
1304
1309
1295
1254
1182
1078
972
887
848
846
870
898
920
925
919
906
894
881
872
876
876
875
879
876
876
874
873
871
869
869
867
867
870
870
872
869
870
868
866
865
865
862
863
866
865
866
869
868
869
867
865
865
864
863
863
866
871
875
874
875
874
872
874
873
870
870
870
872
874
878
881
881
881
883
881
879
878
882
886
893
894
897
900
902
902
907
908
908
911
912
913
918
925
924
932
931
935
937
939
942
944
947
949
953
956
960
965
965
967
968
967
967
967
969
972
971
969
969
966
965
961
953
946
942
937
931
927
927
925
923
920
914
911
906
901
899
895
890
888
888
890
891
893
892
890
887
888
883
882
882
883
885
887
890
892
891
890
888
889
888
887
888
889
890
892
895
896
894
896
891
892
891
890
892
902
920
945
970
1000
1031
1065
1101
1139
1180
1228
1275
1321
1363
1396
1426
1451
1461
1471
1474
1476
1465
1457
1438
1420
1404
1393
1390
1390
1395
1392
1386
1370
1346
1318
1286
1254
1213
1163
1102
1023
954
896
860
843
842
845
846
845
840
833
822
817
810
806
800
798
791
792
787
785
785
784
784
781
777
776
772
769
763
763
755
755
756
758
760
763
765
766
762
757
754
756
754
755
757
761
764
765
763
760
755
746
738
732
726
722
716
706
700
692
673
663
647
636
624
615
608
602
602
597
595
594
588
587
585
578
575
574
576
579
583
591
592
598
604
607
613
618
628
639
646
658
671
683
693
705
717
725
735
744
753
760
769
777
785
794
799
803
806
809
811
811
810
811
809
808
816
817
819
820
820
821
819
817
818
815
818
814
817
823
823
824
824
824
821
821
822
821
821
818
820
824
827
828
827
827
827
826
821
824
822
823
826
826
829
830
831
831
829
826
824
828
826
827
828
827
828
833
834
832
831
829
829
829
829
828
828
831
837
839
841
838
835
836
833
832
832
834
837
837
841
842
841
841
837
839
835
836
836
835
837
842
840
840
841
839
837
835
838
836
839
838
839
842
843
844
844
843
841
841
842
839
838
840
839
842
846
847
845
845
844
843
843
842
842
842
843
845
847
850
847
846
845
842
840
842
842
844
845
847
847
847
846
847
847
846
843
844
840
846
845
848
846
850
850
848
848
845
847
845
846
844
846
850
852
853
850
850
846
845
844
846
844
845
848
849
851
855
853
852
851
851
847
845
846
848
848
851
853
856
853
851
854
851
850
846
850
845
847
852
854
855
855
855
850
852
852
851
847
851
851
853
858
859
856
857
855
852
853
850
848
851
854
857
856
858
857
857
855
854
854
852
850
850
851
854
856
856
857
856
854
854
853
851
852
852
853
854
856
858
857
854
853
850
850
851
850
852
851
851
852
857
855
859
858
855
855
853
850
853
853
857
858
861
862
864
866
865
868
869
874
880
883
885
890
899
901
907
914
922
924
922
920
922
922
924
922
928
925
916
908
901
890
877
866
862
859
859
859
861
858
857
855
853
851
853
852
852
853
856
852
854
857
856
856
856
854
852
851
845
842
840
837
851
871
905
952
1015
1088
1160
1224
1266
1285
1273
1243
1186
1095
999
908
850
829
842
868
889
901
904
896
883
872
864
857
856
856
855
854
854
854
850
851
849
853
853
850
849
848
847
845
847
848
853
852
852
854
852
853
851
849
843
848
850
852
850
852
853
853
852
851
851
849
850
852
853
851
856
859
855
859
859
862
857
859
859
858
858
861
866
868
871
872
873
875
875
875
875
874
876
880
884
887
892
894
895
897
900
901
900
905
907
912
915
922
928
930
928
931
934
935
936
937
938
942
950
953
957
961
963
963
965
967
963
966
964
966
967
968
965
965
961
961
956
953
947
943
940
933
934
927
927
921
918
913
909
904
900
897
894
893
898
895
898
895
892
891
889
889
886
886
886
885
886
886
890
894
891
893
892
890
890
888
888
892
894
896
898
899
899
897
899
890
890
892
892
894
896
900
906
917
933
955
979
1008
1034
1066
1102
1147
1190
1234
1283
1324
1360
1388
1412
1432
1439
1446
1454
1454
1450
1445
1429
1411
1396
1387
1387
1389
1387
1380
1368
1344
1315
1285
1249
1206
1147
1074
994
925
875
850
841
848
853
853
850
844
828
818
806
804
799
795
789
792
788
790
789
784
780
779
775
770
767
769
765
765
764
767
767
769
768
766
765
765
765
764
764
764
766
767
771
771
772
774
768
761
755
747
745
741
740
737
732
719
706
693
677
657
645
638
627
622
617
615
611
606
601
598
592
587
584
578
579
580
588
589
592
595
599
604
608
612
619
623
635
646
658
670
683
693
707
719
727
738
744
755
766
775
784
791
795
800
804
804
807
807
810
809
811
811
814
817
815
817
814
813
811
812
808
808
807
814
817
818
819
821
819
821
819
816
816
815
816
816
819
822
820
823
824
823
822
820
820
821
821
818
823
820
825
827
827
826
826
824
825
823
824
825
827
828
829
829
828
828
826
824
825
824
824
825
829
831
833
829
831
