914
913
917
918
919
920
919
918
915
915
911
910
911
913
915
917
916
917
918
917
918
917
916
915
915
916
914
916
918
919
919
920
919
919
916
918
920
921
924
925
926
928
927
928
929
929
927
927
928
930
932
936
942
943
943
946
946
946
945
944
943
942
940
941
941
941
940
937
934
930
925
923
919
921
919
918
917
914
912
912
908
910
907
906
907
907
911
912
912
915
916
916
919
915
916
917
923
926
937
950
966
983
1006
1033
1063
1095
1133
1164
1195
1221
1246
1271
1300
1323
1331
1306
1253
1177
1090
1001
929
883
858
854
863
874
884
887
888
890
888
888
888
887
887
890
890
892
889
888
888
887
882
884
883
885
886
887
886
886
886
885
883
883
881
880
880
878
880
880
878
880
878
879
878
875
874
874
873
873
873
874
875
874
871
871
868
868
866
864
863
863
863
863
864
863
862
862
859
857
855
852
850
851
851
851
854
855
854
854
852
851
850
850
848
850
854
857
859
862
864
865
864
867
866
867
870
873
879
882
887
894
895
898
898
899
898
899
901
904
904
909
909
911
912
914
913
915
913
913
914
913
914
916
917
916
917
915
913
914
914
914
914
915
916
916
916
912
913
914
913
911
910
905
908
908
909
907
907
909
910
909
909
908
907
905
907
908
910
909
909
910
908
904
900
897
896
900
914
935
960
989
1015
1034
1049
1058
1059
1054
1040
1020
992
962
933
912
893
876
856
831
804
778
759
747
746
753
762
778
793
806
815
819
823
826
830
837
843
854
862
870
880
887
891
897
897
898
898
897
899
901
903
903
904
906
904
905
903
901
904
903
904
905
905
906
907
909
907
906
905
905
907
907
906
907
908
910
912
916
918
920
921
924
926
927
931
933
938
946
951
954
963
968
973
979
981
988
991
995
1004
1008
1014
1020
1023
1027
1031
1029
1030
1030
1026
1023
1024
1025
1023
1023
1021
1016
1012
1006
1000
997
995
989
990
985
982
979
975
969
963
961
958
954
951
948
947
945
945
947
944
942
938
935
933
932
929
929
931
933
934
936
936
933
932
933
929
929
928
929
930
932
933
933
933
932
931
928
927
925
926
929
929
930
931
932
930
929
930
927
926
924
924
923
924
925
923
925
924
927
924
925
923
921
921
921
922
924
923
924
924
924
924
920
918
920
919
918
920
918
920
922
923
925
921
919
918
918
917
918
919
916
919
922
921
923
921
919
917
918
918
917
920
920
923
924
924
924
920
919
917
913
914
917
920
921
922
921
921
918
918
919
918
918
918
920
921
921
924
925
927
928
927
929
926
928
928
929
929
929
932
935
935
937
938
939
938
938
941
947
948
950
952
953
951
949
947
944
941
938
936
934
934
932
933
931
930
928
925
921
916
913
908
912
913
916
916
921
919
921
918
918
918
917
918
919
924
925
930
933
938
947
959
975
998
1025
1059
1102
1147
1187
1223
1252
1279
1307
1324
1314
1270
1195
1103
1010
931
879
857
853
862
876
885
893
898
897
897
897
893
891
894
894
894
896
894
892
890
888
888
890
891
890
893
895
890
890
889
887
887
886
886
882
886
885
884
885
886
885
884
881
879
877
877
876
876
875
874
874
876
873
871
869
865
860
861
861
859
859
859
863
862
861
860
858
856
856
856
856
858
860
862
864
864
864
865
863
866
866
867
871
877
878
882
887
888
893
893
897
895
896
898
904
906
908
912
917
915
916
915
917
918
916
917
917
919
919
919
922
922
923
920
918
919
919
919
918
919
920
921
922
920
922
917
916
914
912
912
911
913
913
915
916
914
911
911
909
908
908
906
907
909
909
908
912
914
913
914
911
909
903
901
900
902
905
913
928
947
967
997
1021
1041
1056
1068
1071
1074
1071
1060
1042
1018
991
967
945
926
903
881
854
829
803
785
777
774
779
785
793
803
808
811
812
814
817
821
828
833
840
846
853
858
864
868
873
879
883
890
896
900
902
903
901
901
898
898
899
896
898
900
902
905
902
903
901
899
899
898
899
899
898
899
901
901
899
899
898
897
900
899
900
903
903
907
910
910
909
911
913
916
916
919
925
927
932
938
945
948
953
959
961
965
970
973
979
985
993
999
1004
1008
1014
1013
1017
1017
1019
1019
1021
1021
1022
1020
1022
1017
1014
1014
1008
1005
1002
999
995
990
989
986
984
980
975
971
965
962
958
954
951
948
947
945
944
944
940
938
935
933
931
931
931
933
931
931
932
934
932
929
930
929
929
927
927
928
928
930
929
930
929
927
927
927
927
926
926
925
929
928
930
930
930
930
929
926
925
924
924
924
925
930
929
928
926
928
927
924
920
922
922
921
923
926
926
927
926
926
925
922
921
918
919
921
922
922
925
926
923
923
922
920
919
920
917
919
922
922
925
924
924
923
920
920
920
920
920
923
924
923
923
924
924
924
920
921
919
919
921
922
922
925
925
925
925
923
920
923
924
924
923
928
928
930
933
933
933
933
932
931
931
932
934
938
941
944
948
949
951
948
951
950
948
945
947
946
945
945
944
944
939
933
931
927
924
921
920
919
915
914
915
915
913
914
913
912
911
913
913
912
916
915
918
917
920
919
917
920
918
919
921
925
930
937
947
958
970
986
1003
1026
1053
1079
1114
1147
1181
1207
1235
1261
1289
1311
1320
1297
1241
1160
1067
983
914
877
863
863
869
880
886
889
887
887
886
887
890
890
889
890
887
889
887
885
884
882
882
885
886
885
885
887
887
885
882
881
880
879
880
878
879
879
878
880
878
877
876
874
871
870
865
869
870
869
870
872
869
868
864
863
861
861
858
857
861
858
860
859
859
855
854
852
849
850
849
848
846
849
849
850
849
850
851
852
852
853
851
855
859
860
863
867
870
871
874
876
878
881
884
888
893
896
900
902
904
907
908
911
909
911
913
915
917
917
921
921
921
921
922
920
920
919
918
919
922
922
924
923
925
923
921
921
920
919
918
919
919
918
920
919
919
918
914
915
913
911
911
911
910
914
912
915
912
912
912
913
916
915
913
913
911
909
908
911
919
934
953
979
1008
1033
1054
1069
1073
1073
1065
1046
1021
991
964
939
916
896
873
849
819
802
788
780
779
786
791
795
799
805
814
814
816
820
823
825
831
837
843
850
858
861
866
875
881
888
896
902
906
909
909
907
907
907
907
908
908
911
912
912
914
913
910
911
911
909
910
912
915
912
913
914
914
916
917
915
917
916
916
920
923
925
930
932
934
940
938
942
945
949
953
959
966
973
977
982
988
991
996
998
1003
1005
1010
1012
1018
1023
1029
1032
1034
1034
1036
1035
1033
1035
1033
1034
1032
1032
1029
1030
1024
1023
1018
1013
1008
1002
994
989
988
983
983
978
974
972
967
964
959
958
954
952
952
951
951
948
949
945
945
943
942
940
940
940
942
941
939
941
939
938
939
939
935
933
936
936
939
940
943
942
942
942
940
936
934
936
935
936
938
937
940
941
941
940
939
937
936
935
934
934
935
936
939
936
936
933
932
931
930
927
928
929
930
930
933
936
933
934
934
932
928
928
930
929
930
931
931
932
932
930
928
928
926
928
927
927
929
930
932
934
931
931
927
927
926
925
926
927
930
930
933
929
930
932
928
927
924
922
925
926
928
931
932
933
933
933
933
932
932
932
934
935
935
936
940
942
944
945
944
943
943
947
950
954
957
959
962
961
956
955
952
948
944
942
939
937
937
936
937
934
931
929
923
922
919
919
920
920
922
922
922
924
924
924
922
926
926
929
925
928
934
938
947
955
963
974
990
1009
1030
1051
1081
1120
1156
1185
1212
1228
1239
1254
1273
1296
1296
1275
1222
1148
1060
978
914
874
861
860
868
880
890
897
899
903
903
901
899
896
892
896
891
891
892
892
892
892
893
890
892
892
892
890
889
887
884
884
881
881
885
883
884
885
883
883
881
879
876
876
875
874
876
876
873
875
873
872
871
868
864
864
865
865
866
863
863
865
865
864
863
860
861
854
858
858
859
862
864
868
866
868
868
869
870
871
872
873
881
883
891
893
895
899
900
904
904
907
908
912
914
918
923
922
926
925
926
925
924
925
924
924
925
927
926
927
927
927
927
928
925
924
923
925
924
928
927
928
928
927
924
923
921
920
920
918
920
919
922
923
923
923
922
920
918
917
919
920
922
923
927
928
926
925
920
914
909
905
906
917
935
959
989
1020
1046
1067
1076
1077
1063
1039
1003
969
940
914
893
866
838
808
780
760
749
746
752
765
780
792
802
809
814
818
822
826
833
840
847
855
862
871
876
885
891
894
897
900
905
906
908
909
911
912
915
915
915
914
913
913
912
913
911
913
913
914
916
916
916
916
915
914
914
913
912
911
916
916
921
923
920
923
922
924
924
924
929
934
938
944
947
952
954
957
964
967
971
977
979
986
994
999
1007
1011
1015
1019
1024
1028
1030
1033
1035
1037
1038
1042
1044
1044
1044
1043
1039
1038
1036
1034
1033
1030
1028
1027
1026
1022
1019
1015
1008
1006
1000
993
990
986
984
982
977
976
973
970
964
959
957
956
955
950
951
951
953
952
949
950
946
946
945
942
944
943
941
942
943
947
946
946
945
943
939
939
939
945
941
940
942
943
942
944
943
943
939
938
939
940
941
942
941
944
942
942
942
939
938
935
934
935
938
939
938
941
938
939
938
937
935
934
934
933
934
935
937
937
934
936
936
934
934
932
931
934
933
932
935
936
935
935
932
932
928
927
928
929
932
932
932
934
934
934
933
933
929
929
929
931
931
932
935
934
935
933
932
930
931
930
931
931
934
935
935
935
934
935
934
933
934
936
939
939
941
941
944
945
943
945
944
945
946
945
946
948
951
957
958
961
962
962
960
959
958
953
953
950
950
948
948
946
943
941
934
928
928
925
922
920
920
920
922
925
926
924
923
924
922
925
924
926
930
931
935
938
942
948
954
963
976
993
1016
1041
1069
1103
1140
1175
1204
1229
1252
1274
1302
1321
1329
1300
1244
1167
1078
994
933
893
871
871
876
882
891
895
899
902
903
907
904
905
899
899
896
891
895
894
895
895
896
896
892
893
893
890
887
888
886
881
882
882
885
887
883
883
882
881
879
876
878
876
876
875
877
875
874
874
872
871
869
866
867
863
863
862
865
866
864
863
860
857
856
858
858
858
858
858
860
861
861
860
862
861
860
861
864
864
866
866
871
874
877
878
880
882
885
887
891
896
901
903
906
909
909
912
913
915
914
912
915
916
918
920
923
922
923
927
923
923
919
920
919
921
921
923
921
924
923
920
920
921
919
917
916
916
916
916
918
917
916
916
915
914
914
913
911
910
913
912
913
914
913
916
915
911
912
910
910
913
915
915
914
911
909
909
911
918
934
956
986
1016
1042
1065
1078
1084
1085
1075
1057
1031
1002
974
951
932
911
890
863
836
811
795
785
782
787
794
799
806
813
816
819
821
821
823
823
828
834
839
847
853
859
864
871
881
885
893
897
900
902
905
905
906
906
907
905
908
908
909
906
906
905
903
902
903
908
908
909
908
910
908
911
905
903
902
903
903
905
906
907
910
910
911
911
913
912
915
916
918
920
925
931
935
938
943
947
953
957
962
964
971
976
981
990
995
1000
1004
1006
1010
1013
1017
1018
1023
1026
1028
1030
1030
1030
1030
1029
1027
1024
1020
1018
1016
1015
1013
1011
1009
1005
1000
995
992
985
982
981
978
977
975
973
972
967
963
959
956
952
950
946
945
944
945
944
943
943
942
943
940
941
938
939
938
938
940
941
941
943
943
939
941
940
938
938
939
940
942
941
942
942
941
941
940
938
937
939
938
937
936
942
943
943
944
942
940
939
937
937
934
937
939
938
940
938
939
939
937
935
934
936
937
934
935
938
939
937
936
933
935
933
931
933
931
932
932
937
938
938
938
936
938
933
936
935
933
934
937
938
938
938
938
937
936
934
936
934
936
938
940
940
941
941
940
943
941
940
940
940
938
943
945
946
948
948
947
948
947
947
945
946
954
955
958
961
964
965
965
965
965
962
962
961
960
964
961
961
960
954
954
948
946
946
942
939
939
936
934
933
935
933
931
927
929
926
926
926
926
929
932
933
937
935
935
937
937
939
941
946
953
961
976
993
1010
1027
1049
1071
1100
1130
1161
1188
1210
1230
1248
1268
1288
1303
1301
1277
1226
1159
1083
1012
956
913
893
887
887
894
900
902
902
902
903
902
905
906
906
907
909
908
906
903
903
903
900
900
901
899
901
901
903
901
899
899
893
891
889
894
892
892
893
894
893
893
895
891
890
887
884
883
884
884
884
887
887
884
882
880
877
878
877
875
875
874
876
876
876
875
874
872
870
867
866
863
864
864
867
865
869
869
869
867
868
867
869
866
868
869
875
875
881
882
884
883
886
885
887
890
894
899
902
907
911
914
917
917
920
919
920
921
923
924
925
929
930
931
929
927
927
926
925
924
926
923
929
927
928
928
929
928
926
924
923
922
923
923
923
924
925
921
923
922
919
919
917
917
919
920
922
923
922
925
925
924
922
921
915
910
909
910
914
920
935
954
977
1002
1025
1040
1049
1055
1054
1049
1035
1008
979
949
924
902
877
848
822
793
772
760
755
760
770
780
792
799
807
808
809
818
825
838
849
860
870
877
883
889
893
897
902
902
903
907
909
905
909
909
907
910
908
909
909
908
909
910
912
911
914
915
916
915
913
913
911
911
911
914
916
917
919
919
921
922
920
923
920
925
927
929
933
937
941
946
948
952
956
960
963
969
975
983
988
996
1003
1009
1011
1011
1015
1021
1025
1027
1029
1033
1035
1039
1043
1043
1042
1041
1041
1036
1033
1032
1027
1025
1024
1021
1019
1018
1014
1010
1004
1000
994
990
985
983
981
978
977
973
970
967
965
962
958
956
951
952
951
953
951
949
949
949
945
942
941
942
940
941
942
941
943
941
940
940
941
936
936
932
934
936
938
939
941
941
943
941
940
939
935
937
938
934
935
938
940
941
938
938
937
936
937
936
936
936
937
939
940
940
939
938
936
936
932
934
934
935
936
935
936
937
935
936
935
933
933
932
933
933
934
934
936
937
936
935
935
933
932
932
933
934
935
937
937
938
935
936
935
935
934
932
933
933
935
933
935
938
937
936
936
934
934
934
932
934
938
940
943
945
944
943
943
942
944
943
945
946
948
949
954
960
959
960
961
960
961
960
962
960
960
960
959
956
953
951
946
943
941
938
936
936
933
932
930
928
928
925
925
925
926
925
925
925
926
928
932
931
929
932
930
934
934
936
941
948
958
971
989
1009
1033
1058
1092
1125
1159
1194
1226
1256
1289
1315
1323
1298
1242
1159
1066
981
919
886
869
871
883
894
904
909
908
907
906
903
899
899
897
897
897
899
900
901
899
899
897
894
894
892
891
890
892
892
892
894
893
892
888
888
885
883
884
884
883
883
883
884
880
879
877
877
874
874
873
871
871
873
873
874
871
870
868
865
861
860
860
861
861
858
860
860
859
861
857
856
858
858
859
859
861
864
866
866
865
867
868
870
869
873
877
877
884
887
891
894
898
899
900
902
904
902
906
911
911
912
917
918
919
919
919
918
916
917
918
919
921
923
925
924
925
924
924
922
917
918
913
917
919
921
920
922
921
920
917
913
915
913
915
915
915
916
917
914
913
911
910
907
909
907
908
907
908
909
911
914
914
913
913
911
910
906
907
907
912
923
936
955
976
1001
1021
1039
1053
1062
1067
1069
1067
1058
1044
1027
1005
986
965
951
941
924
905
884
860
839
817
802
791
787
786
789
795
799
808
811
815
816
816
818
824
832
835
841
847
853
858
865
874
881
890
895
898
897
899
898
897
896
896
895
899
898
900
899
901
899
897
897
896
895
896
895
899
899
901
903
901
902
899
897
895
895
898
896
898
903
908
908
909
910
910
913
912
916
918
922
924
928
934
941
942
947
951
953
957
960
970
977
985
990
996
1002
1004
1008
1010
1010
1012
1012
1012
1014
1014
1017
1016
1013
1012
1010
1004
1002
997
993
990
986
986
983
983
976
971
967
964
959
956
951
949
947
946
944
943
940
940
935
933
930
928
927
927
927
929
927
929
929
928
929
925
924
922
922
921
922
923
923
927
928
927
926
925
923
923
923
920
919
924
927
929
929
928
927
926
925
923
924
923
924
926
925
924
926
926
925
924
923
920
919
918
918
920
924
925
922
923
925
921
921
920
919
919
920
921
921
924
924
922
922
919
918
916
916
918
917
919
920
922
922
922
922
920
918
918
918
918
920
921
921
921
924
922
923
924
921
919
918
921
920
922
923
926
925
930
929
928
928
927
928
926
930
932
931
933
935
937
938
937
940
939
942
942
944
946
948
954
954
953
950
944
943
939
937
935
934
930
931
931
927
924
920
918
913
909
907
908
909
910
912
915
914
913
913
913
913
913
913
912
913
917
919
923
926
929
933
936
941
950
960
975
992
1013
1037
1062
1089
1119
1147
1172
1195
