987
990
991
995
1000
1002
1007
1013
1016
1021
1023
1025
1023
1026
1024
1022
1021
1019
1020
1021
1018
1018
1015
1014
1010
1003
999
996
992
990
987
985
979
981
979
974
974
970
965
960
957
954
954
950
950
948
946
945
942
940
940
936
933
934
932
932
932
936
937
935
935
933
931
930
929
929
930
934
933
936
935
936
938
934
935
933
932
932
929
933
934
935
937
935
934
935
935
933
931
933
928
932
933
934
934
933
932
929
931
930
926
928
928
929
927
929
929
930
931
928
927
924
924
926
925
929
927
927
930
927
927
926
925
924
924
924
925
925
926
929
927
926
927
926
928
926
924
925
923
925
926
926
926
926
926
927
926
924
924
925
927
926
927
928
930
927
925
924
924
921
925
926
925
926
926
927
931
930
930
928
931
931
932
932
931
933
936
936
938
938
937
937
938
937
937
939
943
945
945
948
955
954
957
953
955
955
954
951
950
950
950
949
948
940
938
933
929
929
924
923
922
919
917
916
918
918
918
917
917
915
916
917
915
919
918
921
924
924
927
927
930
931
936
943
952
970
987
1009
1033
1058
1087
1120
1153
1181
1208
1231
1259
1289
1315
1322
1302
1247
1165
1074
988
923
881
864
863
871
882
891
895
899
898
898
897
895
894
893
892
893
892
896
895
893
893
891
888
888
888
888
887
887
888
889
887
886
886
884
881
881
880
880
880
877
877
878
882
878
878
877
875
871
870
867
869
867
866
868
870
867
868
865
861
858
855
854
857
853
856
856
856
856
854
855
852
855
853
854
852
855
859
861
861
862
862
863
864
864
868
868
872
875
878
883
890
893
894
897
900
900
904
906
909
913
917
917
920
921
922
919
919
921
918
922
922
925
924
927
927
927
926
925
924
921
920
921
919
922
922
924
923
924
921
921
920
916
915
914
913
915
914
914
915
914
913
913
911
906
908
907
906
907
911
913
912
913
914
912
913
912
910
907
906
907
910
914
921
932
952
977
1003
1028
1048
1063
1069
1069
1059
1043
1019
990
963
941
922
904
886
861
835
818
800
790
787
788
793
798
802
806
811
811
813
816
819
820
828
834
837
841
846
852
858
864
868
876
886
894
902
904
907
904
904
904
901
903
902
905
905
908
908
905
904
904
907
905
902
900
903
905
906
907
908
907
909
905
904
902
901
902
905
905
906
908
915
913
915
917
917
919
922
928
930
936
942
945
952
955
959
964
968
971
974
980
985
994
997
1003
1009
1011
1014
1014
1017
1017
1017
1019
1021
1023
1024
1023
1022
1022
1020
1016
1012
1008
1003
999
997
991
989
986
987
984
979
976
972
965
961
957
953
952
951
949
947
945
942
941
937
932
931
930
930
929
930
931
931
930
927
927
923
924
922
924
924
926
924
926
927
931
925
924
925
923
922
923
922
924
927
927
929
929
928
926
925
923
922
922
922
921
922
923
925
923
924
922
920
919
920
917
921
919
920
920
921
922
920
918
917
916
916
915
914
915
917
915
921
918
917
915
917
916
915
915
914
918
918
918
920
919
920
918
916
916
914
912
915
915
916
915
921
919
918
919
916
914
915
918
918
921
923
926
928
927
927
928
926
925
924
925
928
931
935
939
943
942
944
945
945
944
944
946
946
945
944
941
938
939
937
934
931
929
923
922
920
916
917
911
911
911
908
910
911
912
911
911
913
911
915
916
921
922
923
924
922
925
930
935
946
955
973
989
1010
1031
1057
1084
1116
1147
1173
1194
1212
1229
1252
1278
1293
1284
1245
1183
1102
1018
946
896
868
855
857
867
875
880
883
885
888
888
889
890
889
890
890
891
891
889
889
888
886
886
884
881
884
884
885
886
888
887
885
881
881
880
880
879
877
874
875
879
878
878
874
873
872
869
869
870
868
868
867
870
871
867
866
863
861
861
859
855
857
856
858
858
857
853
850
848
850
850
847
849
853
850
855
858
858
857
860
859
860
860
860
860
862
865
868
872
879
878
880
882
885
888
892
893
899
902
906
910
912
912
916
917
916
915
914
914
915
916
918
920
922
921
920
920
919
917
915
914
917
918
918
918
919
920
917
913
914
911
909
909
908
909
909
912
914
914
911
910
906
902
901
904
906
907
910
911
913
913
915
913
907
903
898
896
897
903
910
923
942
966
988
1013
1033
1047
1056
1060
1058
1046
1024
992
958
932
906
881
858
830
804
776
754
745
743
753
764
776
786
794
798
803
803
805
811
816
827
837
847
855
865
869
874
875
880
883
888
891
893
898
902
901
899
897
900
899
898
898
900
899
899
901
901
899
901
899
897
898
900
899
900
902
902
902
905
906
905
904
904
902
903
901
902
906
909
913
915
918
918
921
922
924
927
932
938
943
948
958
964
969
973
976
980
986
991
998
1000
1008
1012
1016
1018
1022
1025
1024
1026
1026
1026
1026
1026
1024
1023
1024
1026
1022
1018
1014
1009
1005
1002
997
996
993
989
990
984
982
976
974
969
963
959
956
957
954
953
952
952
948
947
947
945
943
938
938
936
938
937
937
938
939
937
935
933
931
931
931
931
933
932
935
935
935
936
933
934
931
932
930
934
934
935
935
938
935
936
933
931
930
929
929
931
933
932
934
932
933
930
929
928
926
925
926
928
926
928
930
930
929
931
927
927
927
926
926
925
925
926
926
928
924
928
927
927
926
925
924
926
927
928
928
931
929
928
924
925
926
923
924
923
928
928
930
931
930
930
926
926
924
924
924
926
924
925
927
930
930
929
930
932
930
930
929
932
933
938
937
938
939
939
942
941
944
945
948
950
952
955
957
956
956
955
952
951
947
943
942
938
937
937
937
935
933
930
928
924
920
915
914
913
916
918
917
920
920
920
919
918
918
919
919
921
925
927
929
934
938
945
952
965
981
997
1022
1049
1083
1121
1158
1188
1213
1230
1253
1276
1297
1303
1288
1246
1183
1108
1035
970
920
890
873
871
874
879
883
887
890
893
896
897
895
894
892
890
889
887
886
886
886
889
889
887
890
888
887
886
883
883
881
880
882
883
883
884
885
883
881
878
875
875
874
876
874
874
875
875
874
873
871
870
867
865
865
863
864
864
865
865
862
860
858
858
854
853
853
850
852
853
856
852
854
850
848
850
845
847
845
845
846
850
850
851
850
852
853
851
853
852
849
855
856
860
862
869
868
871
874
875
877
878
881
884
889
891
897
901
902
906
907
909
907
907
906
907
909
913
914
917
915
916
917
915
911
911
913
912
913
913
915
916
916
917
915
912
911
909
909
910
910
910
913
913
912
911
910
910
906
904
904
903
904
903
902
905
904
903
903
903
902
901
902
905
908
907
907
906
902
900
900
906
923
941
969
997
1022
1044
1060
1067
1072
1070
1056
1039
1012
985
960
938
920
900
882
857
831
808
791
781
779
780
788
795
803
809
811
812
815
816
820
828
834
838
844
851
861
868
875
885
889
896
898
898
897
897
896
895
896
898
897
900
900
900
900
897
895
895
894
896
897
899
900
899
898
901
898
897
895
896
895
896
897
900
905
906
907
906
907
906
904
908
909
912
917
922
926
931
936
942
944
948
952
957
959
968
973
978
984
993
997
1001
1006
1005
1008
1007
1012
1014
1014
1016
1016
1015
1017
1014
1011
1009
1002
999
998
992
990
988
987
985
981
978
973
968
965
960
958
954
953
951
951
950
945
945
941
938
936
932
932
932
932
933
932
933
933
933
931
928
927
928
926
924
926
928
927
930
931
931
931
928
925
926
926
924
927
928
926
929
931
931
926
928
927
924
924
924
927
926
926
927
929
928
926
926
925
924
922
925
924
925
929
928
930
929
927
927
926
924
924
924
924
924
924
926
923
924
927
925
924
920
923
923
925
926
924
927
928
928
926
924
923
923
922
923
923
924
925
927
928
926
924
925
922
919
920
922
922
925
924
927
927
927
925
924
924
923
923
923
925
926
929
929
933
932
934
931
928
927
927
930
933
934
938
940
942
944
947
949
947
948
952
952
954
952
953
954
951
949
946
944
940
933
931
929
928
927
927
926
922
917
915
912
910
908
911
912
912
912
915
919
919
919
920
917
919
918
921
921
925
928
933
939
946
962
974
994
1017
1043
1077
1113
1149
1184
1214
1237
1264
1290
1308
1308
1281
1224
1148
1062
982
921
883
867
867
873
882
890
896
897
897
897
897
896
900
896
895
896
894
892
893
891
889
889
889
891
892
893
889
889
888
888
888
884
886
883
882
885
887
887
888
884
883
882
880
879
876
876
877
876
877
876
874
874
868
868
865
865
865
864
863
864
863
863
864
860
858
856
856
852
854
855
854
857
856
858
857
858
856
856
854
858
857
860
862
867
870
874
875
879
880
881
883
886
885
891
894
899
902
905
906
908
910
911
913
913
913
917
917
919
922
924
925
926
922
923
922
922
921
920
923
925
924
925
926
923
920
920
919
918
919
917
918
917
918
918
918
915
914
914
910
911
909
909
910
911
911
913
910
912
911
910
913
911
913
913
914
914
911
910
909
906
909
914
923
937
957
983
1010
1033
1052
1064
1070
1068
1061
1046
1019
994
965
941
923
910
897
881
863
836
812
791
775
767
766
768
780
791
802
814
819
819
820
820
821
829
836
843
848
858
866
874
881
885
891
895
898
899
899
902
903
902
905
908
908
909
909
908
905
905
905
905
907
906
908
910
909
911
908
907
907
906
909
908
909
910
912
914
913
914
915
914
914
913
913
917
919
924
928
932
935
938
940
942
947
951
953
957
963
971
976
984
989
993
999
1002
1006
1012
1013
1018
1021
1023
1027
1028
1031
1027
1026
1024
1023
1019
1014
1014
1010
1010
1006
1004
1000
995
989
985
979
975
971
967
964
961
962
960
956
953
952
947
942
938
939
940
938
937
938
939
939
940
937
933
932
933
931
930
933
935
938
938
937
937
934
934
932
934
931
932
931
931
933
936
935
935
934
936
932
930
926
926
929
931
932
933
933
935
931
932
930
929
927
927
926
928
929
932
933
931
928
928
926
926
925
925
925
927
929
929
930
929
927
924
925
924
925
924
926
927
927
928
928
927
925
923
921
922
920
920
922
924
925
928
928
926
923
924
924
923
924
923
927
927
928
928
927
924
925
925
922
920
919
923
925
926
928
931
934
933
934
932
931
930
929
929
933
934
936
940
941
945
946
945
949
950
948
949
952
951
948
953
951
949
947
944
939
936
933
930
928
926
924
924
921
919
915
912
914
915
914
914
916
915
920
920
923
922
922
917
920
922
922
924
927
931
938
946
954
966
980
997
1020
1046
1078
1116
1153
1188
1216
1240
1258
1284
1297
1286
1245
1175
1092
1007
930
883
858
853
862
876
883
888
894
894
895
895
891
891
891
894
892
892
889
890
889
889
888
889
890
891
889
890
889
890
887
885
885
886
884
883
882
885
880
881
882
878
880
876
877
875
873
872
873
872
872
874
874
870
870
869
866
866
863
865
863
866
864
864
861
861
861
858
857
854
855
854
855
854
856
859
858
857
854
854
857
856
858
860
862
864
863
868
871
875
877
877
880
881
886
887
892
897
901
905
907
908
910
911
911
911
911
912
915
918
919
921
922
922
922
923
922
922
922
919
921
921
921
922
922
920
920
919
917
917
914
914
914
914
914
916
917
913
911
909
906
907
909
908
909
910
911
913
912
913
912
913
910
912
912
914
913
914
913
911
908
905
901
905
908
921
935
961
987
1016
1040
1056
1071
1079
1078
1069
1055
1030
996
973
943
926
912
895
874
850
821
794
775
760
754
759
767
781
790
803
808
812
814
814
817
822
826
834
842
851
859
867
875
879
888
890
893
890
892
894
897
899
899
899
901
900
901
898
898
895
894
896
899
900
902
904
903
903
904
901
900
897
897
897
899
901
900
902
903
901
904
903
906
906
905
909
908
912
917
921
924
928
930
935
935
940
941
945
952
958
964
971
976
979
982
987
994
999
1002
1005
1010
1014
1018
1022
1024
1026
1024
1022
1020
1019
1016
1012
1010
1010
1008
1006
1003
1000
995
991
986
980
978
975
971
968
965
964
960
957
956
952
948
945
942
941
937
938
939
937
937
934
934
930
929
927
926
928
928
929
931
930
932
930
930
929
929
926
927
924
925
926
927
930
928
930
930
926
927
925
924
925
927
926
926
928
928
928
927
926
927
924
923
922
922
922
923
926
927
926
923
925
924
920
920
922
923
920
923
921
925
924
921
920
918
916
917
919
918
919
922
921
921
921
919
920
921
919
918
916
918
919
918
919
921
919
918
919
917
916
916
915
916
917
918
917
917
921
920
920
920
915
916
916
915
919
917
921
921
917
920
919
918
918
914
918
918
919
923
922
926
924
926
926
926
925
926
926
926
928
929
932
933
937
938
939
941
939
941
945
947
947
949
949
948
944
945
939
938
933
931
927
925
923
923
922
919
915
914
911
909
908
908
906
908
909
911
913
914
912
915
916
915
913
914
917
919
922
928
937
947
961
977
997
1022
1051
1089
1127
1167
1199
1231
1261
1290
1315
1320
1291
1228
1140
1043
957
894
860
849
855
868
878
887
891
893
891
890
890
887
885
886
888
888
887
886
884
884
882
879
877
877
880
880
881
882
880
881
877
876
874
872
873
873
876
874
876
876
875
872
871
865
867
864
865
865
865
865
865
863
864
862
860
858
853
851
853
851
851
854
853
850
848
852
846
846
843
842
843
844
844
845
847
851
850
851
849
849
847
850
852
853
855
857
862
867
871
872
874
874
875
876
882
886
891
894
898
900
904
904
902
905
904
903
904
908
908
910
912
912
914
914
911
912
910
908
908
908
909
913
911
913
914
912
911
909
909
909
907
907
907
909
911
909
908
908
905
903
902
899
898
899
900
901
903
904
903
903
901
901
900
899
899
896
901
899
899
901
904
908
921
938
961
988
1010
1033
1048
1060
1064
1063
1051
1033
1008
979
949
927
909
896
875
854
831
813
795
785
779
780
782
790
796
800
810
814
816
817
818
820
822
828
829
840
847
857
865
872
880
886
891
897
896
896
896
899
897
900
900
899
902
906
905
904
903
903
901
899
899
901
902
902
907
906
904
904
902
900
899
899
897
901
903
906
909
910
910
911
910
911
915
917
921
926
927
932
938
943
946
951
954
960
961
964
971
976
983
989
994
999
1003
1006
1009
1010
1014
1016
1017
1018
1018
1020
1023
1022
1021
1017
1013
1008
1004
997
994
992
991
986
982
979
976
971
967
960
957
951
950
948
947
945
944
944
942
940
939
936
932
932
930
931
931
932
935
934
933
934
931
933
930
931
930
930
931
934
935
935
933
934
934
933
931
931
930
931
932
929
931
930
932
931
930
927
926
927
926
924
924
927
929
930
931
928
927
926
927
925
924
924
928
926
930
931
930
931
929
926
923
925
924
923
926
927
928
928
928
927
925
921
922
920
921
923
922
924
925
929
930
927
925
926
925
924
922
924
926
923
925
927
927
925
925
925
925
925
926
926
926
927
928
929
928
930
930
929
928
930
931
932
934
936
938
939
939
937
938
940
941
944
944
947
952
954
958
960
960
960
957
956
952
949
949
947
945
942
942
940
938
936
933
928
924
921
921
918
917
919
921
922
924
924
923
919
919
919
921
924
924
926
929
928
932
933
938
940
944
952
961
976
993
1017
1041
1071
1106
1141
1175
1204
1226
1248
1272
1295
1305
1286
1232
1152
1056
965
894
859
846
853
869
883
896
904
907
908
904
902
899
895
894
894
895
895
896
892
893
892
893
893
893
894
890
889
890
885
885
884
886
889
889
887
887
885
883
879
879
881
881
881
881
880
876
874
874
873
871
871
869
868
868
869
869
869
867
865
861
861
860
858
856
858
857
858
859
859
859
862
860
861
860
861
861
864
866
867
869
873
874
876
880
883
884
887
889
891
896
901
906
910
912
913
913
916
913
915
916
921
924
923
924
925
924
927
924
922
921
921
923
925
924
927
928
930
928
927
925
920
919
918
918
918
921
921
923
923
919
921
920
917
915
913
912
911
912
912
913
915
915
914
915
919
917
916
917
918
915
912
911
909
907
907
911
917
931
946
969
994
1020
1039
1054
1063
1063
1059
1047
1025
997
965
934
908
893
876
858
834
806
780
759
745
737
739
748
758
773
785
794
801
806
809
811
814
820
826
837
844
854
859
870
876
882
888
892
894
898
899
898
900
901
904
906
908
908
911
910
906
907
907
905
907
908
910
913
914
911
913
911
911
910
909
908
911
913
913
915
918
919
922
924
924
925
927
929
934
939
945
951
959
962
967
974
979
985
986
993
998
1005
1009
1016
1021
1024
1027
1032
1033
1031
1032
1035
1034
1036
1036
1038
1038
1034
1033
1028
1025
1020
1014
1008
1007
1003
998
997
996
988
984
979
974
970
966
963
960
960
958
958
958
955
952
947
946
940
940
943
942
942
945
946
946
948
946
946
943
943
941
938
938
940
943
946
947
