946
946
946
945
943
942
941
942
943
944
945
946
945
945
944
944
941
938
938
940
940
939
942
942
942
940
940
938
938
936
936
935
938
938
939
939
939
938
935
936
934
934
933
935
934
934
934
936
938
935
934
936
937
934
934
935
936
936
938
939
938
937
938
937
935
932
935
936
936
935
937
940
939
939
937
934
934
930
933
935
936
937
933
936
936
940
939
937
937
936
937
939
940
942
944
947
949
947
943
945
943
945
947
950
952
955
959
960
962
963
963
962
962
959
962
958
959
959
958
956
954
950
946
943
938
933
931
931
929
927
930
927
929
930
928
927
926
925
926
923
926
929
931
930
934
934
937
935
935
935
937
941
949
957
965
977
990
1003
1022
1041
1063
1089
1121
1151
1182
1209
1228
1249
1265
1288
1315
1331
1333
1306
1247
1165
1075
992
925
887
869
870
877
888
895
898
900
903
900
901
900
901
898
898
897
893
893
893
892
892
892
892
893
894
894
894
891
889
888
885
887
884
885
883
886
885
884
884
882
880
876
876
876
875
875
875
875
876
875
873
871
868
866
864
863
863
863
864
861
863
859
859
858
856
852
849
851
852
851
852
854
854
855
855
853
853
853
851
855
855
857
861
863
867
868
872
873
874
877
879
884
886
892
896
902
904
908
909
909
909
910
910
912
913
914
914
916
918
917
919
921
918
917
917
916
919
917
919
921
922
921
921
920
916
914
914
916
914
915
914
918
917
917
915
914
911
912
910
908
909
908
907
907
908
909
906
907
907
909
909
909
907
906
905
904
902
905
911
924
942
966
995
1027
1047
1061
1071
1073
1069
1054
1034
1006
980
952
934
918
899
876
856
832
812
794
783
778
779
783
789
796
803
810
814
818
820
821
822
824
826
834
841
846
854
858
862
868
874
878
879
887
890
892
893
895
896
898
899
898
900
899
900
898
898
896
896
897
896
898
898
900
901
900
900
901
899
898
895
895
897
897
899
902
902
903
904
903
904
901
900
901
906
908
912
917
921
922
928
929
934
933
939
945
949
956
961
967
971
976
978
982
988
990
995
998
1001
1008
1010
1012
1019
1018
1018
1015
1016
1013
1011
1011
1011
1011
1007
1008
1007
1002
1001
996
992
986
984
978
976
974
971
968
964
958
958
954
949
946
942
941
937
936
932
932
933
931
932
930
928
925
923
924
922
924
928
926
928
927
927
924
926
923
921
919
920
923
924
927
928
928
929
926
924
925
923
922
922
922
924
927
927
927
929
925
923
923
920
917
917
918
922
922
924
922
923
921
921
920
918
919
919
919
920
921
923
922
924
924
921
919
918
918
917
919
920
921
923
923
922
922
921
919
917
918
918
919
921
921
924
924
923
922
919
916
918
919
919
920
920
922
924
925
923
922
920
918
918
920
922
921
923
927
930
931
930
929
930
930
928
930
929
931
932
935
941
944
945
945
945
944
946
947
947
948
948
947
947
945
943
938
932
932
928
925
922
921
917
915
913
913
911
910
910
911
909
911
911
913
915
916
919
919
919
917
918
917
921
923
929
934
944
956
971
987
1005
1028
1050
1079
1109
1142
1172
1200
1222
1249
1275
1298
1310
1299
1254
1185
1103
1024
956
906
877
865
868
877
883
888
889
887
890
891
891
892
893
893
895
894
895
891
891
889
886
886
887
887
888
891
890
892
890
888
883
885
883
885
881
880
881
882
882
882
882
880
874
875
873
872
873
874
874
873
874
873
872
867
866
864
861
857
857
856
859
861
860
862
859
858
856
854
852
852
851
853
854
855
856
853
856
856
856
858
856
857
857
861
865
867
871
873
875
879
880
884
885
888
894
898
904
906
912
912
913
914
915
915
915
915
917
918
920
921
924
923
924
925
923
923
919
916
917
920
920
919
919
922
922
921
920
916
915
916
915
917
918
917
918
916
916
915
915
911
910
910
908
910
911
912
914
915
914
913
913
914
911
912
911
907
904
902
904
905
914
928
949
979
1008
1034
1050
1061
1060
1047
1020
983
943
910
879
853
830
804
779
762
752
753
757
765
778
790
798
802
808
809
812
818
828
836
844
852
859
866
873
877
882
886
892
897
900
902
906
906
907
907
906
906
907
905
906
903
905
907
906
906
906
908
907
906
906
906
907
907
909
908
912
913
912
912
912
912
912
909
914
917
918
925
928
931
935
939
944
944
949
953
959
965
971
978
986
992
993
998
1002
1005
1006
1012
1015
1020
1024
1027
1030
1031
1031
1030
1028
1027
1023
1022
1017
1018
1016
1014
1015
1012
1007
1002
999
993
991
986
982
981
978
978
976
971
966
963
960
957
952
949
947
945
943
942
940
939
938
936
934
932
931
930
930
930
931
932
933
931
931
929
925
924
923
924
925
924
924
928
930
932
930
930
928
925
925
925
924
924
927
927
927
928
929
927
926
923
922
921
919
919
919
924
926
926
925
923
924
920
917
914
915
914
918
920
923
924
922
922
917
918
916
915
915
916
919
920
922
922
921
919
919
917
917
916
917
918
919
920
921
921
920
919
918
916
916
913
916
918
920
921
922
922
920
920
916
918
916
915
914
914
920
920
920
920
920
919
919
920
921
921
923
925
926
929
931
931
931
933
931
930
929
931
933
937
940
941
946
947
949
949
948
949
948
945
944
939
940
941
941
937
934
933
928
925
921
919
918
914
913
914
916
913
915
915
914
914
915
914
913
915
918
920
920
927
927
929
932
936
942
951
965
982
1004
1026
1056
1089
1129
1162
1192
1213
1231
1251
1274
1295
1304
1288
1243
1174
1093
1014
942
893
865
857
861
867
876
884
889
893
893
894
895
895
893
893
891
890
891
892
893
893
893
892
889
887
887
884
880
882
883
887
890
889
887
886
884
882
880
876
875
878
878
879
881
879
879
877
873
871
870
868
864
867
868
864
867
867
866
862
864
860
856
855
853
855
856
856
855
856
854
853
851
848
848
849
849
849
850
851
851
852
849
852
853
852
852
854
855
857
860
865
866
870
871
875
875
879
881
883
888
891
895
900
906
907
910
911
910
912
911
911
912
914
916
917
920
920
918
918
917
915
915
915
915
915
918
917
919
917
916
917
914
915
913
912
910
910
909
909
910
911
909
909
907
906
905
904
903
903
903
903
907
904
905
907
906
905
905
904
903
905
902
900
898
896
895
900
908
923
945
971
1000
1024
1046
1060
1066
1067
1058
1039
1012
981
952
927
906
886
863
838
815
792
775
764
760
764
772
779
787
795
800
803
805
806
805
808
814
817
826
830
835
841
850
855
863
869
872
878
883
887
888
890
893
894
894
894
896
891
893
895
894
894
895
893
892
891
892
892
895
898
896
895
894
894
891
891
891
892
893
892
895
896
896
897
898
896
896
896
898
901
903
906
911
914
917
921
923
925
931
935
936
942
949
955
959
965
969
975
978
982
986
989
991
996
1000
1006
1008
1012
1013
1014
1013
1013
1011
1009
1008
1006
1007
1007
1003
1000
996
993
985
980
980
975
971
971
968
967
964
962
956
952
951
946
939
937
934
933
932
933
933
931
930
928
925
924
922
922
920
919
922
921
922
922
920
922
920
919
918
917
918
917
921
921
919
924
923
924
921
921
917
918
915
916
917
922
922
922
918
917
915
917
914
913
914
912
912
912
915
916
912
913
912
913
911
909
910
909
909
914
915
918
916
917
914
915
913
911
913
912
913
912
912
913
913
915
914
913
912
911
910
910
910
912
912
915
916
915
913
911
909
909
910
911
914
913
914
918
917
917
914
913
913
911
912
912
916
915
919
920
920
920
921
920
917
917
919
920
921
924
928
928
930
932
934
937
938
938
940
940
943
944
941
941
939
936
931
930
928
924
921
919
918
917
915
912
911
908
904
901
898
896
897
899
901
904
905
907
905
908
908
906
907
909
910
912
919
922
929
938
948
962
978
997
1020
1046
1080
1114
1150
1181
1205
1231
1253
1279
1302
1309
1287
1234
1161
1076
993
924
879
856
851
856
865
866
869
874
875
877
880
880
880
881
878
878
876
874
874
873
871
874
875
875
879
876
877
877
873
871
868
865
868
866
867
866
867
869
869
868
866
863
861
862
858
856
860
861
861
861
861
858
855
854
853
849
849
849
850
848
851
848
846
845
844
841
838
837
836
834
838
839
840
842
841
839
838
838
837
837
838
838
837
842
846
847
848
850
852
852
855
855
859
861
865
871
875
881
883
886
889
889
891
893
896
897
902
902
905
905
906
907
906
905
905
906
906
907
908
909
908
910
909
910
907
908
905
904
902
901
901
902
905
907
905
908
905
903
898
897
896
896
897
898
899
901
898
899
897
896
894
895
897
897
899
901
904
902
899
896
888
890
890
894
906
923
945
970
999
1024
1040
1053
1056
1054
1039
1016
987
958
932
910
889
866
840
813
789
770
760
758
763
772
781
791
800
805
801
806
804
810
818
824
832
843
849
855
860
870
877
883
887
888
891
891
891
891
891
895
893
895
895
895
894
893
894
894
894
895
895
897
897
898
897
897
897
895
893
892
894
896
896
896
901
903
903
905
906
908
910
913
914
920
924
930
936
941
946
949
954
959
964
970
976
979
987
994
999
1004
1005
1009
1011
1010
1011
1011
1010
1014
1016
1015
1014
1016
1012
1015
1011
1006
1004
1000
994
993
992
990
987
985
984
979
976
971
966
962
958
955
953
950
948
947
943
943
936
934
930
926
925
926
927
927
928
927
925
925
924
921
920
915
917
917
917
920
920
921
921
919
918
915
918
915
916
916
917
916
918
921
919
919
920
920
917
915
917
915
917
915
918
918
916
917
916
917
914
912
914
912
914
916
916
915
918
915
914
915
912
913
910
912
912
915
912
914
913
915
914
913
912
910
911
911
912
912
913
916
913
913
912
911
910
909
909
909
909
912
913
913
914
912
913
912
910
910
910
911
913
914
915
916
917
918
918
917
917
917
917
918
919
920
922
925
925
927
929
930
930
932
932
937
939
941
942
942
941
943
940
934
933
929
929
926
926
925
924
924
921
919
914
911
909
906
904
905
904
905
906
908
909
909
908
909
907
908
910
910
914
916
918
923
927
934
939
949
962
982
1002
1031
1063
1102
1137
1169
1194
1210
1224
1243
1262
1279
1282
1261
1214
1146
1070
997
933
887
862
851
850
858
864
871
879
883
884
888
886
889
886
884
883
881
879
880
879
880
881
882
881
881
880
880
876
876
875
877
874
878
876
877
879
878
875
874
870
870
871
870
871
867
870
872
871
872
869
864
861
862
861
859
861
861
860
861
860
857
856
853
852
851
848
849
848
850
852
852
852
849
848
848
847
844
844
845
847
846
847
851
851
853
852
852
853
853
856
857
859
861
864
868
869
873
873
874
878
879
882
886
889
892
895
899
902
906
906
907
906
906
906
909
909
911
910
914
913
912
913
912
914
911
911
909
912
911
912
911
914
910
910
907
905
904
902
905
904
904
905
906
906
906
904
901
900
899
899
899
900
901
902
904
906
902
904
904
905
901
899
894
894
892
895
903
918
936
962
986
1012
1033
1045
1054
1056
1049
1034
1006
973
940
912
884
858
825
792
764
748
742
744
758
771
784
792
796
799
800
804
811
820
831
842
851
859
866
871
880
883
888
891
892
893
892
893
897
897
897
895
895
895
894
895
893
894
897
898
896
899
898
895
895
894
895
895
895
896
897
898
899
898
899
899
900
900
900
903
905
910
911
915
918
923
927
926
931
936
941
943
947
954
962
966
972
976
981
984
988
991
993
994
998
1006
1009
1015
1019
1019
1025
1024
1021
1022
1018
1015
1013
1012
1011
1012
1008
1006
1004
999
995
991
983
981
976
974
972
968
965
962
960
959
953
950
945
943
940
938
940
939
939
936
936
931
931
927
925
924
927
928
927
925
928
928
927
926
922
921
921
920
919
922
923
924
927
926
925
926
924
924
923
922
922
920
922
924
924
926
925
922
922
920
916
915
918
917
921
920
923
921
922
920
919
918
915
917
917
915
918
916
920
917
916
918
914
915
915
913
916
917
918
919
919
919
918
918
917
916
913
914
914
915
917
918
922
920
920
918
914
916
912
912
913
914
915
915
918
918
915
917
915
914
915
913
913
914
913
914
917
917
916
917
916
913
914
915
913
917
918
922
921
924
924
921
923
925
923
924
923
926
929
933
934
940
943
943
943
944
942
942
939
937
936
937
936
932
930
927
923
917
914
914
912
909
908
906
905
903
904
904
902
903
901
900
901
902
904
906
909
908
907
910
912
913
916
922
928
941
957
975
998
1026
1059
1094
1132
1166
1195
1223
1249
1276
1300
1297
1268
1210
1129
1044
967
907
870
856
852
860
871
877
883
883
884
884
882
882
879
879
877
877
877
875
876
877
875
875
874
872
871
869
870
873
873
876
876
874
873
872
870
869
869
867
864
867
867
867
869
868
866
862
859
858
856
854
855
856
856
856
854
854
853
849
850
848
845
843
842
841
840
843
845
841
841
839
836
837
838
837
836
836
836
837
839
839
840
840
838
837
837
836
839
842
847
844
850
854
854
854
857
858
860
862
864
870
875
879
882
885
884
886
888
890
891
893
894
893
895
896
900
901
904
903
901
899
899
901
901
902
902
903
905
905
904
901
900
901
899
898
898
899
901
901
902
903
900
898
896
895
893
893
894
895
893
895
895
895
892
891
887
886
888
886
888
889
889
893
894
895
895
895
891
886
886
883
880
885
890
901
921
939
964
990
1014
1029
1042
1047
1050
1048
1038
1019
997
972
947
927
910
891
871
845
821
799
780
769
766
767
772
778
786
791
794
795
797
801
803
809
818
825
829
834
842
848
850
857
861
869
874
878
881
883
883
884
879
881
880
881
880
880
883
883
886
885
882
883
883
880
878
879
881
882
882
883
885
884
882
883
884
881
880
878
880
882
885
887
891
892
895
897
898
901
902
906
909
914
920
923
930
935
941
945
949
952
961
964
972
976
983
989
993
999
999
1001
1001
998
997
996
995
993
992
991
990
988
983
978
975
970
963
958
956
951
948
947
945
940
936
935
930
927
922
922
918
917
917
916
918
913
916
915
911
911
909
907
908
910
913
913
916
916
916
915
913
912
912
911
909
911
910
914
915
916
914
916
915
916
913
909
911
911
908
912
914
914
916
916
914
915
914
911
913
912
912
914
910
913
913
911
911
911
906
909
912
911
910
915
916
914
915
917
915
913
913
912
910
911
914
914
916
916
913
913
913
912
911
910
911
914
914
915
917
917
918
916
915
914
912
912
911
913
913
911
914
916
918
916
916
915
916
915
915
917
918
921
923
924
925
927
922
922
923
922
922
925
928
929
937
939
940
941
942
941
944
942
938
945
943
941
942
940
936
932
929
925
923
921
918
917
916
914
911
911
908
907
907
907
906
905
905
907
908
911
911
914
913
914
911
912
912
912
915
917
922
927
934
946
955
970
989
1011
1036
1064
1099
1137
1169
1197
1224
1249
1272
1287
1277
1238
1173
1092
1009
937
889
861
855
856
864
872
873
879
879
882
881
882
885
884
885
883
882
881
878
876
876
874
876
875
875
875
877
879
879
877
874
872
870
870
871
872
870
872
874
873
871
871
867
867
863
863
865
864
865
865
865
863
864
863
858
859
855
851
852
851
850
852
852
853
850
849
847
844
844
840
841
844
844
847
849
850
850
850
847
849
848
849
852
853
858
861
866
867
871
873
873
877
875
878
881
885
888
894
898
900
901
903
901
902
901
901
906
906
908
910
912
913
913
912
909
909
905
907
908
907
910
909
908
909
909
909
906
905
903
905
903
900
902
899
902
904
902
902
897
896
896
895
895
897
896
897
897
900
902
900
900
900
897
892
889
883
884
886
895
909
927
953
978
1001
1020
1032
1038
1039
1034
1016
994
964
932
904
882
865
844
822
798
771
750
736
730
729
732
744
755
766
778
786
792
798
803
810
823
833
838
848
857
862
867
872
878
883
890
892
893
892
892
890
888
889
888
889
890
889
890
892
894
894
894
893
892
892
890
891
891
890
892
894
894
896
894
895
896
894
895
896
898
901
902
905
907
912
914
915
916
920
923
928
930
935
940
945
951
957
962
966
970
975
981
984
991
997
1001
1008
1012
1014
1017
1018
1017
1015
1012
1011
1013
1010
1009
1007
1005
1003
996
993
989
984
978
973
970
967
965
963
960
957
954
949
945
942
938
936
934
928
928
932
930
929
930
925
923
922
921
920
918
918
920
922
922
922
922
918
917
919
916
915
915
916
918
920
920
922
921
918
918
917
917
916
916
917
919
920
922
921
922
919
917
914
912
912
915
917
916
917
919
919
918
919
915
915
913
909
908
910
916
916
917
917
913
913
912
911
910
908
909
912
913
915
917
916
917
916
914
915
914
914
913
914
913
915
917
917
914
915
916
914
914
912
912
912
913
916
