1283
1307
1315
1294
1244
1168
1086
1006
937
889
863
855
856
863
867
867
874
877
878
879
880
880
876
875
875
872
871
871
872
873
873
876
874
873
874
869
867
867
866
866
868
868
868
870
868
867
866
863
862
861
858
856
855
855
858
860
859
857
855
855
853
847
844
848
847
849
850
850
847
845
843
841
839
838
835
832
833
833
834
838
836
837
834
833
831
831
831
830
833
835
837
838
837
836
837
836
839
841
842
843
847
852
855
861
861
864
867
874
874
878
880
886
890
892
894
897
900
899
901
902
901
903
905
904
905
904
907
910
910
910
909
908
909
907
906
907
906
909
908
910
908
909
908
908
906
904
903
903
901
902
902
901
902
901
903
901
899
898
898
898
894
899
901
902
903
905
901
904
903
900
900
902
902
900
902
902
902
905
910
918
934
957
986
1010
1034
1053
1066
1073
1071
1061
1042
1011
979
953
931
914
894
870
847
823
801
787
779
776
778
785
791
798
802
805
806
805
807
811
815
822
827
831
835
844
854
864
876
885
892
896
900
902
899
899
899
899
902
903
905
908
909
906
906
905
903
901
901
905
903
905
906
905
905
906
908
905
904
905
905
902
908
907
910
913
909
912
913
913
911
914
915
919
925
931
938
943
945
950
955
959
960
965
972
974
980
990
992
1002
1003
1007
1009
1014
1017
1019
1020
1023
1024
1025
1025
1027
1027
1026
1022
1019
1016
1010
1008
1007
1008
1006
1004
999
995
992
985
982
977
975
968
967
963
960
960
961
957
954
950
947
945
942
941
940
940
940
941
939
940
937
937
932
931
929
931
930
933
933
935
935
938
934
934
934
931
931
932
932
933
934
932
936
933
935
934
933
931
931
929
928
928
931
932
932
930
929
929
929
927
927
927
927
927
929
929
930
930
930
929
927
926
924
925
926
927
928
931
929
931
930
927
926
924
924
924
922
926
927
929
929
930
930
930
927
925
924
923
925
925
927
929
929
929
927
926
926
924
923
925
929
925
927
929
929
930
931
933
931
933
930
930
931
933
933
936
938
937
938
939
940
939
941
943
946
947
953
956
958
957
955
951
951
947
946
944
940
941
936
936
934
932
930
927
923
917
915
913
914
914
918
918
921
922
922
923
922
922
920
919
920
923
925
928
932
937
942
949
961
977
993
1016
1042
1075
1113
1153
1186
1213
1232
1253
1276
1303
1319
1312
1272
1199
1112
1022
944
890
860
856
861
873
884
895
898
902
903
902
901
903
901
899
897
895
894
894
894
893
894
894
893
894
893
893
890
889
887
889
887
887
888
889
891
892
890
886
884
882
879
876
876
877
878
878
883
879
876
874
870
868
868
866
867
867
866
866
865
865
862
859
859
857
856
855
854
856
855
857
858
858
858
860
858
860
858
859
863
863
867
872
875
879
882
885
885
888
892
895
897
904
908
913
917
920
922
921
923
924
921
922
926
925
928
927
929
927
929
928
926
924
925
921
923
926
927
927
926
927
923
923
923
922
919
920
916
916
918
918
920
920
919
918
913
915
917
916
919
920
918
917
916
912
907
903
902
907
913
927
945
971
998
1023
1045
1058
1068
1074
1077
1071
1058
1038
1013
987
964
948
931
917
899
872
842
812
787
772
763
765
776
786
799
810
816
821
821
822
824
831
837
845
852
861
871
877
883
887
890
894
895
899
901
902
902
904
903
904
904
905
903
902
902
902
903
905
903
903
903
905
904
903
903
900
901
902
900
902
902
906
907
908
906
905
907
905
905
907
910
912
914
921
923
923
928
931
934
938
943
946
951
956
965
972
979
984
988
992
995
997
1000
1005
1009
1010
1016
1017
1021
1023
1024
1023
1020
1019
1016
1013
1011
1008
1007
1006
1003
996
997
988
985
979
974
970
965
966
963
960
961
958
956
951
946
945
942
939
937
938
937
938
937
937
936
935
933
931
929
929
926
926
926
931
931
932
933
933
929
931
930
928
929
931
931
934
935
935
934
931
930
929
929
929
926
927
928
928
929
931
927
927
927
925
926
923
923
922
923
923
924
924
924
924
926
923
922
922
921
922
922
924
925
927
923
923
918
920
919
918
917
919
920
921
920
919
920
921
919
918
918
916
917
918
919
920
922
921
921
920
918
918
915
916
917
918
919
918
920
922
920
923
923
923
921
922
919
924
926
926
928
929
931
930
930
927
928
931
930
933
938
940
943
946
945
946
945
942
941
938
936
936
933
929
929
926
923
922
918
915
911
907
906
906
906
906
911
912
910
912
911
908
909
909
910
911
912
914
916
917
919
920
921
923
928
937
947
962
979
1000
1026
1052
1087
1123
1155
1186
1213
1235
1262
1286
1311
1317
1298
1248
1177
1093
1007
935
887
861
856
861
869
878
886
890
891
889
887
883
881
879
877
880
880
880
881
879
879
878
877
874
873
873
872
873
874
874
876
874
872
871
869
869
867
866
867
867
868
870
869
868
866
866
863
860
857
857
855
855
857
858
860
857
857
852
850
849
848
845
845
843
842
843
842
843
844
841
838
834
832
830
834
833
835
837
837
838
838
838
838
837
837
839
838
840
843
846
852
855
857
859
862
866
866
870
873
877
882
888
890
890
893
895
897
896
897
897
898
899
901
901
906
906
904
905
903
902
900
899
903
903
905
906
905
908
906
907
904
902
902
902
903
901
903
902
900
900
900
900
900
895
893
894
894
892
893
894
895
893
893
894
894
894
896
894
892
892
888
889
888
893
898
911
928
953
977
1003
1026
1043
1053
1059
1057
1045
1021
993
965
942
923
905
887
868
848
823
805
788
778
776
778
785
794
800
809
818
824
824
828
830
836
841
846
851
856
861
866
872
879
883
886
890
890
890
887
885
886
882
886
887
888
889
892
892
891
890
889
885
884
881
885
886
886
887
889
889
889
887
884
884
885
886
885
884
887
887
890
894
892
891
893
896
898
899
905
906
909
911
919
922
926
930
930
936
937
941
945
953
960
963
971
976
978
982
986
990
989
992
994
996
999
1000
1004
1003
1002
1000
994
991
988
983
981
979
977
975
973
967
963
959
955
950
945
940
939
935
936
935
934
933
932
929
929
925
922
922
920
921
921
920
923
926
924
923
921
922
919
919
918
919
920
923
925
925
924
923
921
920
918
919
921
920
921
922
925
926
924
923
922
923
922
922
921
923
923
921
922
924
924
923
919
921
918
919
919
920
917
922
924
922
921
917
918
918
919
918
918
920
920
925
924
924
922
923
920
920
918
920
919
920
922
923
924
923
923
925
920
922
920
922
920
920
922
924
925
924
924
922
920
918
918
919
920
922
924
924
927
926
926
924
923
925
922
922
923
922
923
926
928
930
931
931
931
931
931
930
928
932
933
936
940
940
942
945
944
946
949
949
947
950
953
956
957
956
950
950
943
942
938
936
934
933
932
930
928
927
922
920
917
917
918
917
920
918
920
921
923
924
924
924
924
924
925
926
931
935
941
950
961
974
987
1005
1023
1045
1073
1104
1139
1173
1207
1234
1263
1292
1322
1331
1307
1248
1160
1061
972
907
870
857
865
877
890
899
904
906
903
899
895
893
893
892
896
895
893
894
896
893
891
892
890
889
890
891
892
892
889
888
887
886
885
884
884
884
884
885
887
888
882
881
881
880
880
878
877
876
876
877
876
874
872
870
869
870
868
867
865
866
866
866
864
864
865
861
857
854
854
852
855
851
855
855
859
863
859
860
859
859
858
859
862
865
870
873
878
880
883
884
886
889
887
892
894
899
904
910
911
916
918
919
919
919
920
922
920
923
925
928
929
929
929
929
928
927
927
924
922
926
925
927
928
930
927
926
926
925
925
922
919
920
925
924
924
923
922
917
915
915
917
916
913
915
915
916
916
918
919
919
917
917
917
916
912
908
904
901
904
909
915
929
945
971
996
1022
1041
1055
1068
1074
1076
1067
1047
1017
983
957
933
917
901
878
856
829
800
777
766
760
758
766
775
787
792
800
808
809
811
815
817
821
824
834
838
844
851
859
866
875
881
886
890
896
898
901
904
904
905
906
908
909
910
912
911
909
904
908
907
908
906
906
909
909
909
911
912
910
909
905
906
904
910
909
908
909
912
917
916
916
916
917
918
918
921
928
934
936
942
944
949
957
959
964
966
972
979
984
990
997
1005
1008
1012
1016
1019
1021
1023
1023
1025
1026
1026
1029
1028
1029
1027
1024
1018
1019
1015
1011
1008
1004
1004
998
996
992
989
982
978
974
968
961
960
957
955
952
951
948
942
941
939
940
938
936
935
936
934
934
937
937
936
935
934
933
933
933
931
933
935
936
937
938
937
936
934
933
933
934
933
934
935
934
935
936
934
935
930
929
930
926
928
929
930
933
932
933
932
930
930
928
923
926
924
923
926
928
927
928
930
928
926
925
922
923
923
918
923
922
925
928
926
928
924
919
917
916
917
918
919
923
923
924
922
923
923
921
919
919
918
918
920
920
921
924
923
920
919
921
918
919
920
921
921
921
922
927
927
927
927
925
926
925
924
924
927
931
930
933
936
936
936
938
937
940
943
945
947
949
950
950
946
945
944
942
940
935
933
932
929
930
927
925
922
921
917
914
911
909
910
912
913
917
918
920
921
921
923
925
927
926
935
940
948
958
968
977
988
1003
1017
1040
1062
1088
1117
1151
1190
1235
1284
1329
1366
1393
1409
1414
1415
1416
1417
1410
1385
1337
1266
1180
1088
1006
943
904
886
885
889
892
896
893
887
883
877
872
868
866
864
863
861
861
859
859
856
859
856
856
852
848
846
844
843
844
844
843
842
841
841
838
836
834
831
829
826
824
824
824
822
818
817
816
812
809
806
803
803
800
798
797
798
796
794
789
788
783
780
778
774
772
777
772
774
774
772
769
769
767
765
765
764
765
767
769
773
775
777
780
781
785
783
788
792
796
802
810
815
822
827
830
834
839
842
846
847
850
857
861
865
869
867
868
870
869
870
870
871
874
874
875
877
878
877
878
876
874
873
873
873
874
874
874
875
875
873
873
871
871
867
867
867
866
868
869
871
872
871
872
870
872
871
869
871
872
877
880
884
888
887
890
889
886
883
884
889
899
918
944
977
1009
1038
1060
1076
1083
1077
1059
1034
1005
980
958
938
915
889
860
834
808
790
780
779
778
784
791
797
802
802
803
802
804
807
812
821
826
833
841
849
859
864
870
875
879
881
884
885
884
886
886
888
887
889
890
890
888
886
884
885
886
886
888
888
890
887
889
889
887
884
882
885
884
887
886
888
889
891
892
892
894
892
895
895
898
905
907
912
918
921
925
929
935
939
943
947
952
959
966
972
980
984
990
995
998
999
1001
1004
1006
1010
1010
1014
1015
1014
1012
1010
1007
1008
1006
1004
1004
1002
1000
997
997
993
988
984
978
974
971
965
961
960
958
954
951
947
947
939
935
932
930
928
930
930
926
929
930
926
923
924
922
919
917
918
920
922
922
924
924
925
925
923
920
920
917
916
917
918
918
920
923
920
923
922
917
920
918
918
918
920
920
922
924
924
923
921
921
917
917
916
916
917
918
918
922
921
919
918
917
916
913
915
914
914
912
915
915
917
915
915
910
911
910
911
912
912
913
913
914
916
916
915
914
913
913
913
914
913
914
916
918
919
919
919
919
918
919
920
924
923
925
926
927
929
930
929
929
931
931
932
936
939
942
943
945
946
944
942
939
935
934
930
930
930
930
929
927
925
921
921
912
910
904
903
903
904
901
903
900
901
904
903
903
903
901
902
903
905
906
911
913
914
917
920
920
927
935
951
964
986
1008
1036
1067
1099
1132
1160
1184
1207
1231
1261
1289
1312
1315
1286
1232
1155
1065
980
916
874
852
850
858
868
874
880
883
880
879
880
881
882
879
878
878
877
877
878
874
874
876
875
874
875
872
871
871
873
874
872
872
873
872
870
869
867
866
867
865
862
863
865
864
862
863
859
859
856
855
855
854
855
855
855
855
853
853
849
849
846
845
844
844
843
842
842
844
843
840
840
836
833
832
832
831
834
834
836
837
837
838
837
838
836
835
838
837
842
843
845
846
850
851
853
852
854
854
858
862
866
868
874
878
881
883
882
886
886
888
890
894
894
897
901
904
904
907
905
906
904
903
905
904
905
907
908
909
907
909
909
906
907
905
904
904
906
907
905
907
907
908
905
904
902
900
901
901
901
903
901
903
902
900
898
896
896
895
895
897
896
899
902
902
902
904
905
906
906
905
903
903
903
904
907
913
923
935
956
974
999
1021
1039
1054
1063
1069
1069
1066
1052
1032
1004
980
961
938
923
900
874
844
818
797
783
777
775
780
783
791
795
798
801
801
803
805
810
819
824
830
839
844
852
861
871
880
888
893
897
901
899
899
896
899
895
896
896
900
899
901
900
899
900
898
896
896
897
898
899
900
903
904
902
905
900
899
897
897
897
898
899
902
904
908
908
910
911
914
913
912
920
923
930
935
942
947
953
962
965
969
975
979
985
990
998
1003
1008
1013
1017
1018
1019
1020
1020
1019
1016
1016
1016
1015
1013
1012
1008
1007
1002
998
992
987
981
979
977
972
973
971
969
965
960
956
953
951
947
946
945
945
944
945
942
939
938
937
936
934
933
932
934
935
936
937
936
935
936
934
934
931
934
933
936
936
937
940
940
939
935
935
934
934
933
934
935
933
935
937
938
937
937
935
932
932
934
932
932
933
936
935
935
933
932
933
930
931
932
930
931
931
933
932
932
931
931
930
929
928
927
929
929
931
931
933
932
931
928
927
927
927
928
930
931
932
934
934
934
933
927
927
927
927
927
927
930
932
932
936
937
935
937
935
935
935
936
937
939
940
943
944
945
950
949
950
950
952
952
954
956
958
959
959
956
955
953
951
945
942
939
939
936
936
937
936
935
929
927
921
920
917
916
919
922
923
924
926
927
926
925
924
923
923
923
926
928
931
935
937
942
947
954
964
973
990
1009
1032
1060
1094
1131
1169
1202
1229
1251
1278
1301
1308
1283
1225
1144
1055
971
910
872
859
861
871
882
890
895
897
899
902
899
900
901
895
891
889
888
888
890
891
893
892
893
893
892
894
893
891
888
885
885
883
885
883
886
886
884
883
883
881
879
874
877
875
875
875
874
877
874
871
872
871
867
865
865
865
865
865
864
864
861
861
860
858
854
854
852
850
850
852
853
856
854
854
856
854
856
855
855
859
861
864
868
872
875
877
878
880
882
886
886
893
893
898
905
910
912
913
913
913
914
915
918
918
920
921
925
925
923
922
922
921
920
919
918
918
920
921
921
923
925
923
922
918
916
916
915
915
916
917
915
918
916
915
915
912
911
908
907
908
908
910
912
916
917
918
914
913
908
905
903
901
906
915
930
954
977
1004
1029
1051
1063
1071
1072
1062
1047
1022
992
968
949
932
919
903
879
852
827
806
790
781
776
776
784
790
796
801
802
805
807
806
808
814
822
829
836
845
849
851
858
862
870
877
885
892
894
896
898
898
895
897
893
893
894
896
897
897
898
898
899
899
898
897
894
896
896
893
895
898
898
899
899
899
896
893
896
896
897
897
899
900
902
905
906
908
908
910
910
913
916
918
923
928
932
936
941
944
947
953
956
960
961
970
977
982
989
994
996
999
1003
1006
1007
1008
1009
1009
1012
1013
1012
1012
1008
1006
1004
999
997
991
986
983
980
977
973
971
967
964
959
953
952
948
945
942
942
940
941
937
934
933
930
927
928
927
923
923
923
925
925
925
927
923
924
924
922
922
922
923
922
922
924
927
926
925
923
923
921
921
920
922
922
920
923
922
923
925
924
923
921
920
918
919
919
921
922
918
922
922
921
920
917
914
914
915
915
917
917
919
921
919
916
917
914
913
915
913
915
915
917
918
917
917
916
916
915
914
913
913
916
916
919
918
916
915
916
915
914
912
910
912
915
916
917
920
918
918
918
917
914
913
915
918
919
920
925
923
924
928
927
926
926
923
925
929
927
933
933
937
937
941
941
940
940
941
940
941
937
937
936
935
935
929
924
922
918
913
912
910
908
908
907
908
907
907
905
905
905
903
903
905
906
910
912
915
920
922
924
928
931
935
942
950
958
970
982
998
1019
1036
1062
1086
1115
1148
1185
1223
1265
1304
1333
1357
1374
1386
1397
1401
1384
1339
1266
1177
1078
994
933
903
889
890
894
897
896
893
888
879
874
870
867
864
867
866
864
863
861
859
856
855
854
853
854
856
855
852
851
849
847
844
843
841
841
841
840
838
839
839
837
833
830
827
826
825
823
824
824
825
822
821
818
815
811
810
804
804
801
799
799
801
798
795
791
788
784
780
778
779
777
777
777
776
775
773
775
773
772
773
773
775
780
779
783
790
792
797
799
802
806
812
815
821
826
832
839
845
851
857
857
862
860
864
864
866
872
872
874
877
877
880
878
879
879
879
880
881
882
882
884
885
884
881
885
