957
963
968
975
981
985
990
990
996
997
1000
1000
1002
1004
1005
1011
1010
1008
1006
1003
1002
1000
996
996
993
992
990
987
984
981
976
972
966
964
961
958
953
951
950
947
947
942
938
933
931
925
924
922
922
925
926
926
927
927
927
925
923
922
920
919
920
920
922
924
923
926
927
922
921
919
920
919
920
920
924
926
926
922
922
923
923
922
921
922
923
922
924
924
924
921
922
919
918
920
917
917
916
918
919
923
922
920
921
921
917
917
916
918
917
920
918
920
921
918
919
918
918
912
917
916
917
915
916
918
920
921
921
918
917
919
914
915
912
919
919
922
921
921
921
919
915
914
916
916
914
917
918
921
921
921
922
922
922
923
922
923
924
924
925
927
925
927
927
927
927
930
930
932
934
935
936
940
947
947
948
945
944
943
943
940
940
937
936
934
933
933
929
924
921
915
913
908
911
908
908
909
908
909
907
907
907
907
911
912
913
913
915
917
917
919
921
921
925
929
935
945
960
975
993
1015
1040
1067
1099
1134
1163
1189
1208
1228
1247
1271
1290
1286
1255
1193
1111
1023
948
891
859
845
849
858
867
881
884
886
887
887
886
884
883
882
884
882
883
884
883
882
880
875
876
876
875
874
874
877
877
879
879
878
876
874
873
871
869
868
868
871
872
872
873
871
869
867
863
862
859
857
859
860
860
859
858
856
856
855
857
853
850
849
852
852
850
847
851
850
850
849
846
848
847
846
849
852
852
854
855
854
855
854
858
859
858
864
867
871
872
878
879
880
886
889
891
895
897
900
903
907
908
909
913
913
915
914
914
912
912
911
914
914
914
915
916
918
915
912
913
906
905
907
907
908
907
911
912
908
906
906
906
903
904
899
902
904
905
903
907
908
908
908
909
907
903
899
894
891
890
890
896
905
924
948
978
1006
1029
1044
1050
1054
1040
1019
987
951
915
890
863
832
798
767
739
726
726
734
752
766
779
791
794
796
801
805
811
819
829
839
847
854
859
868
873
877
882
886
886
890
893
896
896
896
895
894
896
895
893
896
896
895
898
897
898
898
899
898
894
895
893
895
896
897
896
898
900
901
902
901
902
901
902
905
907
911
914
917
923
926
929
933
937
939
943
947
953
962
970
978
985
989
993
998
999
1001
1006
1010
1014
1015
1018
1021
1023
1023
1024
1024
1021
1017
1017
1014
1013
1012
1013
1010
1008
1004
999
996
990
986
982
977
975
971
967
968
964
961
957
952
948
944
941
941
939
938
935
937
939
934
934
931
929
929
924
923
924
925
928
929
929
927
925
925
924
924
923
920
921
924
923
924
926
925
927
927
926
925
924
922
923
923
925
924
924
923
922
918
918
918
915
917
919
921
921
923
923
922
924
920
919
919
916
918
917
918
918
920
921
920
921
919
918
917
917
918
916
916
919
919
922
919
918
916
915
915
916
917
915
918
919
918
920
921
921
919
917
917
915
916
916
918
919
921
922
920
921
919
919
919
919
919
919
923
926
927
927
927
928
925
926
929
925
924
926
928
935
936
937
939
943
939
942
944
946
943
942
946
945
944
942
941
941
938
935
933
929
927
924
921
920
920
916
915
912
911
907
907
904
903
905
907
907
912
914
912
915
915
911
911
910
913
916
921
924
931
940
954
970
988
1010
1032
1062
1099
1136
1168
1196
1219
1239
1259
1284
1302
1306
1285
1232
1161
1077
994
929
885
862
857
863
868
875
878
880
879
880
882
883
883
884
884
882
881
878
874
873
874
875
874
876
878
880
878
878
874
874
871
870
870
870
870
870
872
871
873
871
870
869
865
864
863
864
863
863
865
865
863
862
860
858
854
853
850
850
851
851
852
852
852
849
846
847
844
841
841
841
843
840
843
845
844
843
842
841
841
838
836
838
838
842
845
849
851
852
850
850
852
854
856
859
863
868
871
874
876
877
880
882
884
886
888
891
891
897
899
902
903
902
903
903
902
901
903
902
904
904
905
907
906
906
902
903
901
901
900
902
901
903
904
902
902
899
897
898
897
895
895
895
896
895
896
897
896
896
894
896
894
894
894
895
891
892
891
891
890
894
901
911
928
953
979
1003
1025
1041
1055
1058
1058
1048
1028
1000
972
945
924
902
877
851
826
801
783
779
775
780
790
797
805
811
813
816
818
823
827
833
838
845
849
854
858
863
873
878
885
885
889
887
887
884
879
884
884
883
884
886
887
889
888
887
888
885
885
883
885
886
885
886
885
889
888
889
888
888
888
889
889
889
890
894
895
898
900
904
906
909
912
913
920
924
929
938
942
950
955
959
963
964
973
975
983
985
990
993
998
1004
1005
1005
1007
1006
1005
1005
1003
1001
1001
999
996
995
994
990
982
983
975
974
969
964
963
959
960
957
953
948
946
940
939
934
930
930
929
930
928
929
928
926
924
922
919
918
917
918
918
918
918
920
921
918
916
919
913
915
915
916
916
915
920
920
919
920
917
919
916
916
916
916
918
919
919
918
919
915
915
916
916
916
916
916
916
916
918
916
918
919
917
916
915
914
915
915
915
915
914
916
918
918
915
915
912
912
913
912
914
912
915
916
915
914
912
915
913
913
913
913
915
915
915
918
917
917
916
915
911
912
910
908
912
912
914
914
917
917
915
915
914
913
914
913
915
915
918
918
920
919
919
918
917
917
919
919
921
923
926
929
928
930
930
932
934
935
933
939
939
942
942
947
947
946
943
939
935
932
930
929
928
923
923
922
921
919
915
912
906
905
901
901
901
901
904
906
906
906
904
905
904
903
905
906
906
909
910
915
915
917
921
927
933
946
959
979
997
1023
1050
1081
1114
1142
1171
1198
1221
1245
1278
1299
1292
1258
1190
1103
1009
929
876
849
846
853
864
877
883
883
884
885
888
886
885
885
885
881
881
878
881
881
881
883
884
881
883
880
879
877
877
876
877
878
880
879
879
878
876
875
874
872
871
873
871
871
873
872
872
870
868
868
865
859
861
861
861
861
862
860
859
856
857
856
854
851
848
847
847
847
849
849
849
848
847
848
845
844
847
846
851
852
852
854
857
856
856
859
859
862
863
866
871
876
880
884
888
891
893
894
895
898
899
901
905
906
910
912
913
914
914
914
913
911
913
913
913
913
915
916
916
917
915
916
913
913
911
912
912
915
913
915
916
914
913
912
910
908
908
908
907
910
911
911
912
909
906
905
905
904
906
904
905
907
910
911
913
911
910
907
903
897
892
892
896
906
921
941
967
992
1017
1035
1047
1050
1052
1047
1039
1019
995
969
941
920
900
881
863
839
819
795
780
769
766
771
777
785
791
798
801
805
807
805
808
816
824
830
838
843
850
855
861
866
871
878
888
895
900
902
902
904
902
901
900
897
898
900
901
901
901
902
901
903
902
901
902
899
900
901
903
903
905
908
907
908
907
908
907
909
911
916
918
923
928
934
939
943
942
946
947
954
958
965
971
978
984
990
996
999
1002
1006
1009
1012
1014
1017
1019
1023
1026
1028
1029
1030
1028
1026
1020
1021
1018
1014
1011
1010
1006
1003
999
994
987
983
979
975
969
966
964
960
959
955
952
952
948
942
940
940
935
937
933
935
937
936
935
933
932
931
930
928
928
928
929
928
933
932
931
931
931
929
928
924
926
927
928
930
930
930
928
929
929
927
926
926
926
925
926
927
929
929
929
928
926
923
924
923
920
923
923
922
924
923
924
925
924
921
921
919
918
919
920
921
922
925
924
923
923
922
920
919
919
918
919
920
921
923
923
919
918
915
917
918
919
918
920
922
919
922
923
920
920
920
918
916
915
916
918
919
921
923
923
922
920
918
918
918
919
919
921
921
922
926
923
924
925
926
927
927
927
927
930
928
930
932
935
937
939
942
945
943
945
948
948
947
945
945
943
941
939
937
937
933
929
926
928
927
924
924
921
918
916
912
912
912
910
912
913
913
917
917
917
918
916
914
918
917
916
920
924
928
934
940
946
957
968
982
999
1019
1041
1071
1106
1142
1176
1200
1213
1229
1245
1265
1288
1299
1286
1243
1173
1092
1002
928
876
849
845
853
868
881
889
895
897
899
895
895
892
891
889
889
887
887
886
885
885
887
888
887
886
887
885
883
884
881
881
879
882
880
881
883
881
879
880
878
875
876
872
869
870
870
870
871
871
870
868
868
866
865
862
862
863
864
862
863
860
859
858
857
855
853
851
852
853
855
855
859
858
861
860
859
861
860
861
865
868
870
874
879
884
883
889
893
894
898
903
903
906
910
912
916
920
920
919
918
917
918
918
919
920
924
921
922
922
921
920
917
917
918
919
917
920
920
921
922
923
922
918
916
916
915
914
913
914
914
916
917
914
913
913
909
907
905
905
905
907
908
908
914
915
914
914
910
903
899
898
904
913
934
963
995
1025
1050
1067
1076
1076
1067
1049
1024
994
968
947
926
907
885
857
825
799
780
770
769
771
779
792
802
808
810
810
810
811
812
815
820
830
837
844
852
858
862
866
870
878
882
886
893
897
901
903
906
903
902
900
900
901
900
896
897
900
901
901
902
903
904
903
901
899
900
897
900
900
903
904
905
907
907
905
908
907
905
905
912
917
920
924
930
933
936
939
944
945
950
954
958
968
973
980
984
992
995
999
1002
1003
1007
1010
1012
1016
1020
1022
1026
1024
1025
1023
1022
1022
1020
1017
1016
1014
1010
1011
1008
1003
999
994
990
983
979
975
971
967
963
963
958
956
952
950
947
943
942
940
938
935
937
937
936
935
935
931
933
930
930
927
929
928
928
932
934
932
932
930
930
930
930
928
930
931
932
932
933
934
932
931
930
929
926
928
928
929
929
930
930
932
930
929
928
925
925
926
928
926
926
928
928
929
928
925
926
924
924
924
924
922
926
923
924
926
925
924
925
920
917
920
922
921
925
925
926
926
926
925
923
922
921
921
920
923
923
925
926
926
925
924
924
922
921
922
921
922
923
923
924
922
926
923
925
926
925
925
926
927
929
931
933
934
934
934
933
932
932
932
933
934
938
940
942
944
943
945
947
947
948
949
950
951
949
950
951
949
946
939
941
934
931
929
925
925
924
922
921
917
917
915
913
911
912
914
914
915
916
917
921
920
920
921
920
919
922
922
925
929
933
940
948
958
969
986
1003
1022
1043
1068
1098
1129
1161
1183
1209
1229
1248
1271
1296
1309
1301
1266
1205
1127
1047
977
925
893
875
875
879
881
887
888
890
892
892
897
899
897
896
895
892
889
887
885
886
888
888
889
890
888
887
887
883
884
883
879
880
880
880
884
884
884
884
879
879
877
875
874
874
875
873
875
873
872
871
868
868
866
867
864
865
864
862
863
864
862
862
861
859
857
853
851
854
854
852
853
856
854
854
855
856
854
852
851
852
851
856
857
859
862
862
864
863
865
867
867
872
874
879
885
890
893
896
899
899
903
903
905
906
908
912
915
913
917
919
916
915
914
914
914
915
915
919
920
922
920
921
921
920
918
917
917
915
915
915
917
916
917
917
918
914
914
913
910
912
912
913
914
914
911
911
908
910
907
907
905
904
906
908
911
914
914
916
915
910
908
905
903
906
911
922
943
969
999
1027
1050
1068
1074
1075
1065
1047
1021
994
966
946
930
912
889
864
838
817
802
794
790
793
801
809
815
820
825
824
826
824
823
830
838
843
852
857
862
867
871
874
879
886
893
896
903
906
909
908
911
908
907
909
907
908
908
908
908
910
909
913
914
913
912
911
910
909
906
907
910
912
911
913
913
909
908
911
913
911
912
915
918
919
923
929
932
933
937
940
944
947
951
952
960
963
970
977
982
988
994
998
1003
1007
1010
1011
1017
1017
1020
1025
1030
1030
1028
1028
1027
1025
1023
1023
1020
1019
1016
1016
1012
1008
1004
999
993
991
986
983
975
973
974
974
970
967
963
958
955
952
948
949
946
947
946
945
946
943
944
943
940
938
938
937
938
938
941
940
941
941
941
939
938
937
937
937
937
937
934
938
941
941
940
940
939
937
937
936
936
938
939
940
939
939
940
937
936
933
931
934
933
934
935
938
937
937
936
936
934
933
934
931
932
933
932
937
937
937
936
933
935
935
935
937
938
939
940
943
944
944
944
944
943
943
942
945
946
946
947
954
956
957
958
959
959
959
959
956
955
953
950
949
949
946
943
938
933
930
929
926
924
924
925
924
925
923
926
924
924
922
922
922
922
924
922
924
926
926
927
928
928
926
927
928
931
933
937
943
953
960
972
981
994
1013
1035
1061
1091
1125
1155
1186
1207
1226
1243
1263
1287
1296
1275
1222
1140
1050
966
903
869
856
862
872
885
891
894
898
900
900
901
898
901
900
896
897
895
894
890
893
894
894
895
896
895
894
893
888
885
885
884
888
885
888
887
890
888
887
884
883
884
880
879
877
879
879
878
880
878
879
879
874
874
871
870
868
866
868
866
867
866
864
863
862
861
859
857
859
858
858
860
862
863
865
866
865
866
866
867
871
872
878
880
885
888
890
895
898
900
902
903
907
911
915
917
921
924
925
923
923
925
922
923
924
926
927
928
930
930
930
927
925
924
924
923
924
923
925
924
923
925
924
922
918
920
918
915
915
915
915
916
918
914
913
917
912
911
908
911
912
914
916
917
919
918
915
911
907
904
907
915
932
955
985
1012
1036
1054
1060
1062
1053
1037
1009
976
943
913
891
871
851
827
794
767
741
724
720
722
729
738
752
766
777
784
789
793
794
799
802
811
820
827
839
849
859
870
876
882
888
896
904
912
918
920
923
924
922
919
919
917
916
915
912
912
911
907
909
909
910
911
912
911
909
908
906
908
909
908
909
911
912
913
914
916
917
916
918
918
919
920
925
928
935
939
945
949
951
954
958
961
969
971
978
984
991
996
1000
1001
1003
1008
1009
1013
1017
1023
1025
1030
1033
1034
1037
1037
1036
1033
1030
1028
1028
1025
1025
1025
1018
1019
1014
1007
1005
998
994
991
985
983
982
980
976
973
970
966
962
957
957
954
951
949
950
946
947
949
947
946
947
944
942
939
938
938
939
940
942
943
941
941
941
940
940
937
935
939
938
940
941
942
941
942
941
938
937
937
937
938
939
938
937
938
940
935
937
938
935
933
933
932
935
935
938
939
936
936
935
935
933
932
932
933
933
934
935
936
933
932
932
930
928
930
929
932
931
933
933
934
931
933
933
928
928
927
928
927
930
932
932
933
932
929
930
931
928
926
926
928
931
932
933
932
932
932
931
930
929
926
926
927
928
931
933
933
932
931
930
928
927
927
925
927
927
928
931
930
928
929
930
927
929
924
922
923
925
926
928
931
930
930
928
927
924
927
928
929
934
936
938
941
940
939
937
939
935
935
936
941
942
946
945
948
949
954
955
956
954
956
954
953
955
953
954
952
950
947
942
938
935
934
931
931
930
929
929
927
926
923
919
918
918
917
918
920
916
921
923
923
923
923
926
924
926
929
931
935
941
949
959
976
992
1011
1035
1067
1100
1134
1171
1202
1226
1249
1277
1306
1323
1324
1292
1234
1154
1072
991
932
891
871
868
875
881
887
889
892
892
893
892
894
893
893
894
894
892
890
891
888
886
885
883
883
885
885
888
887
887
884
884
883
880
881
881
880
880
880
881
883
879
877
875
873
872
869
869
868
873
869
871
872
871
871
870
865
862
860
859
861
860
862
862
862
861
861
858
854
852
850
853
852
851
852
854
855
855
854
853
853
853
852
853
852
852
860
863
865
865
865
867
868
870
871
874
876
880
880
886
891
894
897
899
899
899
901
904
906
908
910
913
915
915
916
916
914
912
912
911
913
914
916
912
915
914
916
915
910
912
911
907
909
909
907
908
912
910
907
905
906
903
904
902
902
904
905
907
905
904
903
904
904
901
900
899
899
896
896
897
899
908
920
938
958
985
1006
1026
1042
1054
1061
1064
1059
1045
1023
996
971
947
926
905
885
864
834
810
790
774
767
771
777
786
797
805
812
818
820
823
831
838
845
854
862
868
875
884
890
897
903
907
909
907
903
902
897
894
892
891
892
893
895
897
898
896
899
896
894
892
892
892
893
895
896
897
898
896
897
894
892
890
891
890
891
892
893
897
899
901
901
903
906
907
908
909
915
920
924
932
940
943
951
953
959
963
967
973
978
984
990
996
998
1006
1008
1010
1010
1011
1012
1012
1012
1012
1014
1011
1007
1007
1003
999
997
992
988
983
982
979
977
972
971
967
962
959
956
950
946
942
939
937
938
937
936
938
934
930
927
927
926
924
926
926
924
926
927
926
927
925
925
922
921
919
919
921
923
924
927
927
926
926
924
923
921
921
922
923
924
924
926
925
925
925
923
920
919
919
919
921
921
923
924
920
922
920
918
917
915
914
919
920
921
921
921
922
921
920
918
916
912
914
915
916
918
919
917
917
916
913
916
914
913
914
914
914
916
920
919
920
920
917
917
915
914
