1076
1081
1087
1091
1087
1084
1082
1083
1087
1090
1092
1092
1091
1094
1097
1102
1103
1101
1101
1102
1100
1103
1105
1111
1107
1106
1100
1094
1096
1094
1098
1106
1105
1105
1107
1114
1123
1129
1133
1129
1122
1105
1090
1080
1074
1063
1048
1038
1034
1024
1013
1003
998
987
988
989
985
977
965
964
969
967
961
958
954
955
955
959
956
953
956
955
948
948
957
966
968
973
978
988
1000
1009
1016
1017
1021
1026
1036
1043
1040
1037
1041
1043
1045
1042
1040
1042
1044
1045
1047
1050
1057
1061
1066
1070
1074
1068
1066
1068
1070
1074
1079
1083
1088
1087
1090
1094
1098
1101
1103
1104
1108
1118
1122
1116
1105
1104
1114
1127
1132
1135
1132
1132
1135
1138
1145
1154
1160
1157
1151
1143
1134
1122
1110
1095
1077
1060
1047
1037
1031
1034
1033
1031
1025
1022
1027
1037
1040
1029
1018
1017
1020
1019
1012
1009
1003
991
988
983
984
983
981
978
979
976
972
976
992
1004
1006
1009
1015
1021
1031
1039
1038
1034
1032
1034
1030
1033
1042
1043
1043
1038
1045
1052
1055
1058
1059
1063
1061
1054
1053
1056
1062
1070
1081
1091
1095
1094
1094
1100
1111
1114
1108
1107
1112
1126
1129
1124
1116
1116
1120
1124
1128
1134
1136
1136
1142
1152
1160
1166
1162
1154
1150
1148
1144
1129
1105
1086
1073
1064
1052
1042
1031
1015
1007
1001
1000
993
994
999
999
994
993
995
996
989
981
979
983
983
981
977
975
977
981
984
986
986
989
989
995
999
1015
1023
1023
1025
1033
1044
1047
1047
1047
1049
1052
1053
1054
1052
1049
1054
1055
1058
1059
1061
1066
1071
1070
1060
1053
1057
1061
1071
1073
1073
1064
1065
1071
1083
1094
1096
1092
1089
1089
1091
1098
1101
1104
1102
1098
1099
1107
1112
1108
1105
1115
1131
1143
1150
1144
1131
1132
1135
1127
1110
1092
1080
1071
1068
1062
1044
1024
1009
1003
1006
1010
1011
1005
1000
1001
1007
1014
1011
1003
989
983
986
992
992
981
974
969
972
983
990
986
981
980
982
987
990
996
998
1007
1020
1034
1043
1046
1048
1055
1057
1055
1055
1061
1067
1073
1076
1075
1073
1074
1072
1076
1082
1088
1088
1091
1092
1094
1093
1091
1091
1090
1091
1099
1103
1105
1110
1111
1112
1116
1120
1122
1127
1126
1122
1118
1118
1126
1133
1135
1136
1132
1135
1141
1150
1160
1168
1172
1165
1161
1143
1125
1113
1099
1093
1084
1070
1045
1032
1022
1018
1016
1016
1009
1004
999
1002
1003
1000
999
990
984
980
977
974
972
970
970
966
962
955
954
954
958
964
968
969
966
966
975
986
1000
1009
1008
1003
1007
1015
1028
1026
1028
1026
1026
1029
1034
1038
1040
1040
1042
1046
1047
1048
1048
1049
1052
1059
1064
1064
1061
1062
1063
1068
1071
1074
1075
1077
1081
1086
1089
1094
1095
1093
1094
1096
1096
1101
1100
1102
1105
1110
1110
1111
1114
1114
1119
1124
1134
1139
1143
1140
1139
1129
1116
1098
1080
1062
1047
1035
1024
1009
993
979
972
969
973
979
979
974
973
972
968
965
959
950
944
946
947
950
947
942
940
940
943
945
943
947
954
962
967
966
965
969
977
990
996
1000
1001
1004
1011
1017
1019
1016
1010
1005
1010
1020
1027
1028
1025
1021
1021
1024
1028
1025
1022
1018
1021
1025
1026
1024
1021
1021
1026
1034
1035
1035
1033
1028
1025
1026
1034
1039
1038
1039
1039
1043
1044
1040
1041
1042
1049
1050
1050
1048
1049
1054
1063
1067
1072
1083
1089
1089
1080
1075
1063
1046
1025
1015
1003
994
986
973
958
951
950
954
955
953
947
930
921
921
920
916
913
915
918
915
909
908
905
906
908
912
917
917
918
915
914
924
938
953
958
958
959
965
967
974
979
980
980
988
988
980
973
972
974
975
975
971
965
969
977
984
982
975
977
982
988
989
984
980
983
987
986
982
983
981
987
991
991
995
1007
1015
1018
1022
1019
1021
1018
1022
1028
1032
1035
1035
1042
1053
1061
1057
1058
1066
1076
1083
1074
1059
1049
1047
1042
1035
1028
1019
1001
983
979
977
970
958
942
937
942
943
934
931
937
939
939
938
927
908
899
907
927
946
946
930
929
942
943
934
924
928
947
961
970
979
994
1002
1003
995
985
970
977
998
1014
1015
1005
989
974
972
970
967
979
1001
1013
999
979
972
973
980
972
968
973
990
1001
1001
986
970
961
966
986
1006
1003
987
981
991
1003
997
990
997
1017
1026
1019
1006
1022
1054
1068
1057
1046
1042
1039
1040
1034
1028
1015
1012
1013
1002
978
960
969
986
985
977
970
969
960
965
969
958
949
947
947
947
946
945
942
940
944
946
937
935
948
961
959
948
941
958
983
1002
1004
1000
995
984
984
1010
1030
1017
991
980
971
975
994
1010
1012
1010
1003
990
975
978
998
1023
1036
1030
1009
995
991
993
1006
1014
1017
1027
1021
1009
1012
1027
1037
1046
1042
1029
1020
1010
1006
1008
1023
1048
1056
1044
1037
1039
1052
1058
1045
1016
1001
1002
1006
1010
1007
996
983
969
969
984
1002
998
981
962
958
961
969
960
947
951
953
941
933
951
967
968
956
943
946
972
997
993
973
962
969
979
996
1016
1028
1030
1027
1015
1003
1008
1024
1042
1044
1035
1027
1010
997
1001
1014
1023
1020
1017
1021
1037
1034
1021
1002
994
999
1020
1040
1037
1014
989
1001
1036
1054
1043
1026
1034
1038
1030
1023
1023
1039
1060
1058
1038
1017
1011
1023
1052
1065
1061
1052
1048
1049
1054
1055
1042
1024
1013
1011
1017
1019
1012
1001
992
983
979
980
981
991
1007
1010
996
978
971
972
971
960
952
942
952
977
979
965
954
963
977
981
986
994
1005
998
992
999
1012
1026
1044
1056
1056
1053
1046
1041
1035
1038
1039
1043
1042
1038
1039
1037
1036
1035
1037
1040
1037
1033
1026
1033
1038
1032
1019
1022
1040
1061
1062
1048
1038
1049
1062
1063
1047
1022
1020
1042
1073
1083
1075
1062
1054
1046
1042
1037
1044
1056
1068
1076
1072
1063
1053
1041
1037
1043
1052
1059
1047
1022
1000
991
1001
1014
1012
1009
1007
1002
992
987
995
1000
999
993
977
967
968
987
988
973
969
974
982
981
977
968
958
962
981
1003
1010
1005
988
980
994
1018
1032
1028
1027
1032
1028
1029
1035
1038
1040
1039
1036
1040
1030
1015
1017
1032
1048
1045
1042
1039
1034
1024
1021
1033
1044
1042
1031
1031
1033
1033
1026
1024
1037
1045
1049
1046
1045
1040
1029
1031
1037
1046
1047
1038
1034
1041
1044
1049
1053
1066
1075
1066
1057
1058
1055
1040
1021
999
994
1007
1023
1028
1020
1012
1013
1025
1029
1028
1026
1031
1028
1023
1019
1018
1011
999
998
1002
996
981
971
977
988
1000
1011
1019
1016
1014
1015
1020
1011
1006
1014
1027
1035
1041
1038
1036
1033
1032
1025
1020
1013
1005
1003
1007
1014
1017
1014
1008
1014
1020
1025
1023
1028
1031
1031
1040
1035
1034
1030
1027
1026
1024
1031
1035
1025
1014
1014
1017
1019
1035
1040
1040
1034
1029
1033
1037
1038
1038
1035
1032
1036
1037
1026
1012
1007
997
993
994
1001
1005
1001
1001
998
1000
1003
1003
1004
1006
1010
1015
1018
1015
1013
1017
1018
1016
1013
1012
1010
1017
1025
1034
1041
1046
1058
1070
1081
1084
1076
1069
1070
1080
1089
1083
1078
1079
1085
1087
1088
1082
1073
1065
1060
1062
1063
1059
1053
1050
1049
1055
1058
1053
1046
1036
1039
1040
1034
1037
1045
1046
1047
1048
1054
1054
1047
1037
1031
1030
1029
1029
1023
1019
1012
1004
1002
1008
1010
1003
994
996
996
987
975
967
968
967
957
952
948
943
936
932
929
930
935
935
938
938
937
936
936
941
952
960
959
960
958
951
947
952
962
967
969
966
965
972
986
999
1005
1011
1013
1018
1034
1047
1052
1046
1045
1048
1051
1052
1053
1054
1058
1060
1063
1060
1052
1044
1038
1034
1030
1032
1038
1036
1036
1037
1043
1049
1047
1051
1051
1049
1052
1055
1057
1059
1057
1056
1050
1048
1047
1045
1046
1049
1054
1054
1051
1043
1041
1038
1039
1034
1037
1036
1038
1038
1031
1020
1007
997
990
984
972
969
961
955
953
956
961
960
952
949
954
957
957
950
944
944
955
964
970
970
969
974
989
1004
1012
1014
1023
1030
1036
1046
1054
1053
1054
1058
1057
1061
1063
1061
1059
1051
1041
1040
1046
1054
1057
1053
1041
1038
1038
1037
1042
1043
1041
1038
1041
1043
1042
1039
1035
1039
1043
1048
1049
1047
1049
1053
1052
1048
1045
1044
1040
1044
1047
1048
1055
1055
1055
1051
1048
1047
1043
1038
1040
1040
1036
1032
1032
1023
1009
1005
1003
1004
998
992
993
997
998
993
988
977
971
967
971
967
962
955
943
941
945
943
940
935
932
945
962
976
980
981
985
996
1003
1006
1007
1010
1013
1017
1019
1024
1023
1023
1023
1027
1029
1026
1021
1019
1018
1024
1028
1030
1025
1022
1024
1030
1036
1039
1039
1039
1039
1043
1045
1044
1047
1049
1051
1050
1056
1056
1062
1060
1055
1058
1061
1061
1055
1052
1051
1053
1059
1060
1059
1051
1052
1054
1055
1060
1062
1058
1048
1042
1041
1035
1026
1022
1019
1021
1021
1019
1016
1010
1011
1013
1017
1018
1020
1018
1015
1019
1022
1017
1015
1008
1003
1001
1003
1000
995
994
992
993
994
993
997
999
1006
1010
1017
1025
1026
1033
1036
1042
1049
1050
1053
1055
1057
1057
1059
1057
1052
1049
1041
1037
1035
1034
1030
1026
1022
1022
1022
1017
1013
1011
1008
1009
1012
1008
1006
1004
1002
1004
1006
1006
1010
1008
1007
1010
1012
1009
1009
1005
1005
1006
1008
1005
1001
1000
1000
1005
1009
1012
1015
1017
1019
1018
1017
1013
1008
1005
1002
1003
1003
1001
997
990
988
986
987
986
987
988
994
999
1001
1003
1003
1000
995
993
986
987
981
980
978
977
978
977
973
974
973
980
985
991
992
992
994
1000
1011
1020
1023
1027
1030
1032
1036
1041
1042
1044
1039
1045
1045
1042
1038
1032
1028
1025
1025
1022
1018
1019
1016
1019
1022
1021
1020
1021
1022
1024
1029
1028
1027
1025
1021
1023
1025
1027
1025
1024
1022
1024
1025
1025
1021
1017
1015
1018
1018
1014
1009
1003
1003
1003
1005
1005
1001
997
993
991
989
987
978
972
967
966
969
967
968
967
967
971
974
976
974
974
975
976
977
976
976
973
971
975
975
979
978
978
980
987
993
1002
1008
1009
1014
1021
1026
1028
1029
1030
1031
1036
1040
1047
1047
1045
1045
1046
1049
1048
1044
1043
1040
1040
1039
1038
1035
1031
1028
1031
1031
1030
1028
1024
1027
1027
1029
1029
1028
1024
1023
1022
1023
1026
1026
1026
1023
1023
1023
1023
1019
1009
1002
997
995
994
993
991
990
993
993
995
998
993
991
992
989
984
975
969
968
968
970
964
961
955
953
956
955
956
951
943
943
943
948
950
945
942
940
941
943
940
941
941
944
948
955
960
966
973
979
987
995
1003
1009
1013
1016
1023
1031
1036
1035
1037
1045
1052
1054
1055
1055
1056
1056
1056
1057
1051
1050
1050
1051
1052
1050
1050
1051
1052
1055
1057
1060
1065
1066
1066
1064
1067
1067
1070
1067
1068
1064
1066
1067
1070
1067
1068
1065
1067
1065
1068
1067
1062
1056
1053
1051
1045
1039
1036
1035
1037
1040
1039
1040
1043
1041
1039
1033
1024
1011
999
990
991
995
993
989
988
987
987
984
979
977
974
975
975
973
972
969
967
965
963
957
953
948
947
949
950
954
954
956
959
959
960
962
969
974
980
985
984
989
989
994
993
996
1003
1011
1017
1018
1017
1013
1015
1019
1022
1025
1022
1023
1025
1029
1027
1025
1025
1030
1033
1039
1044
1046
1048
1044
1046
1052
1059
1062
1062
1062
1065
1074
1076
1075
1077
1083
1090
1091
1089
1088
1091
1101
1108
1111
1113
1109
1108
1111
1120
1127
1132
1136
1134
1133
1128
1124
1115
1100
1088
1078
1072
1062
1048
1036
1024
1011
1010
1006
1000
996
999
1002
1001
998
995
988
984
978
973
970
968
965
960
954
952
956
957
956
955
959
969
977
978
976
979
981
987
996
1006
1006
999
999
1003
1010
1015
1019
1018
1020
1021
1020
1019
1026
1033
1032
1030
1029
1030
1033
1036
1038
1043
1052
1057
1054
1051
1050
1054
1058
1062
1065
1067
1069
1069
1068
1068
1075
1083
1082
1082
1082
1081
1085
1088
1091
1099
1100
1097
1098
1102
1110
1112
1117
1122
1132
1145
1155
1157
1156
1151
1140
1136
1127
1110
1096
1085
1074
1057
1039
1031
1029
1023
1012
998
991
1001
1014
1018
1009
1001
998
997
998
995
983
969
961
961
962
959
958
960
963
963
969
979
988
994
998
1000
1000
1005
1016
1026
1024
1019
1017
1022
1029
1031
1032
1034
1034
1031
1028
1027
1028
1028
1030
1032
1034
1031
1026
1031
1038
1044
1040
1032
1035
1050
1067
1071
1065
1066
1069
1074
1076
1077
1078
1084
1083
1089
1092
1097
1092
1083
1082
1090
1097
1101
1101
1100
1106
1117
1129
1140
1143
1143
1137
1136
1138
1135
1127
1114
1098
1085
1079
1067
1051
1037
1020
1003
989
984
985
985
979
978
983
984
982
975
965
958
960
962
961
953
943
936
935
937
937
937
936
946
953
955
957
969
984
996
1000
998
992
998
1005
1020
1030
1035
1032
1029
1028
1033
1039
1043
1044
1043
1040
1044
1048
1045
1042
1040
1042
1045
1047
1047
1049
1054
1059
1067
1074
1078
1077
1081
1079
1078
1076
1077
1081
1084
1085
1088
1094
1099
1099
1093
1092
1094
1097
1098
1100
1099
1101
1108
1115
1122
1127
1130
1137
1138
1134
1122
1107
1094
1086
1082
1073
1061
1041
1023
1008
994
982
974
973
972
971
968
967
963
956
956
954
952
944
938
932
928
927
924
926
924
921
917
919
922
925
927
928
930
941
956
964
971
971
974
981
988
999
1004
1004
1009
1011
1016
1021
1023
1025
1024
1024
1022
1024
1025
1025
1029
1031
1032
1037
1042
1042
1042
1046
1047
1053
1054
1052
1057
1062
1067
1072
1071
1073
1072
1072
1077
1078
1080
1080
1080
1083
1087
1092
1097
1099
1103
1111
1118
1121
1120
1111
1098
1087
1077
1067
1054
1036
1017
1002
993
985
978
972
971
972
972
970
971
966
959
953
951
948
943
939
933
925
920
919
920
918
918
920
923
930
937
942
946
954
964
974
980
986
989
995
1003
1011
1018
1024
1025
1024
1025
1026
1033
1034
1034
1033
1037
1040
1039
1035
1033
1036
1036
1039
1037
1031
1027
1030
1035
1041
1044
1041
1038
1042
1046
1048
1047
1044
1047
1047
1049
1051
1051
1046
1048
1047
1050
1055
1055
1060
1067
1071
1077
1080
1073
1067
1057
1050
1043
1036
1030
1018
1008
1002
996
989
980
971
964
966
970
975
975
964
963
958
958
957
952
950
951
953
944
940
933
928
927
932
935
936
935
936
942
952
961
969
971
972
972
978
980
983
981
976
973
979
986
988
986
982
987
988
987
982
975
970
967
968
967
965
970
973
975
978
982
983
979
971
975
982
986
983
979
976
972
977
981
989
990
990
983
982
985
987
985
981
984
992
999
1006
1007
1004
996
987
983
976
972
965
957
951
941
934
922
914
908
907
912
915
915
913
910
912
917
919
919
924
932
938
943
950
948
945
945
950
951
957
963
970
976
977
978
980
984
990
997
1003
1011
1019
1023
1024
1022
1018
1018
1029
1040
1043
1034
1026
1023
1023
1019
1011
1003
1008
1014
1018
1015
1009
1003
1000
1002
1002
1008
1011
1008
1006
1008
1002
1000
999
1002
1004
1013
1017
1014
1009
1002
1001
1002
999
991
984
984
987
992
994
1002
1008
1005
991
980
977
981
980
979
981
980
966
949
941
939
933
923
917
903
888
880
883
886
882
876
871
868
866
874
879
879
872
870
876
889
901
907
899
886
883
883
889
907
916
918
915
920
927
938
944
952
952
958
970
982
984
976
969
973
981
983
977
969
973
991
1012
1025
1019
1011
1010
1016
1027
1033
1034
1027
1019
1019
1029
1040
1049
1053
1050
1039
1028
1023
1033
1043
1046
1041
1034
1036
1037
1039
1048
1057
1061
1052
1044
1039
1032
1035
1040
1037
1021
1001
996
997
995
995
992
992
989
986
989
993
991
980
974
979
985
989
985
987
990
984
968
959
955
957
956
949
946
948
947
944
943
945
951
956
959
966
971
970
965
962
966
970
980
989
989
982
971
964
971
988
1002
995
976
960
966
983
994
995
988
988
996
996
985
965
958
970
989
1002
1004
996
984
976
976
989
1008
1018
1015
1011
1008
1010
1011
1008
1003
1003
1003
996
998
1015
1035
1032
1023
1012
1003
994
987
977
973
977
983
984
985
992
994
978
966
967
971
974
993
1004
999
988
985
990
985
973
970
972
982
995
994
983
980
983
993
1005
1020
1032
1028
1015
1011
1021
1041
1053
1050
1038
1026
1027
1041
1053
1057
1051
1043
1032
1024
1026
1034
1031
1024
1017
1013
1020
1025
1027
1024
1014
1008
1009
1005
997
987
986
1005
1026
1026
1012
995
982
972
973
978
981
982
986
1001
1011
1009
1000
998
992
976
970
979
984
990
989
987
983
978
968
949
939
943
951
954
950
942
936
940
946
953
955
954
954
953
954
956
957
952
952
965
980
990
986
974
974
977
987
1001
1005
1006
1002
1001
1014
1031
1042
1046
1039
1036
1033
1036
1043
1047
1045
1045
1046
1043
1037
1034
1033
1038
1048
1050
1044
1033
1029
1034
1046
1054
1054
1047
1041
1040
1039
1039
1035
1033
1037
1039
1044
1046
1046
1039
1029
1017
1011
1012
1018
1027
1028
1023
1012
1004
1005
1010
1016
1020
1018
1012
994
987
987
985
979
978
983
981
976
957
939
934
937
940
939
937
934
935
933
931
933
933
933
935
940
933
926
924
931
932
934
935
940
940
942
946
956
968
980
980
979
978
977
983
994
1015
1026
1028
1021
1017
1016
1019
1017
1010
1003
1003
1010
1013
1010
1023
1028
1027
1023
1021
1022
1026
1036
1041
1040
1039
1042
1049
1052
1053
1049
1040
1036
1042
1049
1053
1049
1041
1037
1037
1039
1038
1042
1045
1045
1049
1050
1053
1055
1059
1059
1053
1045
1037
1034
1031
1029
1026
1017
1009
1003
999
1004
1011
1009
1006
1002
997
990
980
973
970
974
981
986
986
979
970
960
953
947
947
952
950
946
948
953
955
954
949
950
953
961
968
973
973
974
979
982
981
982
978
972
975
982
984
981
978
975
978
978
977
979
980
980
983
983
988
988
987
984
981
981
986
991
993
994
996
1001
1005
1006
1001
1002
1008
1014
1021
1024
1022
1022
1024
1033
1040
1040
1039
1036
1036
1044
1047
1044
1036
1031
1028
1030
1026
1021
1011
1008
1002
1005
1007
1014
1014
1013
1015
1014
1020
1022
1022
1021
1022
1027
1026
1024
1020
1017
1009
1005
1001
994
987
979
971
970
973
975
978
981
981
986
992
998
999
1005
1009
1012
1013
1010
1008
1007
1007
1008
1006
1002
996
996
996
1003
1004
1003
999
996
996
1001
1002
1000
999
997
994
997
998
998
998
996
994
996
994
995
994
996
996
995
999
1000
997
995
999
1008
1012
1014
1012
1010
1011
1009
1010
1007
1002
999
997
997
994
986
982
978
976
978
977
974
978
980
985
991
992
991
992
989
986
990
990
987
985
986
989
990
993
995
996
1001
1010
1019
1029
1031
1035
1035
1041
1048
1053
1055
1052
1053
1053
1055
1053
1053
1050
1050
1051
1051
1045
1040
1034
1034
1032
1033
1033
1030
1027
1024
1025
1024
1024
1019
1019
1014
1013
1015
1014
1012
1011
1006
1004
