1001
1003
1004
1003
1005
1006
1008
1007
1008
1010
1018
1023
1025
1029
1031
1033
1040
1044
1049
1053
1055
1056
1061
1063
1066
1067
1068
1067
1075
1081
1079
1077
1074
1074
1078
1085
1088
1091
1098
1104
1108
1108
1103
1093
1084
1075
1064
1058
1047
1033
1019
1005
993
984
981
976
973
973
970
970
968
966
965
967
967
966
969
969
969
967
967
967
970
966
960
957
957
962
963
965
970
974
980
987
993
1000
1002
1012
1021
1024
1029
1025
1024
1025
1030
1030
1029
1025
1027
1033
1035
1034
1037
1037
1036
1040
1046
1049
1050
1051
1049
1048
1052
1054
1055
1057
1056
1055
1055
1059
1061
1059
1054
1058
1060
1064
1059
1056
1054
1059
1067
1072
1075
1080
1083
1085
1084
1076
1070
1062
1055
1044
1034
1021
1009
995
977
957
942
933
929
922
914
903
902
899
893
888
884
880
883
884
886
888
885
883
885
880
878
877
871
866
867
870
871
869
870
877
885
891
892
898
900
906
912
922
928
928
926
924
927
928
931
927
928
929
933
940
942
945
949
955
962
967
969
970
976
980
984
989
992
990
989
992
1000
1012
1016
1020
1019
1019
1023
1025
1027
1029
1029
1026
1026
1033
1036
1041
1041
1043
1043
1039
1030
1025
1021
1019
1017
1010
1007
1001
995
986
977
967
958
949
949
948
949
950
949
949
948
942
942
938
935
934
930
931
933
934
936
940
943
942
942
944
945
947
945
947
954
961
965
971
974
980
987
990
994
995
997
1000
1007
1008
1004
1003
999
999
1003
1002
1003
999
998
997
1002
1002
1000
995
989
989
992
997
998
999
994
994
998
1000
1002
999
996
993
992
987
983
976
969
970
975
984
978
974
975
973
972
975
970
961
959
954
949
948
943
939
931
918
910
905
898
893
889
890
890
892
892
888
889
889
891
896
895
893
892
892
900
896
894
890
897
900
900
906
910
915
921
929
939
947
953
955
960
965
970
977
982
990
995
994
998
1004
1003
1000
1001
1004
1011
1018
1023
1027
1027
1025
1031
1039
1040
1037
1032
1031
1037
1041
1041
1039
1042
1044
1043
1041
1034
1030
1027
1027
1028
1024
1024
1025
1024
1025
1032
1040
1041
1037
1029
1022
1020
1016
1007
996
984
973
959
946
932
918
906
894
892
889
888
889
894
894
894
896
892
888
886
885
884
884
876
873
870
869
876
879
880
879
875
877
882
891
897
900
900
904
909
919
927
932
934
941
946
947
944
942
941
939
940
939
936
939
943
945
947
945
939
942
944
949
952
957
960
961
960
962
968
974
977
980
979
974
973
971
970
975
976
976
975
977
979
978
980
983
985
988
982
974
972
969
972
972
965
957
946
935
926
923
920
925
927
927
933
940
943
939
939
938
940
940
944
944
945
941
938
939
944
950
950
949
948
949
953
955
959
960
965
973
982
984
989
992
998
1006
1011
1012
1020
1025
1026
1031
1035
1032
1031
1029
1027
1022
1020
1013
1014
1013
1014
1014
1008
1005
1008
1011
1015
1013
1010
1009
1006
1003
1005
1010
1012
1009
999
990
986
988
982
974
968
963
965
968
964
961
962
963
965
959
949
938
930
924
927
927
922
915
908
898
889
884
882
877
882
885
892
897
895
888
880
880
883
890
893
891
890
891
895
901
901
905
913
921
928
934
938
941
939
948
957
965
973
981
991
1004
1014
1027
1031
1039
1043
1049
1061
1067
1070
1071
1077
1081
1081
1083
1080
1077
1076
1074
1078
1078
1073
1069
1061
1065
1069
1072
1069
1067
1059
1054
1057
1059
1061
1060
1054
1052
1050
1043
1039
1034
1033
1032
1032
1035
1036
1035
1036
1035
1035
1031
1020
1011
1004
997
996
990
981
970
959
948
944
938
932
928
924
918
918
917
917
912
905
897
896
892
892
892
887
885
883
881
878
874
871
869
870
873
873
869
875
884
895
903
911
916
923
932
942
954
963
971
979
985
994
1000
1003
1008
1011
1017
1024
1029
1035
1037
1038
1043
1046
1049
1050
1047
1047
1047
1057
1060
1057
1052
1051
1047
1046
1051
1048
1042
1034
1032
1032
1032
1032
1035
1036
1034
1034
1031
1024
1016
1010
1005
1004
1004
999
991
979
967
960
953
945
939
937
937
940
942
942
938
932
931
933
939
936
931
927
923
924
929
925
921
915
916
918
920
923
926
926
926
933
939
941
943
946
952
955
960
964
967
973
979
990
996
999
998
998
1001
1005
1006
1006
1006
1002
1003
1002
1006
1009
1008
1008
1009
1009
1011
1009
1009
1009
1014
1016
1021
1021
1021
1021
1023
1032
1039
1036
1034
1032
1028
1027
1027
1026
1022
1019
1015
1019
1022
1021
1020
1016
1011
1009
1005
997
990
986
983
984
984
980
972
966
962
959
959
953
952
951
951
956
960
960
951
946
940
943
943
941
937
930
929
928
937
940
942
940
941
945
951
953
954
952
954
957
967
975
980
984
989
998
1006
1011
1013
1015
1017
1023
1027
1029
1027
1033
1037
1037
1042
1037
1039
1038
1039
1043
1045
1039
1035
1031
1029
1032
1035
1035
1030
1029
1031
1031
1032
1037
1033
1029
1032
1033
1032
1031
1032
1023
1026
1027
1026
1026
1022
1022
1023
1027
1033
1038
1037
1035
1032
1029
1030
1025
1022
1018
1014
1020
1023
1019
1011
1004
1001
1000
1002
1001
1003
1003
1005
1008
1009
1005
1000
994
991
988
987
984
977
972
970
970
968
965
959
953
956
958
959
956
955
953
952
957
960
964
963
967
971
979
988
992
997
1001
1008
1018
1025
1028
1031
1029
1031
1033
1035
1038
1037
1037
1037
1040
1046
1045
1047
1044
1044
1045
1047
1048
1045
1044
1044
1042
1048
1051
1051
1049
1051
1052
1058
1056
1054
1049
1051
1055
1058
1059
1056
1057
1060
1059
1057
1050
1042
1035
1027
1025
1018
1016
1014
1009
1009
1006
1005
1000
999
995
992
993
993
997
994
993
995
999
1002
1002
1001
996
998
999
1004
1005
1004
1004
1008
1014
1019
1021
1020
1020
1022
1029
1031
1029
1029
1029
1033
1037
1043
1045
1049
1052
1055
1063
1065
1067
1066
1065
1065
1067
1068
1068
1064
1065
1066
1071
1073
1068
1068
1065
1068
1068
1067
1068
1062
1057
1052
1050
1048
1049
1045
1040
1038
1038
1039
1034
1026
1022
1021
1021
1024
1023
1021
1017
1017
1018
1017
1017
1019
1019
1020
1024
1025
1022
1013
1005
998
992
988
984
979
973
967
962
959
952
944
937
935
935
937
941
943
944
944
948
950
952
949
949
954
958
963
963
962
962
962
967
969
968
969
969
970
975
980
980
984
985
994
1003
1011
1016
1020
1022
1029
1034
1047
1052
1059
1062
1072
1082
1090
1094
1094
1095
1101
1109
1113
1117
1115
1113
1114
1116
1118
1115
1111
1104
1103
1103
1103
1106
1098
1098
1096
1098
1099
1097
1094
1089
1087
1088
1087
1084
1078
1075
1070
1071
1070
1064
1060
1058
1056
1056
1055
1047
1037
1028
1016
1008
1005
997
987
979
973
969
967
963
961
957
953
954
953
955
951
949
949
956
957
957
956
954
956
957
961
964
958
956
957
961
960
960
958
956
955
956
959
959
961
962
966
973
978
976
983
986
991
996
999
1001
1002
1004
1007
1010
1011
1011
1011
1010
1011
1020
1023
1026
1027
1029
1031
1035
1040
1040
1041
1041
1045
1052
1056
1056
1056
1054
1059
1062
1064
1064
1064
1064
1064
1066
1066
1071
1068
1067
1064
1063
1066
1061
1059
1058
1057
1055
1051
1039
1028
1018
1013
1008
1004
1002
996
994
988
987
986
985
978
974
972
971
972
971
967
967
964
965
968
966
965
964
965
967
969
966
962
958
959
959
961
962
960
958
961
965
967
965
968
970
976
986
992
996
1001
1006
1014
1019
1026
1031
1037
1042
1049
1060
1062
1059
1059
1061
1062
1063
1065
1063
1061
1057
1061
1063
1062
1061
1057
1057
1058
1056
1057
1053
1050
1045
1043
1044
1040
1032
1024
1018
1014
1006
998
993
985
980
976
979
980
979
978
974
970
967
968
962
958
955
952
949
948
945
942
941
941
943
947
945
948
948
957
963
967
969
969
973
974
979
981
979
976
974
971
970
972
971
971
969
973
974
976
977
979
980
988
994
1001
1009
1014
1022
1029
1039
1046
1050
1055
1062
1069
1076
1084
1085
1086
1088
1092
1098
1103
1107
1108
1106
1106
1108
1109
1106
1105
1102
1103
1102
1098
1092
1087
1081
1077
1073
1065
1057
1043
1032
1024
1020
1013
1007
998
994
992
995
989
985
980
978
977
971
967
959
948
940
938
935
933
931
926
924
924
926
929
928
930
930
932
939
944
948
949
949
951
955
958
957
958
960
965
967
971
975
973
977
982
989
993
993
993
995
998
1005
1008
1006
1008
1011
1014
1022
1026
1030
1033
1037
1041
1046
1050
1049
1047
1048
1050
1050
1052
1049
1047
1046
1047
1047
1049
1045
1046
1042
1039
1038
1037
1033
1032
1028
1026
1027
1021
1017
1009
1005
996
995
991
985
981
978
979
980
979
977
972
969
967
968
968
959
950
942
938
935
936
933
930
927
929
929
931
933
933
934
938
943
947
948
947
951
957
962
967
969
971
971
975
980
984
985
986
988
993
997
1006
1011
1012
1013
1023
1028
1034
1038
1043
1050
1059
1066
1075
1082
1084
1090
1099
1108
1115
1115
1119
1120
1122
1127
1129
1126
1126
1123
1123
1120
1120
1112
1105
1102
1097
1089
1085
1075
1068
1062
1056
1057
1048
1039
1028
1022
1017
1011
1008
1002
997
993
990
993
990
987
983
977
973
970
966
957
947
936
930
926
923
918
910
905
902
901
897
895
891
890
893
896
896
897
896
896
898
904
907
907
908
909
914
923
927
929
929
930
936
945
951
953
954
959
966
975
984
990
993
1000
1007
1018
1023
1027
1032
1037
1045
1054
1058
1064
1065
1069
1072
1081
1087
1089
1088
1091
1094
1096
1096
1097
1095
1095
1093
1094
1092
1086
1080
1074
1071
1073
1069
1065
1056
1055
1050
1051
1047
1047
1041
1035
1032
1032
1027
1019
1012
1003
999
992
986
976
965
960
956
955
950
947
941
935
934
929
930
925
922
921
925
927
928
925
928
926
928
931
932
932
930
932
935
937
939
939
936
937
940
945
952
955
954
957
966
971
974
978
982
985
988
990
992
991
990
989
991
995
995
992
987
988
991
992
994
995
993
994
997
1001
1006
1004
1002
1003
1008
1011
1015
1012
1011
1005
1006
1006
1001
996
991
986
982
977
971
961
951
946
942
941
937
932
930
927
929
930
926
923
921
916
917
920
919
916
908
899
896
895
892
891
890
888
890
894
894
894
894
897
900
908
913
916
918
919
925
930
931
934
938
939
945
948
949
951
952
959
961
969
974
974
980
984
990
999
1006
1011
1015
1017
1023
1033
1041
1042
1047
1056
1065
1072
1077
1078
1076
1078
1081
1084
1085
1084
1083
1080
1080
1083
1076
1075
1071
1068
1067
1067
1068
1065
1063
1061
1062
1063
1064
1059
1051
1046
1039
1031
1023
1013
1003
997
989
984
977
970
961
954
951
946
938
928
919
916
915
915
911
913
911
912
912
916
913
908
902
897
890
886
878
873
869
871
875
879
880
882
883
888
892
897
900
903
904
906
912
917
919
922
920
924
926
930
933
933
933
936
942
946
954
956
961
965
977
987
994
1000
1003
1010
1019
1027
1033
1038
1042
1046
1055
1057
1062
1062
1064
1063
1065
1070
1069
1065
1064
1061
1065
1065
1064
1059
1054
1054
1053
1052
1046
1038
1029
1022
1016
1009
1002
993
986
980
975
967
958
946
936
924
917
915
909
908
903
901
898
898
892
888
881
875
872
869
865
865
860
859
856
854
852
850
847
847
850
853
859
862
866
869
876
881
888
892
897
900
909
918
924
934
939
946
958
971
978
988
994
999
1011
1018
1025
1028
1029
1036
1041
1051
1054
1058
1060
1058
1061
1063
1069
1071
1075
1077
1084
1089
1096
1102
1103
1104
1107
1109
1108
1106
1102
1096
1092
1081
1068
1057
1047
1038
1030
1023
1015
1005
994
983
976
965
955
943
933
925
921
917
911
901
893
890
887
884
881
877
872
866
864
863
860
856
852
851
854
858
858
855
851
842
838
834
830
823
821
819
820
821
828
830
834
833
841
847
850
849
853
859
870
875
883
886
887
889
898
906
906
917
918
925
933
943
950
960
967
979
994
1005
1014
1023
1030
1038
1049
1059
1068
1075
1082
1088
1094
1102
1110
1116
1119
1120
1127
1133
1138
1137
1139
1140
1145
1146
1148
1143
1138
1133
1131
1129
1124
1115
1106
1098
1089
1081
1071
1059
1046
1036
1030
1024
1016
1004
994
987
980
978
976
970
964
957
952
946
937
924
912
895
887
884
879
871
865
861
854
854
849
845
841
839
839
840
841
837
836
839
844
848
851
851
851
854
857
862
867
868
870
873
881
882
885
891
893
896
901
911
914
916
918
923
930
935
942
947
954
958
965
973
979
982
984
991
997
1003
1008
1010
1012
1019
1027
1036
1044
1048
1057
1063
1070
1078
1083
1088
1093
1100
1102
1105
1103
1095
1084
1080
1071
1061
1050
1039
1028
1021
1015
1012
1007
999
989
980
975
966
953
939
930
922
918
918
917
916
914
916
919
921
920
922
920
922
922
927
927
927
929
930
935
938
939
941
943
945
950
954
953
959
958
961
969
973
975
977
977
976
977
982
981
980
978
977
978
979
980
984
981
982
990
994
991
994
993
999
1004
1012
1015
1024
1026
1031
1037
1043
1049
1051
1062
1068
1077
1087
1094
1098
1099
1102
1103
1105
1097
1087
1075
1060
1046
1029
1013
997
979
963
954
943
926
909
890
879
873
874
872
869
866
864
867
871
873
872
873
876
880
884
890
894
895
896
900
904
905
910
912
918
926
934
943
951
956
962
972
979
982
987
989
992
999
1003
1004
1004
1003
1004
1009
1011
1009
1007
1009
1010
1012
1017
1018
1017
1018
1018
1023
1029
1031
1032
1031
1032
1036
1040
1041
1042
1043
1047
1054
1060
1062
1064
1065
1070
1076
1082
1087
1090
1091
1087
1083
1076
1064
1048
1034
1020
1003
987
969
950
937
924
919
914
908
900
895
894
898
902
901
903
905
908
916
918
920
922
924
926
933
938
942
943
944
944
951
956
958
963
967
972
977
983
991
997
1003
1009
1017
1020
1023
1031
1036
1039
1044
1050
1051
1054
1059
1060
1064
1071
1075
1076
1078
1079
1086
1092
1096
1098
1099
1102
1106
1110
1110
1107
1104
1103
1102
1105
1105
1105
1103
1101
1105
1108
1108
1108
1107
1103
1098
1088
1076
1058
1035
1011
989
967
955
940
929
918
908
898
888
877
867
859
852
849
843
839
836
832
834
833
830
828
826
828
831
839
839
842
843
845
853
860
864
867
870
874
880
889
898
904
908
918
930
941
946
951
955
960
973
979
986
991
997
998
1008
1018
1024
1030
1035
1042
1050
1058
1062
1067
1071
1076
1080
1087
1092
1097
1097
1099
1104
1113
1118
1120
1123
1126
1132
1137
1141
1147
1150
1155
1165
1171
1167
1159
1143
1126
1113
1101
1085
1067
1050
1038
1029
1021
1011
996
985
973
965
961
952
944
936
935
936
935
930
929
922
917
918
921
918
916
915
915
919
924
926
928
926
929
930
938
940
941
942
945
949
954
960
962
959
960
963
967
965
964
961
961
961
966
967
969
968
967
971
975
979
979
989
995
1003
1013
1016
1019
1022
1027
1035
1042
1048
1052
1059
1060
1067
1076
1088
1093
1097
1099
1101
1100
1096
1088
1073
1055
1039
1029
1015
1004
987
978
968
964
957
945
935
931
930
934
934
932
931
928
927
930
928
926
924
925
929
932
933
935
936
942
951
959
966
968
973
978
985
992
996
1001
1005
1009
1015
1019
1024
1027
1025
1023
1029
1032
1032
1035
1035
1036
1036
1039
1040
1041
1040
1041
1043
1045
1044
1047
1046
1048
1052
1052
1055
1054
1052
1051
1055
1059
1061
1062
1061
1064
1068
1072
1075
1076
1077
1080
1083
1091
1097
1097
1097
1097
1095
1093
1087
1072
1063
1047
1031
1010
993
976
965
957
954
949
943
936
930
924
921
917
913
911
911
909
905
910
909
908
908
907
911
916
913
913
916
916
922
926
924
928
931
933
939
945
947
947
945
948
954
958
961
957
959
956
961
964
964
962
965
965
970
977
977
976
975
980
984
988
990
991
994
994
1000
1006
1008
1011
1011
1014
1014
1022
1025
1029
1031
1031
1038
1044
1048
1048
1054
1060
1068
1074
1082
1084
1086
1086
1088
1084
1078
1067
1053
1038
1024
1010
999
987
980
976
974
974
969
963
957
955
955
956
949
949
949
947
948
952
952
953
956
958
970
977
983
990
996
1003
1013
1021
1027
1030
1035
1043
1053
1058
1066
1067
1070
1071
1075
1079
1080
1080
1077
1076
1077
1079
1077
1073
1071
1067
1071
1072
1070
1067
1066
1066
1067
1073
1070
1066
1065
1066
1067
1070
1071
1067
1064
1063
1064
1065
1064
1064
1062
1062
1067
1071
1075
1073
1074
1079
1079
1079
1078
1069
1056
1046
1036
1026
1016
1001
988
977
972
970
964
954
946
936
931
928
927
920
920
921
924
922
919
913
907
906
906
906
902
898
896
896
898
902
900
896
896
898
903
907
911
913
917
922
928
936
941
948
953
959
968
977
985
987
991
999
1009
1017
1027
1033
1041
1046
1055
1065
1075
1080
1085
1090
1097
1105
1109
1111
1112
1116
1123
1128
1131
1130
1136
1138
1144
1150
1157
1161
1163
1166
1172
1177
1179
1174
1168
1158
1151
1141
1130
1116
1101
1091
1083
1077
1066
1056
1046
1038
1027
1022
1013
1003
994
987
983
980
976
973
968
965
960
963
959
957
953
953
954
953
954
954
951
948
951
954
954
950
948
949
948
951
948
945
940
937
939
939
938
935
933
932
930
934
932
930
923
926
929
931
930
929
929
930
934
937
935
937
937
940
948
954
957
960
962
968
974
983
987
991
995
1004
1012
1019
1030
1036
1037
1043
1049
1053
1056
1056
1055
1055
1052
1046
1038
1029
1023
1018
1018
1012
1005
998
994
988
986
977
969
961
952
947
945
942
939
933
928
930
931
932
930
928
929
933
940
945
946
950
952
956
961
963
962
961
961
967
970
976
978
980
984
992
998
1004
1011
1011
1010
1013
1020
1025
1024
1026
1023
1021
1023
1028
1028
1027
1028
1029
1032
1035
1036
1040
1041
1042
1048
1052
1059
1059
1061
1065
1072
1075
1077
1077
1076
1079
1080
1082
1084
1082
1085
1086
1090
1096
1098
1105
1106
1109
1114
1112
1112
1107
1100
1098
1091
1083
1075
1064
1053
1051
1045
1041
1032
1024
1014
1009
1002
995
985
973
961
958
953
955
951
948
943
938
938
937
933
932
931
930
934
936
937
934
935
934
934
936
936
934
933
932
937
940
943
941
942
942
949
952
954
951
952
956
960
962
961
957
952
952
950
949
947
938
934
933
936
939
938
937
935
942
946
949
949
950
950
952
957
959
964
962
962
961
965
964
967
