969
971
973
977
981
985
990
990
994
1004
1008
1011
1008
1008
1010
1006
998
988
978
967
966
964
962
955
947
940
933
930
925
916
909
903
902
906
908
911
908
909
914
920
925
926
926
926
932
939
944
947
953
952
958
970
977
982
986
988
994
1001
1004
1008
1010
1012
1016
1021
1025
1027
1028
1029
1033
1039
1046
1049
1047
1048
1051
1052
1055
1055
1052
1049
1048
1048
1051
1048
1042
1041
1038
1036
1040
1037
1036
1035
1037
1037
1037
1036
1034
1029
1032
1030
1032
1031
1027
1024
1027
1032
1035
1031
1031
1030
1031
1031
1031
1029
1023
1015
1006
996
988
977
967
958
950
945
942
934
926
920
915
914
910
903
898
889
882
882
882
882
879
881
880
884
886
883
880
880
881
883
884
883
881
880
885
890
898
900
902
908
912
917
921
930
931
935
940
948
954
957
960
961
966
974
982
986
988
990
994
1001
1007
1010
1013
1017
1024
1030
1035
1039
1040
1040
1043
1047
1052
1048
1049
1045
1044
1041
1043
1041
1040
1042
1043
1046
1050
1050
1049
1047
1049
1050
1051
1047
1041
1035
1030
1022
1014
1001
985
980
970
966
959
952
945
936
934
931
926
917
909
899
895
892
892
890
886
880
878
880
879
878
875
875
878
879
885
883
883
885
888
889
891
889
888
888
892
898
903
905
907
911
916
922
928
935
940
942
951
958
965
968
969
975
982
989
992
996
999
999
1005
1007
1010
1012
1013
1015
1016
1026
1032
1032
1032
1037
1040
1045
1050
1054
1056
1057
1061
1067
1074
1077
1079
1080
1083
1087
1090
1086
1078
1069
1061
1059
1048
1034
1018
1005
997
989
982
974
966
957
952
945
941
933
922
908
906
903
901
896
885
876
877
880
882
883
882
882
885
887
887
886
883
882
883
887
892
892
891
894
898
904
909
913
912
914
918
922
926
926
927
931
936
944
949
955
959
962
971
979
985
993
998
1002
1009
1018
1024
1029
1031
1036
1043
1046
1053
1052
1054
1056
1059
1059
1060
1059
1056
1057
1060
1065
1070
1071
1071
1068
1066
1062
1060
1052
1036
1025
1011
1001
992
982
975
969
963
960
959
953
947
941
936
933
929
922
915
908
904
900
898
894
891
892
891
892
892
896
895
894
893
899
899
897
896
898
901
904
909
912
909
911
917
922
925
926
925
925
924
926
930
930
931
933
938
945
951
953
956
962
966
973
975
978
980
981
981
991
994
997
996
995
1001
1007
1010
1012
1010
1010
1014
1021
1024
1026
1030
1034
1040
1049
1052
1053
1051
1047
1042
1038
1031
1018
1003
994
988
982
976
967
958
955
952
951
952
952
949
947
950
956
960
955
954
953
955
957
958
957
958
958
962
964
968
970
970
971
974
979
984
983
983
979
985
985
983
982
976
973
972
975
973
970
973
971
968
969
967
968
962
958
959
956
956
954
948
946
947
949
950
948
947
947
950
956
959
960
959
961
963
969
967
970
967
968
971
976
978
976
978
978
984
986
990
993
991
988
989
988
985
975
959
948
938
929
924
918
907
901
895
890
888
881
878
876
878
881
883
885
883
885
888
890
893
893
893
894
895
903
909
914
919
921
929
941
951
960
966
975
985
996
1004
1009
1013
1013
1020
1025
1032
1038
1041
1046
1051
1055
1057
1057
1055
1054
1054
1056
1053
1050
1047
1044
1044
1042
1045
1041
1040
1038
1039
1043
1043
1044
1044
1044
1045
1046
1047
1049
1046
1048
1054
1060
1062
1066
1066
1068
1073
1078
1081
1075
1068
1060
1053
1046
1036
1031
1023
1017
1009
1005
996
988
976
970
961
954
948
937
927
917
917
910
907
901
895
888
886
888
885
880
876
873
874
873
875
875
873
869
876
879
881
883
880
885
891
898
904
907
911
913
923
932
938
940
944
945
950
956
960
962
961
963
970
976
981
985
986
990
998
1002
1010
1013
1015
1020
1026
1036
1043
1049
1055
1061
1066
1075
1080
1083
1087
1091
1098
1105
1112
1118
1121
1128
1132
1134
1134
1126
1115
1111
1107
1107
1104
1096
1091
1086
1084
1083
1075
1069
1059
1052
1047
1042
1039
1030
1025
1021
1018
1014
1008
999
987
978
972
967
963
955
945
937
933
929
925
922
918
921
923
927
931
931
931
933
937
940
945
946
945
946
946
951
951
949
949
948
951
953
959
959
959
962
964
969
970
971
969
972
974
978
980
978
973
970
971
974
974
971
973
972
974
977
981
979
980
980
984
988
992
992
992
995
1004
1010
1017
1017
1021
1026
1034
1042
1046
1052
1056
1056
1063
1063
1056
1049
1038
1038
1039
1037
1037
1029
1022
1019
1018
1019
1019
1011
1008
1006
1010
1014
1016
1014
1017
1015
1017
1020
1021
1021
1019
1020
1021
1023
1022
1028
1026
1030
1034
1036
1036
1034
1031
1034
1035
1037
1035
1030
1027
1023
1022
1024
1020
1018
1014
1011
1010
1008
1008
1005
1002
1002
1001
1002
1001
996
997
996
1000
1003
1001
999
998
998
997
996
994
991
988
985
983
983
983
980
979
977
978
978
980
978
976
975
980
982
984
984
984
982
984
983
986
985
985
984
990
995
998
998
999
1000
1001
997
991
982
975
968
968
966
966
965
964
962
961
957
951
943
933
930
931
933
933
929
925
923
922
920
923
922
920
924
925
932
933
935
938
938
943
946
952
955
956
959
966
970
974
975
978
977
979
991
994
997
999
1002
1007
1012
1019
1021
1023
1023
1029
1034
1038
1042
1042
1043
1047
1049
1050
1052
1051
1053
1056
1060
1059
1057
1055
1053
1053
1052
1051
1044
1044
1042
1043
1045
1044
1042
1042
1042
1043
1044
1045
1044
1039
1038
1036
1033
1029
1029
1027
1024
1028
1027
1019
1004
988
974
960
948
936
922
913
906
901
895
893
885
881
877
875
875
873
871
866
865
869
869
872
869
870
870
875
877
881
884
883
887
892
895
899
899
903
906
910
918
924
926
932
938
945
953
957
966
968
974
980
986
991
991
991
993
998
1002
1000
1003
1003
1008
1012
1018
1021
1022
1020
1022
1027
1030
1030
1030
1030
1027
1032
1036
1037
1035
1034
1034
1036
1036
1034
1031
1030
1029
1031
1039
1039
1037
1033
1033
1036
1031
1029
1021
1011
1003
989
977
963
952
943
939
937
936
933
930
927
920
922
925
924
926
926
930
934
934
937
939
939
937
943
947
946
949
950
951
955
960
962
960
961
962
964
973
975
976
979
980
985
993
995
996
998
1000
1004
1007
1008
1008
1007
1007
1013
1016
1017
1016
1016
1018
1018
1020
1023
1017
1015
1013
1015
1020
1019
1018
1019
1020
1022
1024
1023
1020
1022
1022
1025
1028
1030
1027
1028
1031
1033
1038
1039
1034
1031
1031
1030
1027
1022
1013
1004
994
990
986
977
966
955
944
935
928
916
906
903
901
900
905
905
901
899
897
900
904
903
903
902
902
904
908
909
908
907
907
913
916
918
919
923
926
933
935
938
941
944
951
956
962
968
972
975
976
984
989
991
992
991
990
991
998
1001
1003
1004
1007
1012
1019
1022
1026
1027
1035
1041
1048
1055
1056
1061
1064
1069
1073
1073
1074
1071
1069
1078
1081
1084
1085
1086
1088
1092
1095
1099
1096
1090
1087
1084
1085
1082
1078
1075
1071
1068
1065
1055
1045
1034
1025
1015
1010
1005
998
991
989
987
988
987
983
981
977
977
977
976
971
972
975
979
981
982
981
982
987
990
995
994
994
993
995
999
1004
1006
1003
1005
1003
1008
1011
1013
1013
1011
1013
1016
1021
1024
1023
1019
1019
1020
1019
1015
1011
1006
1000
998
994
990
984
979
972
974
972
969
968
965
964
965
967
966
961
959
962
964
968
971
971
973
973
973
971
966
964
964
965
968
967
962
955
948
942
937
936
934
932
932
931
933
939
941
939
935
936
939
942
944
944
946
948
954
958
959
962
964
967
976
985
991
994
998
1004
1012
1017
1020
1021
1024
1027
1033
1037
1043
1046
1048
1052
1055
1060
1063
1063
1065
1065
1069
1071
1072
1067
1067
1066
1068
1069
1066
1063
1057
1056
1054
1057
1054
1048
1045
1043
1042
1041
1039
1034
1034
1033
1032
1033
1028
1025
1023
1021
1020
1021
1020
1015
1009
1003
998
993
982
970
965
962
959
957
951
939
929
918
909
902
891
884
881
878
877
878
877
874
869
865
867
868
869
868
868
873
875
877
880
878
876
878
883
887
892
894
897
901
905
911
916
917
921
923
926
933
938
939
940
946
951
958
958
958
958
962
967
971
973
967
970
968
971
974
973
974
969
967
969
973
972
969
967
969
969
972
972
969
967
969
971
975
977
977
978
979
980
985
986
984
981
983
986
990
992
994
995
995
997
996
994
988
981
978
981
979
976
970
962
955
948
939
930
917
907
903
895
896
898
897
895
897
901
906
909
908
909
914
920
923
925
927
930
934
939
949
953
953
957
961
965
971
973
975
975
981
986
990
994
995
995
998
1005
1008
1010
1010
1010
1009
1012
1012
1010
1011
1010
1010
1011
1011
1011
1007
1006
1005
1003
1006
1004
1002
997
996
1001
1003
1002
1000
1000
1001
1003
1007
1005
1002
1002
997
1002
1003
1002
998
995
996
997
997
1003
1000
999
997
993
992
987
986
987
987
989
990
988
979
973
964
953
943
929
916
905
897
895
896
893
888
885
882
883
888
887
886
887
888
888
893
895
897
899
900
907
910
908
916
918
923
929
935
939
944
945
943
952
958
960
961
961
965
965
971
970
971
973
976
980
986
987
987
991
993
998
1001
1005
1002
998
1003
1006
1009
1011
1012
1010
1015
1018
1022
1021
1019
1016
1017
1017
1020
1019
1018
1018
1018
1021
1020
1020
1019
1018
1013
1010
1007
1001
1000
996
996
995
992
990
983
973
968
962
957
947
938
931
927
929
930
928
928
924
925
928
930
928
925
920
920
923
923
925
922
921
922
927
935
936
940
942
949
955
961
966
974
974
980
988
995
997
997
998
998
999
1005
1001
1000
997
995
999
1005
1004
1003
1003
1005
1006
1008
1006
1005
1006
1007
1012
1014
1013
1013
1015
1017
1019
1022
1023
1023
1022
1023
1024
1024
1024
1023
1022
1022
1024
1028
1030
1028
1030
1028
1030
1030
1026
1025
1023
1020
1023
1026
1026
1021
1021
1016
1016
1015
1007
998
988
980
974
971
966
960
956
957
957
958
956
952
951
949
949
953
954
954
955
957
958
962
962
962
964
965
968
974
975
974
975
978
982
989
992
993
995
997
1002
1006
1011
1008
1006
1007
1007
1009
1009
1007
1003
1002
1002
1003
1002
1002
1003
1002
1005
1006
1007
1008
1007
1012
1016
1021
1020
1021
1020
1017
1021
1021
1022
1018
1014
1010
1010
1010
1008
1003
999
997
1000
1001
1000
996
993
993
991
987
983
975
968
965
965
960
957
951
945
935
931
924
913
902
892
887
883
887
885
887
886
884
887
891
890
886
886
891
894
899
905
905
908
913
921
928
932
936
940
947
955
965
971
978
988
995
1006
1015
1023
1028
1033
1043
1051
1056
1061
1062
1063
1066
1065
1067
1067
1065
1065
1064
1068
1073
1075
1072
1072
1071
1074
1076
1075
1073
1071
1071
1071
1073
1070
1071
1070
1072
1074
1074
1074
1070
1064
1063
1066
1067
1064
1064
1061
1060
1063
1061
1060
1057
1054
1050
1045
1041
1032
1020
1012
1003
995
984
969
956
943
935
931
926
922
917
915
911
911
913
910
905
899
902
902
903
900
899
894
897
897
898
898
898
893
898
900
902
901
905
905
908
915
922
924
927
932
935
940
944
947
954
957
963
970
973
975
977
976
982
986
991
995
997
997
1004
1007
1015
1017
1019
1021
1022
1029
1031
1032
1029
1031
1033
1036
1041
1041
1042
1044
1046
1051
1052
1053
1054
1052
1054
1059
1062
1061
1061
1061
1063
1063
1069
1067
1065
1064
1061
1060
1056
1047
1036
1027
1020
1016
1011
1003
991
981
974
971
967
962
953
948
949
947
945
943
940
939
936
938
939
938
932
933
933
936
938
938
935
937
938
942
945
946
945
944
946
951
954
957
964
967
974
980
990
995
1000
1004
1009
1014
1019
1026
1024
1025
1030
1035
1036
1035
1034
1031
1034
1036
1033
1034
1028
1024
1027
1023
1025
1020
1015
1012
1009
1011
1010
1009
1005
1001
1002
1003
1005
1000
998
996
997
996
998
999
997
992
993
997
999
998
993
988
984
981
975
965
957
948
943
946
945
940
936
934
932
932
931
927
925
920
922
925
927
929
929
930
934
938
941
944
945
947
951
959
961
961
964
965
970
975
979
981
980
981
981
984
986
985
986
987
993
999
1003
1008
1009
1010
1016
1023
1028
1033
1032
1037
1039
1045
1047
1047
1044
1045
1046
1048
1049
1046
1044
1044
1043
1043
1044
1041
1043
1037
1038
1041
1043
1043
1037
1034
1037
1037
1038
1036
1034
1033
1030
1031
1031
1030
1029
1026
1025
1026
1026
1023
1013
1005
1002
998
995
989
981
976
969
965
959
949
943
934
929
928
927
922
922
920
921
924
927
928
922
927
930
934
938
939
941
945
947
954
959
962
963
966
972
978
986
990
992
995
1002
1010
1016
1018
1023
1027
1029
1038
1042
1043
1043
1046
1047
1053
1056
1057
1058
1057
1061
1063
1067
1064
1065
1064
1065
1066
1068
1068
1066
1065
1064
1062
1066
1064
1061
1055
1053
1056
1056
1055
1050
1048
1048
1046
1046
1044
1040
1036
1032
1029
1024
1019
1010
1002
997
995
989
980
973
964
957
949
938
925
916
905
900
898
897
894
888
884
883
883
882
882
882
877
880
882
884
885
884
883
889
893
902
902
903
904
909
915
921
924
929
935
940
949
956
961
963
967
973
977
986
988
990
995
1002
1006
1015
1016
1023
1025
1031
1037
1041
1047
1053
1056
1063
1071
1076
1082
1084
1089
1095
1103
1108
1112
1111
1114
1118
1122
1125
1124
1126
1127
1125
1129
1129
1129
1125
1125
1126
1126
1125
1125
1117
1112
1110
1108
1104
1101
1094
1087
1077
1072
1068
1061
1050
1041
1036
1027
1025
1019
1014
1009
1007
1010
1008
1005
1001
996
995
997
992
990
984
981
978
975
974
969
962
957
954
952
949
947
942
937
939
941
941
942
938
939
939
941
943
942
945
942
945
946
947
949
945
944
946
949
950
950
947
944
946
953
955
956
954
951
953
960
961
963
965
966
968
974
978
982
983
984
988
993
993
997
999
1001
1005
1013
1017
1022
1022
1024
1027
1030
1034
1030
1026
1022
1023
1021
1020
1016
1011
1009
1008
1008
1009
1006
1002
1000
998
998
1000
997
995
993
997
1000
1002
1001
1004
1003
1008
1012
1017
1016
1018
1018
1023
1026
1027
1027
1028
1028
1031
1036
1038
1038
1037
1038
1043
1048
1051
1054
1055
1058
1062
1069
1072
1073
1069
1067
1072
1073
1074
1076
1073
1071
1072
1072
1071
1068
1067
1065
1063
1066
1065
1063
1060
1057
1056
1056
1058
1055
1051
1050
1048
1047
1046
1045
1041
1034
1033
1033
1031
1026
1020
1017
1012
1012
1006
1001
997
988
984
979
975
969
964
960
958
956
952
950
945
940
943
944
943
943
939
939
942
948
949
953
952
954
958
963
966
970
968
970
977
981
984
985
985
982
985
987
991
992
991
993
995
1000
1006
1009
1012
1014
1017
1023
1027
1030
1029
1034
1036
1042
1046
1047
1046
1046
1048
1052
1050
1051
1048
1050
1052
1053
1053
1049
1046
1045
1042
1042
1039
1033
1027
1024
1024
1022
1020
1017
1013
1012
1010
1011
1009
1004
998
994
992
988
987
982
980
977
975
977
977
974
969
967
966
965
965
960
956
954
954
956
956
953
952
952
954
960
961
961
961
967
972
978
982
982
982
984
987
994
996
1001
1000
1004
1008
1011
1017
1023
1024
1033
1042
1049
1057
1063
1067
1074
1081
1089
1097
1097
1103
1108
1113
1122
1126
1128
1127
1131
1136
1141
1144
1144
1146
1148
1150
1153
1157
1155
1152
1151
1151
1151
1146
1145
1142
1137
1133
1130
1125
1117
1105
1092
1083
1076
1062
1054
1043
1033
1027
1021
1017
1009
1001
990
985
986
978
975
965
956
951
947
942
936
929
921
917
919
912
907
902
901
898
897
897
894
891
889
889
893
894
893
892
893
897
902
905
907
907
907
912
917
919
921
921
928
934
939
944
949
950
954
963
969
976
978
982
985
993
997
1004
1006
1007
1010
1018
1025
1034
1036
1042
1045
1051
1057
1063
1068
1072
1080
1086
1094
1100
1098
1098
1099
1108
1107
1108
1110
1106
1109
1108
1109
1105
1101
1093
1088
1083
1077
1069
1064
1052
1044
1040
1035
1030
1024
1021
1018
1017
1023
1023
1018
1016
1011
1015
1016
1016
1014
1011
1008
1002
1001
996
994
986
985
986
986
985
984
984
988
988
996
999
1001
1001
1004
1009
1014
1017
1020
1024
1024
1034
1043
1049
1054
1056
1061
1070
1075
1079
1082
1084
1086
1090
1094
1099
1099
1098
1101
1104
1111
1111
1112
1111
1110
1113
1114
1115
1112
1106
1105
1103
1103
1102
1098
1093
1092
1091
1090
1092
1089
1083
1082
1081
1081
1076
1071
1066
1058
1055
1053
1048
1044
1036
1032
1028
1019
1013
1004
995
985
979
976
968
962
954
947
947
947
945
944
943
944
946
947
944
938
933
929
933
936
936
937
937
938
944
952
958
958
961
961
970
975
978
979
979
982
984
989
991
994
995
995
1003
1009
1014
1017
1022
1025
1030
1036
1042
1042
1045
1050
1053
1061
1068
1070
1071
1072
1074
1081
1081
1082
1081
1083
1092
1095
1099
1099
1100
1101
1105
1108
1111
1106
1106
1106
1103
1107
1105
1100
1097
1094
1095
1095
1091
1088
1084
1079
1078
1079
1076
1076
1072
1070
1072
1070
1066
1058
1048
1041
1038
1036
1032
1028
1024
1021
1021
1025
1024
1026
1024
1023
1025
1025
1019
1010
1001
995
990
988
986
978
979
973
975
975
976
974
973
972
974
977
979
976
974
977
979
980
983
981
981
979
979
982
985
987
985
986
993
997
1004
1004
1006
1009
1014
1018
1022
1022
1021
1021
1028
1032
1033
1035
1035
1034
1037
1040
1040
1037
1035
1032
1035
1039
1039
1036
1035
1032
1036
1039
1040
1037
1037
1036
1038
1040
1042
1037
1036
1033
1035
1033
1031
1025
1020
1018
1015
1011
1006
1002
995
992
995
996
997
999
996
998
1000
1000
994
984
973
965
959
954
946
939
932
925
924
925
921
923
920
922
926
931
934
939
942
946
955
961
965
971
975
980
986
995
998
1003
1006
1013
1017
1025
1029
1033
1038
1040
1050
1059
1063
1065
1068
1071
1080
1084
1087
1087
1088
1088
1092
1095
1097
1095
1097
1099
1103
1108
1110
1110
1109
1111
1111
1116
1115
1115
1111
1110
1111
1115
1113
1110
1106
1103
1103
1101
1097
1088
1077
1066
1058
1052
1044
1037
1024
1022
1022
1020
1019
1017
1013
1009
1003
998
987
977
967
959
953
951
944
934
927
922
921
921
920
915
913
908
910
913
913
911
911
913
919
923
928
930
933
938
942
946
951
955
960
965
973
979
991
993
1000
