1066
1049
1041
1042
1048
1046
1046
1044
1040
1040
1044
1049
1055
1048
1036
1024
1022
1021
1020
1018
1012
1000
988
984
975
963
955
946
936
930
924
913
900
885
883
886
894
895
896
887
888
896
903
905
900
899
904
911
914
911
915
918
928
934
939
943
943
943
956
962
965
963
970
971
979
987
989
989
993
996
999
1000
998
1000
1006
1015
1017
1023
1026
1026
1029
1030
1039
1047
1050
1052
1054
1062
1070
1075
1077
1075
1070
1061
1054
1046
1038
1030
1026
1024
1019
1022
1021
1022
1015
1008
1005
1007
1000
991
989
989
993
993
988
982
977
970
965
960
954
942
930
920
916
910
900
891
889
889
884
880
881
884
891
892
890
892
890
886
885
884
889
892
895
894
901
902
906
912
918
924
926
930
936
941
947
953
953
960
967
977
980
981
980
978
983
990
993
1000
1001
1002
1004
1009
1011
1016
1019
1024
1023
1027
1027
1034
1036
1044
1052
1057
1063
1062
1063
1059
1054
1047
1037
1027
1021
1014
1013
1014
1013
1010
1008
1011
1012
1009
1003
995
986
982
979
979
977
971
964
960
954
951
939
927
916
909
904
897
890
882
874
870
868
864
863
863
862
862
867
869
867
860
857
856
859
863
862
862
866
869
876
882
886
884
888
896
902
907
909
911
913
921
929
933
940
943
944
946
952
958
962
966
968
972
971
977
981
984
990
990
992
998
999
1003
1007
1012
1019
1027
1031
1034
1038
1042
1046
1043
1037
1027
1017
1010
1007
1006
1001
995
993
995
1000
1006
1006
1006
1006
1003
999
989
978
968
963
966
970
968
963
951
935
925
920
918
909
897
882
870
866
863
856
851
842
832
827
826
829
828
826
827
828
831
832
832
831
826
824
824
829
830
830
835
838
841
842
849
849
855
860
869
878
880
883
888
897
904
912
921
926
936
945
948
945
943
949
960
970
976
979
982
982
992
1001
1008
1011
1010
1013
1022
1030
1045
1055
1061
1065
1065
1065
1061
1058
1050
1035
1023
1019
1021
1019
1015
1011
1006
1004
1004
1005
1008
1006
1004
1003
1000
994
985
976
976
978
974
956
944
939
934
934
931
921
903
888
883
883
878
874
865
858
853
851
851
848
850
849
853
858
867
867
855
851
853
861
866
867
869
868
870
870
870
871
874
878
886
894
895
897
904
911
919
930
941
948
951
960
969
976
980
985
989
995
1002
1008
1014
1021
1028
1035
1033
1029
1032
1045
1054
1058
1068
1077
1082
1089
1106
1113
1115
1116
1119
1114
1102
1083
1067
1054
1044
1039
1038
1038
1036
1025
1019
1016
1013
1008
1000
999
996
984
969
963
961
955
947
937
927
923
923
920
915
906
901
898
896
887
873
864
862
863
859
863
868
866
862
855
864
876
888
893
893
888
881
882
887
891
894
897
907
907
907
903
903
905
919
931
938
945
946
951
961
977
994
1002
997
998
1008
1020
1027
1034
1036
1032
1032
1041
1051
1060
1066
1067
1072
1076
1080
1082
1087
1102
1114
1113
1114
1124
1141
1151
1149
1140
1132
1125
1115
1094
1079
1071
1077
1080
1069
1056
1039
1036
1044
1040
1025
1012
1008
1000
993
989
984
973
965
956
952
947
946
939
928
914
907
907
909
908
900
889
883
882
883
881
876
877
884
890
893
888
888
893
902
906
902
903
901
903
898
898
904
911
916
919
927
927
927
927
931
936
945
954
963
971
973
973
979
996
1013
1024
1030
1033
1031
1027
1030
1039
1051
1060
1066
1062
1057
1059
1070
1083
1089
1090
1086
1092
1095
1108
1124
1136
1142
1147
1148
1150
1155
1156
1154
1149
1146
1135
1121
1099
1083
1079
1076
1075
1072
1068
1063
1057
1053
1049
1041
1028
1016
1005
993
985
983
986
982
971
964
959
952
948
931
924
927
929
921
908
900
893
886
889
890
892
890
884
887
896
898
896
888
883
886
895
910
911
906
896
894
903
915
919
915
912
914
924
937
940
935
933
938
950
962
970
979
988
999
1000
1001
1003
1015
1031
1043
1049
1047
1054
1055
1059
1064
1075
1083
1087
1085
1087
1095
1105
1113
1118
1115
1117
1130
1149
1163
1171
1173
1176
1176
1169
1164
1154
1137
1126
1116
1106
1095
1084
1074
1074
1077
1076
1068
1055
1044
1033
1022
1019
1018
1007
995
988
983
980
974
972
965
953
953
952
945
937
927
921
912
907
903
906
906
907
909
915
922
923
916
908
909
916
920
918
915
922
931
936
931
924
917
919
922
930
938
945
956
964
967
968
969
972
977
986
999
1003
1008
1011
1020
1028
1039
1049
1052
1050
1047
1053
1062
1071
1070
1072
1077
1084
1089
1097
1102
1108
1108
1106
1115
1127
1134
1134
1142
1156
1168
1176
1177
1171
1167
1162
1158
1141
1118
1100
1088
1094
1098
1100
1089
1069
1056
1050
1047
1041
1034
1027
1014
998
988
986
987
977
962
952
948
946
942
936
924
916
908
911
907
898
889
891
895
897
900
898
891
887
884
889
894
892
887
890
895
896
901
900
898
896
898
907
912
912
911
911
915
921
928
934
937
939
947
959
971
980
988
994
1001
1010
1017
1015
1014
1016
1024
1034
1038
1043
1046
1050
1053
1056
1064
1068
1071
1079
1085
1091
1096
1098
1102
1106
1114
1123
1132
1138
1143
1143
1140
1138
1132
1124
1109
1099
1091
1090
1088
1082
1081
1074
1065
1059
1051
1044
1035
1026
1021
1016
1012
1002
996
989
984
974
967
962
955
952
946
938
933
927
918
915
912
911
912
905
901
897
897
900
901
902
898
897
896
902
904
905
903
902
903
902
908
907
907
908
909
920
922
926
926
930
936
941
949
950
955
961
967
979
987
991
995
999
1005
1008
1013
1017
1019
1022
1023
1028
1033
1037
1038
1044
1052
1058
1062
1064
1061
1066
1072
1081
1088
1093
1095
1097
1101
1104
1101
1095
1082
1071
1064
1059
1057
1054
1053
1048
1046
1048
1044
1037
1031
1024
1021
1018
1013
1003
997
993
989
987
981
971
967
961
962
956
947
936
925
917
913
915
914
911
906
900
900
903
903
898
890
893
895
897
899
901
903
906
912
911
911
912
915
915
926
934
936
940
938
938
942
949
954
956
957
958
966
969
971
972
976
981
985
988
990
992
998
1003
1009
1015
1022
1025
1025
1024
1032
1041
1044
1043
1040
1039
1045
1049
1055
1058
1062
1065
1067
1068
1058
1048
1035
1028
1025
1023
1024
1022
1023
1025
1024
1017
1011
1002
993
986
980
977
975
976
972
965
962
963
959
951
944
934
932
928
926
921
916
911
909
910
909
904
908
904
903
902
901
899
896
893
894
898
899
901
902
905
907
908
907
912
914
918
921
925
930
934
937
939
946
952
954
958
963
964
965
967
966
967
966
967
974
978
980
982
985
993
1000
1003
1004
1005
1008
1011
1015
1022
1025
1026
1029
1033
1042
1046
1047
1044
1040
1032
1027
1021
1020
1011
1008
1008
1016
1020
1016
1010
999
991
989
983
974
970
968
966
966
964
961
953
947
949
950
947
944
937
928
925
925
924
923
915
913
910
911
913
910
903
896
893
898
902
908
908
911
912
913
912
912
916
920
917
918
922
926
931
938
942
953
959
957
953
956
963
970
973
974
976
977
977
982
989
996
999
997
1000
1006
1009
1010
1009
1011
1018
1023
1027
1025
1023
1024
1026
1033
1035
1042
1046
1049
1048
1046
1040
1027
1017
1011
1006
1004
1004
1003
999
997
1001
1002
1001
994
983
976
973
978
982
981
976
967
960
956
958
954
954
947
944
941
942
935
928
925
920
914
913
915
915
912
910
910
911
908
908
911
911
914
917
917
917
916
923
928
929
927
922
922
928
937
942
944
942
950
955
963
966
972
975
975
975
981
989
991
992
994
990
995
999
1005
1013
1016
1016
1023
1029
1029
1024
1021
1024
1033
1043
1046
1047
1045
1046
1051
1052
1054
1048
1040
1029
1024
1014
1010
1007
1006
1007
1010
1012
1008
1000
989
985
984
986
985
982
978
985
986
984
980
975
971
970
969
965
957
946
941
936
932
932
927
918
915
912
914
914
909
909
906
903
906
904
905
900
896
897
901
909
906
903
905
908
916
924
929
930
931
933
943
951
948
954
955
956
964
970
977
980
981
982
987
993
999
1002
1002
1006
1014
1019
1020
1017
1017
1023
1029
1040
1045
1046
1050
1048
1052
1052
1050
1039
1027
1016
1011
1005
1005
1004
1011
1014
1015
1016
1014
1008
1003
999
999
998
994
990
985
981
985
992
989
991
991
984
979
973
964
959
953
947
945
943
939
933
928
925
923
922
921
922
921
921
923
924
919
917
913
911
910
917
920
914
912
916
923
930
930
931
935
934
938
945
947
947
952
963
972
980
984
980
982
986
990
992
997
1000
1002
1003
1007
1010
1010
1007
1008
1011
1019
1028
1030
1032
1029
1030
1032
1030
1021
1010
1006
1004
1006
1004
1001
1000
1003
1004
1007
1002
997
989
984
981
985
985
984
983
983
982
982
979
974
975
976
974
972
965
962
956
944
936
936
941
938
935
926
922
923
928
930
926
923
919
925
928
929
925
927
924
926
929
931
927
929
929
933
937
937
937
938
939
944
949
954
957
957
962
968
974
978
981
983
987
990
995
996
998
997
999
1003
1006
1002
1004
1007
1006
1013
1018
1020
1018
1017
1023
1028
1027
1024
1015
1004
998
995
993
995
994
994
994
992
994
991
982
971
963
959
959
958
958
963
965
964
964
961
953
950
948
952
954
950
945
935
928
925
925
921
914
914
908
907
906
902
900
894
896
894
892
889
887
891
896
897
895
889
886
888
890
892
896
900
902
903
909
917
920
919
921
927
937
946
953
958
959
969
975
982
986
991
992
994
1005
1012
1023
1026
1030
1031
1035
1046
1055
1060
1059
1061
1064
1073
1080
1076
1063
1051
1042
1038
1037
1037
1034
1032
1029
1032
1031
1026
1022
1012
1002
993
984
980
976
969
968
970
965
957
950
951
948
947
944
945
948
951
941
929
924
927
926
923
921
922
923
924
914
903
898
904
909
912
907
908
907
906
901
896
891
892
898
903
911
908
908
909
914
917
921
927
928
931
941
951
962
967
964
965
967
979
993
1004
1010
1011
1012
1013
1016
1021
1024
1027
1035
1042
1048
1049
1052
1058
1065
1074
1083
1090
1101
1109
1104
1090
1072
1064
1060
1060
1059
1054
1048
1045
1044
1040
1024
1014
1012
1008
1003
988
971
968
970
965
956
943
937
939
942
940
936
935
934
937
938
938
938
938
937
936
935
933
933
933
932
932
930
927
925
927
928
934
931
926
921
917
919
926
931
930
921
922
923
930
938
944
944
947
955
962
969
973
987
996
1006
1013
1011
1012
1020
1031
1039
1044
1049
1056
1062
1062
1069
1075
1082
1086
1086
1092
1096
1102
1106
1111
1115
1126
1136
1141
1143
1141
1131
1119
1105
1085
1082
1087
1091
1088
1076
1060
1052
1048
1041
1030
1021
1010
999
987
979
975
971
957
943
936
939
947
944
942
941
944
942
940
940
942
944
944
938
937
939
940
936
930
932
933
931
927
929
936
944
942
943
946
944
943
946
949
948
950
958
969
975
975
972
972
980
996
1009
1014
1022
1021
1026
1025
1037
1049
1058
1057
1054
1061
1074
1081
1084
1085
1096
1099
1101
1107
1115
1123
1126
1125
1130
1139
1145
1147
1155
1169
1181
1185
1180
1166
1152
1138
1132
1133
1125
1113
1100
1099
1094
1084
1072
1048
1018
1004
1007
1006
995
982
970
960
956
955
952
953
951
949
953
959
957
951
948
945
949
950
946
941
940
939
937
935
937
938
935
926
925
924
932
940
939
930
929
933
939
942
959
970
971
969
970
980
998
1009
1008
1006
1019
1034
1045
1045
1042
1048
1060
1073
1083
1094
1101
1098
1099
1109
1132
1140
1142
1139
1142
1150
1153
1163
1174
1180
1188
1197
1207
1205
1197
1184
1177
1171
1161
1152
1142
1140
1134
1124
1113
1097
1078
1058
1043
1036
1028
1018
1008
1004
1006
999
986
969
960
962
968
970
975
977
972
965
965
970
971
966
953
949
953
960
959
953
945
947
944
942
940
940
939
938
939
937
940
944
937
934
940
954
964
961
957
963
972
987
994
1000
1007
1007
1009
1022
1032
1040
1047
1052
1050
1051
1064
1079
1083
1083
1089
1100
1107
1116
1118
1120
1122
1131
1139
1154
1167
1175
1178
1184
1187
1186
1184
1181
1174
1160
1144
1136
1130
1129
1121
1117
1109
1100
1083
1068
1048
1029
1013
1002
997
994
986
975
968
964
955
944
947
955
968
975
972
966
960
965
976
973
965
962
965
972
973
969
954
948
952
960
959
955
953
952
952
955
954
951
951
952
955
960
962
969
971
970
976
979
982
989
995
1004
1012
1023
1030
1033
1029
1033
1046
1059
1070
1075
1071
1070
1076
1087
1100
1105
1104
1109
1119
1128
1132
1133
1135
1141
1153
1166
1172
1169
1170
1175
1176
1174
1161
1150
1136
1129
1125
1118
1112
1109
1105
1098
1084
1073
1064
1053
1035
1018
1007
1001
994
983
972
966
964
959
953
947
943
938
935
942
951
956
954
949
942
936
933
933
939
944
943
936
930
926
924
923
923
920
921
922
917
910
908
917
927
926
919
917
921
931
935
938
938
942
947
954
960
964
969
976
984
994
1009
1018
1026
1028
1028
1032
1036
1046
1055
1062
1068
1074
1077
1082
1086
1089
1091
1092
1099
1106
1115
1121
1128
1136
1142
1153
1162
1163
1158
1148
1132
1125
1121
1118
1111
1112
1110
1104
1098
1086
1081
1075
1066
1056
1041
1025
1016
1006
997
986
972
962
956
950
945
935
931
929
930
938
942
942
939
939
942
948
950
947
940
933
936
939
934
930
925
924
923
923
926
924
918
914
911
914
916
917
916
912
912
916
922
921
921
921
924
928
932
935
937
944
951
959
965
964
969
973
983
995
1001
1007
1007
1011
1016
1025
1030
1030
1032
1035
1041
1047
1055
1061
1068
1075
1082
1088
1092
1090
1093
1090
1088
1082
1079
1078
1076
1075
1072
1071
1072
1073
1069
1065
1067
1062
1060
1050
1037
1025
1010
997
988
981
982
978
974
972
967
966
962
957
956
956
954
954
950
952
948
950
952
954
950
942
941
937
938
934
931
929
925
924
922
917
911
905
906
908
910
907
905
902
897
897
898
900
900
896
895
903
912
917
916
919
924
934
942
945
951
951
955
962
968
971
975
978
989
995
994
994
995
1001
1006
1010
1011
1013
1018
1026
1029
1026
1020
1011
1004
998
996
997
999
1000
998
995
990
991
986
984
979
971
960
956
952
948
946
945
944
940
934
935
935
935
937
939
944
942
940
940
948
958
961
961
952
952
950
951
949
948
939
938
939
938
940
938
934
928
927
926
920
916
911
909
909
913
916
915
912
905
904
902
903
902
906
911
918
919
914
920
921
923
926
932
943
950
957
958
958
957
958
961
963
963
968
980
987
993
993
994
992
999
1004
1006
999
986
976
972
972
973
975
975
980
980
977
975
974
970
970
970
967
958
953
951
954
960
962
960
955
946
944
948
951
947
940
936
933
935
939
940
943
948
956
957
955
949
942
940
937
937
939
945
948
951
949
945
940
931
929
926
925
927
932
928
921
919
921
924
927
928
925
922
916
908
909
909
909
911
918
919
921
926
923
923
920
929
941
953
966
970
974
970
970
965
967
974
983
989
992
992
989
984
978
978
977
980
986
987
981
972
968
967
964
961
962
962
962
962
962
956
956
956
957
950
946
938
932
930
935
939
938
936
931
929
927
924
920
924
931
937
939
938
934
938
944
947
946
941
932
927
930
936
942
942
939
935
929
923
926
931
937
936
936
934
932
929
930
933
932
932
931
928
924
922
923
930
939
946
947
943
947
946
949
954
957
964
972
980
984
987
986
983
981
986
991
992
992
994
990
994
1000
1000
999
995
994
994
993
991
985
978
978
975
980
982
983
980
978
974
972
965
965
964
963
967
964
958
959
957
956
958
955
953
945
936
938
940
939
938
938
935
945
952
957
956
955
956
956
956
957
955
947
943
937
931
929
930
933
934
932
930
929
926
923
918
918
921
921
921
918
915
917
918
916
911
911
912
919
922
920
921
928
942
952
957
957
956
956
959
963
963
967
967
964
962
970
981
989
989
986
988
991
989
990
984
974
968
973
979
980
975
969
970
972
974
975
978
980
978
977
978
980
973
965
960
961
964
967
962
954
949
950
953
954
951
951
950
950
951
959
965
967
964
967
974
981
982
977
973
972
971
971
969
965
958
960
962
959
961
960
960
956
954
950
947
941
939
941
941
940
938
935
936
934
936
938
939
937
938
935
939
938
940
942
947
957
965
970
971
973
972
970
969
971
970
966
968
973
977
982
983
984
982
981
981
975
970
968
970
970
972
970
966
959
958
960
966
960
959
955
954
958
958
959
958
955
948
944
941
941
940
940
939
938
939
944
947
949
948
954
958
963
968
967
967
969
969
969
971
971
968
969
973
973
968
962
961
959
960
960
959
958
962
962
964
963
963
957
951
949
951
956
956
954
954
959
962
966
968
973
976
983
990
996
997
989
989
992
998
1001
999
998
996
997
1001
1003
1001
1000
995
996
998
997
990
984
979
981
989
988
983
979
976
975
972
973
968
964
960
959
959
959
956
951
946
947
947
946
943
940
940
939
941
940
940
938
940
948
955
960
961
958
953
954
956
960
958
955
951
954
954
952
951
947
947
948
951
949
946
948
948
948
947
945
941
942
937
940
944
949
951
947
949
955
964
970
971
971
970
974
978
980
982
983
986
991
997
996
994
989
988
997
1000
1003
1002
1001
1000
1003
1004
1004
1007
1006
1006
1001
997
991
987
988
988
989
990
988
983
979
975
976
975
969
963
957
951
952
948
950
951
949
945
944
942
939
936
934
935
938
941
946
951
953
956
960
964
960
958
953
955
959
958
959
955
952
950
950
953
951
953
949
950
956
958
959
955
950
952
954
955
955
953
950
952
952
954
958
961
962
965
969
977
982
983
983
987
992
1001
1001
1003
999
999
1004
1009
1012
1010
1011
1010
1013
1015
1020
1023
1023
1025
1025
1030
1025
1020
1014
1010
1012
1015
1011
1009
1006
1004
1002
999
996
990
984
983
979
979
978
971
968
967
969
971
968
965
