870
910
962
1030
1098
1168
1222
1256
1267
1256
1224
1161
1073
971
882
823
809
820
847
868
877
871
865
855
843
837
832
833
833
835
837
836
833
830
830
831
831
830
831
831
829
830
822
824
823
822
822
824
826
826
831
831
832
829
825
822
819
822
819
820
824
826
830
830
832
829
828
827
828
826
828
829
833
834
832
834
833
834
835
832
836
836
839
839
843
847
850
853
852
853
855
855
857
862
866
870
873
876
880
884
884
883
890
891
889
893
894
899
903
905
910
915
916
919
915
921
922
922
924
927
928
933
935
930
931
929
924
919
914
912
910
906
903
899
896
892
888
885
878
872
864
863
858
859
858
857
856
855
855
853
850
847
844
844
844
846
848
849
853
850
853
851
848
846
844
843
843
847
849
849
848
851
854
854
851
852
851
849
852
851
854
858
855
858
859
858
855
853
853
853
851
852
852
850
850
855
851
854
851
848
848
846
846
846
846
846
845
843
847
843
841
842
839
837
838
841
840
840
841
843
842
842
840
837
836
835
835
833
836
839
838
838
838
831
834
831
830
831
830
832
835
836
835
835
837
835
834
836
839
845
851
851
859
861
863
866
870
873
879
887
892
896
898
897
898
898
895
899
895
891
887
880
867
857
848
838
832
828
827
828
827
825
823
824
822
819
821
822
824
824
827
828
827
824
822
820
819
818
819
820
822
826
827
825
821
816
810
808
822
840
874
922
988
1063
1139
1201
1241
1262
1257
1224
1158
1061
951
856
801
787
807
837
865
873
872
861
845
834
827
825
826
827
828
831
830
827
824
823
819
817
818
819
821
823
825
827
825
822
823
818
819
817
818
820
823
825
827
824
826
824
823
822
821
821
820
819
820
823
829
827
829
828
827
829
828
824
826
826
831
835
839
842
842
845
841
842
843
842
845
851
855
860
861
864
870
871
870
873
875
881
883
885
892
898
903
906
911
910
912
913
916
915
916
920
922
929
933
937
936
936
936
933
932
930
925
924
920
918
917
911
906
897
891
884
878
873
859
857
857
855
849
849
843
838
837
832
831
827
823
823
827
829
828
829
829
825
823
824
821
819
818
820
820
824
826
830
828
826
823
826
824
823
827
827
828
832
834
834
833
837
834
834
832
835
834
836
836
841
842
843
844
841
841
838
838
837
836
834
840
839
841
840
839
836
833
832
826
828
830
832
832
830
832
835
831
831
827
828
825
827
824
823
827
829
830
831
827
829
826
820
822
822
821
823
822
819
823
826
827
824
822
819
818
818
818
818
821
820
823
826
826
827
825
824
820
821
822
825
828
829
828
829
831
831
831
831
832
839
838
842
847
852
856
855
862
864
867
873
878
889
892
891
893
891
892
893
893
890
888
882
876
864
856
842
835
828
826
827
822
820
820
819
818
819
818
817
817
820
820
820
817
819
817
813
812
809
810
810
815
818
822
823
823
823
822
815
809
804
805
808
832
863
906
959
1025
1100
1163
1214
1241
1254
1242
1212
1161
1081
981
891
823
796
803
826
847
864
866
858
846
839
832
827
826
826
825
821
819
819
814
818
817
821
822
823
821
819
820
817
814
814
814
816
819
822
821
823
821
824
819
819
816
818
815
817
816
822
822
824
823
821
820
820
819
820
820
823
825
826
830
832
834
834
832
832
833
834
834
837
839
843
844
848
851
851
852
853
853
857
858
861
863
867
877
883
885
887
890
888
894
898
905
908
913
917
922
926
927
933
935
936
939
942
940
943
947
952
950
951
948
944
939
932
926
922
916
910
901
900
892
891
885
878
873
865
860
856
849
849
848
847
847
846
843
842
838
836
835
834
832
832
836
834
834
838
839
835
834
833
834
835
834
835
838
840
844
847
845
845
844
844
839
842
839
843
845
846
849
850
850
848
849
848
843
847
845
844
848
847
850
853
850
846
847
845
846
844
843
843
845
848
847
846
845
843
840
840
837
839
838
839
839
843
842
846
843
840
838
839
837
838
835
833
838
838
840
842
839
837
836
831
834
834
833
833
835
836
837
838
838
838
837
834
834
834
834
833
833
836
837
840
837
835
837
837
834
837
838
839
842
844
846
856
855
853
859
862
862
863
869
878
883
893
902
907
903
905
902
900
894
896
893
891
884
875
864
856
845
838
831
829
825
828
828
827
829
831
829
832
831
832
830
827
825
823
821
819
820
823
826
826
827
832
828
827
825
822
820
821
819
817
811
817
821
840
869
908
968
1042
1118
1188
1236
1262
1263
1238
1180
1091
985
877
811
784
794
823
854
868
873
867
854
844
834
828
824
821
821
823
824
826
822
824
821
822
822
820
819
820
817
818
819
822
821
819
823
822
821
818
819
817
817
817
817
820
823
822
821
821
821
818
820
820
818
820
822
826
827
828
831
827
830
829
830
831
831
834
834
838
840
839
845
849
849
846
850
853
851
856
862
868
869
874
880
884
885
889
892
895
896
899
905
910
914
920
926
926
930
926
930
929
933
936
936
940
940
940
938
933
929
922
916
912
909
902
894
895
887
885
881
875
867
862
857
852
847
845
841
839
837
839
836
832
827
827
821
818
816
817
816
815
811
813
819
819
817
815
814
812
813
816
816
817
822
823
822
824
821
817
818
818
819
821
823
826
828
832
830
831
828
830
828
826
827
824
825
829
831
833
835
832
831
829
829
827
824
825
826
825
823
827
829
827
826
823
820
821
818
819
821
823
821
824
824
826
821
818
817
816
816
815
815
817
818
818
821
818
818
816
813
813
810
811
811
812
815
817
815
815
817
814
813
810
811
813
815
817
819
819
824
821
824
827
829
833
832
836
841
846
851
855
861
866
873
877
880
876
874
874
873
877
878
880
875
868
858
846
834
823
816
810
807
808
807
809
811
811
809
809
806
804
799
801
803
804
803
805
805
805
805
802
803
799
799
804
805
806
807
811
808
803
803
797
788
786
793
811
836
876
929
990
1059
1131
1187
1225
1245
1241
1215
1165
1088
984
883
806
776
780
807
832
849
852
844
833
821
814
810
811
811
809
811
810
810
804
800
802
801
802
804
808
808
808
809
806
805
805
803
804
805
807
811
809
807
807
808
804
807
807
804
808
807
811
811
815
813
815
819
814
814
815
816
816
816
821
824
828
828
831
829
829
827
831
833
836
839
843
845
851
854
858
861
861
863
865
867
872
874
882
888
894
898
900
901
905
907
911
910
913
918
925
929
933
935
932
933
934
935
931
928
928
924
924
921
921
912
905
901
896
886
880
872
868
864
863
858
856
850
849
842
837
830
828
826
824
825
822
820
822
819
818
817
816
816
810
811
811
813
816
814
817
819
816
818
815
811
813
810
815
817
823
824
825
827
826
825
825
824
824
822
822
820
827
828
831
831
832
842
848
867
887
911
941
969
999
1033
1071
1112
1153
1198
1241
1281
1315
1342
1370
1385
1399
1403
1400
1395
1381
1367
1348
1330
1318
1313
1319
1324
1331
1330
1322
1304
1274
1241
1202
1155
1103
1036
963
889
834
803
793
795
798
798
796
787
776
768
757
752
750
748
746
742
740
738
734
730
726
725
721
718
717
719
718
713
711
707
706
703
699
697
697
695
693
690
689
685
682
676
674
670
667
660
656
656
658
657
658
655
650
651
648
645
641
635
636
634
632
631
633
631
635
634
634
635
628
624
623
618
617
610
613
610
609
600
596
587
581
575
569
567
562
564
572
578
585
591
597
605
608
617
626
638
649
661
675
685
698
706
715
721
726
732
738
749
756
758
763
768
767
771
765
764
765
765
766
768
769
773
771
772
771
770
771
770
768
765
768
769
772
775
780
780
780
778
778
780
778
775
775
778
780
778
785
787
782
785
782
782
781
782
783
785
787
789
791
790
789
791
789
789
786
786
783
786
790
789
794
795
794
795
789
787
790
787
787
787
791
791
794
794
795
795
793
791
790
790
792
789
790
788
793
794
796
797
797
794
792
793
793
794
797
795
797
798
798
794
796
794
795
794
795
795
797
800
803
803
802
802
801
800
795
797
798
798
801
801
804
804
806
806
803
803
801
800
800
801
804
802
804
806
810
807
806
806
805
802
804
805
806
807
808
812
810
810
809
807
807
805
805
807
805
810
809
810
810
810
810
810
808
807
807
810
810
811
815
813
814
814
809
810
809
810
811
810
814
816
817
817
814
812
811
809
810
807
811
811
813
816
818
818
819
819
814
815
815
811
813
813
815
816
818
819
819
818
816
812
810
808
813
816
818
821
823
822
822
821
821
818
818
819
814
817
815
820
821
820
817
821
817
814
813
814
816
819
821
820
820
820
819
818
819
818
816
815
816
821
821
822
823
825
823
821
817
818
817
816
817
817
821
820
824
827
826
826
823
823
821
819
818
821
820
825
824
826
826
826
824
824
820
820
820
823
825
827
828
828
828
826
827
825
824
825
823
823
824
828
830
830
830
835
834
836
838
840
843
846
850
852
860
864
866
872
876
882
888
894
896
896
894
890
890
895
892
889
885
875
863
856
843
836
834
827
824
830
827
828
828
826
820
820
822
821
819
825
826
827
828
823
827
822
823
822
820
821
820
819
808
814
819
836
864
903
957
1024
1098
1168
1219
1246
1258
1248
1211
1147
1057
953
861
806
787
810
837
863
878
880
869
851
839
829
820
820
823
823
823
825
826
827
823
822
822
820
816
816
815
815
820
822
819
824
822
819
816
812
816
815
816
816
819
817
814
816
816
816
814
813
811
810
814
816
817
820
821
823
821
824
822
821
821
821
822
824
824
823
832
833
837
838
836
837
834
837
837
841
845
849
851
857
855
863
864
865
864
868
870
876
876
885
891
893
897
901
903
904
908
908
910
913
916
922
929
932
930
935
933
930
929
930
929
930
928
927
921
914
910
909
904
895
888
883
879
871
870
868
868
864
859
858
853
851
848
846
840
840
844
847
849
849
844
847
840
840
838
839
840
843
844
847
849
850
849
846
843
841
841
839
842
843
846
847
848
853
853
852
851
850
850
848
849
850
846
848
848
853
854
852
851
848
846
843
841
844
850
852
850
850
849
846
844
840
842
841
838
841
843
842
839
842
840
839
839
836
834
832
833
834
831
836
838
839
840
837
837
837
833
835
832
832
830
828
831
837
836
836
833
833
828
826
827
832
832
834
836
836
836
835
834
835
833
828
831
833
838
845
850
854
856
859
859
860
862
865
872
878
889
896
902
901
898
896
892
890
890
889
888
883
880
873
866
855
845
837
830
828
829
825
826
825
827
828
826
827
823
822
822
820
819
819
815
816
819
821
825
828
828
829
824
825
825
826
822
819
822
821
818
815
813
820
843
871
915
970
1034
1106
1176
1223
1255
1264
1250
1211
1148
1063
961
870
807
787
803
832
862
880
880
870
859
845
834
828
827
829
830
834
833
835
832
830
823
829
826
824
825
825
828
825
829
828
826
825
826
825
824
823
822
823
825
826
829
834
832
830
829
829
827
828
828
825
831
833
834
835
839
835
835
834
835
833
833
836
840
843
846
845
845
845
848
847
850
852
850
853
857
859
864
864
868
870
873
872
872
878
879
883
887
894
899
903
905
907
911
913
913
915
916
923
925
930
938
939
938
941
944
944
943
944
944
939
941
939
936
935
929
920
915
909
903
898
893
888
884
881
878
874
867
860
859
852
850
847
845
841
843
843
845
845
841
836
836
835
833
833
830
833
833
833
838
837
835
837
835
832
832
832
830
830
839
843
844
848
849
850
849
845
843
843
843
841
845
850
854
868
884
910
938
968
998
1033
1072
1116
1161
1209
1261
1307
1345
1375
1396
1409
1413
1408
1404
1394
1382
1365
1351
1344
1343
1343
1348
1347
1344
1333
1309
1278
1249
1216
1173
1123
1055
979
905
848
814
803
806
806
814
809
804
799
791
782
771
764
762
755
753
750
753
752
752
752
750
747
743
736
736
733
731
729
727
727
724
727
719
719
713
709
705
701
696
694
691
689
683
682
680
677
671
664
655
651
650
646
645
649
647
649
645
641
637
631
630
629
624
627
633
637
639
641
640
632
628
625
624
623
621
619
616
616
612
614
611
608
611
613
617
624
630
641
653
666
676
690
697
706
718
723
733
743
752
761
768
774
776
785
789
793
796
794
791
792
790
792
799
800
801
801
805
803
803
803
798
800
800
803
805
806
804
807
807
807
806
805
805
802
802
808
811
811
813
817
817
818
816
815
814
813
815
815
819
818
820
824
823
826
824
824
822
822
819
823
821
821
826
827
830
830
826
825
827
822
821
819
823
828
826
829
828
830
831
831
829
829
825
827
826
831
832
836
836
835
838
835
834
832
831
831
834
835
834
839
839
837
837
836
836
835
832
838
838
839
842
836
840
840
841
840
842
838
839
838
841
840
845
843
843
843
842
842
841
844
843
840
843
845
847
848
848
847
847
844
844
844
839
838
840
847
849
850
851
850
850
846
846
847
843
847
846
849
853
853
853
854
852
851
850
851
850
850
852
854
853
854
854
857
851
850
847
849
845
848
848
853
854
853
854
855
853
851
848
848
848
847
850
853
855
856
855
856
851
853
849
848
849
846
854
854
854
856
858
856
854
855
852
851
847
849
851
853
855
853
856
856
852
854
853
853
851
853
854
856
856
860
858
860
856
854
854
854
853
852
850
855
853
856
858
858
857
855
854
855
857
853
853
859
860
859
860
861
861
858
857
855
854
855
854
854
857
860
863
864
858
859
855
851
854
858
857
861
860
857
857
856
857
856
854
854
854
856
859
858
858
863
864
864
864
860
859
855
855
855
859
861
863
867
870
870
874
875
877
879
884
885
887
891
898
906
914
918
923
929
927
925
921
916
923
921
922
921
916
906
895
883
869
861
854
853
856
857
858
859
856
854
853
851
852
851
851
852
852
855
858
857
857
855
853
853
853
846
839
835
832
835
845
864
892
933
985
1048
1119
1185
1237
1270
1279
1273
1244
1190
1109
1005
907
841
817
827
852
879
896
896
891
874
866
855
845
846
846
845
847
851
850
849
848
850
850
843
848
845
842
844
842
835
837
843
844
843
842
843
842
837
836
836
837
834
836
836
836
839
837
839
839
837
835
835
837
839
841
840
843
845
846
845
848
847
848
845
846
849
849
855
858
861
859
860
865
864
866
868
868
872
874
877
877
883
886
886
889
892
894
894
895
900
900
906
907
912
916
921
920
919
920
921
924
926
929
935
937
939
939
942
941
941
942
940
939
940
939
939
939
937
934
926
925
918
912
910
906
902
898
896
893
892
887
882
879
874
870
869
862
864
863
866
865
868
867
867
864
864
862
862
862
865
864
868
868
866
868
868
866
865
866
865
864
862
863
868
867
870
872
872
869
868
868
866
864
866
864
868
868
869
872
869
868
866
864
863
863
861
862
863
863
865
865
867
861
861
858
858
857
857
860
860
860
858
859
858
857
854
854
854
850
852
853
852
853
858
856
855
853
849
851
849
845
842
848
848
852
849
850
845
844
843
843
845
844
842
843
845
846
846
846
847
847
846
845
843
843
843
842
844
849
848
848
848
848
845
845
847
844
843
842
843
846
849
850
847
847
842
842
837
839
842
844
849
849
850
852
855
856
856
856
859
860
866
871
874
880
885
892
896
902
908
913
915
910
907
907
906
909
904
905
901
896
886
872
862
855
846
842
843
843
843
845
842
841
836
836
834
835
834
833
836
839
838
839
837
837
835
834
833
832
833
837
838
839
841
845
839
836
823
822
824
828
847
880
922
981
1050
1124
1189
1239
1265
1267
1250
1209
1140
1046
945
862
822
817
835
862
883
890
887
875
862
850
845
844
846
846
844
843
843
843
841
839
837
838
840
842
843
843
842
841
840
839
838
837
838
837
840
837
844
844
844
842
842
839
839
837
839
841
843
843
848
844
845
846
848
842
841
846
847
850
852
854
858
859
858
861
859
861
863
863
865
867
871
872
876
877
880
882
882
884
887
887
891
895
903
905
910
914
917
921
922
928
928
930
926
932
940
942
948
952
953
956
952
955
956
954
954
956
958
958
959
956
951
947
942
935
928
921
916
913
909
903
902
897
892
886
881
878
871
866
861
863
864
862
862
862
860
860
859
855
855
853
852
851
851
856
857
859
857
857
855
853
856
854
855
856
859
858
864
865
865
867
868
866
867
863
864
864
863
868
873
886
906
928
957
989
1029
1069
1106
1155
1200
1249
1292
1337
1365
1389
1403
1418
1420
1418
1418
1408
1396
1386
1374
1364
1360
1358
1358
1365
1364
1358
1344
1318
1292
1262
1234
1198
1147
1086
1013
938
880
842
826
827
831
837
835
832
819
812
799
788
786
785
