980
978
976
977
978
981
979
977
979
978
980
981
981
980
978
975
979
977
978
978
976
978
978
980
979
978
977
977
979
981
979
978
978
979
979
980
980
978
976
976
979
981
980
978
976
976
976
978
977
978
977
976
977
981
980
977
978
978
977
982
982
978
979
978
980
982
981
979
977
978
980
980
982
981
978
979
978
981
980
981
979
979
980
983
982
981
979
979
981
983
983
981
981
982
984
986
988
989
990
993
995
996
998
997
998
998
1001
1004
1005
1004
1002
1005
1003
1004
1002
999
997
996
997
997
995
992
989
987
984
986
982
979
979
976
976
978
977
975
973
973
974
975
975
974
972
972
974
976
975
974
972
974
974
975
976
974
973
974
976
981
983
986
990
990
995
1007
1025
1045
1070
1100
1126
1151
1175
1198
1215
1214
1192
1152
1106
1061
1030
997
973
959
962
969
977
978
975
975
973
970
966
965
966
966
966
963
963
961
962
965
965
963
962
962
963
965
965
965
963
962
962
964
966
966
965
964
968
970
969
969
968
969
971
973
972
972
970
972
972
977
979
977
977
978
980
984
986
983
983
983
987
989
991
990
991
994
995
999
999
1000
1000
1002
1004
1007
1011
1011
1011
1012
1015
1018
1019
1019
1018
1019
1021
1023
1021
1018
1019
1016
1016
1016
1017
1013
1012
1006
1007
1008
1005
1000
998
996
995
996
994
991
989
988
989
989
987
985
983
983
983
986
984
981
983
982
984
987
986
986
983
983
984
985
986
985
981
980
982
987
985
984
985
983
985
985
984
984
982
984
985
986
986
983
984
983
985
987
988
984
983
983
987
987
987
984
984
984
985
988
986
985
984
983
985
986
986
985
983
984
983
984
986
982
982
983
982
983
984
985
982
982
983
986
985
982
981
981
984
984
983
982
983
981
982
984
983
981
982
981
982
982
982
981
980
980
981
981
981
979
978
980
981
983
981
980
978
977
981
981
980
980
978
978
978
981
980
980
978
978
981
983
980
980
979
979
980
982
983
983
979
981
982
984
984
983
981
980
983
984
984
984
980
982
984
984
984
982
982
982
983
984
983
983
983
982
983
985
985
985
983
983
986
988
986
985
983
984
988
987
988
986
986
985
986
986
986
986
987
986
988
990
986
984
984
986
985
989
989
989
988
988
989
989
989
988
990
989
992
992
991
992
992
992
994
999
998
1001
1002
1002
1003
1006
1007
1009
1010
1009
1009
1011
1011
1013
1014
1012
1012
1010
1008
1008
1007
1004
1004
1003
1003
1000
998
995
995
992
991
990
988
988
988
988
987
985
985
984
985
987
987
984
983
983
985
987
984
985
982
983
984
988
986
986
982
982
985
987
988
987
989
995
1000
1004
1006
1013
1023
1040
1061
1084
1108
1129
1144
1159
1181
1200
1203
1187
1157
1123
1088
1055
1027
1004
992
982
982
988
993
993
988
985
985
985
983
980
979
980
980
980
978
978
976
976
978
980
977
976
977
978
978
981
981
982
979
979
982
985
983
984
983
981
982
985
985
984
984
984
986
988
989
985
985
985
987
991
990
991
990
992
994
995
995
995
996
997
999
999
1001
1001
1000
1002
1003
1007
1007
1007
1009
1010
1012
1014
1015
1016
1016
1018
1022
1024
1026
1025
1025
1026
1029
1031
1033
1031
1031
1031
1032
1034
1034
1034
1032
1032
1032
1033
1031
1028
1026
1024
1021
1022
1020
1019
1016
1013
1012
1013
1010
1008
1004
1003
1001
1002
1002
999
997
996
995
996
995
996
992
994
993
994
992
991
990
991
991
993
993
991
990
991
992
994
992
991
990
991
991
994
993
992
990
990
992
992
992
990
988
989
990
994
989
990
990
989
991
992
992
991
989
988
987
991
989
989
988
989
989
988
987
989
985
988
988
989
988
987
985
984
987
988
987
987
985
985
986
988
986
986
984
986
984
986
986
985
981
982
985
986
986
985
983
983
984
985
983
982
983
982
983
985
985
984
982
981
984
986
985
984
981
982
984
985
983
983
982
982
984
983
984
982
980
979
982
981
981
979
978
980
981
982
981
980
979
981
982
986
982
983
979
979
981
983
982
980
978
978
980
984
982
980
979
980
982
984
983
982
981
980
980
984
983
979
979
979
980
981
982
980
981
979
981
983
982
981
980
980
979
982
981
979
978
981
980
981
982
980
979
980
980
983
981
981
979
980
981
983
982
980
978
977
981
983
980
980
978
980
982
985
983
982
980
982
985
986
983
981
981
981
983
987
987
988
989
996
1002
1010
1018
1024
1030
1037
1047
1056
1060
1055
1045
1034
1020
1001
972
941
912
891
888
898
909
916
920
925
931
937
935
934
932
932
934
936
935
933
926
922
918
918
921
922
923
931
943
958
972
980
983
982
984
985
986
986
984
986
990
991
990
993
991
993
995
997
998
996
996
997
999
1002
1005
1003
1001
1005
1007
1011
1011
1011
1011
1011
1015
1017
1018
1023
1022
1026
1028
1034
1036
1037
1039
1042
1048
1051
1054
1057
1060
1063
1067
1074
1077
1078
1081
1086
1089
1095
1100
1104
1105
1105
1112
1119
1119
1121
1120
1123
1129
1133
1132
1130
1125
1124
1120
1120
1116
1111
1105
1099
1093
1091
1086
1079
1075
1067
1062
1058
1052
1045
1039
1034
1028
1024
1020
1015
1012
1006
1004
1005
1001
997
994
993
992
994
992
990
987
986
987
988
987
987
984
984
986
986
984
985
982
983
985
987
987
987
983
984
986
987
985
985
985
985
986
986
984
984
984
984
984
988
986
986
984
984
986
986
986
986
984
984
986
985
983
987
982
982
984
987
985
982
982
982
982
985
984
982
981
981
985
984
983
981
980
977
981
981
981
980
978
979
980
981
979
978
977
975
978
981
980
978
976
978
979
980
980
979
977
977
979
981
979
977
976
975
978
981
978
978
976
976
976
978
977
976
975
975
976
978
977
977
977
976
978
979
980
979
976
976
977
978
978
976
976
975
978
980
978
975
974
974
977
978
978
978
977
976
978
981
979
978
977
977
979
981
980
978
978
978
977
981
981
979
977
977
980
980
980
978
978
978
978
980
981
981
980
982
981
984
984
982
979
980
980
982
982
983
979
978
981
983
984
982
981
980
981
984
985
982
979
980
983
987
985
985
982
984
982
985
987
983
984
984
985
986
985
984
984
985
985
987
987
987
985
985
987
989
988
988
987
985
988
990
988
989
988
987
988
990
990
989
987
986
985
991
991
990
989
990
989
992
990
990
988
989
989
991
990
990
988
989
990
991
992
989
989
991
991
993
992
990
988
990
991
993
993
992
989
990
991
995
994
995
992
993
995
998
1000
1003
1003
1004
1006
1011
1011
1010
1011
1012
1012
1015
1016
1015
1015
1015
1018
1019
1016
1013
1011
1011
1011
1011
1009
1006
1005
1003
1002
1004
1001
1000
996
995
994
994
992
992
988
988
988
990
991
990
990
989
990
990
989
990
988
989
989
991
990
990
988
988
989
991
992
992
990
992
993
1003
1006
1006
1006
1012
1026
1044
1062
1082
1102
1124
1144
1162
1177
1195
1210
1211
1195
1171
1138
1099
1064
1039
1019
1002
989
986
989
995
998
1001
999
995
992
991
989
988
987
985
983
985
986
986
987
985
983
982
984
985
986
984
981
983
985
987
986
985
984
985
986
988
987
988
987
986
987
990
990
990
987
989
989
993
993
990
991
991
992
995
995
995
993
994
997
998
999
997
996
998
1000
1004
1006
1005
1004
1005
1009
1011
1011
1012
1013
1012
1014
1017
1018
1019
1018
1020
1022
1025
1028
1029
1029
1028
1031
1034
1034
1032
1033
1034
1036
1040
1039
1037
1036
1034
1034
1035
1033
1032
1028
1025
1026
1025
1023
1021
1018
1015
1014
1014
1011
1009
1006
1003
1003
1003
1003
1003
998
999
997
998
998
997
994
994
996
997
996
994
992
992
994
995
994
993
991
992
993
994
993
991
992
990
991
993
992
991
988
988
991
995
992
991
989
988
989
992
991
989
987
987
989
992
991
990
988
989
990
991
990
989
986
987
988
989
988
987
986
987
987
989
989
984
984
986
987
988
988
986
984
985
985
986
984
983
980
980
983
986
984
983
979
981
981
985
984
980
980
979
981
984
982
983
980
979
980
983
981
979
976
979
979
980
979
976
976
976
976
978
978
977
975
976
977
979
977
976
974
974
977
979
979
978
976
975
977
977
977
976
975
976
975
977
977
976
973
974
975
977
975
974
972
972
973
976
976
974
972
971
974
975
974
973
971
972
973
976
974
974
969
971
973
975
976
975
972
971
972
974
973
972
972
972
973
975
974
972
970
969
972
973
974
972
970
971
973
972
971
970
971
970
973
972
973
970
969
969
972
971
972
970
969
970
971
972
973
973
969
972
974
975
975
973
969
972
974
976
976
974
971
973
974
974
975
976
974
973
977
980
981
981
983
985
985
988
988
989
989
989
992
994
996
995
992
994
997
1000
1000
996
993
993
991
991
989
988
985
984
984
984
981
980
977
973
974
975
974
972
970
969
970
973
971
971
970
969
969
970
970
969
967
968
970
969
969
967
967
967
969
972
970
969
967
969
967
969
971
971
975
981
987
991
994
1002
1017
1039
1065
1092
1119
1139
1156
1178
1204
1221
1219
1199
1160
1112
1064
1031
1005
978
957
949
954
961
969
971
969
969
968
969
965
963
957
958
959
959
960
959
957
957
958
960
960
960
957
959
960
961
961
963
960
961
963
965
964
963
962
965
966
968
967
967
966
967
968
969
970
969
967
968
970
973
973
972
972
973
975
978
980
979
977
980
982
985
986
987
987
988
991
995
998
997
998
999
1002
1005
1008
1007
1005
1008
1011
1016
1015
1013
1014
1016
1019
1022
1023
1021
1018
1018
1019
1019
1017
1016
1010
1012
1010
1009
1006
1003
997
997
995
995
994
990
988
987
988
988
984
983
982
978
982
983
983
981
977
980
981
981
981
980
976
977
979
979
980
978
977
977
979
980
979
979
978
979
979
981
982
981
980
978
979
981
981
980
978
980
979
982
981
979
979
978
980
984
981
982
978
978
981
981
980
980
979
979
979
980
980
978
977
977
977
978
978
976
975
975
974
975
978
977
973
974
978
979
979
977
975
975
975
978
977
974
973
975
977
978
977
975
973
971
974
974
976
973
973
972
973
976
975
974
973
973
974
975
977
973
972
973
974
975
975
971
971
974
973
975
974
974
971
972
973
975
972
974
972
974
973
976
976
974
972
972
977
977
976
975
974
974
976
977
976
977
976
974
977
978
977
975
974
976
976
977
975
977
975
975
976
980
979
978
975
975
977
978
980
976
975
976
978
980
977
978
976
976
977
978
979
978
975
976
977
980
978
979
976
977
978
979
979
977
977
977
979
980
980
980
978
978
980
982
982
980
979
981
985
988
988
991
995
1002
1011
1021
1031
1037
1042
1053
1063
1070
1069
1059
1046
1032
1013
986
954
912
886
879
889
901
907
909
911
910
913
911
908
908
906
903
901
899
896
894
895
902
909
919
933
952
969
978
981
981
981
982
983
985
988
989
992
992
992
994
996
997
999
999
998
1000
1000
1004
1005
1005
1004
1005
1010
1012
1013
1013
1012
1013
1016
1022
1025
1026
1024
1028
1032
1037
1038
1040
1040
1046
1049
1055
1058
1060
1063
1070
1075
1082
1084
1087
1091
1097
1101
1107
1110
1114
1113
1120
1124
1129
1130
1129
1129
1128
1129
1128
1123
1119
1112
1108
1104
1100
1094
1086
1077
1072
1065
1061
1055
1048
1039
1033
1029
1027
1022
1017
1010
1007
1004
1000
997
993
989
987
989
989
988
985
983
984
985
985
984
982
979
980
982
982
982
982
979
980
981
983
980
980
976
977
977
979
979
978
976
978
978
980
979
978
976
977
975
977
975
977
973
973
974
975
974
973
972
973
973
971
971
973
969
970
970
970
970
970
969
968
969
970
969
968
967
967
968
970
969
967
966
967
967
967
968
967
964
964
966
966
966
966
961
965
965
967
967
966
962
962
964
966
966
965
962
965
965
967
966
965
963
963
967
966
967
966
964
966
966
968
969
967
964
964
966
968
967
966
966
965
967
968
969
969
966
966
970
969
970
969
966
967
968
970
969
969
966
967
968
970
970
969
968
969
969
969
970
969
968
969
968
970
969
968
967
968
967
970
971
969
968
969
970
971
970
968
966
968
969
970
971
967
968
968
967
970
970
969
968
969
968
970
971
968
966
969
968
969
970
969
968
969
968
968
970
968
967
967
969
971
970
969
966
967
968
971
970
970
967
969
970
972
971
970
969
969
971
973
972
972
967
967
970
972
971
970
968
968
971
971
972
969
968
968
972
972
971
970
968
970
971
971
971
969
969
970
971
971
971
970
967
968
970
972
971
969
969
971
974
976
978
980
978
980
983
986
987
987
988
986
990
993
996
995
992
992
991
992
990
988
986
985
984
982
982
980
975
976
974
975
971
970
967
969
967
968
969
968
966
967
967
969
969
969
965
967
968
967
970
969
968
968
969
969
970
966
967
969
974
980
984
988
989
996
1008
1027
1051
1078
1103
1129
1152
1173
1197
1213
1213
1194
1157
1116
1070
1032
1005
981
962
956
958
963
968
972
971
974
971
966
963
963
963
964
963
960
961
963
961
962
963
962
960
962
964
965
963
963
962
961
964
968
969
966
966
966
965
967
968
970
966
966
969
971
969
972
971
971
971
973
975
971
973
974
977
978
980
978
977
977
980
983
985
983
983
987
987
990
993
990
990
993
997
1000
1000
1000
1000
1003
1006
1007
1009
1009
1011
1012
1014
1015
1017
1017
1017
1019
1021
1023
1021
1021
1022
1022
1023
1021
1021
1019
1015
1015
1016
1015
1012
1008
1006
1004
1004
1003
1001
998
995
996
993
994
991
988
986
988
989
987
987
985
983
984
986
988
986
985
983
983
984
985
986
985
986
985
986
987
986
985
984
987
986
988
987
986
983
983
985
987
986
985
984
986
986
987
986
984
984
986
986
988
986
987
984
984
987
988
986
987
985
984
985
986
985
986
982
983
984
984
983
982
981
980
981
983
983
982
980
980
981
984
983
981
981
981
982
984
982
981
980
980
981
982
983
982
980
978
980
982
980
979
978
981
980
984
982
980
976
979
980
980
981
979
977
978
978
980
981
980
977
980
982
983
982
978
978
978
980
982
981
980
980
981
982
983
982
982
978
981
982
984
984
982
980
981
981
984
984
983
981
981
983
984
984
982
983
983
984
985
984
984
982
982
982
985
985
983
981
983
983
985
984
984
983
983
984
985
986
984
983
982
984
985
985
986
983
985
985
988
986
985
982
983
984
988
986
983
981
982
984
987
984
984
981
983
982
986
983
982
982
983
985
988
988
985
987
990
993
995
996
998
997
1000
1003
1005
1005
1004
1000
1005
1002
1006
1008
1008
1007
1007
1006
1004
1003
1002
999
1000
1000
1000
999
997
994
993
992
993
990
987
983
983
985
984
982
979
977
978
982
984
983
982
977
978
980
982
984
981
980
983
983
983
984
984
981
981
984
985
986
984
983
985
987
991
994
998
999
1003
1007
1017
1030
1050
1066
1089
1109
1134
1150
1163
1177
1197
1206
1196
1172
1143
1110
1076
1047
1024
1008
991
983
984
988
993
994
991
986
984
984
982
981
980
978
977
977
980
978
976
976
976
977
977
979
976
975
976
978
980
978
977
976
979
979
980
980
980
979
982
982
982
984
982
980
982
983
986
986
985
982
985
986
986
987
989
992
995
999
1000
999
1001
998
1000
1005
1008
1012
1012
1011
1014
1015
1019
1016
1013
1010
1010
1010
1011
1013
1008
1007
1011
1014
1018
1019
1020
1022
1024
1028
1029
1029
1029
1027
1027
1030
1031
1031
1030
1027
1028
1029
1024
1025
1022
1017
1017
1016
1016
1014
1010
1005
1005
1002
1003
1000
997
994
993
990
989
987
987
984
985
984
985
982
983
981
982
983
984
983
981
979
983
983
984
985
985
985
985
987
989
988
987
982
986
985
986
986
984
984
987
989
989
988
988
987
989
989
992
992
993
990
990
993
999
1007
1011
1013
1020
1029
1040
1047
1050
1051
1046
1035
1029
1028
1028
1032
1039
1045
1053
1060
1065
1068
1072
1077
1080
1081
1079
1076
1073
1067
1059
1048
1038
1026
1018
1011
1009
1004
999
994
989
985
982
978
976
972
969
971
971
970
966
965
965
964
965
965
964
962
963
963
964
964
964
962
963
966
966
967
964
963
962
965
965
966
966
965
969
971
972
973
971
970
971
975
975
977
976
975
977
979
980
980
980
979
981
983
986
985
984
984
986
987
989
989
990
990
992
993
995
996
994
997
998
1001
1004
1004
1005
1006
1008
1011
1013
1013
1013
1013
1017
1019
1023
1023
1024
1023
1026
1028
1031
1031
1031
1030
1029
1030
1032
1030
1028
1025
1024
1025
1023
1018
1017
1014
1012
1010
1009
1007
1004
999
999
998
997
995
992
987
989
989
991
987
986
986
982
983
986
985
984
984
984
984
984
983
982
983
982
982
984
982
981
979
981
982
983
983
982
981
983
985
985
982
981
980
981
982
982
983
983
980
983
984
984
983
981
981
982
983
985
981
981
980
982
984
985
982
981
980
980
981
983
982
980
977
980
982
983
983
980
979
979
981
981
980
980
978
979
981
980
981
979
978
981
978
982
982
980
976
979
979
980
981
980
978
979
979
981
980
980
979
979
978
979
981
977
976
977
979
980
982
978
979
979
981
982
981
981
980
980
982
982
983
981
980
980
980
982
981
979
979
981
982
983
983
981
980
980
980
981
982
981
979
980
980
979
