1006
1007
1006
1005
1001
998
1001
1002
1003
1001
998
995
997
999
999
997
995
994
997
998
998
998
995
994
997
998
997
997
996
994
996
994
998
996
994
994
996
998
996
996
995
992
994
996
996
994
993
993
994
996
994
992
991
991
993
994
995
995
994
993
992
995
994
995
994
992
993
994
996
993
992
991
993
992
992
993
993
992
992
992
992
991
991
990
992
992
992
990
989
988
990
990
991
990
990
989
990
989
990
992
990
988
989
989
990
990
989
986
987
990
990
989
987
987
986
988
989
987
988
985
986
987
989
988
987
984
985
987
987
988
988
985
986
987
989
987
986
984
986
988
989
986
986
984
987
988
987
988
985
983
984
988
988
988
987
985
986
985
987
989
986
985
986
986
988
988
985
982
985
985
991
986
986
984
986
988
988
988
986
984
982
985
989
987
986
984
985
989
990
988
986
983
986
989
989
987
985
985
987
990
991
988
987
986
989
991
992
991
990
990
993
996
998
999
1000
999
1001
1005
1008
1008
1008
1006
1007
1013
1017
1017
1013
1010
1009
1012
1016
1018
1019
1023
1034
1043
1052
1059
1063
1062
1058
1047
1028
1008
978
943
909
881
877
890
908
919
928
931
931
925
920
914
915
914
919
919
915
907
904
906
907
909
912
918
929
946
967
981
986
985
987
990
994
992
995
995
996
999
1001
1001
1001
1001
1004
1008
1008
1008
1007
1006
1010
1013
1014
1017
1016
1017
1017
1021
1023
1025
1024
1025
1027
1032
1036
1037
1038
1038
1042
1045
1050
1050
1051
1054
1060
1066
1071
1072
1076
1078
1083
1090
1095
1095
1095
1102
1109
1116
1121
1123
1125
1128
1133
1138
1142
1143
1140
1142
1142
1143
1138
1135
1129
1123
1116
1116
1108
1101
1093
1085
1080
1075
1067
1057
1048
1042
1038
1036
1030
1023
1016
1014
1012
1010
1005
1001
996
995
994
993
993
989
988
987
988
989
987
986
984
983
984
986
987
985
985
985
985
986
986
983
985
983
987
988
987
986
986
985
988
989
988
989
986
985
987
988
988
987
986
986
988
989
988
986
985
984
987
984
984
983
982
981
982
982
983
982
983
979
982
984
984
983
981
982
982
983
984
981
976
977
979
981
980
978
977
977
978
980
981
977
977
978
978
979
978
978
977
977
979
979
979
978
977
977
978
982
980
976
974
975
977
981
980
979
976
978
978
980
981
979
979
978
979
979
978
978
978
978
981
979
981
979
979
979
979
980
981
981
980
978
981
982
981
981
980
981
980
982
985
981
980
980
982
981
981
980
979
980
982
983
982
981
980
981
982
983
983
983
982
982
982
984
983
982
980
980
981
984
983
983
983
982
982
984
984
984
982
981
983
984
985
983
984
982
982
983
985
982
982
982
984
986
986
984
984
983
984
985
986
985
983
982
984
985
986
984
983
982
984
984
986
985
983
981
981
985
984
984
982
981
984
985
986
986
982
981
985
986
987
988
987
988
990
993
996
998
998
999
1000
1003
1005
1005
1005
1004
1005
1006
1009
1009
1008
1005
1006
1005
1005
1003
1002
998
1000
1000
999
997
994
991
989
988
988
985
982
980
983
982
984
983
982
978
980
980
981
979
980
980
981
983
981
982
981
979
980
979
982
981
980
979
983
984
986
984
982
985
986
988
993
996
1001
1004
1010
1022
1038
1055
1074
1094
1116
1138
1156
1170
1185
1201
1212
1203
1182
1152
1117
1080
1049
1025
1008
996
989
991
995
1000
999
995
991
987
989
988
986
984
982
981
982
984
982
980
980
979
982
983
981
980
979
978
980
983
984
982
981
981
984
985
986
985
984
981
987
989
989
988
988
988
990
992
992
991
991
991
993
995
994
994
994
994
998
1000
1001
1001
999
1001
1001
1006
1007
1006
1005
1007
1010
1012
1013
1014
1013
1014
1019
1020
1023
1024
1023
1023
1026
1030
1033
1032
1032
1034
1036
1038
1039
1040
1039
1041
1042
1046
1047
1046
1045
1042
1045
1044
1042
1038
1035
1031
1030
1030
1028
1024
1019
1017
1016
1014
1015
1010
1007
1005
1003
1001
999
999
996
994
994
994
993
996
993
991
993
995
994
992
992
992
991
993
993
992
990
989
992
993
991
992
990
991
990
989
989
988
989
989
988
990
989
988
986
987
988
989
989
988
987
991
991
991
990
990
987
985
989
989
987
988
985
986
986
989
986
988
986
986
986
986
986
984
985
985
985
987
985
985
984
983
984
984
985
983
984
982
985
986
984
982
981
982
982
983
982
983
980
980
984
983
983
980
979
980
981
981
983
982
981
980
979
981
981
980
979
979
978
981
981
979
979
980
981
981
981
980
979
979
981
981
981
979
978
979
980
980
980
982
978
980
981
979
980
980
981
979
982
981
980
982
979
978
980
981
980
979
979
978
981
982
979
979
977
977
978
980
980
980
980
976
979
980
981
980
980
979
979
982
980
979
979
978
980
980
981
980
980
979
980
978
978
979
979
977
979
980
981
980
979
979
979
979
982
979
980
978
981
983
984
984
982
981
981
981
983
983
982
984
987
988
991
993
991
992
995
995
997
998
997
997
999
1003
1002
1002
1006
1006
1006
1006
1003
999
996
998
998
999
997
993
990
989
989
988
986
982
979
975
978
979
977
977
974
974
976
977
980
978
977
976
978
980
978
978
975
975
976
980
980
977
977
974
978
979
980
977
976
976
978
982
980
981
984
987
992
997
1001
1007
1018
1034
1057
1082
1104
1128
1145
1163
1185
1208
1225
1228
1213
1185
1145
1103
1062
1027
999
980
970
964
970
976
983
986
987
986
984
981
979
978
979
979
977
975
973
974
975
977
976
975
974
974
977
976
976
975
975
976
977
978
978
976
974
974
977
980
979
978
978
977
982
982
983
980
980
980
984
987
986
985
985
985
988
991
991
990
988
992
992
995
997
997
997
993
997
1000
1002
1004
1004
1005
1008
1011
1012
1012
1012
1011
1016
1020
1021
1024
1022
1023
1027
1031
1030
1030
1031
1033
1034
1038
1039
1039
1040
1039
1042
1043
1042
1041
1040
1034
1036
1036
1034
1030
1026
1023
1021
1020
1017
1013
1008
1005
1001
1005
1000
999
997
993
993
992
992
990
990
988
990
990
990
989
988
987
987
990
989
986
985
985
986
986
988
986
984
983
986
988
986
988
984
982
985
986
986
988
985
985
988
989
989
988
983
986
985
988
986
985
985
985
985
987
986
986
986
985
986
986
988
989
985
984
985
988
986
986
985
983
984
986
985
986
984
983
985
985
985
983
981
981
981
983
983
982
980
978
981
984
983
979
980
980
981
981
980
980
979
978
979
981
982
983
979
978
979
981
982
980
980
979
981
982
982
980
981
979
980
980
980
980
979
978
980
980
981
980
979
977
979
980
980
979
978
979
980
980
980
981
977
980
980
982
980
979
978
977
979
980
979
980
978
979
980
983
983
981
978
977
980
982
982
982
981
980
982
981
982
982
982
980
980
982
980
980
978
979
982
981
981
980
981
980
980
982
981
981
981
980
983
984
984
983
983
983
985
984
988
989
989
992
996
998
999
999
999
1001
1005
1006
1005
1004
1004
1004
1007
1012
1011
1008
1006
1003
1003
1003
1002
999
997
996
997
996
993
990
988
987
987
987
983
982
981
981
982
986
987
991
995
1000
1010
1019
1027
1033
1040
1046
1054
1057
1048
1035
1019
1005
980
947
911
880
868
872
882
889
892
895
897
899
898
897
893
890
891
892
895
895
893
889
889
893
899
907
914
924
940
957
973
987
990
989
988
988
993
997
998
996
995
996
1001
1005
1001
1004
1004
1006
1011
1013
1012
1012
1012
1012
1016
1019
1019
1020
1020
1020
1022
1027
1027
1026
1028
1028
1031
1035
1033
1037
1037
1039
1043
1047
1049
1051
1052
1055
1059
1064
1067
1069
1070
1071
1080
1086
1091
1092
1097
1099
1103
1110
1115
1118
1119
1122
1128
1134
1136
1139
1139
1141
1144
1149
1148
1147
1144
1144
1143
1141
1138
1131
1124
1118
1114
1110
1103
1095
1089
1081
1075
1070
1065
1058
1049
1042
1038
1037
1034
1027
1022
1019
1016
1014
1012
1007
1003
1001
1001
999
999
997
994
993
991
993
991
991
990
990
991
991
991
991
987
987
989
990
991
991
988
987
990
990
988
989
986
987
989
990
989
988
988
987
989
989
989
988
986
988
988
989
988
987
987
986
988
989
987
987
985
985
983
986
987
985
984
984
986
985
984
985
984
983
986
986
985
983
980
979
980
984
982
981
980
981
981
984
982
982
980
977
980
982
981
980
979
978
980
981
980
979
978
978
982
982
978
978
977
976
980
981
979
978
975
977
979
979
978
975
974
975
978
980
978
977
975
975
977
979
979
976
976
976
976
979
978
976
975
974
978
978
977
977
974
975
977
979
977
976
974
973
974
977
974
974
973
973
974
976
977
975
972
972
975
978
976
975
973
974
975
977
976
973
973
972
972
977
976
974
972
974
976
977
977
974
973
974
975
978
976
977
975
975
975
976
976
976
973
972
975
975
976
975
974
974
974
977
975
974
975
974
974
976
973
976
974
973
974
976
974
974
972
973
975
977
976
975
974
974
976
976
975
976
974
975
976
979
974
976
975
975
976
977
978
977
974
976
977
979
978
977
976
978
980
984
983
983
985
985
988
989
991
990
992
995
996
997
997
996
997
1001
1002
1003
1002
998
995
993
994
996
991
992
989
987
986
987
981
978
974
975
975
977
975
974
973
971
972
976
972
971
972
972
974
976
976
976
973
972
972
975
974
975
973
971
975
977
977
978
978
978
981
984
988
992
996
999
1011
1030
1051
1077
1101
1128
1152
1174
1200
1221
1226
1211
1176
1130
1077
1031
1000
977
967
964
971
982
983
982
980
982
979
977
971
969
972
975
972
971
969
971
972
974
973
973
971
971
971
975
975
972
972
972
974
977
976
974
975
973
977
978
978
978
977
978
978
982
981
981
980
981
984
986
986
986
985
986
990
992
990
991
991
993
997
999
1000
1001
1002
1003
1005
1006
1008
1010
1011
1013
1015
1018
1020
1020
1023
1025
1027
1031
1030
1032
1032
1034
1036
1040
1038
1037
1036
1037
1036
1037
1035
1031
1026
1025
1024
1023
1019
1015
1010
1009
1006
1005
1002
1000
996
994
993
995
993
990
988
987
987
988
988
986
985
984
986
988
988
983
980
981
985
985
985
987
981
981
982
983
985
985
983
983
985
989
985
984
982
983
985
988
986
985
981
982
983
988
986
984
982
983
985
986
984
982
981
982
986
987
984
982
981
978
983
985
983
982
980
980
981
982
980
978
979
977
980
982
981
978
975
978
978
980
979
979
977
979
981
981
979
977
977
975
977
980
977
976
974
975
977
977
978
977
973
974
975
976
977
974
974
973
974
977
976
974
974
975
976
978
975
975
973
975
976
979
976
975
975
975
977
977
976
975
975
974
975
979
977
975
974
974
978
979
978
976
975
976
978
978
977
976
975
975
975
977
976
977
976
976
978
977
977
976
975
975
976
978
977
977
974
975
978
980
978
977
977
976
978
980
978
978
976
976
979
980
980
979
976
976
978
980
981
979
977
976
978
981
981
980
978
977
979
983
984
981
979
982
984
986
987
988
989
994
996
996
996
997
998
999
1003
1003
1002
999
1000
1003
1005
1006
1004
999
996
996
997
997
995
992
988
989
989
989
987
982
980
979
978
979
978
977
974
974
975
976
977
977
975
976
977
977
978
978
975
975
976
979
978
978
976
977
978
979
980
981
979
983
989
993
998
999
1007
1025
1049
1070
1097
1120
1141
1161
1182
1201
1207
1191
1160
1120
1078
1044
1017
998
985
986
992
997
995
990
985
984
983
982
980
979
976
978
977
978
978
977
975
975
977
978
978
976
975
977
979
979
979
979
978
979
980
984
984
981
979
980
984
986
986
985
984
985
989
991
990
990
988
991
995
997
995
994
994
997
1000
1003
1003
1005
1004
1006
1010
1012
1013
1013
1014
1018
1019
1025
1024
1026
1026
1028
1031
1031
1034
1035
1036
1037
1042
1042
1042
1041
1042
1042
1043
1044
1041
1039
1034
1033
1031
1029
1024
1020
1017
1015
1010
1009
1007
1003
999
997
996
995
995
992
989
989
989
990
989
989
986
987
985
986
988
989
985
986
987
987
987
986
984
984
983
983
983
981
980
981
985
985
984
983
982
980
983
985
984
985
983
982
985
985
986
985
982
982
984
983
983
983
979
981
982
984
984
984
980
982
984
985
984
984
982
983
983
984
986
984
980
981
983
984
983
982
980
981
982
984
985
983
980
980
982
984
982
982
980
982
982
983
983
981
979
979
982
984
982
981
978
980
981
985
983
981
978
981
980
982
982
979
978
979
981
980
980
979
976
979
980
981
979
979
980
979
980
981
981
982
980
978
979
981
981
980
977
980
978
980
977
980
978
979
980
982
981
980
979
978
980
983
982
981
979
979
977
981
982
981
976
977
979
978
980
978
977
977
980
980
981
978
977
978
979
978
981
979
977
979
980
982
981
980
979
979
980
982
983
980
978
978
981
983
983
982
979
980
981
985
984
981
979
980
983
985
983
982
979
978
983
984
983
982
982
983
986
987
990
990
991
995
999
1006
1012
1019
1028
1040
1051
1059
1068
1075
1078
1075
1065
1050
1029
1000
967
933
898
879
877
890
901
913
920
925
924
922
916
913
911
912
914
913
911
908
904
902
899
901
902
906
913
926
940
956
969
979
982
983
983
982
982
985
988
991
993
992
990
993
995
997
997
996
995
998
1001
1002
1002
1002
1002
1004
1006
1009
1009
1010
1008
1012
1016
1020
1019
1019
1021
1024
1026
1029
1030
1031
1032
1037
1041
1045
1048
1051
1050
1055
1060
1064
1068
1070
1072
1076
1081
1085
1089
1094
1094
1100
1106
1111
1115
1118
1119
1124
1130
1133
1135
1135
1134
1137
1138
1137
1134
1126
1124
1121
1117
1115
1107
1101
1093
1087
1082
1079
1073
1064
1052
1047
1043
1039
1032
1026
1020
1015
1012
1011
1007
1003
999
996
996
995
994
990
988
988
988
990
988
986
983
983
984
986
985
984
981
983
986
986
988
984
981
983
983
986
985
985
983
986
987
987
988
984
983
983
985
985
987
985
981
982
984
985
985
983
981
981
982
984
983
981
979
983
982
983
981
981
979
980
979
980
982
980
979
977
977
976
979
976
975
973
976
976
979
976
972
975
977
978
976
976
973
973
974
977
975
973
972
973
972
974
973
970
972
974
976
976
976
975
974
975
976
976
976
973
972
976
974
976
975
972
971
974
975
976
975
974
974
975
976
974
976
975
974
975
977
978
977
974
972
975
978
979
977
977
976
976
978
978
977
976
973
975
977
976
976
978
975
978
977
979
979
979
976
978
980
981
979
979
976
979
977
982
978
977
976
978
978
981
978
978
976
979
980
981
980
978
979
980
981
980
979
978
977
978
981
982
979
979
979
980
980
980
980
979
978
980
982
982
982
981
979
981
983
984
980
980
979
979
981
981
980
979
979
981
982
982
980
980
979
983
981
983
982
980
979
980
981
983
983
981
980
981
984
987
985
983
982
984
983
985
987
985
982
984
985
987
986
985
983
982
986
988
989
988
982
985
988
991
989
989
987
990
990
997
998
998
998
999
1000
1005
1006
1007
1007
1010
1011
1011
1009
1009
1010
1012
1013
1014
1011
1007
1005
1004
1004
1004
1001
1001
1001
999
1000
997
997
994
991
990
987
987
986
984
986
986
985
985
983
982
983
984
984
986
982
984
983
987
989
989
986
985
983
986
987
987
987
986
983
985
985
989
989
989
987
990
997
1002
1007
1008
1009
1015
1025
1040
1056
1068
1086
1107
1131
1154
1170
1186
1201
1217
1213
1194
1164
1123
1087
1054
1029
1011
1000
994
993
997
1000
1003
1001
997
991
991
990
991
990
987
983
984
985
985
983
983
983
983
984
986
982
982
980
982
984
986
984
984
982
985
985
988
987
985
984
988
988
990
989
988
988
989
991
992
993
992
990
991
993
996
995
993
992
996
997
999
997
998
997
1000
1002
1002
1006
1005
1004
1008
1009
1011
1013
1014
1013
1017
1019
1021
1022
1021
1022
1026
1029
1031
1033
1032
1032
1036
1039
1042
1039
1041
1042
1043
1044
1047
1048
1048
1046
1046
1049
1048
1047
1044
1040
1039
1039
1036
1033
1027
1023
1020
1023
1020
1017
1014
1010
1011
1009
1009
1007
1003
1000
1001
1001
1003
1001
997
996
997
998
998
998
995
995
996
997
998
997
998
995
995
994
997
995
996
995
996
996
996
996
995
992
995
996
995
996
994
994
994
994
997
998
996
994
995
995
997
997
995
993
994
995
995
996
994
992
993
991
994
993
991
993
991
995
994
995
991
990
992
995
994
992
990
990
993
993
996
992
990
988
992
992
993
991
990
989
991
993
993
992
990
987
988
992
992
990
988
986
988
989
992
991
991
988
987
991
992
990
987
987
988
991
991
992
989
989
986
989
991
991
989
988
987
988
989
987
988
985
989
988
989
990
990
989
989
989
990
989
988
987
989
990
991
986
987
988
989
990
990
989
987
986
989
987
988
986
984
981
985
987
989
989
986
986
985
989
988
989
987
985
986
988
989
989
986
984
987
990
990
989
987
986
989
990
992
989
986
985
986
986
988
987
987
984
985
987
988
986
987
985
988
987
988
988
986
986
989
988
988
987
985
986
986
987
989
988
988
988
987
989
987
989
987
986
988
990
988
989
987
986
987
991
989
987
988
987
988
992
993
993
991
992
997
1000
1002
1003
1000
1001
1004
1007
1010
1009
1009
1007
1010
1014
1016
1013
1011
1007
1006
1008
1007
1006
1002
1000
1001
