1192
1248
1301
1334
1328
1277
1194
1099
1027
993
981
978
973
969
970
976
975
977
973
971
967
966
969
968
969
966
966
969
970
970
974
973
972
973
974
974
972
971
972
973
977
980
978
977
977
980
984
985
984
980
982
984
989
990
989
993
994
997
1004
1008
1009
1010
1012
1015
1020
1023
1027
1026
1030
1039
1047
1050
1053
1053
1059
1065
1069
1072
1074
1072
1072
1073
1078
1081
1075
1071
1068
1064
1065
1060
1052
1041
1033
1027
1023
1019
1012
1002
998
995
991
992
987
983
980
978
976
977
973
969
968
970
973
972
971
966
966
968
971
971
964
960
964
962
966
967
967
964
968
969
973
974
971
968
966
967
970
971
971
969
968
970
974
975
973
968
969
967
969
970
971
968
969
968
973
977
977
971
971
971
974
979
980
978
978
982
992
995
996
993
994
998
1001
999
995
991
984
982
985
983
981
975
974
976
977
976
973
969
964
963
968
966
964
965
962
967
970
971
971
968
967
969
971
971
968
967
964
968
972
973
972
970
971
974
973
977
979
991
1011
1038
1072
1112
1159
1206
1254
1301
1325
1304
1246
1178
1111
1055
1017
995
983
973
962
965
973
981
982
976
972
972
973
975
975
970
971
974
975
973
973
967
970
971
976
978
977
974
974
975
980
984
983
979
974
976
982
984
984
984
980
986
989
990
992
990
993
996
999
999
997
996
996
1004
1008
1011
1011
1012
1013
1019
1024
1029
1032
1033
1038
1040
1044
1051
1054
1055
1058
1063
1068
1074
1076
1075
1076
1079
1081
1085
1081
1074
1069
1069
1068
1063
1061
1050
1045
1043
1039
1037
1029
1021
1012
1008
1003
998
994
992
984
985
985
985
984
980
980
980
980
977
977
972
974
976
978
978
977
972
972
974
977
978
976
973
968
970
973
974
977
975
973
969
972
977
975
976
973
974
979
980
976
974
974
972
975
978
976
975
974
975
976
979
977
976
975
974
975
976
975
974
972
976
978
981
980
978
979
978
982
983
981
979
980
984
991
992
995
1000
1008
1022
1032
1045
1059
1070
1081
1095
1112
1125
1134
1141
1149
1162
1170
1184
1198
1209
1219
1231
1248
1262
1274
1277
1273
1263
1253
1245
1239
1231
1225
1223
1227
1231
1228
1227
1226
1228
1230
1234
1235
1234
1222
1203
1176
1145
1105
1063
1024
994
972
954
941
928
923
921
917
914
910
903
899
897
898
897
897
892
891
892
894
892
888
885
880
879
880
880
877
873
871
869
876
875
875
871
871
871
871
870
867
864
860
858
864
864
862
861
860
862
863
866
864
861
862
863
864
865
866
864
864
866
870
873
874
876
878
885
892
898
900
901
904
907
912
919
924
927
929
935
941
947
949
948
952
956
958
960
958
954
956
951
954
955
954
952
951
951
954
954
954
949
948
951
954
956
951
946
946
947
949
948
947
942
943
942
949
951
951
947
947
950
948
950
947
947
946
947
949
953
953
951
949
949
955
958
957
954
951
951
957
958
955
952
951
951
957
960
958
958
955
957
957
960
959
957
954
953
956
959
959
957
956
956
962
964
964
961
959
959
962
963
959
957
956
958
960
959
963
958
957
959
962
966
963
962
962
961
960
963
962
960
959
961
963
965
964
962
962
961
965
966
966
959
958
957
961
962
958
958
959
958
964
963
967
967
965
969
972
972
976
972
971
972
976
981
980
980
979
981
983
987
987
985
982
981
980
978
976
974
972
971
973
970
968
963
959
963
965
963
961
958
956
959
960
961
962
955
955
957
961
963
961
960
958
959
958
959
956
958
959
962
965
962
957
951
960
979
1007
1043
1083
1129
1184
1237
1288
1313
1292
1229
1156
1083
1015
978
963
958
958
959
961
965
969
965
964
962
963
961
965
960
958
962
965
968
964
964
962
964
964
963
965
963
962
962
963
970
968
968
969
971
975
977
974
973
968
970
974
975
975
975
973
978
982
984
985
984
984
984
990
994
994
993
992
995
1001
1004
1007
1007
1012
1018
1025
1029
1030
1028
1029
1031
1039
1047
1051
1047
1047
1056
1060
1064
1067
1068
1068
1070
1073
1073
1067
1063
1056
1056
1056
1053
1047
1041
1034
1031
1027
1023
1018
1011
1002
998
996
992
985
982
975
975
975
977
972
970
968
969
969
969
966
962
962
963
963
965
965
960
960
959
962
966
966
965
963
964
966
967
966
961
960
961
964
966
967
964
964
964
969
970
970
966
963
964
966
964
965
962
962
964
968
967
966
964
962
966
971
974
972
969
963
962
969
971
972
969
965
970
977
981
983
982
983
987
990
992
994
987
983
986
983
984
985
982
978
976
978
979
979
974
966
967
968
967
966
962
959
959
960
963
963
960
958
957
959
964
962
960
960
959
961
963
965
961
961
963
965
967
968
965
963
962
960
960
962
968
983
1004
1033
1072
1119
1174
1229
1283
1324
1332
1292
1218
1140
1068
1012
984
973
966
962
961
966
972
977
972
968
963
966
968
967
966
960
961
962
966
965
963
963
967
967
970
970
965
963
964
967
970
969
967
968
969
975
978
979
976
975
975
976
981
980
977
977
980
986
988
988
991
992
995
998
999
1001
1000
1001
1003
1007
1015
1018
1018
1020
1025
1032
1035
1042
1043
1049
1051
1056
1061
1064
1059
1062
1065
1069
1073
1069
1067
1068
1067
1065
1064
1060
1051
1041
1032
1031
1025
1018
1011
1001
998
998
995
991
985
980
978
976
979
972
971
964
962
965
967
970
968
961
965
967
970
970
961
960
960
963
963
963
962
957
961
964
964
967
965
963
965
967
971
969
965
963
964
967
970
966
966
964
966
967
969
970
969
966
967
970
969
968
965
965
965
969
970
970
969
969
966
973
976
975
974
971
974
980
985
983
983
987
992
997
1005
1012
1014
1022
1029
1035
1046
1054
1062
1073
1086
1103
1120
1131
1135
1140
1153
1168
1185
1197
1205
1212
1222
1241
1260
1266
1261
1252
1241
1235
1234
1228
1222
1221
1222
1224
1223
1218
1214
1211
1213
1218
1219
1211
1188
1158
1120
1077
1032
993
960
939
927
922
921
920
913
906
904
904
903
902
898
896
893
892
890
892
889
884
884
886
888
888
884
881
880
880
882
879
875
873
867
871
871
870
869
865
865
867
868
870
865
862
861
865
866
864
862
862
864
866
870
872
870
869
873
877
884
884
885
886
891
897
905
910
916
919
924
933
940
947
949
950
955
960
963
965
962
961
963
966
966
967
963
963
962
962
963
960
955
953
952
952
957
956
952
953
953
955
955
955
949
949
948
950
955
954
951
948
950
952
955
956
952
950
954
955
955
957
953
952
948
950
955
955
954
951
954
958
961
959
957
957
957
962
964
964
961
959
959
963
964
964
962
961
962
964
964
964
961
960
961
960
961
962
960
960
960
964
966
968
965
961
961
963
965
965
965
964
966
968
970
971
968
964
962
964
966
967
964
961
962
964
966
969
968
970
971
973
978
979
977
978
981
984
988
986
986
985
986
988
992
991
987
981
977
977
979
980
977
975
975
978
976
976
970
963
966
966
967
966
962
956
960
961
964
963
962
959
960
961
965
963
961
962
961
964
964
966
961
960
962
964
969
969
963
960
963
979
1002
1027
1054
1096
1143
1192
1244
1291
1311
1293
1242
1177
1110
1051
1007
979
970
966
965
963
962
962
966
970
970
969
962
960
960
962
965
963
959
958
958
958
963
966
961
958
958
963
965
964
965
962
965
969
970
969
966
962
964
965
971
971
969
971
974
979
982
980
976
975
978
981
985
985
983
984
986
990
996
1002
1000
1002
1003
1009
1017
1021
1020
1019
1020
1025
1032
1037
1038
1040
1043
1048
1055
1058
1055
1055
1057
1065
1065
1067
1065
1063
1058
1055
1058
1052
1048
1037
1037
1033
1033
1029
1019
1011
1005
1002
997
992
986
976
974
975
977
973
967
964
962
961
961
962
957
953
952
953
953
955
951
952
953
954
958
957
955
953
954
955
955
957
953
948
952
956
960
962
959
955
952
955
959
960
956
953
952
956
960
959
956
955
950
954
956
961
959
956
959
958
959
960
958
953
954
959
965
966
966
966
967
968
976
977
975
970
974
977
981
977
973
976
975
979
980
979
977
971
969
969
969
966
959
955
952
956
958
959
955
955
954
955
955
955
951
948
948
950
951
951
946
946
946
951
952
952
948
948
951
951
951
955
952
949
949
947
946
947
954
970
997
1029
1076
1124
1173
1226
1274
1310
1307
1261
1189
1109
1032
979
955
950
950
950
950
960
962
960
954
947
946
949
951
955
951
949
949
950
955
955
954
950
951
953
955
956
957
956
958
958
962
966
962
960
960
964
967
967
966
964
963
967
974
978
974
975
976
980
983
985
984
984
986
989
996
997
1000
999
1006
1011
1019
1022
1021
1022
1025
1033
1039
1044
1043
1039
1043
1048
1052
1057
1054
1051
1052
1049
1051
1047
1039
1027
1020
1016
1015
1010
1003
994
988
984
981
977
969
962
958
955
960
958
955
951
949
951
952
952
948
947
945
946
949
947
946
942
945
949
950
951
948
946
946
948
949
952
948
944
945
948
950
951
949
950
951
949
955
955
950
948
951
952
953
953
950
949
949
952
956
957
955
955
952
958
957
958
956
953
957
962
969
972
969
969
968
971
979
982
984
983
981
982
985
989
997
1004
1009
1021
1032
1042
1051
1063
1072
1088
1102
1110
1117
1122
1135
1151
1169
1187
1199
1213
1230
1251
1268
1274
1268
1253
1246
1238
1232
1226
1223
1221
1219
1220
1221
1219
1215
1212
1215
1218
1221
1215
1197
1164
1126
1086
1044
1004
968
942
924
913
910
905
900
893
888
888
887
885
882
879
879
877
879
879
876
871
871
872
874
874
866
860
858
859
863
863
859
859
856
858
859
856
854
849
848
849
849
850
844
842
843
845
848
848
845
840
842
844
844
848
848
846
849
854
861
865
868
868
875
880
888
892
897
900
905
912
918
927
929
930
937
945
953
958
956
952
952
957
960
961
958
954
954
955
958
958
950
949
949
952
958
957
952
950
948
951
953
953
950
949
948
952
954
953
951
948
949
950
952
952
949
947
949
951
954
956
952
952
952
951
956
958
958
955
954
956
960
959
957
955
957
963
964
965
964
961
961
964
967
967
964
962
960
963
967
967
966
961
962
964
968
970
966
962
964
966
970
971
969
967
968
971
976
976
972
972
976
983
987
988
989
990
993
1001
1003
1004
999
998
997
997
997
995
989
984
983
983
984
982
979
975
974
973
976
974
970
968
968
970
972
972
971
969
969
973
974
973
971
968
970
972
974
971
972
969
970
973
975
982
993
1013
1045
1092
1150
1204
1255
1299
1327
1315
1255
1178
1096
1029
997
985
982
978
968
972
975
979
977
976
969
968
967
970
977
976
975
972
973
975
977
977
974
972
975
977
979
982
981
978
980
981
984
984
982
979
979
984
991
988
985
987
990
992
996
996
995
995
997
1001
1007
1007
1007
1008
1010
1017
1024
1027
1029
1031
1034
1041
1045
1050
1050
1049
1054
1060
1065
1071
1074
1074
1074
1079
1087
1086
1084
1083
1082
1080
1081
1077
1071
1066
1062
1057
1057
1051
1043
1035
1027
1024
1019
1015
1009
1000
996
992
994
990
986
981
981
980
985
982
978
973
973
976
978
977
971
968
968
974
977
976
974
970
969
973
975
974
970
969
969
970
975
976
974
972
971
974
974
974
971
967
968
970
972
971
973
971
970
971
973
975
972
970
972
979
985
988
989
987
991
996
1000
1002
1001
1000
999
997
997
995
989
984
983
985
985
982
974
970
967
964
965
966
961
957
957
961
964
964
960
960
960
963
965
963
959
955
951
955
959
960
962
960
959
960
962
961
957
954
957
971
993
1019
1055
1103
1163
1223
1278
1314
1311
1266
1201
1126
1053
1000
974
962
956
953
953
958
962
962
960
958
959
958
954
951
953
953
955
957
956
952
954
956
961
958
958
956
957
962
965
965
961
958
959
964
967
970
970
967
962
969
972
975
973
970
973
975
979
980
981
981
983
988
993
995
994
992
998
1002
1007
1010
1010
1010
1012
1016
1027
1031
1031
1029
1035
1041
1045
1051
1051
1048
1048
1055
1057
1056
1050
1045
1042
1041
1042
1035
1030
1023
1016
1015
1010
1006
997
987
982
980
978
975
969
963
957
959
958
960
957
952
951
952
953
953
948
947
943
945
951
951
950
945
945
949
953
952
946
945
942
948
948
951
947
944
944
949
951
952
949
945
943
947
948
947
946
943
943
945
950
952
952
950
950
951
948
948
947
949
950
951
957
955
953
948
946
948
954
951
951
954
954
959
963
969
967
963
962
966
976
977
976
973
974
979
982
981
985
990
994
1004
1015
1025
1032
1039
1044
1058
1069
1083
1093
1103
1117
1132
1152
1168
1179
1187
1202
1223
1246
1266
1274
1271
1265
1261
1258
1251
1242
1232
1223
1223
1226
1216
1213
1208
1205
1203
1213
1213
1205
1191
1172
1150
1120
1078
1030
986
956
936
926
914
903
895
889
890
886
883
879
877
873
873
874
871
867
862
859
862
864
862
856
855
852
856
859
855
852
847
842
844
845
842
840
837
835
836
835
836
830
827
827
830
833
832
828
825
822
822
826
827
826
824
820
826
831
834
837
838
838
844
853
858
860
863
868
877
888
890
897
900
907
917
925
931
931
933
936
938
942
941
941
939
944
944
947
946
941
941
939
940
943
943
942
935
936
937
941
941
938
936
936
938
941
942
942
938
936
937
938
936
934
934
935
940
942
943
941
937
937
941
946
945
944
942
941
941
943
945
943
943
943
947
952
951
951
948
946
949
951
950
948
948
947
951
952
950
952
948
951
956
959
961
957
953
953
956
957
956
954
951
952
956
959
960
957
955
955
958
958
958
959
956
960
963
970
969
973
973
973
977
983
985
986
984
986
987
987
985
982
975
973
972
975
971
970
966
962
965
966
966
959
958
957
956
961
961
958
958
958
959
965
966
963
960
961
962
964
966
964
959
961
963
967
967
965
962
961
960
972
982
1001
1023
1057
1099
1152
1205
1253
1298
1328
1326
1290
1229
1163
1097
1039
1002
983
975
971
967
961
965
971
973
971
967
967
968
970
969
969
962
965
966
971
969
964
966
964
966
969
969
967
966
969
970
969
971
973
971
969
970
978
978
978
975
976
980
981
981
978
979
981
987
988
990
991
992
993
997
1002
998
997
999
1001
1009
1014
1018
1021
1023
1024
1032
1036
1042
1044
1043
1046
1051
1060
1062
1062
1062
1063
1069
1075
1081
1082
1080
1081
1081
1085
1088
1085
1080
1075
1074
1072
1068
1059
1051
1046
1044
1039
1035
1026
1019
1011
1007
1009
1004
998
990
988
986
987
986
984
980
978
979
978
981
978
975
975
975
975
974
971
969
968
973
976
978
975
972
975
977
977
976
976
972
972
972
976
977
975
972
972
975
981
981
980
977
976
977
980
980
976
972
975
976
979
979
978
978
977
980
979
982
980
974
977
980
982
984
986
986
983
991
997
1002
1002
1000
1003
1005
1011
1012
1011
1008
1007
1006
1006
1006
1000
997
995
992
993
989
989
985
982
982
983
981
975
972
967
973
977
979
976
974
971
975
977
975
976
974
973
973
976
976
979
976
979
981
982
982
976
973
972
976
992
1009
1024
1051
1087
1128
1183
1236
1282
1322
1332
1300
1242
1175
1107
1049
1011
997
991
984
973
972
976
983
985
983
982
977
974
975
980
979
977
973
973
975
979
981
977
976
978
981
982
983
981
980
983
985
988
988
985
983
983
984
989
989
989
989
990
991
993
996
994
991
996
998
1003
1004
1002
999
1001
1006
1011
1016
1015
1016
1018
1023
1028
1032
1032
1035
1036
1042
1043
1048
1050
1054
1054
1061
1069
1069
1073
1072
1075
1079
1081
1085
1082
1081
1082
1083
1083
1079
1075
1069
1066
1067
1063
1058
1050
1041
1034
1033
1027
1024
1016
1010
1002
1002
1002
1001
996
990
988
990
987
987
981
980
979
982
982
983
982
978
975
977
979
979
978
976
976
977
980
979
976
974
974
976
977
978
979
975
974
976
981
980
979
978
976
977
979
976
974
973
970
977
980
981
980
977
976
978
980
976
979
972
972
976
978
981
979
977
978
979
982
984
982
980
983
985
989
991
993
993
993
998
1001
1006
1005
1007
1009
1015
1021
1026
1030
1031
1036
1047
1059
1068
1073
1081
1092
1104
1115
1126
1135
1139
1144
1157
1175
1189
1198
1207
1218
1233
1255
1269
1270
1261
1248
1241
1242
1240
1233
1226
1225
1231
1230
1227
1224
1218
1213
1216
1222
1220
1206
1186
1158
1120
1079
1037
994
963
943
927
920
916
914
907
905
903
903
901
898
893
892
890
891
890
883
880
876
877
877
880
876
872
868
870
871
874
870
868
865
861
865
863
860
858
857
855
862
859
857
854
852
854
856
855
856
851
851
856
862
861
860
857
859
862
872
876
879
879
880
889
896
904
910
910
915
921
930
937
941
941
942
946
953
954
954
952
951
952
955
955
955
953
950
951
952
952
951
948
944
943
946
946
944
940
941
941
948
945
947
941
940
939
943
943
939
935
937
942
948
946
944
939
939
940
943
946
944
943
940
941
943
944
945
946
947
945
947
949
945
944
948
948
951
949
949
948
947
948
952
952
951
946
947
949
952
954
951
949
947
948
951
955
952
951
949
952
955
956
954
949
949
952
957
958
954
950
950
953
959
962
967
965
966
970
976
976
975
975
978
980
984
984
982
979
975
974
974
971
967
960
955
951
958
954
953
949
946
946
953
956
955
951
948
951
955
953
949
947
945
941
948
949
950
950
952
953
953
955
955
952
947
946
947
949
957
974
1002
1042
1092
1152
1203
1249
1288
1312
1294
