979
983
981
978
976
978
982
980
982
984
979
981
983
982
982
979
976
978
982
982
982
979
978
981
986
988
988
988
989
994
996
999
996
998
1000
1004
1009
1013
1011
1008
1007
1010
1009
1008
1002
996
996
996
995
991
985
980
979
979
979
978
976
971
970
970
977
975
973
967
969
970
971
971
970
966
966
967
968
971
966
967
966
970
972
970
968
964
963
964
969
967
965
969
981
1001
1027
1061
1100
1150
1201
1256
1301
1320
1300
1240
1174
1104
1046
1008
987
974
967
965
967
972
975
970
967
965
969
970
969
966
964
963
963
967
967
964
963
965
967
966
965
963
965
963
970
976
973
969
967
971
973
975
972
967
967
968
970
972
971
971
971
975
977
981
981
977
981
984
991
991
987
987
985
993
998
1004
1006
1005
1008
1011
1017
1020
1022
1023
1026
1032
1036
1036
1036
1035
1038
1046
1053
1053
1054
1054
1050
1054
1057
1057
1053
1049
1044
1042
1042
1036
1027
1022
1015
1007
1006
1002
996
985
981
980
978
974
971
963
961
960
961
963
961
957
956
955
959
959
954
951
949
950
952
952
949
946
946
947
950
950
951
946
949
952
957
956
951
946
944
948
952
952
951
951
951
951
953
954
952
949
949
950
950
952
951
950
950
950
956
956
953
951
951
952
962
965
964
962
962
966
969
973
975
975
977
977
980
981
978
976
971
970
970
967
969
967
968
974
987
992
1002
1012
1021
1032
1045
1058
1071
1083
1094
1110
1123
1141
1158
1171
1187
1207
1231
1254
1267
1268
1265
1257
1247
1243
1235
1224
1217
1219
1223
1219
1213
1210
1209
1214
1222
1220
1211
1191
1160
1124
1077
1030
988
956
932
918
910
902
895
890
885
880
879
876
870
866
862
865
869
871
865
862
861
862
860
860
857
851
848
850
851
851
852
847
842
844
843
844
842
838
833
834
834
835
831
827
825
826
828
829
824
821
822
823
828
830
830
827
823
825
828
831
831
830
834
843
848
854
856
858
861
870
874
879
881
886
889
893
902
910
913
913
916
921
929
931
930
928
927
927
931
931
931
927
925
927
927
926
924
925
923
920
925
925
921
920
917
917
920
922
919
915
914
919
921
924
920
919
916
918
919
919
914
915
912
914
919
922
921
918
918
919
922
923
923
918
915
914
920
922
922
920
921
925
928
931
928
928
924
927
932
932
931
928
926
924
930
932
931
930
929
931
937
939
939
938
940
943
946
948
946
942
950
956
966
968
966
962
961
962
963
965
959
954
947
947
949
949
945
941
937
937
938
939
936
933
930
929
935
933
933
931
933
934
935
935
937
932
932
933
937
938
935
933
933
934
936
935
936
932
939
953
974
1007
1044
1089
1144
1199
1256
1295
1291
1235
1161
1091
1024
975
952
943
938
933
937
940
942
941
937
937
942
941
938
935
935
937
939
939
940
936
935
936
939
942
943
942
941
942
944
947
946
941
940
944
947
949
947
946
946
946
955
955
956
953
955
958
965
966
965
961
961
969
971
978
980
981
985
990
994
1000
999
1002
1004
1008
1016
1019
1024
1024
1025
1033
1039
1043
1047
1046
1046
1049
1050
1053
1050
1045
1040
1039
1039
1035
1031
1023
1014
1016
1010
1005
999
989
984
978
975
973
965
958
952
952
954
954
952
947
946
947
948
945
946
943
942
941
943
943
941
937
935
939
944
946
942
939
942
943
945
945
942
939
939
940
945
947
946
943
944
946
947
949
946
945
944
942
946
948
946
944
943
945
945
946
949
946
942
945
948
950
951
948
951
952
959
959
960
958
961
965
971
975
975
972
972
974
974
972
971
963
955
957
960
960
953
948
947
949
948
949
945
939
935
938
940
941
939
936
936
937
940
937
942
937
936
937
939
940
940
937
936
936
941
943
942
940
943
941
942
943
949
967
989
1020
1063
1106
1150
1193
1237
1271
1283
1243
1177
1095
1027
987
967
957
951
938
935
938
948
951
949
942
939
936
939
935
937
931
935
937
940
941
941
937
937
937
938
939
942
941
939
943
947
948
947
944
944
946
950
953
952
949
945
948
956
955
956
958
958
961
963
967
968
968
968
971
978
982
983
986
989
994
999
1006
1007
1008
1011
1016
1018
1024
1025
1027
1029
1032
1035
1039
1041
1040
1036
1038
1038
1039
1037
1026
1023
1018
1013
1010
1003
997
989
985
978
976
968
963
954
954
953
950
947
945
942
943
946
947
945
942
941
943
943
945
941
936
935
938
939
942
941
939
939
941
941
943
940
934
938
939
942
942
942
939
938
942
945
946
945
942
941
942
943
945
944
942
941
941
944
946
949
944
942
943
946
947
945
944
942
943
946
950
951
948
949
956
958
960
961
958
963
968
973
974
976
982
992
1001
1011
1022
1028
1036
1044
1055
1067
1080
1091
1100
1108
1121
1139
1155
1167
1177
1191
1206
1225
1240
1243
1235
1226
1218
1215
1211
1205
1197
1195
1198
1201
1196
1190
1187
1185
1191
1195
1196
1187
1168
1139
1104
1061
1022
984
956
933
916
909
902
895
885
882
877
876
877
874
868
865
862
864
865
864
861
858
859
857
859
856
852
845
851
852
850
849
850
845
845
847
847
842
840
836
838
841
837
840
834
827
831
836
836
836
833
832
834
838
839
837
837
834
839
841
844
843
843
845
849
853
859
861
863
866
872
879
886
890
893
895
903
909
916
917
919
920
925
930
933
930
930
927
928
931
933
929
926
925
926
926
928
928
923
919
921
925
927
923
919
917
919
921
924
919
918
919
920
923
923
925
922
919
921
924
926
924
921
916
918
921
926
927
924
925
926
930
931
930
926
927
928
930
931
933
930
928
930
933
936
937
932
935
935
938
940
939
938
934
934
938
939
941
939
937
940
944
945
941
938
934
936
941
940
941
937
939
940
942
942
942
941
937
939
943
943
944
941
938
939
944
948
946
948
948
952
956
959
959
957
954
957
961
967
969
971
969
972
976
976
974
967
964
962
964
963
958
952
951
951
953
955
954
948
947
944
949
950
948
945
943
944
948
946
949
945
946
949
952
954
954
950
948
951
953
955
957
951
946
945
950
966
987
1013
1046
1095
1152
1210
1257
1290
1291
1247
1173
1090
1018
970
949
949
949
952
957
957
959
958
959
957
954
954
952
955
956
957
958
954
952
955
959
960
959
959
957
956
957
960
962
959
960
963
966
968
969
967
963
966
968
973
971
968
966
969
973
976
979
980
981
983
986
991
990
989
991
993
998
1002
1002
1005
1007
1012
1019
1024
1027
1024
1026
1032
1039
1044
1046
1046
1048
1053
1057
1065
1067
1065
1065
1066
1072
1074
1071
1063
1059
1057
1056
1049
1044
1037
1029
1029
1027
1022
1016
1007
1000
996
993
992
986
978
973
972
975
973
973
970
967
969
971
971
970
965
963
963
968
968
967
963
960
959
966
970
969
968
964
965
968
970
970
965
962
965
968
968
969
970
967
969
969
972
973
969
967
970
973
974
971
968
966
967
974
975
974
972
971
971
973
978
976
976
976
980
984
987
988
988
988
992
998
1000
1001
998
996
996
998
1002
999
992
987
988
987
988
984
978
974
975
974
977
974
971
967
966
967
969
970
968
969
970
971
973
970
967
964
965
971
972
968
968
966
967
972
976
972
968
967
970
987
1011
1039
1078
1123
1174
1232
1285
1315
1306
1254
1180
1110
1049
1005
986
976
968
969
973
977
976
973
972
975
978
974
969
969
970
969
971
975
973
971
972
975
981
982
976
976
978
982
982
985
983
979
979
981
987
988
987
985
986
993
996
997
997
995
997
1001
1003
1007
1008
1010
1013
1019
1024
1026
1026
1027
1031
1038
1040
1043
1045
1046
1048
1058
1064
1067
1067
1071
1070
1075
1080
1082
1081
1078
1079
1077
1074
1071
1062
1055
1049
1043
1038
1025
1017
1009
1005
1002
996
996
992
986
986
986
985
985
982
981
979
982
985
986
985
983
980
983
987
981
982
980
981
983
984
987
984
981
984
988
990
989
986
985
986
989
988
989
984
982
983
988
988
990
985
988
986
989
991
990
989
987
988
989
992
993
990
993
997
1001
1006
1006
1004
1002
1006
1007
1017
1020
1021
1023
1026
1037
1047
1055
1063
1065
1077
1086
1101
1109
1115
1125
1135
1147
1156
1164
1171
1179
1194
1210
1224
1238
1255
1271
1278
1276
1269
1256
1244
1235
1233
1230
1237
1238
1235
1231
1231
1232
1231
1232
1233
1231
1222
1210
1189
1158
1110
1063
1024
999
981
965
953
943
940
939
936
931
927
924
920
919
918
919
920
915
913
913
914
911
911
905
908
906
908
907
904
900
900
899
901
900
897
895
894
897
893
893
891
888
887
888
891
892
890
888
888
887
893
892
890
889
890
891
894
897
894
897
901
907
912
916
916
917
923
929
936
941
945
945
952
960
966
972
973
976
979
983
989
989
986
988
987
987
986
986
983
980
978
980
983
984
977
978
977
978
981
979
974
976
973
972
976
976
974
972
972
975
979
975
974
971
970
972
971
976
972
969
970
974
976
977
975
974
971
973
978
980
978
974
974
975
979
979
978
977
977
978
981
982
981
978
979
981
983
983
977
974
977
979
984
984
984
982
980
980
984
984
984
976
980
982
984
983
982
980
980
982
982
985
981
981
980
982
984
981
975
975
977
980
983
983
979
976
981
986
991
995
991
990
991
995
999
1002
1002
1001
1005
1009
1013
1013
1009
1005
1003
1000
999
995
990
984
984
986
988
985
981
976
977
978
977
974
970
966
968
971
975
977
970
970
971
979
978
976
971
970
972
972
975
978
972
968
971
974
976
974
973
981
997
1021
1054
1096
1144
1194
1241
1285
1317
1314
1272
1201
1128
1061
1016
995
981
973
970
972
977
982
981
973
970
969
975
977
974
972
971
973
974
975
972
970
972
973
978
974
972
972
970
977
979
981
979
977
979
982
982
985
983
982
982
985
987
983
987
984
987
994
998
1000
1000
996
998
1001
1006
1005
1005
1005
1007
1013
1021
1023
1022
1022
1027
1031
1036
1040
1038
1038
1043
1047
1052
1054
1053
1054
1059
1065
1074
1075
1074
1075
1078
1079
1081
1081
1076
1071
1064
1062
1062
1061
1050
1046
1040
1037
1031
1027
1020
1015
1010
1008
1003
999
994
990
988
988
987
984
981
981
983
981
981
979
975
971
969
969
974
972
970
970
971
974
974
972
972
970
974
975
979
975
974
970
972
972
972
974
971
968
971
973
976
975
973
970
972
973
975
973
972
970
968
970
976
975
974
970
972
974
978
979
981
982
985
983
984
988
986
987
990
993
998
1000
997
996
996
997
996
996
990
983
982
983
985
983
978
972
970
971
970
967
963
961
960
961
966
966
963
959
959
961
964
966
961
960
960
964
963
965
963
957
959
959
962
964
960
960
961
960
960
961
967
981
998
1027
1064
1108
1157
1209
1261
1301
1305
1261
1189
1120
1054
1003
975
964
958
956
957
959
965
969
967
962
960
961
964
963
960
960
959
963
967
966
964
960
958
961
965
967
964
961
965
968
971
969
968
967
969
970
970
971
971
971
970
973
975
976
977
976
981
983
987
987
986
984
984
989
993
995
990
992
997
1000
1005
1010
1011
1010
1013
1018
1025
1027
1026
1028
1030
1035
1038
1040
1043
1043
1048
1049
1056
1058
1056
1054
1057
1058
1059
1058
1051
1046
1041
1038
1036
1032
1027
1018
1016
1014
1009
1005
996
989
984
983
981
977
970
966
967
968
967
967
964
961
958
961
963
963
959
955
956
956
957
957
955
953
954
955
957
960
957
954
957
957
959
960
959
953
955
956
959
958
955
955
954
958
961
960
958
956
954
958
961
960
956
952
954
961
962
964
962
961
962
968
972
974
971
969
971
973
979
982
981
979
985
987
991
991
986
984
982
988
987
986
984
979
975
974
976
977
977
983
992
999
1011
1025
1031
1038
1053
1067
1081
1093
1102
1107
1113
1123
1139
1156
1167
1179
1194
1211
1232
1252
1267
1267
1264
1256
1248
1242
1235
1223
1220
1220
1221
1223
1215
1215
1215
1214
1218
1220
1221
1215
1204
1186
1163
1128
1086
1041
1001
974
952
934
921
913
912
910
907
903
896
889
890
888
888
888
884
883
882
881
882
880
875
874
872
875
875
875
869
864
865
866
866
868
864
860
859
859
860
857
853
848
846
849
850
851
846
842
842
845
849
848
844
840
840
847
848
848
845
844
849
853
858
861
862
861
870
876
883
888
889
891
899
904
913
916
920
921
929
935
941
948
949
950
952
952
959
958
956
952
950
952
953
953
952
948
949
952
952
952
947
946
946
949
950
949
945
942
942
945
949
951
947
945
944
947
947
945
946
940
943
942
946
947
942
940
942
948
950
952
949
944
947
948
950
951
947
944
946
950
953
954
951
951
954
956
958
957
957
951
952
955
958
959
956
953
956
955
962
963
963
964
967
973
977
976
973
972
977
981
987
989
986
984
985
993
994
989
983
979
980
982
980
972
969
964
963
964
967
966
960
959
957
960
962
962
959
953
953
957
962
962
958
956
957
960
965
964
963
959
960
963
965
966
961
960
968
989
1014
1039
1071
1111
1159
1216
1269
1310
1322
1297
1240
1173
1107
1045
1002
982
973
969
966
965
968
970
967
967
966
965
960
959
961
965
968
966
962
962
959
963
964
966
966
963
961
967
969
971
968
969
969
969
973
975
973
973
973
974
978
977
979
979
978
984
988
990
989
990
991
994
996
998
1000
1000
1002
1008
1013
1014
1020
1021
1024
1028
1035
1039
1040
1040
1045
1050
1056
1061
1059
1061
1064
1070
1074
1075
1074
1072
1072
1073
1073
1071
1065
1056
1050
1048
1045
1038
1032
1024
1019
1017
1012
1010
1003
995
988
989
988
985
975
972
973
974
976
974
970
967
967
966
967
970
967
959
959
961
966
965
963
963
962
966
968
967
965
964
964
965
969
968
966
961
963
966
968
971
966
965
965
968
970
967
964
963
961
965
968
965
966
962
961
967
969
971
966
968
970
975
980
980
978
976
978
982
988
993
994
990
989
993
996
997
994
992
986
986
985
983
978
972
967
966
967
969
965
961
960
958
961
962
960
956
955
956
956
956
957
956
954
954
959
959
958
957
955
958
960
961
954
954
953
956
963
968
986
1006
1034
1080
1132
1185
1232
1274
1302
1293
1238
1162
1085
1026
994
981
977
966
954
952
957
967
967
964
958
955
952
956
960
958
956
955
955
956
958
960
957
952
954
958
962
963
963
959
959
963
968
969
967
964
963
967
970
971
968
967
971
975
979
980
978
977
980
985
987
988
988
989
990
998
1004
1005
1007
1008
1013
1018
1023
1026
1026
1026
1031
1035
1042
1045
1042
1044
1047
1052
1057
1056
1053
1049
1048
1047
1046
1044
1036
1027
1024
1018
1015
1009
1002
994
990
986
986
980
973
967
961
961
964
965
961
958
957
958
959
956
952
951
951
954
954
954
952
951
948
949
954
953
950
948
952
951
955
957
954
952
950
954
955
958
954
953
954
954
956
955
955
952
951
954
957
955
953
951
950
954
958
955
952
951
951
954
957
957
953
950
951
956
960
960
963
967
968
972
974
971
972
973
979
981
984
989
991
994
999
1011
1025
1037
1044
1045
1056
1067
1079
1090
1101
1109
1117
1128
1145
1160
1170
1180
1195
1213
1236
1252
1256
1250
1243
1234
1226
1223
1218
1214
1209
1214
1217
1212
1207
1202
1201
1205
1209
1207
1197
1175
1147
1114
1071
1023
981
954
934
923
911
902
900
895
892
890
887
887
881
874
873
877
880
879
873
868
866
865
866
865
861
858
857
856
854
854
853
851
847
848
850
851
849
844
841
844
847
846
841
838
836
840
844
843
842
841
841
843
844
844
844
841
843
848
856
860
858
862
866
875
879
885
888
891
895
899
907
914
917
917
924
931
935
935
933
931
929
936
937
936
934
928
928
930
931
931
929
922
921
923
926
930
927
922
920
921
925
925
922
923
916
922
924
924
921
922
920
920
923
924
919
916
916
923
928
929
928
923
922
925
927
929
924
925
925
925
931
933
929
926
927
929
936
934
931
928
927
931
931
933
932
930
930
930
934
935
932
932
929
929
931
932
930
931
930
933
937
936
935
932
929
934
935
937
931
930
928
932
937
938
934
936
934
935
940
941
941
941
944
946
951
954
952
953
958
963
966
966
961
959
958
958
959
956
953
944
939
939
940
943
941
937
933
936
935
934
933
929
930
934
937
938
932
931
928
933
937
939
938
935
932
935
935
936
935
931
930
929
935
950
968
991
1033
1082
1142
1197
1245
1280
1283
1237
1162
1076
1003
953
935
932
937
933
935
937
943
945
944
939
936
932
931
933
935
939
937
935
933
937
937
938
937
937
935
935
940
941
939
935
936
941
946
946
947
943
943
947
950
951
947
944
948
950
955
956
954
954
956
959
966
968
966
962
967
972
973
980
979
976
982
988
997
1002
1004
1001
1005
1011
1018
1021
1023
1024
1024
1029
1036
1035
1037
1037
1037
1039
1040
1038
1036
1026
1025
1022
1016
1011
1001
992
988
986
983
978
971
961
960
957
957
953
946
941
940
939
941
940
939
936
937
935
934
936
934
931
929
930
933
928
928
924
930
933
937
937
935
930
930
931
934
937
934
932
928
933
936
935
932
933
928
934
936
936
934
933
930
931
936
933
935
932
928
933
936
937
934
931
934
937
943
949
949
947
949
951
955
960
960
956
955
958
958
955
949
943
941
942
941
940
938
932
927
929
933
930
928
926
923
924
926
927
925
923
923
928
926
929
926
926
927
928
930
930
928
926
923
926
925
928
934
949
971
1007
1053
1115
1174
1227
1269
