1285
1252
1183
1101
1020
964
942
938
937
932
923
926
934
939
936
930
927
925
930
931
934
932
929
927
928
933
933
931
927
927
930
933
933
931
930
929
934
938
941
939
936
936
938
941
944
940
939
941
945
949
952
951
950
951
955
958
963
960
958
960
965
972
971
973
975
978
985
989
992
994
995
999
1007
1015
1018
1017
1018
1018
1023
1031
1033
1034
1031
1030
1031
1033
1033
1027
1021
1014
1009
1008
1006
1000
990
984
980
979
973
969
962
953
953
951
947
943
940
938
941
942
942
938
935
933
936
937
936
935
931
928
928
936
935
935
933
931
935
935
940
938
931
934
932
936
937
936
935
931
937
939
940
938
937
937
940
941
940
937
935
933
938
941
943
939
942
939
939
944
944
941
940
939
943
947
948
949
949
953
961
966
968
970
965
973
984
995
1008
1015
1020
1032
1041
1060
1075
1082
1089
1097
1107
1121
1131
1142
1153
1164
1176
1191
1207
1222
1230
1224
1218
1206
1197
1196
1188
1182
1184
1189
1190
1186
1187
1184
1179
1181
1187
1188
1178
1161
1143
1118
1079
1034
992
958
935
921
909
901
896
892
890
888
884
879
873
872
873
878
875
873
868
866
867
866
864
864
861
858
857
859
857
857
854
852
852
855
854
853
849
849
850
852
849
848
843
839
844
848
848
847
845
844
840
847
847
847
846
846
850
856
855
859
863
866
871
877
884
888
888
891
894
904
912
917
920
924
929
936
940
941
944
944
948
946
949
947
944
940
942
945
947
946
942
939
939
939
941
938
935
933
933
936
936
935
930
932
933
936
940
938
934
931
931
934
935
934
931
929
934
938
938
939
939
937
937
938
942
941
938
939
939
943
942
941
938
940
941
943
944
945
945
945
946
949
950
950
944
944
943
949
949
948
948
946
949
952
953
955
951
950
951
955
954
953
952
948
950
953
952
956
953
950
954
956
958
958
951
953
953
953
956
955
954
955
955
959
957
960
957
954
957
960
961
960
959
955
958
960
958
961
964
968
973
977
980
978
977
978
980
988
989
989
986
983
985
986
986
983
978
973
971
971
971
968
963
958
958
960
963
959
958
957
959
962
965
961
958
959
962
960
961
960
957
958
959
961
961
962
960
960
964
969
969
967
963
958
968
986
1008
1028
1060
1100
1152
1203
1252
1288
1309
1294
1249
1184
1116
1056
1013
991
982
974
965
958
958
965
970
971
971
967
963
960
959
963
962
961
959
957
959
963
964
962
962
962
964
969
969
965
966
964
965
970
969
968
968
967
969
973
975
974
972
973
977
979
982
982
977
977
981
984
987
988
991
992
996
999
1004
1007
1004
1007
1010
1015
1021
1022
1023
1023
1028
1036
1040
1042
1044
1044
1051
1054
1057
1058
1057
1056
1060
1063
1064
1066
1065
1060
1061
1059
1056
1055
1049
1041
1036
1031
1025
1018
1008
999
997
994
994
991
984
976
973
976
975
974
969
966
968
968
969
967
962
959
959
963
965
966
965
964
963
964
964
963
964
961
963
966
966
966
963
960
961
965
964
966
963
958
960
965
966
964
962
961
964
964
967
966
963
963
964
968
967
967
964
960
960
962
963
966
965
966
970
974
976
980
979
977
978
982
988
990
985
985
985
987
989
984
980
975
975
975
972
971
963
958
959
959
961
959
954
952
957
958
960
960
958
957
957
959
958
957
955
955
955
957
959
958
955
956
958
961
964
962
957
956
954
959
967
979
993
1014
1047
1090
1141
1187
1236
1282
1307
1290
1235
1164
1086
1018
977
964
959
954
952
952
961
968
970
961
958
955
958
959
959
957
953
953
953
958
960
961
957
956
958
964
964
962
960
957
963
964
967
964
963
960
964
968
969
970
968
969
972
973
978
977
975
976
977
982
979
980
977
976
985
989
994
996
996
996
1000
1004
1007
1008
1008
1007
1013
1020
1028
1029
1027
1031
1034
1039
1044
1046
1046
1044
1047
1054
1056
1056
1052
1049
1048
1053
1050
1048
1037
1031
1024
1024
1023
1017
1008
1001
996
991
988
982
976
973
972
971
970
969
966
962
961
961
961
959
955
950
951
954
956
955
952
953
951
956
956
955
952
952
953
954
959
955
950
950
952
955
956
955
952
953
954
955
961
959
954
954
957
960
961
958
955
954
958
959
964
963
959
955
959
961
962
960
955
958
960
961
965
965
964
961
969
973
977
977
973
975
975
980
984
984
985
985
988
990
995
997
1004
1010
1018
1027
1041
1048
1059
1070
1084
1101
1113
1122
1131
1141
1158
1175
1190
1204
1216
1229
1247
1267
1282
1280
1270
1259
1252
1249
1249
1241
1232
1228
1226
1226
1224
1220
1213
1210
1214
1221
1218
1204
1176
1143
1104
1062
1022
988
958
938
927
918
915
911
903
900
897
898
900
894
891
889
887
888
889
885
879
877
881
880
878
878
875
872
872
872
875
871
867
864
865
864
864
860
856
851
854
852
857
856
853
850
850
852
854
852
848
848
850
848
852
855
853
854
858
862
866
865
865
867
871
879
888
892
894
896
903
913
920
928
931
935
941
948
953
957
957
958
957
959
962
961
959
958
961
963
963
962
959
956
957
956
954
957
954
954
954
953
960
957
955
950
952
956
957
955
954
952
953
954
954
953
949
948
951
954
955
956
953
954
956
958
960
958
956
953
956
960
958
957
956
957
958
964
966
964
959
959
961
965
967
968
963
961
961
966
968
968
968
967
969
973
975
971
965
965
967
971
973
971
967
966
969
971
975
975
972
972
973
976
978
978
972
971
971
974
977
983
983
986
992
993
1000
999
998
999
1004
1005
1009
1008
1001
998
997
1000
999
997
991
984
985
984
985
982
979
977
975
975
974
974
971
972
973
978
979
978
976
972
975
979
983
982
977
976
978
982
985
984
985
979
978
986
1001
1021
1044
1076
1119
1169
1223
1272
1315
1331
1304
1248
1180
1112
1048
1010
995
991
988
982
983
986
988
987
989
988
984
984
983
985
986
982
980
980
981
983
987
986
982
984
987
991
991
991
987
985
985
991
992
991
988
987
992
996
999
1000
997
998
999
1005
1007
1008
1008
1008
1010
1013
1018
1015
1019
1020
1024
1032
1037
1039
1041
1043
1046
1054
1058
1056
1058
1063
1068
1075
1081
1083
1087
1087
1089
1098
1103
1102
1099
1094
1097
1097
1099
1094
1088
1079
1078
1073
1071
1064
1057
1047
1042
1040
1036
1030
1019
1014
1014
1011
1011
1005
1003
998
997
997
998
996
990
987
989
989
991
990
986
986
985
991
993
992
989
985
988
989
991
988
986
984
987
989
990
991
987
986
989
992
995
993
990
989
990
991
993
992
987
987
988
991
992
993
992
988
988
993
994
993
991
990
992
996
1001
1004
1003
1003
1008
1012
1015
1017
1013
1015
1017
1017
1017
1020
1015
1010
1009
1012
1012
1009
1003
995
993
998
997
995
988
986
985
988
986
986
982
982
982
986
987
986
981
980
982
985
986
985
983
981
983
988
987
990
987
984
983
985
988
986
994
1008
1026
1055
1092
1131
1177
1227
1272
1312
1325
1295
1232
1164
1100
1052
1024
1009
997
987
976
974
981
986
986
984
984
984
986
984
981
977
978
981
983
982
978
977
978
980
982
982
981
979
979
984
984
986
980
980
983
986
989
987
984
985
984
991
994
995
992
991
993
995
996
998
998
996
998
999
1008
1010
1005
1005
1012
1017
1025
1025
1027
1027
1032
1037
1046
1043
1044
1044
1051
1055
1063
1068
1066
1068
1070
1076
1081
1086
1083
1080
1080
1079
1080
1076
1071
1066
1063
1061
1059
1054
1044
1038
1032
1028
1023
1020
1009
1003
998
996
996
993
988
985
982
980
981
977
974
972
968
971
971
968
966
962
968
971
973
973
973
968
969
970
974
973
967
966
966
968
970
971
967
967
967
969
974
972
972
969
970
970
972
972
967
964
970
973
975
977
974
971
974
978
977
978
972
973
973
974
978
979
976
975
980
982
986
987
989
989
990
999
1002
1001
1005
1004
1011
1023
1035
1041
1045
1051
1063
1077
1090
1098
1105
1114
1126
1138
1152
1163
1176
1185
1200
1212
1225
1241
1255
1263
1262
1258
1248
1242
1233
1230
1227
1227
1230
1229
1221
1216
1212
1212
1212
1215
1214
1207
1191
1172
1143
1106
1060
1014
985
962
948
935
925
915
914
914
912
908
902
900
901
898
903
898
895
889
888
890
891
889
885
882
879
883
885
883
877
873
876
875
874
871
866
862
863
865
866
866
860
858
857
863
866
862
857
856
857
860
861
861
860
859
862
865
869
871
874
871
875
882
887
890
890
892
898
906
916
920
921
927
930
938
942
946
945
947
949
953
955
952
950
948
948
950
955
954
947
947
947
950
948
945
939
941
938
941
942
944
941
940
941
942
944
939
938
934
935
938
942
942
942
940
940
939
942
942
939
938
939
942
944
945
942
940
940
946
946
946
945
944
945
947
947
951
950
948
947
948
950
950
950
945
949
951
956
953
950
948
946
953
955
955
951
948
946
952
954
956
953
950
952
955
956
957
951
952
951
952
956
955
953
951
948
955
962
964
966
968
971
973
974
979
976
972
976
978
984
984
985
981
978
979
978
975
966
963
959
960
960
957
955
949
947
951
956
959
955
952
950
951
956
957
952
950
951
955
959
959
954
953
954
958
959
959
953
947
945
955
968
987
1017
1057
1115
1177
1238
1287
1315
1300
1239
1150
1059
990
958
952
949
953
958
962
961
962
960
960
962
961
956
955
955
956
958
956
955
953
956
961
961
961
959
955
956
959
962
963
960
957
957
965
969
972
968
966
969
972
977
975
974
974
975
978
983
983
983
984
987
989
995
997
1000
999
1003
1006
1014
1017
1015
1014
1020
1027
1033
1036
1039
1042
1045
1050
1052
1055
1060
1056
1057
1061
1065
1061
1058
1054
1053
1050
1049
1042
1030
1022
1017
1013
1008
1003
991
986
980
982
981
977
970
964
964
964
964
963
956
954
954
958
961
960
955
949
952
955
956
957
955
949
950
954
959
959
952
950
953
956
959
957
954
951
953
952
954
958
955
954
954
957
956
958
952
951
952
956
958
958
956
954
957
963
967
972
970
968
968
972
976
980
976
975
979
981
983
983
979
977
975
974
975
973
965
961
958
957
958
955
953
946
947
946
951
951
949
949
948
945
951
950
948
945
946
949
954
952
948
947
949
950
955
953
948
942
943
947
965
989
1019
1056
1105
1165
1223
1276
1301
1277
1214
1139
1061
1000
963
951
948
950
952
954
956
958
956
957
957
955
949
947
947
952
954
952
952
950
948
951
954
956
951
948
949
954
953
956
955
954
957
959
963
964
963
962
964
964
970
967
964
966
967
971
978
981
977
981
985
986
989
989
992
993
994
1000
1003
1004
1009
1013
1017
1021
1028
1033
1030
1034
1038
1042
1049
1049
1051
1047
1051
1053
1058
1057
1053
1048
1044
1041
1039
1033
1023
1016
1008
1003
1002
996
986
981
977
974
975
968
963
961
957
956
958
956
953
952
954
955
955
956
954
952
952
951
956
952
950
947
950
953
957
956
954
953
954
955
959
958
956
953
952
953
958
958
954
954
955
955
959
960
958
954
956
957
959
958
955
953
955
959
963
963
963
962
963
970
971
972
969
967
972
980
988
992
991
992
994
997
1007
1014
1014
1021
1031
1042
1053
1065
1074
1088
1100
1116
1132
1141
1154
1169
1186
1204
1225
1248
1258
1250
1237
1226
1224
1218
1212
1213
1211
1211
1211
1207
1201
1203
1203
1199
1183
1148
1099
1043
997
963
941
923
913
907
907
905
903
898
893
888
887
886
885
884
880
877
876
878
880
879
873
872
871
871
870
873
864
862
861
857
860
862
859
854
855
857
860
855
855
853
849
854
856
854
853
850
850
853
856
857
856
856
856
855
864
865
864
863
872
874
878
884
884
888
891
902
909
915
918
921
922
933
942
946
947
946
951
956
959
960
958
956
958
958
961
959
955
952
952
953
950
950
948
946
945
946
951
952
948
945
943
944
947
948
942
939
941
942
944
945
944
940
941
947
948
947
947
943
943
946
947
948
943
944
943
946
947
951
946
945
946
948
951
953
950
947
948
949
950
950
951
949
951
954
958
957
955
952
953
955
955
955
951
949
949
954
957
958
959
956
955
956
959
959
958
956
956
958
958
959
956
954
953
956
962
961
959
957
960
962
964
964
963
963
963
971
979
981
981
976
980
983
992
996
996
994
996
995
992
991
985
977
981
983
984
982
975
971
971
969
971
971
964
960
960
960
966
967
965
963
961
967
969
966
963
960
960
961
963
964
965
963
966
969
970
970
968
963
963
964
973
990
1009
1037
1077
1130
1192
1246
1288
1318
1313
1271
1208
1138
1072
1024
1001
987
982
972
964
963
971
977
977
976
972
969
967
969
971
967
964
964
964
969
970
973
974
969
971
972
976
974
971
970
972
972
974
978
975
975
975
978
982
981
979
979
979
986
988
989
989
985
986
990
992
1001
997
996
997
1004
1011
1012
1013
1013
1014
1018
1026
1028
1029
1031
1036
1041
1050
1051
1054
1053
1053
1061
1068
1068
1070
1070
1070
1076
1077
1079
1074
1071
1070
1071
1069
1063
1059
1053
1047
1042
1040
1032
1024
1015
1010
1007
1007
1005
998
991
989
983
986
984
978
973
973
971
972
972
967
966
963
967
971
973
969
966
962
964
969
969
965
963
963
962
965
965
964
964
965
969
970
970
964
965
964
967
970
969
965
962
962
965
968
969
969
966
964
964
967
971
966
965
964
963
968
968
965
961
964
970
975
977
978
980
979
982
984
985
986
985
986
990
997
998
994
991
990
992
993
992
988
983
980
978
981
977
971
963
960
962
961
961
957
956
952
956
960
958
958
956
956
955
958
955
953
951
950
951
956
958
955
952
950
952
956
959
957
956
956
958
961
960
952
948
954
971
993
1018
1045
1088
1139
1200
1259
1301
1315
1291
1240
1179
1113
1049
1002
976
965
962
960
957
954
956
961
965
964
959
952
951
951
956
955
958
956
950
951
954
957
958
956
954
953
957
961
964
962
962
961
964
968
968
965
963
965
968
970
973
969
967
967
972
977
980
977
977
978
982
987
989
989
987
992
993
995
1000
1000
997
1000
1008
1015
1018
1018
1021
1023
1029
1036
1040
1040
1039
1039
1046
1048
1051
1054
1050
1052
1053
1057
1055
1052
1046
1041
1036
1036
1032
1026
1017
1011
1007
1004
999
993
986
980
982
979
975
968
961
958
960
960
960
955
951
953
954
956
956
953
951
948
949
951
949
946
944
946
952
954
954
950
949
948
951
954
956
953
949
946
949
953
954
951
948
948
951
952
955
952
949
952
953
957
957
953
951
951
953
954
955
954
952
952
953
956
957
953
952
955
959
965
964
963
963
966
971
977
979
979
979
982
985
988
984
981
979
980
986
991
1001
1004
1013
1023
1032
1048
1061
1068
1076
1087
1102
1116
1128
1135
1144
1161
1175
1194
1207
1218
1232
1253
1274
1283
1280
1272
1256
1250
1248
1248
1240
1230
1225
1221
1217
1218
1218
1214
1208
1213
1219
1223
1219
1203
1183
1154
1122
1086
1044
1002
964
937
920
909
904
898
889
883
880
883
879
873
868
866
866
868
868
864
863
858
859
861
860
854
848
849
850
850
850
845
844
841
843
843
842
835
834
832
835
837
836
828
826
826
827
827
825
824
820
822
826
827
827
825
824
823
827
828
829
826
825
825
834
839
845
845
848
852
858
865
868
873
874
880
889
898
903
908
912
915
923
929
933
935
932
933
934
941
939
937
934
929
934
940
938
936
931
927
928
927
932
928
925
922
926
932
933
929
919
917
920
926
928
926
918
911
916
927
929
925
919
920
920
923
921
918
914
915
919
923
926
922
917
914
919
925
925
921
918
917
925
929
929
930
927
925
926
930
934
930
927
925
927
932
936
932
929
927
932
937
938
935
935
936
941
940
940
936
937
937
939
945
948
951
949
952
956
959
960
952
947
947
950
955
954
950
946
942
940
940
945
945
944
937
939
940
941
941
938
937
934
941
943
942
941
941
942
943
944
941
938
937
941
945
949
944
943
942
944
945
950
950
946
945
950
961
972
993
1020
1066
1126
1194
1254
1302
1323
1296
1240
1171
1100
1030
987
964
957
955
949
945
948
954
960
960
957
954
951
953
957
961
961
953
952
952
953
956
955
955
952
951
960
965
965
962
959
959
961
964
966
964
962
963
968
969
971
970
969
972
975
980
980
980
979
981
983
989
988
988
990
992
996
1003
1006
1005
1005
1005
1011
1018
1026
1028
1029
1032
1038
1048
1051
1051
1054
1060
1065
1071
1076
1076
1075
1074
1073
1075
1077
1071
1064
1060
1054
1050
1048
1041
1037
1032
1025
1023
1016
1008
1000
995
991
993
992
986
981
978
979
980
978
974
973
975
975
977
975
968
969
969
973
976
973
968
969
972
973
972
974
970
963
967
971
976
973
972
970
971
972
976
978
976
974
970
975
975
972
969
969
972
978
980
981
975
973
973
973
974
977
973
973
972
975
980
986
985
986
981
986
989
990
995
996
998
999
1000
1001
996
989
991
988
988
986
986
980
979
978
978
979
971
964
962
963
965
965
962
960
963
967
967
969
964
962
964
965
962
963
964
964
965
967
969
967
967
967
969
973
977
973
969
969
979
1005
1038
1071
1106
1154
1209
1268
1315
1328
1287
1216
1149
1088
1037
1003
984
976
970
970
977
987
994
1002
1005
1007
995
980
963
953
951
958
968
980
981
978
971
965
966
968
973
972
975
978
980
978
974
972
974
980
988
993
997
1000
1012
1026
1037
1033
1008
981
970
981
1002
1020
1023
1023
1017
1009
1005
1000
1002
1006
1017
1030
1040
1041
1032
1030
