962
962
962
965
964
962
959
960
961
964
962
959
956
955
959
960
959
961
957
957
957
959
959
957
953
956
959
957
958
957
953
955
959
960
961
958
955
957
957
959
959
957
954
957
957
958
959
958
956
959
957
959
959
957
955
958
960
959
961
961
959
960
960
963
963
960
958
959
962
969
975
975
978
981
982
985
981
981
983
988
993
995
997
998
997
1001
1003
1003
999
994
991
992
990
983
975
965
954
949
948
950
946
946
943
944
946
946
948
950
947
949
951
952
953
951
951
951
955
957
957
955
955
957
957
957
955
959
964
986
1015
1054
1097
1139
1176
1208
1235
1251
1266
1275
1262
1235
1204
1178
1147
1110
1078
1058
1044
1024
1002
981
964
952
940
932
926
923
923
919
914
911
912
910
910
912
912
914
914
914
912
913
915
918
917
915
914
914
915
915
917
914
913
914
912
915
915
913
911
914
914
916
913
913
911
913
913
915
914
915
912
914
916
918
916
915
914
919
923
926
926
927
930
933
935
941
942
942
941
945
953
958
961
963
963
967
973
979
978
980
976
980
982
982
981
979
976
976
977
978
974
972
969
968
968
967
963
963
961
962
963
961
959
959
957
958
960
959
961
957
954
955
954
956
957
956
952
952
953
954
955
953
951
952
953
955
953
953
950
954
954
954
955
954
951
954
955
956
957
955
954
956
954
956
958
956
953
953
954
956
956
955
953
955
956
956
957
959
954
954
957
959
959
955
955
958
965
971
974
977
977
973
974
976
984
985
985
988
993
995
996
994
995
995
997
995
991
988
985
982
977
968
959
949
940
942
944
945
943
942
940
940
942
944
943
945
942
946
948
947
946
945
947
947
950
955
957
954
953
951
951
951
954
958
975
1006
1043
1085
1128
1170
1204
1233
1256
1275
1273
1254
1229
1207
1188
1167
1140
1100
1071
1053
1038
1018
997
976
963
950
938
930
923
918
914
911
910
907
908
908
905
903
906
909
910
911
907
907
910
914
912
914
911
913
914
915
915
911
909
911
912
916
915
914
909
910
912
916
913
911
910
910
912
913
911
911
909
913
915
915
917
914
913
917
919
922
922
922
924
926
931
935
938
939
941
943
947
951
953
956
957
959
964
969
972
973
971
973
977
979
980
975
974
974
976
976
974
970
969
968
966
967
968
961
958
956
957
959
958
956
955
954
957
958
957
954
950
951
953
954
952
952
949
950
950
951
951
949
945
945
947
949
950
945
944
944
947
950
946
947
945
946
945
950
948
949
947
949
952
954
950
948
947
951
950
951
952
952
948
950
952
951
953
953
949
950
951
952
955
954
953
955
957
959
957
954
954
955
960
965
968
968
970
972
975
975
972
971
973
976
981
987
991
992
990
991
996
997
994
988
983
984
984
983
976
969
957
947
945
945
945
943
939
942
942
942
944
943
945
944
946
945
945
946
946
947
949
951
951
953
949
951
951
954
955
951
949
949
960
977
999
1026
1054
1084
1121
1158
1195
1223
1243
1254
1252
1231
1204
1176
1152
1126
1089
1061
1043
1030
1016
998
983
970
958
946
933
929
924
924
921
916
912
909
913
914
916
916
916
916
915
917
915
915
912
915
916
919
919
917
916
916
920
920
920
918
916
916
919
919
922
919
915
916
917
919
918
916
912
915
918
918
919
918
919
920
920
923
922
921
920
920
921
926
929
929
927
928
933
938
937
939
940
944
946
951
952
952
957
957
961
965
969
969
970
972
974
979
979
977
977
979
979
981
981
978
974
977
976
978
976
971
968
969
968
968
966
963
962
961
961
963
963
962
956
959
959
961
959
960
957
958
959
962
961
958
957
955
956
957
959
955
953
953
954
957
956
958
951
954
955
954
957
956
955
956
958
960
958
957
956
956
960
960
960
958
955
957
959
959
961
957
955
956
958
960
958
956
955
958
958
959
961
962
960
960
961
963
962
960
960
960
963
968
969
969
970
973
979
981
979
979
977
981
984
988
993
993
993
998
1003
1007
1006
1003
997
994
994
993
995
990
981
971
962
958
957
950
949
949
950
951
950
949
950
952
954
954
953
953
952
953
954
956
955
955
955
956
958
961
960
959
958
956
959
960
965
975
991
1021
1055
1088
1122
1159
1194
1224
1246
1264
1269
1254
1231
1203
1182
1166
1140
1105
1076
1059
1048
1038
1019
997
982
968
960
952
942
935
926
925
924
922
919
920
915
914
918
919
921
920
920
920
923
923
924
920
917
919
922
923
922
919
919
922
918
924
924
924
919
920
920
920
921
919
919
919
917
920
921
920
917
915
918
919
920
917
917
919
921
925
923
920
921
922
926
929
929
929
932
933
939
944
947
948
949
953
957
964
964
966
966
969
974
980
981
984
981
984
987
987
988
985
982
983
985
986
983
982
979
977
978
979
977
974
970
969
970
971
969
968
964
965
968
968
967
964
964
963
964
965
965
961
959
959
961
964
965
961
959
960
959
963
959
960
958
958
961
962
962
957
957
959
958
962
959
959
958
959
960
960
961
962
958
958
960
962
963
961
961
962
964
962
965
962
962
963
964
966
966
965
961
961
962
965
965
962
960
961
963
968
966
965
967
969
974
979
981
982
983
982
986
982
985
988
989
994
997
999
1001
1002
1000
1003
1007
1005
1000
997
991
993
995
993
986
977
963
956
954
954
954
950
951
947
947
950
951
950
950
950
952
954
955
952
951
952
953
954
956
957
954
956
959
962
963
959
960
959
959
958
963
972
985
1012
1044
1084
1124
1164
1196
1224
1246
1264
1279
1282
1267
1237
1209
1185
1158
1127
1090
1069
1059
1048
1027
1005
986
971
962
955
942
936
929
928
928
922
917
917
914
914
916
917
918
918
918
918
919
920
925
923
919
924
924
927
926
925
922
922
923
924
924
923
921
920
923
925
924
923
921
922
920
925
925
922
918
918
920
923
924
923
922
924
926
927
928
926
927
928
932
938
938
938
939
942
947
948
952
955
952
956
963
968
971
975
976
979
981
987
990
991
985
986
988
988
990
988
988
982
985
985
982
980
977
976
977
974
976
975
970
969
969
971
969
970
965
965
963
966
963
961
959
962
963
965
963
961
958
958
957
955
955
955
954
956
958
957
958
952
954
956
957
957
957
957
956
956
957
959
962
957
957
958
959
963
961
961
957
958
961
963
965
960
959
957
959
962
963
963
961
959
962
964
967
964
961
963
965
964
967
964
965
967
969
974
978
980
981
980
983
985
984
985
989
994
997
1002
1002
1003
1003
1005
1008
1009
1006
1000
996
998
1001
999
996
989
978
969
962
960
959
956
953
952
955
955
955
954
955
955
955
958
957
955
955
957
959
963
963
962
960
962
962
967
967
966
962
960
963
968
972
982
1000
1023
1053
1081
1115
1148
1185
1218
1246
1265
1276
1276
1255
1231
1205
1186
1157
1118
1083
1065
1058
1047
1027
1012
995
985
975
966
955
942
935
934
931
931
926
924
921
923
927
926
923
925
920
924
929
930
931
929
926
925
927
928
929
928
925
928
930
930
930
928
927
930
932
930
928
927
927
927
930
931
930
927
925
924
929
931
932
928
926
929
931
935
935
933
933
935
938
942
940
942
941
943
949
954
956
957
955
960
966
969
975
974
973
980
984
991
991
992
991
992
993
995
997
996
991
988
991
993
991
986
983
984
984
985
983
981
978
978
978
979
979
975
977
974
976
977
976
973
968
968
972
973
971
970
966
968
970
973
972
968
967
969
969
972
973
972
967
969
972
971
971
971
970
970
972
973
974
971
967
970
970
975
975
970
971
971
971
972
976
975
971
973
973
977
974
974
972
971
973
975
976
974
972
973
976
978
977
977
978
978
984
989
991
992
991
990
990
995
999
1004
1007
1010
1011
1017
1016
1016
1015
1016
1019
1015
1011
1011
1009
1008
1007
999
991
981
970
967
969
967
968
965
962
966
970
970
971
968
968
969
969
971
969
971
970
970
973
975
977
975
974
975
975
977
977
973
969
972
981
994
1016
1042
1071
1109
1150
1187
1221
1247
1263
1278
1284
1275
1247
1224
1206
1186
1164
1133
1100
1078
1063
1048
1033
1015
999
986
974
966
955
952
948
945
941
937
933
933
936
933
932
935
936
939
938
937
934
936
939
942
943
939
937
939
940
942
943
940
938
938
937
939
939
936
936
935
937
938
938
936
935
934
935
939
940
936
934
934
937
937
937
937
935
937
940
939
940
940
939
943
946
952
951
951
949
954
957
964
964
966
970
972
979
983
984
985
988
992
996
1000
1003
1003
999
1000
1004
1004
1004
1003
998
997
998
998
996
992
990
987
988
986
988
985
984
984
984
985
984
981
978
978
980
979
979
980
976
979
979
979
978
973
974
975
975
976
976
973
970
970
973
974
973
971
969
970
972
972
971
972
970
971
973
972
974
975
973
969
973
976
976
976
973
974
978
981
979
976
976
977
975
979
977
975
973
974
977
980
978
977
974
974
974
978
982
984
986
990
993
1000
999
997
993
995
1004
1010
1009
1011
1012
1017
1019
1021
1016
1010
1008
1007
1008
1009
1000
992
982
972
968
967
966
962
957
956
960
961
964
964
961
960
961
964
965
966
964
963
965
967
967
967
969
968
969
969
968
965
963
966
977
995
1018
1050
1085
1128
1171
1209
1243
1265
1285
1289
1275
1252
1223
1198
1171
1137
1105
1079
1066
1050
1030
1010
992
980
967
954
941
933
933
933
930
925
920
921
924
923
924
923
921
923
926
929
929
928
925
926
928
927
931
930
925
924
926
927
929
925
923
923
928
928
926
925
923
923
925
926
924
921
923
921
924
927
930
928
927
924
927
929
930
930
929
930
933
936
937
938
937
943
946
951
954
956
957
960
962
965
967
969
970
975
980
986
987
989
986
992
991
993
993
992
988
987
987
988
986
982
980
980
977
979
977
973
969
969
971
971
971
969
964
964
967
968
968
965
963
962
964
966
962
959
958
957
958
963
959
957
955
956
958
960
961
958
954
954
959
961
962
959
957
956
960
961
959
960
957
957
957
961
961
961
961
962
960
960
959
959
958
960
961
962
963
959
961
962
964
964
964
962
960
960
962
964
963
963
962
964
970
975
978
978
977
975
979
984
991
991
992
994
999
1002
1002
1001
1002
1002
1001
998
997
994
992
988
983
973
962
953
949
951
952
949
950
950
949
948
952
953
952
950
951
950
952
955
955
954
954
952
955
960
960
960
958
957
955
958
960
967
981
1008
1039
1078
1113
1148
1181
1214
1240
1261
1269
1260
1233
1203
1177
1155
1124
1087
1060
1043
1031
1013
994
978
966
957
949
944
935
930
924
923
922
922
919
918
917
917
921
922
923
922
920
921
923
926
925
923
922
923
923
925
924
924
923
922
923
925
923
923
922
922
922
924
924
921
921
921
920
923
922
922
920
922
922
923
926
923
924
924
928
931
928
927
928
932
937
941
945
946
946
949
952
959
961
963
966
971
974
980
978
979
979
982
985
986
988
985
985
982
985
988
984
980
977
977
979
978
975
973
969
970
974
976
976
970
967
965
966
968
968
965
961
963
965
965
964
963
961
959
963
964
963
962
958
960
961
963
963
961
958
959
961
962
962
959
956
959
962
965
963
960
959
959
963
963
966
964
961
961
963
964
963
965
962
963
965
967
963
962
957
962
964
966
965
964
960
960
964
966
968
969
964
965
969
975
980
983
985
988
988
988
992
992
992
999
1002
1005
1003
1005
1007
1007
1010
1011
1008
1005
1002
1001
1003
999
990
977
968
961
960
961
962
956
954
955
958
957
960
960
956
956
957
960
958
956
955
955
959
962
961
962
961
963
962
966
965
961
960
964
970
986
1011
1045
1082
1126
1169
1207
1234
1258
1271
1273
1255
1228
1202
1180
1157
1126
1098
1074
1058
1038
1013
996
982
968
957
943
933
931
929
928
921
918
917
919
921
924
923
922
918
920
922
925
924
926
922
920
924
923
922
920
917
917
922
922
920
918
915
914
917
921
920
919
916
915
918
919
916
913
909
910
915
916
915
916
915
919
922
926
927
924
926
927
931
936
938
938
939
942
944
947
949
950
951
955
961
965
968
969
971
976
980
984
983
985
983
984
986
986
988
986
983
984
984
983
981
977
973
974
975
974
971
972
970
967
971
969
970
969
966
965
967
966
967
964
961
961
964
963
963
960
958
956
957
956
955
955
954
954
956
957
956
954
951
956
957
959
956
957
955
956
962
962
961
961
958
956
960
960
962
958
956
957
960
963
964
964
963
961
959
959
958
958
958
958
961
960
960
960
965
970
973
978
980
977
973
973
974
978
983
985
987
988
989
991
994
992
990
989
992
992
990
986
984
981
973
971
962
954
947
946
946
947
943
940
939
941
940
940
938
941
940
939
937
937
941
943
943
941
940
942
940
943
943
942
937
937
939
947
963
987
1014
1052
1092
1129
1171
1213
1238
1255
1263
1260
1243
1217
1192
1173
1145
1110
1076
1056
1048
1043
1024
1001
982
968
958
951
942
935
930
929
927
927
925
923
920
921
926
927
927
924
927
929
933
935
932
934
934
940
940
943
942
944
943
947
947
950
948
947
942
946
945
948
948
945
944
943
942
943
942
937
936
938
936
938
935
932
929
928
931
934
936
936
934
940
945
951
953
952
950
953
958
964
965
965
967
973
981
986
986
987
988
992
998
1003
1002
1000
1000
1002
1005
1004
1008
1004
1002
1002
1000
1004
1002
1002
999
993
995
994
992
993
991
992
997
996
995
989
989
989
987
989
988
985
981
980
979
979
975
976
972
973
974
972
972
968
965
963
966
966
968
964
960
962
963
959
958
960
956
957
960
961
962
963
959
960
963
962
961
958
957
959
960
961
963
962
962
962
966
967
966
963
959
962
966
970
969
968
963
965
969
970
974
975
976
983
980
983
984
982
987
993
999
1002
1004
1004
1002
1005
1010
1014
1012
1012
1006
1001
1004
1008
1006
1001
989
980
971
964
963
961
960
958
959
962
961
958
960
958
961
964
965
964
964
964
965
967
964
966
965
967
969
967
968
968
967
968
968
976
989
1004
1029
1065
1104
1147
1188
1224
1250
1267
1278
1284
1270
1245
1216
1190
1168
1136
1096
1060
1040
1031
1016
1000
981
966
958
947
943
937
933
929
928
923
923
926
926
924
924
921
925
926
927
924
923
924
926
930
931
928
926
928
927
928
930
926
924
925
926
929
925
925
924
925
927
929
927
927
926
927
929
925
929
926
924
922
924
927
927
927
925
925
925
931
936
935
933
930
937
943
947
946
943
948
950
956
959
962
965
965
972
977
979
985
985
986
993
997
1000
997
994
992
993
994
995
989
985
988
987
989
987
985
981
982
982
984
981
979
978
979
979
981
978
976
975
977
977
978
976
975
973
974
974
976
976
973
971
969
972
973
973
973
968
968
968
970
968
966
968
971
975
981
984
985
992
1005
1024
1039
1054
1067
1082
1109
1139
1170
1192
1215
1241
1277
1315
1349
1373
1388
1387
1363
1314
1256
1207
1166
1125
1078
1032
995
964
942
924
915
916
914
912
911
909
911
915
919
921
921
926
928
932
929
925
918
911
907
907
907
906
903
902
908
917
920
922
917
915
914
918
918
920
914
907
905
901
897
897
896
893
894
897
897
896
895
890
890
893
894
894
893
892
890
894
896
897
895
892
894
897
901
903
900
901
902
907
912
916
915
916
918
923
927
930
933
932
936
940
946
952
952
955
958
964
970
970
970
967
970
974
974
977
979
977
978
977
979
982
982
980
976
978
981
981
980
977
978
981
984
981
982
979
980
981
983
984
980
979
981
981
982
984
983
981
983
985
986
986
985
985
985
983
985
986
982
982
980
981
981
980
981
979
978
981
982
981
979
978
979
977
977
977
977
973
977
977
978
974
973
972
971
975
975
974
971
970
973
971
974
973
973
973
974
976
976
976
976
975
975
975
979
977
978
976
975
977
978
976
976
975
975
979
976
978
975
974
975
974
976
976
974
974
976
975
980
978
974
973
972
974
976
976
977
977
974
976
977
978
977
973
974
977
978
975
975
974
977
978
982
978
976
972
975
977
980
979
980
977
977
979
979
975
977
974
976
981
982
978
978
978
979
980
981
982
981
978
981
983
983
983
981
979
979
980
980
980
978
977
978
978
979
980
979
977
979
981
979
981
980
982
984
991
996
1000
1001
1001
1001
1000
999
1002
1003
1003
1007
1011
1012
1013
1015
1014
1018
1019
1018
1014
1013
1009
1010
1012
1009
1005
997
983
975
968
970
967
963
957
958
960
962
963
963
960
960
961
962
964
964
964
963
966
968
970
973
972
973
973
973
970
971
970
972
972
978
983
994
1013
1042
1077
1104
1137
1167
1200
1227
1254
1275
1286
1272
1238
1206
1182
1162
1138
1104
1079
1064
1053
1037
1016
994
981
971
960
950
939
933
930
929
927
926
925
924
922
921
920
925
924
924
923
925
928
928
928
926
926
922
923
925
924
924
921
921
924
925
926
925
923
925
925
927
926
925
922
920
925
928
929
927
924
925
925
928
931
929
927
931
933
937
938
937
937
938
943
945
947
949
951
955
960
963
968
967
