977
974
975
972
968
964
970
972
973
970
968
972
973
972
968
968
969
971
972
968
967
964
963
966
967
971
972
970
971
973
977
975
970
969
967
967
969
971
969
967
970
971
972
972
971
971
970
970
972
972
971
969
970
974
978
973
970
967
968
970
973
974
973
969
971
978
987
986
993
994
1000
998
997
996
995
1002
1008
1015
1016
1019
1022
1022
1024
1025
1026
1024
1021
1018
1015
1009
1004
995
982
971
964
963
964
960
958
953
952
951
951
951
952
952
952
955
956
958
961
964
962
960
961
962
961
963
962
964
964
958
953
949
946
953
966
978
998
1022
1061
1116
1165
1206
1235
1260
1273
1270
1251
1223
1196
1170
1143
1114
1094
1080
1072
1058
1042
1027
1014
999
984
966
949
941
941
940
935
930
928
931
934
929
927
928
929
931
933
932
931
928
927
930
933
932
931
929
930
930
930
927
928
929
928
931
934
934
931
928
927
929
932
930
928
925
927
927
930
930
929
925
922
924
928
930
930
926
927
930
936
938
941
939
942
947
951
952
954
955
957
958
964
962
964
966
969
974
979
979
982
984
985
987
991
992
991
988
987
988
990
989
986
982
979
980
982
981
976
976
975
977
978
977
975
975
972
975
974
973
973
970
971
974
973
970
969
971
969
968
969
970
966
970
971
971
973
969
971
968
970
972
974
973
974
971
969
971
970
970
970
965
966
969
973
972
967
964
966
966
968
971
973
971
969
970
972
971
968
967
966
973
972
973
972
968
971
970
971
970
972
974
974
982
991
996
996
995
994
996
1005
1007
1006
1008
1010
1016
1021
1021
1018
1018
1014
1012
1013
1007
996
981
968
962
962
963
958
954
955
957
958
961
963
961
957
960
961
957
957
958
958
960
963
959
959
959
963
963
961
954
951
950
957
967
991
1022
1060
1103
1147
1189
1222
1248
1265
1265
1251
1232
1218
1195
1168
1136
1102
1082
1069
1052
1033
1014
997
987
973
956
943
935
935
932
928
925
921
922
920
921
922
920
922
923
921
921
925
927
927
924
921
924
926
926
926
926
926
926
929
927
927
924
925
927
930
933
930
929
930
932
935
935
934
929
928
931
933
931
932
929
930
932
935
936
936
937
937
941
943
941
942
942
944
947
949
951
958
963
965
967
970
968
970
972
977
983
987
988
987
985
989
994
995
992
991
992
988
992
992
988
987
984
978
981
983
979
976
975
975
976
979
977
975
974
971
974
976
977
976
973
973
975
977
976
977
974
974
975
977
978
977
974
972
973
972
975
976
973
971
974
975
971
968
969
970
972
972
970
970
970
969
971
974
973
971
970
970
972
973
972
971
970
968
972
973
973
969
969
973
975
975
973
969
969
970
978
981
983
984
986
989
995
999
998
993
990
997
1003
1011
1011
1013
1017
1019
1019
1021
1016
1015
1010
1008
1002
991
977
966
957
952
956
958
955
955
954
954
955
956
958
960
959
956
957
959
961
962
960
959
962
967
964
965
962
957
954
950
951
961
979
1010
1046
1084
1122
1158
1189
1216
1244
1263
1264
1249
1224
1198
1171
1143
1112
1085
1068
1054
1040
1024
1006
990
977
960
949
945
941
932
926
920
921
921
918
915
914
916
917
918
918
918
918
917
918
919
919
920
919
919
921
923
923
923
921
922
924
926
925
927
925
923
925
931
929
931
928
928
934
936
931
928
925
927
930
935
934
932
931
933
937
941
943
941
943
943
946
951
951
956
958
957
963
966
966
968
971
977
982
986
985
985
988
987
989
990
992
990
987
983
984
986
985
986
983
984
983
985
983
979
977
973
974
977
976
973
971
972
971
971
970
968
972
971
971
971
972
971
967
968
973
976
973
970
969
969
968
974
972
972
971
972
970
972
972
969
970
971
971
973
971
973
969
968
969
973
971
968
967
965
968
970
968
967
967
971
973
973
971
970
970
970
972
972
972
973
974
971
974
978
978
973
970
970
979
988
990
996
1000
996
995
993
995
999
1001
1004
1009
1012
1015
1018
1020
1017
1019
1017
1014
1008
1003
992
984
971
960
954
955
956
957
960
957
956
956
957
961
962
960
957
955
956
958
960
962
958
957
960
963
964
959
954
950
945
952
970
994
1028
1067
1112
1160
1203
1235
1258
1269
1259
1242
1221
1190
1158
1121
1085
1068
1055
1042
1023
1003
985
971
959
953
944
938
931
924
923
921
918
917
917
919
922
920
922
922
920
922
924
924
924
923
924
926
927
927
926
925
925
927
929
930
927
926
924
927
930
929
929
925
924
929
934
930
925
923
924
924
930
931
927
925
927
933
935
937
937
935
938
943
949
949
949
949
954
959
964
965
961
964
967
974
977
978
978
980
981
985
987
988
985
980
977
980
982
979
975
973
972
972
974
971
968
967
966
966
969
967
966
963
961
961
964
964
964
963
959
961
963
964
961
960
960
962
963
961
959
959
959
960
965
965
964
960
961
960
967
964
963
961
962
963
966
964
958
959
960
960
963
962
959
959
958
959
963
961
960
961
957
959
959
957
956
954
955
958
959
957
958
956
956
960
963
964
960
962
965
971
978
982
981
977
974
976
979
985
990
992
995
998
1005
1006
1006
1003
999
997
999
997
991
983
975
967
960
953
947
945
947
943
948
947
948
948
947
947
949
949
950
949
949
948
950
950
949
949
951
951
954
950
948
944
944
942
950
959
980
1007
1040
1077
1113
1153
1187
1216
1242
1252
1245
1219
1189
1161
1137
1110
1081
1059
1046
1031
1013
999
987
972
956
941
930
925
920
913
909
907
907
906
907
906
906
907
908
911
914
916
912
915
917
917
917
917
916
915
912
915
917
916
918
917
918
919
922
918
917
918
918
919
920
923
924
921
920
922
924
921
921
922
923
923
929
929
928
929
930
932
933
936
937
936
940
942
949
947
949
949
954
958
963
964
962
962
966
973
978
980
980
982
980
980
982
987
984
978
976
978
977
972
969
966
969
976
977
973
969
972
976
984
985
983
973
970
968
975
980
975
973
977
979
982
984
982
981
982
979
982
989
995
993
990
987
991
994
992
988
982
984
992
996
998
1000
996
992
991
993
993
991
984
979
984
986
988
989
988
989
989
991
996
994
992
993
995
997
994
993
993
993
994
997
992
993
993
991
992
992
992
991
991
993
1001
1008
1013
1014
1013
1011
1011
1011
1015
1018
1019
1023
1026
1032
1032
1037
1036
1033
1033
1030
1028
1027
1023
1020
1016
1005
989
977
969
968
970
969
964
961
959
959
961
965
964
963
961
958
960
962
966
962
958
957
956
958
962
961
957
959
964
960
956
954
954
962
986
1019
1050
1086
1123
1165
1205
1234
1253
1264
1261
1243
1220
1203
1182
1165
1136
1100
1071
1056
1049
1036
1016
993
974
963
953
944
935
931
925
921
915
917
919
920
922
922
914
904
901
905
911
916
914
913
907
910
909
916
916
915
912
912
915
916
915
913
914
913
915
916
915
913
911
910
912
911
910
909
909
910
911
912
911
910
912
911
911
913
911
914
914
916
920
926
928
925
918
918
924
935
938
938
938
943
949
953
954
950
951
953
956
962
963
966
966
966
966
967
967
967
970
971
971
973
970
970
969
967
966
970
971
965
960
956
951
948
948
953
952
955
960
962
961
956
951
953
955
958
959
953
952
952
951
955
952
950
949
952
951
953
953
950
947
952
952
956
959
956
949
949
952
956
956
953
954
956
958
965
966
962
958
960
961
965
964
958
952
952
951
955
954
952
951
950
956
959
957
957
955
957
959
963
963
961
962
962
967
971
973
970
968
967
973
978
985
985
985
988
994
997
1001
994
991
990
986
986
987
986
982
972
965
953
948
940
939
939
940
945
943
945
944
943
942
947
947
946
941
937
941
945
947
945
947
947
948
952
952
953
947
943
941
950
961
983
1012
1043
1073
1106
1136
1166
1194
1222
1245
1257
1250
1225
1192
1167
1148
1134
1112
1082
1059
1042
1029
1016
996
980
969
958
950
943
935
930
923
924
925
925
926
924
921
922
920
923
925
925
925
924
924
925
925
925
924
925
926
926
925
927
926
926
927
928
928
927
922
923
925
928
927
924
922
926
926
928
925
924
923
923
926
928
925
922
921
923
926
926
924
922
924
924
930
932
935
936
934
934
934
935
936
938
938
941
946
950
955
956
958
959
965
971
978
977
977
982
983
988
987
988
987
985
988
988
990
987
982
981
985
988
985
981
975
968
966
967
965
969
965
964
965
968
969
967
965
961
961
962
963
959
961
961
962
962
962
959
955
955
954
957
960
960
958
957
955
958
957
957
955
956
957
957
959
961
959
956
958
960
960
961
960
962
961
963
962
961
956
957
957
958
959
957
957
956
958
957
956
956
953
955
954
956
954
955
955
956
956
963
965
967
970
977
980
982
978
979
983
989
994
999
1002
998
1002
1004
1009
1013
1011
1011
1008
1003
1002
1000
989
977
962
954
956
955
952
949
946
946
948
947
947
947
946
945
947
946
948
946
948
948
949
950
950
949
948
947
950
949
946
943
943
950
963
982
1011
1044
1080
1127
1172
1212
1243
1263
1272
1260
1232
1208
1183
1166
1142
1115
1086
1069
1055
1037
1014
994
981
970
957
942
929
925
924
923
919
915
912
910
914
912
914
913
913
913
915
916
918
913
914
914
916
918
920
916
915
915
918
919
920
918
917
918
919
921
922
919
915
914
915
916
917
913
909
911
912
915
916
915
913
915
917
919
918
917
915
917
925
927
928
924
924
925
931
937
941
939
942
945
952
954
957
957
956
960
964
969
974
974
975
976
979
985
986
982
977
979
980
981
978
977
976
976
971
972
969
966
964
967
967
970
969
967
967
967
965
966
967
967
962
963
968
967
964
964
962
960
961
958
956
952
949
948
954
958
957
955
956
962
975
990
1012
1028
1051
1083
1117
1147
1168
1185
1203
1232
1267
1306
1341
1365
1381
1390
1381
1345
1288
1231
1180
1125
1072
1023
977
937
911
899
896
898
894
888
885
887
889
894
894
893
893
892
897
901
901
897
891
884
877
876
870
868
870
872
879
884
886
888
888
890
893
894
891
891
890
892
893
894
895
890
887
888
888
891
892
890
888
889
891
888
889
889
884
888
888
891
890
890
888
887
888
889
892
895
897
898
900
904
907
906
906
910
915
920
921
925
926
930
936
941
943
950
953
956
958
959
959
960
963
961
962
963
960
960
959
959
964
966
969
965
960
959
962
963
964
963
961
961
961
961
957
961
959
959
957
955
959
957
957
958
959
960
962
961
960
959
962
960
961
957
956
955
955
958
959
955
954
956
956
959
955
950
948
950
955
956
956
954
952
952
954
955
954
949
945
946
947
949
948
947
946
950
949
951
950
947
947
948
948
950
950
950
948
949
950
951
951
949
946
948
949
954
952
949
945
948
949
954
950
953
949
950
952
951
957
955
951
950
949
952
951
951
951
949
948
953
950
946
945
948
946
951
950
948
946
947
948
952
950
948
948
949
949
949
951
950
949
950
949
952
954
950
949
948
950
952
953
955
953
952
954
950
951
950
953
953
956
956
956
956
956
952
953
955
955
954
954
951
956
956
957
956
953
953
953
957
956
955
955
956
956
957
955
956
955
956
957
961
966
968
967
972
975
980
979
978
974
975
980
983
985
987
990
993
998
1005
1003
1000
996
993
994
997
997
991
984
975
967
960
953
948
947
946
947
946
950
949
944
945
947
947
946
948
948
949
952
951
954
954
952
951
949
953
955
952
947
949
959
981
1010
1039
1071
1107
1151
1193
1226
1251
1263
1262
1249
1227
1204
1181
1161
1146
1123
1096
1074
1055
1042
1025
1007
989
970
955
939
930
922
922
919
914
910
907
908
909
909
907
900
897
898
900
903
903
903
899
903
905
905
903
901
906
904
906
905
904
903
903
908
910
909
910
909
909
910
911
909
902
904
906
910
913
911
910
908
909
913
918
920
918
917
922
922
923
924
927
925
925
929
933
937
938
939
944
947
949
953
954
955
959
966
968
970
973
975
979
981
984
985
983
985
989
996
999
999
997
996
993
994
996
997
995
988
988
987
987
982
979
973
973
969
971
969
964
961
958
955
956
953
946
944
949
955
957
955
950
945
945
950
953
956
952
948
947
944
943
944
944
941
938
941
944
943
941
940
941
940
942
941
941
942
944
946
948
946
946
944
941
945
946
946
944
944
947
950
950
945
941
942
947
949
952
948
950
945
943
946
946
948
949
951
950
953
958
962
962
958
960
968
976
979
980
981
982
989
992
994
990
991
988
989
987
983
975
968
958
952
943
938
937
937
940
946
948
945
941
940
940
944
948
949
950
946
944
947
952
952
950
950
946
946
947
947
940
933
931
930
939
956
984
1016
1051
1091
1134
1176
1207
1232
1248
1243
1223
1192
1164
1143
1127
1103
1070
1042
1023
1006
984
967
953
941
928
921
916
917
912
907
904
903
907
909
911
908
906
903
907
912
917
916
917
915
916
918
921
919
918
917
918
920
918
920
915
914
915
916
919
919
916
915
916
918
919
917
917
914
917
922
923
926
923
925
927
930
934
933
933
933
933
935
941
943
941
944
949
953
958
961
963
968
971
973
980
984
986
986
986
991
992
995
999
1002
1009
1005
999
990
986
984
985
985
990
989
989
985
985
988
988
984
976
972
970
971
975
974
972
972
974
976
979
979
975
971
971
972
976
975
974
972
971
970
975
976
978
979
982
983
978
974
973
977
982
987
982
976
971
967
969
974
977
974
972
967
962
961
963
965
966
959
956
953
951
953
951
947
948
959
976
992
998
998
992
985
975
960
944
940
946
958
973
979
978
975
974
984
996
1002
1002
998
998
1006
1013
1021
1022
1020
1023
1025
1022
1019
1016
1011
1011
1009
1007
993
979
966
961
957
959
958
959
960
960
957
952
945
944
946
950
951
947
951
954
956
961
963
965
967
964
962
964
963
964
964
964
965
981
1008
1044
1086
1136
1180
1221
1253
1274
1275
1257
1226
1200
1178
1159
1132
1104
1084
1074
1061
1035
1010
992
976
961
951
944
941
937
928
925
925
927
929
925
927
933
934
935
931
927
922
922
920
919
916
912
905
905
904
904
902
902
898
897
899
902
905
905
905
908
911
913
914
917
918
921
922
924
925
925
924
926
929
931
935
939
940
942
946
950
951
953
955
962
968
972
976
979
983
991
997
1005
1008
1011
1012
1017
1023
1026
1027
1027
1026
1025
1028
1030
1031
1026
1025
1023
1022
1023
1024
1020
1015
1012
1014
1015
1013
1010
1007
1004
1006
1007
1004
1002
1000
998
1000
999
999
998
992
990
991
992
987
987
984
982
982
982
980
980
976
977
979
978
978
977
977
977
979
980
979
978
977
980
981
981
981
980
975
977
980
983
983
981
977
977
979
981
983
981
978
978
983
983
984
982
980
979
981
988
990
994
997
999
1004
1006
1002
1002
1004
1009
1014
1018
1017
1016
1021
1021
1026
1024
1022
1019
1018
1016
1016
1014
1002
990
976
969
967
967
964
961
957
959
959
961
962
959
960
960
961
961
961
959
958
960
963
964
964
965
964
961
961
963
960
954
955
957
970
988
1010
1036
1070
1112
1161
1207
1244
1267
1281
1281
1264
1239
1212
1187
1157
1128
1105
1091
1082
1064
1045
1028
1014
1002
989
973
960
953
949
947
943
940
937
939
941
940
940
942
942
940
943
946
946
943
939
941
944
944
943
944
942
942
943
943
942
942
939
941
945
950
950
946
942
939
943
947
948
945
942
943
945
947
950
948
949
947
947
949
950
953
954
959
961
965
965
965
967
968
973
976
978
981
984
989
993
996
1001
998
996
998
999
1000
1002
1002
1002
1000
1001
1003
1001
998
994
992
994
994
991
985
980
986
989
990
989
987
985
985
987
990
988
986
982
983
985
987
989
984
980
982
983
984
985
982
979
983
982
982
983
981
978
979
982
982
983
978
979
977
980
981
980
978
975
977
982
982
980
978
976
977
980
982
983
982
983
986
987
986
985
984
982
983
984
989
989
988
984
983
984
989
988
992
994
999
1002
1005
1008
1004
1003
1008
1014
1018
1021
1023
1024
1028
1031
1033
1033
1029
1024
1023
1020
1024
1025
1016
1005
995
987
981
977
975
975
976
977
979
979
978
974
974
979
979
981
979
975
979
984
985
982
980
978
979
984
983
982
978
974
974
977
983
999
1025
1058
1097
1139
1180
1218
1253
1276
1294
1295
1278
1253
1226
1210
1193
1172
1142
1107
1081
1068
1054
1036
1016
1002
986
974
965
955
952
944
941
935
934
938
939
941
938
933
934
936
938
937
936
939
941
942
945
945
942
937
938
941
944
941
941
940
939
942
943
943
942
941
943
943
944
944
943
940
942
944
945
944
948
945
946
948
947
948
948
946
951
953
956
956
960
959
960
964
969
972
973
974
976
980
984
987
992
990
994
1002
1012
1014
1018
1019
1020
1022
1023
1025
1023
1020
1023
1024
1027
1024
1023
1017
1017
1013
1012
1010
1011
1011
1011
1011
1010
1008
1005
1002
1004
1006
1006
1004
1005
1005
1005
1002
1002
998
998
997
997
996
1000
1000
1000
1001
999
997
1001
1001
1000
1001
997
998
1000
1003
1009
1005
1005
1009
1010
1007
1006
1002
1005
1010
1014
1018
1018
1015
1012
1010
1011
1012
1015
1013
1010
1010
1009
1009
1008
1008
1009
1009
