998
991
979
969
963
959
959
958
955
953
951
955
956
957
953
950
953
957
956
957
955
954
956
962
962
963
964
959
962
960
963
961
957
954
957
967
984
1008
1038
1068
1103
1145
1184
1217
1243
1260
1266
1251
1222
1190
1163
1144
1114
1086
1066
1053
1037
1018
999
987
978
967
953
938
932
931
928
924
921
918
920
923
926
924
921
918
920
921
921
923
924
923
922
924
927
927
924
922
921
926
926
925
927
924
924
928
925
924
921
920
925
924
923
924
920
922
924
925
925
924
922
921
923
926
926
929
928
926
929
931
936
939
939
940
945
950
951
956
954
955
961
969
974
977
978
977
981
985
989
988
988
987
988
992
992
992
989
986
985
988
987
984
982
979
980
980
979
975
971
971
971
973
975
973
972
970
968
969
971
969
967
966
966
970
970
969
968
965
966
966
966
964
965
961
963
965
966
967
965
963
962
963
965
962
960
959
961
963
962
963
962
961
958
963
963
963
964
964
963
965
966
966
964
962
962
966
967
965
964
961
962
964
965
966
963
962
963
962
964
968
966
963
968
969
972
972
974
977
980
982
984
984
984
981
984
993
1000
1002
999
999
1001
1006
1009
1007
1005
999
998
1000
997
995
983
972
965
959
955
954
952
950
950
953
956
950
952
952
954
957
956
956
954
953
956
959
958
958
957
955
957
962
966
965
962
957
958
957
965
980
998
1026
1058
1097
1137
1171
1200
1222
1241
1260
1267
1253
1225
1196
1173
1150
1119
1081
1058
1041
1029
1011
995
980
967
956
946
938
933
931
930
923
920
922
923
923
922
920
918
920
924
924
922
920
925
925
927
927
926
926
924
927
927
926
927
924
925
927
929
928
926
923
925
926
927
925
922
922
921
927
927
926
923
921
922
926
929
927
926
925
926
928
932
933
934
934
936
938
941
943
941
942
948
952
957
958
960
959
962
967
970
974
974
979
982
986
990
991
989
986
989
993
995
992
988
983
982
983
987
986
982
978
976
977
976
977
973
971
971
969
971
971
969
968
967
970
970
969
966
964
966
969
969
967
966
965
966
966
966
968
964
961
963
966
969
968
966
963
966
968
971
971
967
965
964
962
969
969
967
966
965
964
965
965
963
962
966
965
964
963
965
961
962
964
965
965
963
964
964
965
967
967
968
971
974
974
973
974
974
975
978
981
983
985
988
990
996
999
998
998
997
1001
1007
1010
1015
1017
1015
1017
1018
1019
1019
1016
1013
1011
1011
1007
1002
991
981
971
964
968
969
963
960
961
966
966
967
965
964
959
964
967
968
966
966
965
966
971
972
972
971
971
971
975
971
968
967
965
976
999
1031
1066
1104
1144
1184
1219
1245
1262
1272
1266
1244
1211
1186
1163
1142
1115
1086
1065
1050
1033
1012
994
981
972
963
953
947
941
940
937
936
935
933
929
925
925
928
931
934
932
935
936
936
938
936
932
934
935
932
934
933
933
931
932
931
931
935
930
932
933
936
934
933
933
936
935
937
932
929
927
930
932
933
934
931
927
930
932
935
936
935
935
938
941
943
943
944
945
947
950
956
957
961
961
963
967
974
976
977
979
985
987
993
995
995
993
993
999
999
998
997
994
996
997
999
996
993
987
988
991
991
986
986
984
984
985
983
981
978
981
986
987
985
981
979
977
976
974
974
974
973
972
975
978
978
980
984
986
993
1006
1025
1041
1057
1082
1109
1143
1174
1195
1215
1236
1265
1296
1324
1349
1368
1380
1378
1347
1288
1224
1172
1129
1083
1039
999
964
938
919
911
905
902
897
896
894
896
898
898
896
898
894
895
896
894
895
891
885
882
881
878
872
869
866
867
869
874
880
878
876
872
873
876
878
883
887
892
898
902
904
905
902
901
899
900
901
900
896
896
897
899
897
897
894
895
895
894
897
898
899
898
899
902
899
900
902
908
909
912
916
918
917
923
930
934
937
939
940
947
953
957
960
962
965
971
975
981
978
980
979
980
984
984
989
986
983
985
986
987
989
987
987
987
989
989
985
984
984
987
987
989
985
984
981
985
985
986
983
982
979
982
983
986
983
983
980
982
982
982
983
980
978
977
980
982
982
980
976
975
975
975
972
972
971
973
973
976
975
973
969
968
968
971
971
969
967
969
971
973
973
969
967
968
970
975
975
972
971
969
971
971
971
969
968
966
968
971
966
969
967
968
969
969
968
968
964
967
968
966
967
965
962
962
964
964
964
964
959
961
963
965
964
964
960
961
962
964
962
964
964
962
963
963
963
964
963
964
962
966
965
967
965
967
966
971
969
969
964
966
968
969
969
966
964
965
966
969
965
965
963
964
967
966
964
963
958
962
964
964
962
964
962
959
962
963
962
962
958
960
962
961
961
960
958
962
963
966
963
963
958
959
960
966
967
962
960
962
963
969
964
966
964
966
970
976
980
983
984
987
987
985
981
984
990
998
1000
1001
999
999
1001
1005
1007
1005
1001
1000
999
1000
998
995
993
984
973
962
958
957
955
951
950
949
950
951
950
950
949
951
953
956
957
956
953
956
955
959
958
958
956
956
960
961
957
955
954
960
969
982
1004
1032
1068
1111
1150
1189
1218
1241
1258
1269
1256
1227
1194
1171
1155
1138
1115
1087
1063
1049
1033
1015
994
981
970
957
945
936
932
931
928
924
920
916
919
920
921
918
918
918
922
922
921
921
921
921
923
925
927
925
924
924
926
926
927
925
923
924
925
928
926
926
923
924
924
927
927
927
925
926
928
930
930
930
929
928
931
933
933
935
936
940
943
945
948
947
946
951
951
955
957
962
961
967
967
970
973
973
974
979
980
985
988
992
992
993
997
1002
1003
1001
1003
1006
1009
1008
1009
1006
1006
1006
1005
1001
1000
997
995
994
995
993
989
986
982
982
980
980
976
971
969
967
969
970
968
964
962
961
962
958
960
959
954
957
954
953
950
949
947
949
948
952
950
947
946
948
948
947
946
945
942
944
945
949
946
944
942
944
945
944
946
944
943
945
947
951
950
945
941
944
946
948
947
942
940
945
946
947
948
945
943
946
948
949
948
947
945
947
951
950
948
950
947
952
955
960
963
963
964
966
968
968
968
970
972
976
981
987
987
988
989
991
993
995
991
985
983
980
979
976
968
960
949
940
936
935
936
938
938
938
942
942
940
939
936
940
945
943
941
941
942
942
946
946
947
945
945
944
945
946
948
949
949
949
946
946
945
951
963
989
1020
1055
1093
1130
1168
1201
1231
1252
1260
1252
1228
1200
1181
1163
1142
1112
1080
1054
1040
1032
1016
996
976
965
954
945
935
927
920
916
915
914
910
910
907
908
908
905
906
909
905
907
911
912
913
912
913
913
914
913
913
912
913
913
914
917
915
915
912
913
915
917
915
912
911
911
915
917
918
915
912
913
914
917
917
912
911
915
915
916
915
915
917
917
920
922
921
921
921
925
929
934
934
931
930
933
938
942
945
944
947
950
954
958
962
964
964
968
970
972
973
972
973
975
977
975
975
972
969
969
972
970
968
965
962
963
966
967
963
958
954
957
957
962
962
960
955
958
961
962
959
956
957
958
959
961
960
958
959
960
960
957
959
959
955
957
959
958
956
956
956
956
957
959
957
957
957
956
961
959
960
958
953
954
957
959
959
956
956
955
959
958
958
957
956
959
960
961
960
958
955
958
958
958
961
960
960
962
964
964
963
964
962
966
971
976
979
983
980
979
980
985
985
989
990
994
1001
1006
1008
1005
1005
1003
1005
1003
1000
1000
995
992
985
979
970
961
954
954
954
954
954
954
952
955
957
957
957
958
958
960
963
963
964
961
960
961
964
967
968
968
964
965
967
964
962
960
958
969
989
1015
1046
1077
1110
1145
1183
1215
1240
1255
1254
1242
1217
1191
1171
1152
1131
1101
1073
1057
1047
1034
1016
1001
993
982
972
958
946
941
937
935
932
928
925
926
928
930
926
925
926
928
930
930
931
931
929
928
930
931
932
932
929
932
932
933
933
931
929
931
932
929
929
926
926
929
933
933
934
930
927
928
929
930
931
930
929
931
928
932
930
931
929
931
932
937
939
940
940
943
947
949
946
948
949
952
955
962
963
965
965
967
972
973
979
979
979
984
988
991
993
993
995
997
997
997
998
996
993
994
996
995
993
991
986
987
988
986
985
984
980
982
983
985
983
981
978
977
978
979
980
978
977
974
975
974
978
977
974
974
973
974
973
974
973
974
976
976
974
974
972
975
976
976
975
974
974
976
979
978
977
974
976
974
976
975
973
973
968
969
974
976
973
971
970
972
973
975
973
969
967
970
971
973
971
971
969
969
970
972
974
973
977
978
983
989
992
996
996
1000
1000
998
999
1003
1007
1012
1017
1018
1021
1019
1020
1025
1025
1021
1022
1018
1014
1015
1010
1000
989
978
969
970
974
973
971
972
972
972
977
977
977
975
973
975
976
976
976
976
975
978
980
978
975
974
974
976
973
973
971
968
968
981
1000
1029
1061
1095
1128
1167
1203
1236
1260
1278
1276
1257
1230
1206
1184
1159
1128
1102
1084
1077
1063
1046
1024
1009
994
983
969
961
952
948
947
943
940
938
937
939
940
937
934
937
937
938
942
945
946
946
944
948
950
949
949
946
946
949
950
949
948
944
940
943
946
948
947
949
946
947
947
945
942
940
940
945
944
946
946
944
946
951
948
944
942
942
946
950
955
956
952
952
951
960
967
974
974
974
974
980
986
987
982
980
984
989
993
992
992
994
996
1002
1006
1007
1002
1001
999
1001
1001
998
996
994
995
999
997
996
991
986
985
984
987
989
987
984
980
982
983
985
986
986
983
982
982
984
986
985
982
979
980
984
986
987
987
985
985
984
986
985
989
990
988
985
978
977
976
978
982
984
982
981
979
978
982
981
982
979
977
979
983
984
981
977
978
980
979
977
977
977
977
979
979
979
982
979
982
981
982
982
980
979
977
979
983
984
987
991
995
1000
1002
1001
999
998
1003
1006
1012
1016
1016
1020
1021
1024
1023
1022
1018
1014
1015
1009
1008
999
990
977
970
968
970
969
967
964
960
960
962
963
967
968
964
966
965
967
968
968
966
966
967
969
970
971
974
973
974
971
971
969
978
990
1020
1058
1095
1137
1180
1219
1251
1279
1292
1280
1254
1229
1207
1181
1155
1125
1096
1074
1061
1044
1020
1000
984
972
960
955
948
943
937
935
934
937
936
935
930
932
935
939
939
938
938
940
943
942
941
940
937
940
941
945
945
943
943
944
942
939
939
938
939
943
946
948
946
944
943
946
945
945
943
943
940
942
943
946
945
944
942
946
952
956
957
956
954
957
963
965
964
965
967
975
980
983
987
985
985
990
997
1001
1004
1008
1006
1009
1006
1008
1010
1012
1010
1009
1008
1006
1006
1003
996
995
992
991
993
992
989
992
993
989
985
984
982
986
987
987
985
983
984
985
990
994
995
991
986
985
988
990
990
989
987
984
989
994
993
989
984
984
987
989
989
986
984
983
983
986
987
986
984
983
982
983
982
982
981
979
978
981
982
984
980
982
983
983
982
978
975
980
984
987
980
977
977
978
981
982
983
983
987
989
995
999
1001
997
990
990
994
997
1000
1003
1005
1012
1019
1023
1023
1020
1013
1013
1013
1012
1008
1002
993
984
978
971
969
966
962
964
966
967
968
970
967
970
973
974
972
966
965
969
975
975
972
970
971
977
978
978
975
976
971
969
967
971
981
999
1029
1062
1098
1130
1165
1200
1231
1258
1276
1277
1256
1224
1197
1177
1158
1129
1095
1069
1055
1041
1025
1010
997
985
973
963
954
946
939
934
927
925
921
920
920
923
925
928
931
929
926
927
925
925
928
925
926
925
924
927
926
927
925
925
926
927
928
930
933
934
932
935
937
940
939
939
935
935
936
936
937
930
930
932
938
939
937
934
934
932
935
936
936
932
931
934
940
942
942
945
944
946
948
947
949
952
957
962
961
962
962
965
968
968
974
973
972
969
967
967
969
966
968
968
965
963
965
963
963
963
963
966
967
965
963
961
961
967
969
969
966
965
967
972
975
973
970
970
967
968
968
970
969
964
964
965
968
970
971
966
966
967
969
968
964
959
958
960
961
959
959
956
956
956
956
958
956
954
956
958
957
959
956
952
952
951
955
960
959
957
955
956
958
961
960
961
962
964
968
974
977
979
975
974
976
977
984
989
992
998
1001
1009
1010
1009
1009
1008
1005
1002
1000
998
994
991
983
972
961
956
956
957
957
958
957
956
954
956
959
958
960
958
955
956
956
959
963
964
962
961
963
964
966
961
957
952
956
962
972
993
1018
1052
1086
1122
1165
1206
1236
1256
1263
1242
1204
1174
1150
1131
1107
1079
1059
1046
1033
1018
1005
990
977
966
956
950
946
945
938
935
931
930
933
931
931
929
924
925
927
929
930
933
932
934
936
933
934
936
935
939
939
940
940
941
941
947
946
945
945
945
942
941
944
944
942
940
938
938
938
937
938
934
936
936
939
942
938
938
940
942
943
947
950
948
948
953
959
962
960
962
963
966
970
973
974
977
980
984
984
986
989
989
988
989
989
992
993
993
991
992
993
989
987
985
983
984
989
988
986
987
984
984
985
985
985
983
980
983
983
983
982
982
982
981
982
981
982
979
977
978
979
982
980
978
976
977
982
978
982
981
979
979
981
982
980
982
979
979
979
982
980
979
980
979
983
984
983
978
978
980
982
983
981
978
978
979
978
979
977
977
977
980
982
982
984
981
980
983
983
985
983
984
981
982
987
990
995
999
1001
1005
1008
1006
1002
1002
1005
1012
1016
1016
1016
1015
1016
1020
1023
1023
1019
1017
1016
1014
1014
1010
1004
996
984
974
966
965
962
961
960
959
961
962
960
958
957
958
960
961
962
960
961
962
965
963
964
963
961
962
968
967
969
966
963
962
961
962
964
975
994
1020
1053
1089
1128
1169
1202
1233
1255
1272
1274
1257
1224
1201
1187
1171
1151
1122
1091
1069
1055
1043
1023
1003
984
973
964
953
942
934
930
925
924
921
918
915
913
914
917
916
918
915
915
917
920
922
921
919
916
917
920
922
923
921
918
920
921
921
920
919
917
921
921
918
922
919
919
923
925
921
917
919
917
919
922
926
924
921
919
923
926
925
927
925
925
928
931
932
938
941
940
944
948
949
950
950
951
951
956
959
960
963
963
967
973
976
977
979
979
983
987
989
990
988
988
989
990
989
988
989
982
983
984
980
980
976
975
975
976
973
973
970
967
965
969
968
967
965
963
964
965
968
965
963
962
962
961
962
961
961
960
958
958
958
960
956
956
958
956
958
958
955
954
954
956
957
956
954
954
957
958
959
959
956
954
955
954
958
957
955
955
955
958
959
960
957
956
958
959
960
959
957
959
961
960
963
961
960
960
962
964
965
964
961
960
958
963
965
964
964
965
969
971
975
978
980
980
981
980
982
987
986
992
995
1001
1002
998
998
999
1002
1002
1000
996
993
991
991
987
979
969
961
953
950
950
946
946
944
944
946
949
948
948
944
946
947
950
951
952
950
950
949
953
955
956
956
955
956
955
959
956
953
954
953
954
959
965
981
1008
1043
1085
1125
1164
1198
1224
1250
1265
1270
1263
1237
1209
1182
1162
1132
1100
1069
1047
1035
1023
1006
986
970
957
950
941
934
927
922
919
917
916
915
913
912
911
911
914
914
915
915
913
914
916
918
916
918
918
920
920
919
919
914
915
916
919
921
919
915
916
917
919
921
922
919
917
916
918
921
921
916
917
918
919
920
921
921
922
923
928
927
928
929
930
932
938
940
940
938
936
941
946
950
955
955
958
962
967
969
972
974
974
979
981
984
983
982
980
982
982
982
980
980
976
975
976
976
969
969
966
966
970
966
965
964
963
963
964
964
966
961
958
957
959
961
962
958
956
958
958
959
961
957
953
955
956
956
956
956
956
957
957
957
954
951
950
954
954
955
955
953
954
957
957
961
957
956
955
955
957
955
957
957
955
956
957
959
962
956
957
960
959
958
958
959
957
959
959
961
960
958
955
960
961
962
962
962
960
961
967
971
973
973
973
977
976
978
976
982
984
986
989
992
994
997
994
999
1002
1001
995
993
990
991
995
990
983
972
961
956
954
952
952
951
948
952
952
951
952
950
949
953
952
953
954
954
956
958
957
958
960
961
960
958
962
963
965
965
961
961
963
967
974
983
1009
1039
1073
1109
1145
1180
1208
1233
1250
1263
1264
1255
1229
1203
1181
1165
1145
1118
1085
1062
1049
1038
1020
999
982
971
965
958
949
942
939
938
937
934
932
929
927
928
928
930
931
933
932
933
935
936
935
933
931
934
936
936
936
933
930
933
936
937
935
933
932
931
937
936
935
933
933
935
933
932
935
934
930
931
933
934
935
934
932
933
934
937
935
933
934
936
938
941
943
942
944
950
952
955
955
955
957
960
968
971
974
973
975
983
987
991
994
994
993
993
994
994
994
992
988
990
991
990
990
985
984
983
982
980
981
976
977
979
978
976
976
975
977
977
977
978
973
969
969
973
975
975
975
975
971
971
974
973
973
970
968
970
971
974
972
971
969
969
972
971
970
968
968
969
974
