969
967
964
965
966
970
970
969
967
966
970
971
977
980
983
986
991
994
992
986
984
986
994
1001
1004
1005
1005
1006
1006
1008
1008
1004
1004
1000
1000
999
993
982
971
959
954
954
952
952
949
948
950
952
954
954
953
955
957
957
959
957
957
956
959
962
963
962
964
961
957
954
955
957
963
979
1008
1044
1086
1128
1169
1210
1246
1272
1287
1283
1259
1231
1203
1179
1153
1116
1088
1069
1055
1041
1020
998
981
964
951
941
933
926
921
918
917
917
918
914
914
913
916
918
918
918
919
917
918
923
923
923
922
922
923
924
923
926
922
924
922
924
923
924
922
920
921
922
921
919
917
917
920
924
924
923
921
921
924
927
930
930
931
931
932
934
938
940
941
942
946
953
955
958
960
961
966
971
977
979
979
979
982
986
989
993
993
991
990
988
987
985
982
981
979
981
982
978
973
968
968
971
970
967
966
963
965
967
966
961
961
960
960
958
959
961
961
960
959
960
962
961
960
957
958
960
962
961
957
955
957
962
961
959
958
958
959
963
963
959
957
957
960
962
964
960
958
957
959
962
964
962
961
959
961
961
963
966
965
960
963
964
967
967
965
963
963
963
964
965
966
964
967
968
971
973
977
981
984
987
985
984
983
988
997
1003
1008
1005
1007
1009
1008
1013
1010
1006
1002
1003
1003
1002
997
987
976
960
956
956
955
954
953
953
956
956
954
955
955
954
955
957
955
957
956
958
960
962
964
964
964
963
964
963
961
956
958
961
977
1005
1039
1081
1121
1163
1205
1240
1263
1278
1285
1273
1250
1222
1200
1179
1156
1125
1094
1075
1060
1041
1017
998
988
975
961
947
939
932
929
928
925
921
918
916
917
919
919
919
918
919
921
923
922
925
924
922
926
924
927
922
920
921
923
927
927
925
922
926
928
930
930
929
927
921
923
927
926
930
925
922
927
929
929
927
928
926
929
932
935
935
937
937
938
941
942
947
951
951
955
959
965
965
967
969
978
979
982
986
987
991
993
995
997
996
992
992
994
996
995
993
991
988
988
987
986
985
981
977
976
979
980
977
975
972
974
975
977
973
972
970
971
970
970
972
972
969
969
966
963
960
959
955
957
959
961
962
965
964
966
964
970
983
996
1013
1035
1056
1082
1115
1151
1182
1209
1236
1271
1309
1344
1372
1399
1415
1418
1393
1342
1282
1222
1167
1107
1043
987
946
921
906
901
899
895
894
897
897
900
901
899
894
894
896
898
895
895
893
891
888
887
882
877
872
872
880
887
890
890
890
893
894
894
896
895
895
895
896
898
897
898
894
895
894
895
894
893
889
889
891
893
893
894
892
895
895
896
894
895
894
899
903
907
909
911
910
911
914
917
919
920
920
925
931
934
937
941
943
951
956
961
961
960
959
963
967
971
973
974
976
980
978
980
979
977
973
978
978
980
981
978
977
980
982
981
977
973
973
974
977
980
978
976
977
979
978
979
975
976
972
975
978
976
976
977
977
978
976
975
976
974
972
973
977
976
974
973
970
973
975
974
972
971
967
968
967
971
972
971
965
966
965
967
968
966
966
968
969
970
970
972
970
970
975
973
971
966
965
967
972
974
974
974
970
973
974
974
970
970
968
969
971
977
981
987
985
988
990
989
983
983
986
991
992
988
987
990
992
994
992
991
989
986
987
988
989
991
993
991
987
986
984
987
992
993
992
991
992
992
989
987
987
989
992
990
990
989
989
990
991
991
990
991
989
992
995
994
991
991
987
991
995
998
996
993
992
997
1000
998
996
995
995
996
996
995
997
993
994
997
1001
1002
1001
1001
1000
999
999
1002
1001
998
996
999
1003
1002
998
996
997
998
1001
1002
1002
998
995
997
1003
1004
1007
1005
1009
1012
1014
1014
1018
1020
1023
1025
1029
1032
1034
1034
1037
1037
1034
1033
1031
1030
1026
1021
1017
1009
998
984
975
975
977
979
977
975
973
974
975
977
977
976
972
971
976
978
983
980
976
977
977
979
981
982
981
981
982
982
983
990
1015
1051
1088
1128
1170
1208
1234
1259
1272
1275
1255
1222
1191
1174
1164
1149
1122
1091
1068
1053
1042
1026
1008
994
982
973
962
954
951
945
938
937
934
931
932
931
929
931
935
935
936
933
930
932
934
934
934
931
931
935
937
934
937
934
933
936
938
938
938
933
936
937
938
940
940
939
936
937
939
941
941
938
938
940
942
946
949
946
944
947
949
954
954
956
958
957
959
964
965
965
968
974
982
983
985
988
991
996
1002
1003
1003
1006
1009
1019
1021
1022
1021
1021
1024
1028
1029
1031
1033
1033
1031
1028
1028
1029
1026
1025
1021
1017
1014
1013
1010
1011
1007
1008
1006
1004
997
994
989
992
994
994
991
984
982
981
982
981
978
974
973
977
980
979
975
973
973
974
974
973
972
969
969
970
972
971
968
964
966
969
976
974
971
968
969
970
972
970
971
973
971
973
972
973
973
973
972
971
972
972
972
973
972
973
976
976
972
973
972
973
975
975
973
971
971
972
973
973
972
970
969
972
975
978
980
979
981
990
999
998
993
990
989
996
1003
1005
1003
1004
1007
1012
1017
1023
1020
1017
1013
1013
1016
1017
1011
1000
990
982
975
965
962
959
957
956
954
954
954
953
954
959
961
964
961
962
962
961
962
961
960
963
962
963
963
964
965
964
961
956
956
958
967
985
1002
1025
1050
1078
1113
1154
1192
1228
1253
1270
1272
1255
1228
1201
1179
1156
1123
1092
1073
1062
1051
1028
1010
990
976
966
958
947
940
933
927
928
929
931
926
923
919
921
924
926
926
929
931
931
930
929
928
928
925
927
931
933
933
929
928
927
931
931
930
932
929
932
930
927
925
925
924
925
924
928
925
925
921
922
926
927
926
928
928
930
931
932
933
935
935
937
940
942
945
947
950
955
962
963
963
965
968
970
978
979
983
984
985
991
992
994
995
995
992
992
992
993
992
992
987
986
985
984
984
979
978
977
977
975
975
972
968
971
970
970
969
966
967
968
968
970
970
967
964
964
966
963
963
958
957
961
959
958
955
952
953
953
956
955
956
952
949
948
951
950
951
950
949
950
949
948
944
943
941
945
946
946
944
944
946
949
948
950
949
950
950
954
955
957
957
955
955
956
959
958
960
958
958
961
964
965
966
965
967
969
972
980
983
987
987
988
987
988
991
996
999
1003
1005
1006
1004
1001
1007
1010
1009
1009
1003
999
995
994
991
980
968
955
947
950
948
948
946
944
942
943
946
948
945
946
942
945
947
949
946
946
948
950
952
952
955
954
952
952
954
954
951
947
942
946
958
980
1007
1038
1074
1118
1162
1202
1231
1254
1272
1280
1272
1251
1229
1205
1183
1157
1127
1098
1080
1063
1050
1033
1017
1000
982
968
954
945
942
938
931
922
916
916
920
918
918
911
907
911
915
917
917
915
916
917
920
917
914
916
914
919
923
924
920
919
919
920
922
923
921
922
921
922
925
924
922
923
920
921
923
920
918
916
917
919
921
922
924
921
921
924
926
927
927
929
928
932
937
938
941
939
943
946
952
954
958
960
961
965
970
974
976
978
978
981
986
988
988
986
984
986
985
984
983
981
976
977
976
975
973
969
966
966
966
968
963
962
961
964
965
967
963
961
960
960
960
958
957
954
954
958
957
960
958
959
958
955
957
956
954
953
952
953
954
958
956
954
951
952
955
958
959
956
953
957
956
955
955
951
954
954
955
955
953
954
952
955
958
956
954
953
949
955
958
958
958
959
957
957
959
960
959
959
958
959
963
965
966
964
962
968
970
977
982
979
981
982
983
983
982
986
990
996
1001
1003
1002
1006
1009
1011
1008
1007
1003
1001
1000
1002
999
995
986
971
961
956
954
953
953
951
948
949
951
952
951
949
950
953
955
954
953
953
952
955
957
960
955
955
954
957
962
962
957
951
949
953
957
975
996
1019
1042
1075
1113
1153
1195
1227
1249
1262
1259
1243
1217
1197
1178
1156
1128
1100
1079
1071
1059
1044
1028
1016
1001
983
971
959
950
946
938
929
922
921
922
923
921
919
917
916
919
923
923
924
923
923
924
925
923
924
924
926
929
930
925
927
924
929
930
929
926
926
924
927
927
929
930
927
925
926
929
927
927
925
926
927
929
929
927
928
927
932
939
936
936
932
933
937
939
944
944
943
945
950
955
960
960
963
965
968
971
975
978
978
982
987
991
992
993
992
992
995
996
996
994
988
989
990
991
989
985
982
980
982
982
981
981
979
978
976
977
978
978
978
975
975
977
976
976
975
975
976
976
975
975
972
971
970
971
970
969
970
970
971
974
974
972
974
972
975
975
974
972
970
969
972
975
975
974
971
969
970
971
972
971
970
970
972
974
974
973
969
967
968
971
970
971
969
969
970
972
971
972
974
971
974
976
974
975
974
975
979
985
990
992
992
992
994
995
997
1002
1005
1009
1013
1016
1017
1021
1022
1020
1019
1019
1017
1014
1012
1006
1002
992
982
972
963
960
962
961
964
966
963
960
965
967
964
963
964
964
964
966
968
968
969
968
970
971
974
970
971
969
969
969
969
971
980
1001
1031
1070
1109
1146
1189
1226
1258
1278
1284
1272
1246
1226
1212
1199
1176
1151
1119
1094
1081
1068
1051
1029
1012
996
980
967
957
951
945
937
934
933
930
927
925
927
928
932
931
931
928
929
933
935
935
933
933
932
937
942
940
940
936
935
935
939
939
938
935
936
935
940
938
940
940
936
936
938
937
939
938
938
941
944
943
941
939
938
940
946
947
947
945
947
948
951
956
956
957
958
962
966
967
970
970
972
977
983
987
989
991
993
998
1000
1006
1004
1005
1006
1009
1011
1011
1007
1001
1002
1003
1004
1004
1001
998
996
994
996
995
991
990
988
987
986
986
984
984
982
986
982
980
983
978
981
982
983
979
978
976
976
979
980
980
976
974
974
977
977
978
979
975
975
975
979
978
976
975
977
977
980
979
979
976
976
981
980
981
982
981
978
979
979
980
978
978
979
980
981
980
980
979
979
983
984
984
982
979
980
981
982
984
984
981
984
988
995
999
1003
1000
1001
1001
1004
1006
1010
1012
1014
1019
1024
1028
1027
1025
1023
1023
1022
1023
1021
1012
1003
993
985
978
975
972
969
969
969
970
968
969
967
970
973
972
972
973
970
974
974
975
976
973
975
978
979
981
980
977
971
971
972
979
997
1028
1065
1106
1149
1187
1221
1244
1261
1278
1289
1282
1259
1227
1205
1185
1160
1130
1104
1085
1070
1055
1035
1018
1005
991
977
969
960
955
950
945
940
939
939
936
934
934
933
938
938
938
940
940
940
941
941
943
944
941
940
944
946
945
944
944
943
946
947
947
944
944
940
942
944
943
944
941
941
942
944
945
943
942
942
945
946
947
947
948
946
951
950
951
954
956
959
964
965
970
969
974
978
982
987
992
993
993
996
1002
1006
1008
1010
1009
1011
1013
1015
1016
1014
1009
1008
1008
1007
1008
1006
1003
999
999
999
999
995
993
991
992
992
991
990
986
985
986
989
992
993
994
998
1008
1025
1043
1066
1088
1117
1154
1187
1208
1223
1240
1269
1307
1347
1379
1399
1404
1384
1342
1286
1233
1185
1130
1068
1019
980
951
932
920
916
915
912
912
909
909
913
914
915
914
915
914
911
912
912
906
901
894
891
886
881
877
877
871
869
871
878
880
883
882
881
884
888
900
910
915
916
920
925
929
924
918
915
913
916
916
916
914
914
917
919
918
920
919
920
924
925
928
926
926
930
935
936
938
939
941
948
950
957
960
962
967
967
976
981
984
985
986
984
987
992
995
995
996
993
997
999
998
998
998
995
996
996
999
996
995
994
995
997
997
998
997
996
998
998
997
995
994
995
996
997
996
997
996
993
997
998
996
994
992
991
990
995
994
990
987
983
987
989
987
987
987
986
987
987
984
983
980
982
984
988
987
983
981
981
982
983
982
982
979
978
979
978
979
978
978
978
979
978
979
978
976
973
976
977
978
978
979
978
979
979
979
977
976
973
977
975
976
976
974
977
978
980
975
977
977
980
978
978
976
976
977
977
977
978
977
975
973
973
976
977
977
975
970
972
975
977
978
979
974
971
974
978
978
979
978
978
977
977
977
974
975
976
977
978
980
979
977
976
977
979
978
978
978
977
976
979
978
977
974
975
978
981
982
979
976
975
974
977
978
978
976
977
976
978
981
978
977
976
977
979
980
978
979
977
978
979
978
977
977
976
979
978
981
979
980
979
981
982
984
987
992
994
998
996
994
995
997
1005
1014
1015
1015
1014
1013
1015
1018
1024
1023
1020
1018
1011
1011
1013
1008
1000
989
976
972
969
970
970
970
967
968
968
969
968
968
969
972
972
971
971
972
972
975
978
979
976
977
974
976
977
975
974
979
994
1019
1054
1094
1133
1174
1211
1246
1270
1285
1280
1256
1228
1206
1192
1175
1154
1127
1101
1082
1073
1059
1035
1016
999
987
976
962
951
945
941
939
936
931
928
930
926
926
928
928
929
929
929
931
931
932
930
931
928
931
931
933
930
928
930
932
933
932
932
931
931
934
933
933
934
933
932
936
937
938
937
934
935
940
940
941
940
941
941
944
947
947
949
949
952
956
959
961
964
967
968
971
978
981
985
985
987
991
999
999
1003
1004
1006
1012
1015
1015
1016
1020
1023
1024
1027
1026
1025
1022
1022
1021
1020
1020
1016
1012
1010
1008
1007
1005
1004
999
995
996
995
994
989
985
983
984
982
982
979
976
976
976
979
976
974
972
969
969
970
969
966
966
962
964
964
967
965
963
964
964
967
965
964
962
962
962
964
963
964
962
961
962
965
965
964
962
961
964
968
966
966
961
961
963
967
968
967
963
966
967
971
969
966
966
965
968
971
974
972
972
971
976
980
985
991
990
987
987
989
994
996
999
1004
1009
1011
1012
1014
1016
1016
1015
1013
1011
1010
1010
1004
999
987
975
967
959
953
956
959
958
957
957
957
960
960
959
959
958
958
959
960
962
962
961
960
963
965
966
965
964
963
962
961
963
961
969
990
1023
1059
1099
1139
1181
1217
1248
1269
1278
1269
1248
1222
1205
1191
1171
1142
1111
1085
1076
1063
1043
1021
1003
986
975
961
947
942
934
928
927
924
924
922
922
918
921
922
920
919
919
923
926
929
928
925
926
925
928
931
931
932
930
924
928
930
930
928
927
927
928
930
930
931
929
926
929
931
930
928
928
927
930
931
930
930
928
931
934
934
935
936
936
937
941
944
946
947
948
951
955
961
962
962
962
966
971
978
980
981
981
982
986
990
995
994
994
994
993
992
992
989
990
988
987
986
985
983
979
978
980
982
981
978
974
971
973
977
973
975
971
971
973
974
974
970
969
969
972
970
969
969
967
967
968
970
969
969
966
964
967
970
971
969
967
965
969
968
969
970
966
966
966
969
970
968
970
970
971
973
973
972
969
970
970
971
972
969
968
969
971
972
972
972
969
971
970
973
972
969
966
964
969
973
971
973
971
970
974
976
978
981
982
984
991
995
995
993
990
989
997
1005
1007
1007
1006
1010
1013
1017
1019
1017
1015
1011
1011
1012
1013
1008
1001
991
986
980
971
964
962
960
963
965
963
962
961
960
964
968
965
963
963
964
965
969
966
966
964
964
968
972
971
972
971
971
973
973
968
964
962
970
986
1010
1039
1073
1111
1151
1191
1227
1251
1270
1284
1283
1271
1254
1235
1215
1194
1171
1139
1113
1092
1079
1063
1044
1023
1009
996
983
967
956
948
945
939
935
931
929
926
927
924
924
923
923
926
929
926
927
926
929
931
932
932
930
929
931
935
939
937
934
932
933
934
937
934
933
931
929
932
935
934
932
929
929
931
932
934
936
934
934
935
937
937
938
938
937
938
942
942
943
943
943
948
952
952
954
957
958
963
967
969
970
971
974
979
984
987
986
987
990
997
1002
1002
1003
1003
1000
1002
1003
1007
1005
1003
998
999
999
997
996
993
989
990
989
987
985
982
981
983
984
982
980
975
976
978
980
978
978
976
976
975
976
975
975
972
971
972
973
973
972
970
966
969
973
971
969
967
967
969
972
968
970
966
968
967
973
973
974
973
969
970
973
972
972
971
972
974
976
974
970
968
969
975
976
977
975
974
971
973
976
976
978
977
976
977
979
978
975
975
975
975
976
975
975
976
976
980
982
982
984
988
990
992
998
997
994
991
991
1001
1010
1013
1015
1017
1017
1020
1025
1026
1025
1021
1019
1018
1020
1019
1017
1015
1008
999
996
985
974
973
969
969
967
970
969
967
964
969
971
970
970
969
971
974
975
973
971
968
972
976
975
975
974
973
973
972
972
970
970
970
980
993
1016
1036
1059
1081
1113
1155
1197
1231
1258
1274
1285
1281
1261
1235
1209
1186
1156
1123
1099
1084
1075
1062
1043
1026
1013
998
989
977
964
956
954
946
945
941
940
945
943
944
940
941
940
944
947
945
945
943
946
947
948
948
944
946
945
948
947
946
944
944
941
946
948
950
949
947
943
943
941
940
940
941
942
944
943
944
943
940
939
943
945
945
943
940
942
946
948
950
949
947
953
956
962
964
967
967
970
976
984
988
991
990
989
994
996
1000
1002
1004
1004
1009
1008
1010
1007
1007
1005
1005
1005
1004
1003
998
997
999
1000
997
995
995
995
993
995
990
990
988
987
988
989
989
987
985
987
986
987
986
983
983
981
982
986
984
983
982
982
983
983
