973
973
973
973
972
974
976
975
974
973
971
974
974
973
975
974
973
976
979
981
985
985
989
993
996
996
993
991
990
993
997
1004
1008
1009
1010
1017
1018
1022
1021
1018
1014
1014
1015
1010
1010
1007
1002
994
984
975
966
962
958
962
964
962
961
961
958
963
964
962
961
957
957
961
967
964
965
964
964
965
968
969
967
964
962
962
960
961
960
961
970
987
1014
1046
1080
1114
1156
1197
1231
1255
1267
1268
1246
1225
1205
1189
1173
1153
1124
1094
1070
1058
1047
1029
1006
990
978
966
953
945
937
935
931
927
926
924
921
922
923
922
924
925
925
927
930
931
930
929
930
930
932
928
927
927
925
931
935
936
933
933
930
932
933
932
933
930
928
928
930
933
931
928
929
929
932
933
934
934
933
937
938
940
942
941
943
944
947
948
949
950
951
955
960
963
964
965
966
972
978
980
981
982
983
989
993
996
996
998
995
997
1001
1001
1001
999
994
996
995
996
996
994
994
997
995
994
992
988
981
981
982
981
978
977
975
978
977
972
973
967
967
969
973
974
972
971
969
969
969
968
967
967
966
967
966
963
962
960
959
963
966
968
962
960
959
961
963
963
959
955
954
957
957
958
957
955
956
954
956
953
953
954
954
954
955
956
951
956
956
956
958
957
956
958
955
958
961
959
959
958
955
956
960
961
962
962
963
966
965
968
968
970
973
980
987
988
989
986
982
984
985
989
995
998
1002
1006
1010
1013
1017
1013
1012
1012
1009
1007
1004
1002
1000
996
988
980
968
961
958
956
958
956
955
953
953
955
955
954
955
954
953
954
955
960
963
962
961
960
962
963
964
964
965
969
970
968
967
964
960
965
967
979
999
1025
1056
1096
1136
1177
1213
1243
1262
1272
1267
1246
1218
1196
1182
1167
1149
1124
1098
1083
1072
1059
1044
1027
1011
995
982
972
964
957
950
945
939
938
934
932
934
932
935
937
941
940
935
933
932
933
935
937
934
933
936
938
942
940
938
935
932
936
938
938
942
941
944
947
946
942
940
936
933
936
939
942
939
938
935
937
937
939
936
937
938
937
938
943
945
946
947
948
954
955
956
958
960
964
967
968
967
972
973
978
984
987
987
983
984
988
994
1001
1004
1003
1003
1002
1010
1011
1008
1001
997
995
995
997
1000
1000
997
995
989
988
988
985
983
983
984
983
982
982
980
981
975
976
974
974
971
973
976
976
977
972
973
973
974
971
973
975
974
970
970
970
969
967
962
961
965
966
967
963
961
963
960
960
959
957
960
965
963
961
960
961
960
964
968
967
966
961
961
965
965
966
967
965
966
969
968
967
966
965
965
966
968
968
971
966
967
969
972
971
973
978
980
983
988
987
989
986
986
989
998
1005
1007
1010
1008
1012
1016
1022
1019
1017
1013
1014
1017
1014
1012
1006
1002
998
989
978
968
965
963
961
960
962
963
964
966
963
963
967
962
961
960
963
966
965
966
965
963
963
966
968
970
970
967
965
962
961
967
971
980
1006
1035
1068
1103
1141
1178
1215
1242
1259
1266
1252
1224
1200
1185
1172
1162
1136
1105
1083
1067
1055
1038
1016
997
986
974
964
953
947
943
943
941
937
936
930
935
937
938
937
934
936
938
939
941
943
943
944
942
948
949
947
943
944
944
945
946
945
947
946
943
944
947
946
946
944
944
942
946
943
947
944
941
944
945
944
941
938
940
943
947
947
946
945
946
947
950
951
952
956
952
955
957
959
962
966
966
971
975
979
980
980
980
986
993
996
999
999
1002
1005
1009
1010
1009
1006
1006
1006
1007
1006
1005
1004
1008
1005
1004
1001
999
996
996
995
993
993
991
992
990
991
990
989
989
986
984
983
984
984
983
980
979
980
979
978
977
974
975
979
981
983
988
997
1011
1028
1046
1071
1096
1122
1153
1180
1196
1215
1242
1275
1311
1347
1377
1395
1395
1367
1308
1247
1196
1149
1100
1053
1011
982
958
937
924
912
904
901
901
901
902
903
901
903
907
906
905
901
900
899
901
896
890
880
874
874
873
879
880
888
890
892
887
882
881
882
886
892
900
905
908
909
905
908
908
910
903
899
899
904
908
909
904
900
898
898
902
905
905
907
905
905
910
908
911
910
911
913
916
919
922
924
925
931
935
938
939
941
946
950
954
956
957
959
962
967
972
975
976
975
974
979
983
983
985
984
982
984
987
990
985
984
982
984
985
987
985
984
983
985
988
987
986
986
987
987
990
992
994
990
990
991
994
995
995
994
992
994
998
998
998
996
997
998
1003
1003
1002
1002
999
999
996
994
991
990
993
995
994
991
987
985
983
986
989
991
989
984
985
988
989
990
985
980
980
983
986
986
983
978
977
980
985
986
983
980
980
982
984
986
984
981
979
980
983
985
981
981
980
982
984
988
988
986
982
982
984
987
985
984
982
980
975
976
976
977
977
977
979
982
983
982
980
981
983
981
974
975
977
982
979
981
983
980
980
981
980
979
980
979
981
981
983
978
978
979
981
984
989
988
983
978
974
978
981
983
982
979
978
977
977
979
976
976
972
973
975
979
979
980
978
977
978
977
975
976
975
980
985
989
988
986
984
981
982
982
982
985
982
982
983
983
985
987
987
995
1000
1001
1002
1004
1002
1003
1005
1008
1012
1017
1019
1025
1027
1026
1030
1032
1034
1035
1033
1032
1026
1017
1008
1003
1001
995
989
981
978
977
976
976
975
976
975
973
977
979
980
983
980
978
979
984
983
982
979
981
986
986
983
978
979
986
993
1009
1033
1065
1102
1149
1190
1227
1254
1275
1289
1296
1287
1262
1230
1202
1179
1155
1127
1103
1090
1073
1050
1033
1020
1007
994
978
967
964
965
961
955
949
943
944
945
945
944
944
944
944
946
944
943
942
944
946
949
947
948
948
945
947
950
950
947
946
945
949
949
951
945
944
940
945
946
949
949
950
951
953
954
952
950
948
950
951
954
958
956
958
957
960
965
966
970
972
971
975
981
985
986
987
986
993
997
1004
1005
1004
1007
1009
1015
1018
1021
1024
1025
1031
1036
1040
1040
1038
1035
1038
1041
1041
1034
1034
1034
1036
1034
1033
1028
1022
1022
1020
1019
1019
1016
1010
1005
1003
1003
999
997
995
990
993
995
994
991
990
989
990
989
984
977
970
964
965
974
978
974
972
970
971
973
972
970
968
964
965
968
966
967
967
966
967
969
969
967
964
964
965
969
971
967
968
964
969
970
969
970
967
966
970
970
972
970
969
966
967
969
967
969
966
966
967
970
972
972
972
971
974
978
984
985
986
982
981
986
990
992
1000
1001
1004
1006
1008
1010
1010
1011
1011
1010
1008
1004
1002
999
998
994
982
971
962
958
961
962
958
955
955
949
952
954
958
958
958
956
957
962
961
961
958
955
957
963
965
969
969
966
968
968
965
961
965
978
1002
1035
1069
1100
1133
1169
1210
1237
1261
1275
1274
1257
1234
1213
1199
1184
1162
1130
1101
1081
1067
1048
1028
1012
997
983
976
962
954
946
944
940
938
934
932
930
930
932
930
931
931
933
935
940
940
937
935
936
939
941
940
938
937
937
937
940
942
940
940
938
939
940
939
939
938
937
937
937
935
933
934
933
937
937
939
938
936
933
937
940
940
941
939
938
942
944
947
948
951
952
956
960
961
963
964
968
973
974
977
981
981
980
988
991
990
995
997
998
1001
1001
999
1001
998
996
996
997
1000
994
993
989
988
990
988
985
985
981
984
985
982
980
975
976
980
983
984
983
979
978
981
983
984
983
981
979
980
985
986
984
980
975
976
979
981
981
983
982
982
979
979
976
975
970
972
975
974
974
974
973
976
977
977
975
974
974
976
977
978
979
977
975
977
978
978
977
977
974
977
979
977
977
973
973
977
979
981
980
980
981
986
992
998
997
994
993
996
1006
1013
1012
1010
1007
1008
1014
1019
1018
1016
1014
1013
1014
1012
1004
993
980
973
972
971
967
968
963
966
968
968
968
968
968
970
969
972
967
967
969
971
975
977
975
977
972
975
979
977
974
971
970
982
1000
1027
1059
1096
1137
1181
1219
1251
1271
1280
1269
1245
1218
1197
1181
1163
1133
1102
1084
1067
1048
1024
1003
991
980
971
961
949
940
938
933
932
930
930
931
930
930
929
928
928
930
931
933
932
933
932
931
932
933
932
932
931
933
939
939
934
928
927
928
933
938
936
936
931
931
934
937
939
937
935
931
934
935
935
936
933
934
936
937
939
938
939
940
945
948
951
952
951
955
961
964
961
961
967
971
977
983
989
990
992
994
997
1000
999
993
994
994
1000
1005
1005
1001
996
993
995
995
996
996
993
992
987
988
987
986
984
982
983
985
987
986
985
982
985
983
982
982
979
978
977
980
980
981
979
977
979
982
980
978
977
975
979
981
983
984
982
979
979
976
975
973
975
977
978
979
981
979
979
974
976
978
980
978
979
978
982
983
979
979
977
977
977
978
979
979
978
979
981
980
986
985
986
985
988
991
992
995
997
999
1002
1004
1000
1001
1006
1007
1014
1017
1020
1020
1020
1020
1021
1022
1017
1016
1016
1014
1011
1005
993
980
971
964
965
963
966
968
967
966
968
974
976
970
966
962
967
970
973
972
972
971
971
973
974
974
975
972
968
968
971
974
992
1017
1050
1092
1132
1178
1217
1251
1279
1288
1275
1248
1219
1191
1163
1127
1095
1077
1066
1055
1038
1015
999
986
973
963
957
951
945
942
938
935
936
933
935
934
936
937
936
937
939
939
937
937
938
939
941
940
939
938
942
946
945
943
941
942
944
945
945
944
941
940
941
942
942
942
940
938
940
941
941
941
940
943
946
947
948
947
945
945
948
952
955
956
956
955
960
965
969
973
975
977
982
984
985
988
990
989
997
999
999
1000
1001
1000
1004
1002
1003
1001
999
996
996
996
994
992
984
984
984
986
988
988
982
978
979
981
981
981
980
976
977
981
978
976
974
973
975
976
976
974
973
973
971
972
974
971
972
968
969
971
972
975
975
975
976
973
975
974
972
972
972
974
974
974
974
972
973
975
975
975
973
972
974
975
976
973
975
972
975
977
979
979
978
975
975
976
975
978
978
977
977
981
983
984
983
984
988
993
995
992
990
989
996
1005
1009
1012
1014
1015
1018
1022
1020
1016
1012
1009
1009
1009
1009
1005
996
985
974
969
969
969
969
967
965
967
967
967
968
966
963
970
972
970
967
964
967
971
971
969
968
967
969
972
971
970
963
960
963
969
982
996
1017
1044
1080
1121
1161
1200
1234
1254
1267
1263
1240
1206
1183
1162
1144
1118
1088
1068
1052
1038
1025
1009
996
987
974
963
954
955
950
947
941
938
940
943
943
943
941
939
942
944
944
944
942
942
944
945
946
944
944
943
947
947
947
945
943
944
946
948
949
946
942
940
944
946
948
944
944
942
944
945
944
946
943
942
946
948
950
952
949
949
952
954
956
956
958
957
960
964
968
971
971
974
979
984
987
986
988
992
995
998
1003
1001
1000
1002
1009
1012
1014
1013
1010
1009
1009
1010
1010
1007
1004
1001
1004
1005
1008
1001
1000
997
999
999
998
997
995
992
993
993
993
990
990
990
992
991
991
990
990
988
985
987
989
988
987
986
986
990
988
986
985
984
986
987
987
987
984
984
985
985
983
985
986
986
986
986
990
988
988
986
987
987
991
988
985
985
986
989
986
986
983
984
986
987
987
985
985
984
987
987
987
987
984
983
986
989
990
991
991
990
995
1003
1011
1012
1011
1010
1013
1011
1013
1012
1015
1016
1022
1028
1030
1031
1031
1030
1032
1029
1026
1025
1021
1017
1014
1008
1000
992
980
975
972
974
971
969
966
966
968
969
970
971
971
969
971
972
973
970
970
972
974
974
974
975
974
976
978
980
978
972
971
970
974
980
994
1016
1041
1075
1109
1145
1181
1214
1241
1263
1281
1282
1265
1234
1201
1175
1158
1138
1109
1085
1069
1056
1038
1021
1005
994
983
974
965
956
948
944
939
936
932
933
934
932
931
929
929
933
932
933
931
930
935
935
933
935
934
934
937
939
936
935
937
937
938
941
938
940
938
937
936
936
934
934
935
936
936
939
940
938
936
933
936
938
939
938
940
938
940
941
945
945
945
944
950
951
953
956
955
957
961
965
968
972
971
975
979
985
987
991
990
994
997
998
1003
1004
1005
1004
1008
1008
1008
1008
1004
1002
1002
1002
1000
999
996
995
994
994
991
987
986
986
987
988
987
985
983
982
982
984
985
981
983
980
981
982
983
980
979
978
981
981
979
979
978
980
978
979
981
979
977
978
978
979
978
979
982
981
980
981
981
980
978
978
982
984
984
983
978
977
980
983
985
984
981
980
981
982
982
981
980
978
980
983
982
982
981
982
982
985
984
988
990
993
997
1001
1005
1011
1006
1002
1008
1010
1015
1018
1017
1018
1023
1027
1030
1026
1023
1023
1023
1024
1021
1017
1008
999
995
989
981
973
966
961
964
966
965
963
965
960
960
961
962
965
963
963
964
966
967
967
968
968
970
974
975
974
974
971
971
972
968
964
965
967
980
999
1026
1057
1094
1131
1176
1213
1244
1265
1275
1277
1257
1228
1199
1179
1162
1145
1125
1101
1076
1062
1045
1025
1005
993
982
971
958
944
939
937
938
936
930
925
928
929
927
929
927
927
928
928
927
928
929
929
931
932
933
932
933
931
934
936
936
937
935
933
932
933
934
932
934
934
935
937
938
934
931
930
933
937
933
933
932
935
935
935
935
934
932
932
937
941
942
942
941
941
944
948
950
951
949
949
954
960
962
960
961
964
972
974
976
975
974
978
986
992
992
995
997
997
999
1001
1003
1002
1000
1000
999
1000
998
994
991
989
989
992
991
987
983
981
979
982
980
981
980
978
980
978
978
976
974
973
973
976
974
976
973
973
976
978
975
971
969
972
976
976
975
972
974
974
974
975
976
974
973
974
974
976
973
972
971
972
976
975
976
973
970
971
974
976
976
975
973
969
973
973
975
974
972
972
974
974
972
973
972
972
973
975
977
982
979
977
978
979
984
986
989
994
999
1002
1005
1002
997
999
1006
1013
1015
1015
1015
1016
1019
1025
1023
1021
1017
1014
1013
1010
1004
998
990
979
971
968
965
962
960
956
956
960
958
958
954
953
958
960
960
959
954
954
960
962
962
962
958
956
959
961
962
963
960
958
958
960
959
969
985
1013
1050
1089
1127
1167
1204
1232
1256
1273
1269
1244
1214
1191
1177
1163
1137
1105
1076
1059
1049
1037
1018
1002
988
974
963
950
941
934
930
926
927
924
925
920
916
914
916
919
921
925
925
922
922
924
925
923
924
921
923
925
927
926
926
925
927
929
928
928
928
926
928
927
929
928
928
928
928
931
928
928
924
920
925
929
929
929
926
924
925
924
927
928
929
933
933
938
936
937
939
943
944
945
946
951
953
952
958
963
967
966
965
962
967
972
975
977
979
981
984
989
988
986
987
988
991
992
990
989
988
986
986
985
981
977
976
974
975
976
974
974
973
972
971
973
971
969
968
967
972
974
975
973
974
968
972
974
973
972
971
964
969
970
973
975
973
970
973
972
969
965
962
962
963
966
964
966
966
965
965
967
966
965
963
960
960
964
965
965
964
963
963
963
963
960
959
958
962
964
965
965
964
963
964
967
969
967
968
967
972
971
971
968
970
969
976
977
983
983
986
991
996
998
998
998
1003
1009
1013
1016
1016
1017
1019
1022
1026
1029
1026
1024
1021
1017
1017
1012
1004
993
977
965
963
963
963
963
961
958
960
962
960
959
959
957
963
964
963
961
960
960
963
967
970
967
965
965
967
967
969
967
963
967
982
1007
1040
1077
1117
1159
1200
1235
1260
1279
1277
1260
1238
1218
1200
1175
1145
1114
1096
1081
1071
1049
1027
1009
996
985
971
958
950
939
936
933
930
929
928
924
929
930
928
927
926
924
925
927
931
930
933
931
931
935
938
935
933
931
928
928
929
927
927
929
932
930
928
925
932
933
938
938
939
935
935
934
933
938
937
934
930
934
941
948
949
948
948
946
950
957
961
962
962
960
963
966
972
978
977
984
984
989
990
993
995
996
1002
1005
1006
1004
998
994
994
999
1004
1011
1013
1012
1008
1001
1001
996
992
984
982
987
992
992
991
985
984
979
973
970
968
970
972
977
976
976
972
972
974
972
971
968
965
969
973
972
970
968
962
964
965
966
968
969
964
961
958
962
967
967
965
960
960
959
959
955
954
953
953
953
956
954
954
955
960
963
963
961
958
959
962
965
965
963
961
961
963
966
964
957
952
949
953
957
965
971
974
974
980
985
982
976
966
964
972
979
989
994
994
992
990
989
989
988
982
976
974
976
973
971
965
956
949
944
939
939
935
936
935
938
939
939
939
939
938
939
940
943
944
949
952
956
954
949
945
940
942
944
945
943
941
943
950
966
992
1024
1059
1096
1134
1176
1215
1240
1246
1227
1194
1168
1146
1124
1100
1074
1056
1050
1037
1025
1009
990
976
963
950
942
935
923
919
912
911
910
912
911
911
913
914
915
912
912
912
916
916
914
913
911
913
915
912
910
911
911
913
916
921
923
922
920
915
915
914
914
917
921
924
925
926
924
924
922
923
923
922
926
926
927
932
935
936
933
930
935
937
942
943
944
947
948
955
960
960
965
965
968
971
974
976
977
974
978
981
981
980
976
978
973
974
976
977
975
972
967
967
969
968
968
966
964
966
966
966
962
961
958
957
958
959
954
954
950
953
