944
943
940
937
939
940
938
937
934
934
937
939
941
939
935
932
933
938
938
938
937
935
936
939
939
936
937
933
935
937
938
938
940
938
939
939
942
943
944
945
947
953
952
956
956
956
958
962
964
966
967
968
974
977
984
986
986
987
991
993
998
1000
999
999
1001
1001
1002
1003
1001
999
996
997
997
992
989
989
991
990
988
989
985
982
984
985
985
983
982
978
979
980
982
980
978
973
978
978
980
979
978
975
975
975
977
976
976
977
975
978
979
979
976
974
978
978
981
976
975
975
979
979
979
979
977
976
978
978
980
979
978
973
976
976
977
977
975
972
976
979
979
978
972
977
976
977
976
976
979
978
978
981
978
978
976
974
977
977
979
979
978
978
982
981
991
992
998
996
996
992
995
998
1001
1001
1006
1009
1012
1012
1013
1013
1016
1019
1017
1013
1010
1006
1005
1004
1000
992
979
967
964
964
966
966
964
961
957
960
960
963
962
959
963
964
964
963
962
960
961
964
968
968
966
965
965
967
973
970
969
966
969
970
969
971
978
993
1021
1054
1091
1128
1165
1199
1231
1253
1268
1271
1257
1231
1211
1197
1182
1162
1136
1103
1077
1063
1053
1036
1015
999
988
978
968
958
948
940
940
937
934
931
928
927
929
932
931
929
929
928
931
935
935
935
933
931
932
935
937
933
932
930
932
935
935
937
935
933
932
935
936
935
935
933
931
932
934
934
931
930
934
932
933
932
932
931
931
935
936
936
935
935
935
939
941
942
942
941
948
952
954
958
960
960
964
969
973
975
976
977
978
981
986
989
989
992
995
998
1001
1000
999
996
998
997
996
996
993
990
990
991
989
987
984
983
983
983
982
980
976
973
974
976
975
975
975
971
973
974
975
974
973
969
971
970
967
971
970
968
969
969
972
970
969
966
970
969
970
969
968
968
967
970
970
971
969
965
970
972
972
971
969
965
968
972
974
971
970
967
967
969
973
971
969
967
966
968
969
970
971
968
970
972
971
972
974
972
971
973
973
977
980
982
989
994
994
990
989
983
985
990
997
1001
1000
1004
1004
1008
1012
1012
1010
1006
1005
1006
1006
1003
998
991
984
976
969
961
958
956
957
959
958
959
955
953
958
959
960
959
961
957
959
961
959
960
960
960
962
965
964
964
965
961
964
967
968
966
962
964
973
992
1018
1047
1082
1118
1154
1186
1213
1230
1245
1258
1270
1256
1232
1204
1180
1153
1127
1099
1075
1059
1044
1026
1008
994
981
969
958
948
940
938
936
931
927
924
919
920
922
924
921
919
919
922
924
926
925
923
924
926
928
926
924
926
926
927
928
926
928
925
925
927
928
928
928
923
922
925
927
927
925
922
920
925
924
927
926
925
924
927
927
926
924
925
928
928
929
929
929
927
932
935
939
938
939
940
945
948
949
951
952
953
957
963
967
969
971
973
976
981
985
988
989
985
988
988
993
993
991
988
988
984
982
980
980
978
979
977
974
972
970
968
970
970
970
968
964
962
963
967
966
964
958
956
958
962
964
962
960
957
958
960
959
958
958
953
955
955
955
957
955
954
955
957
958
957
956
956
957
955
958
956
953
953
955
958
955
957
957
956
955
957
959
958
957
954
956
957
961
962
957
955
956
957
957
957
955
953
956
958
960
959
958
956
957
958
959
959
959
963
967
974
976
976
974
972
976
983
988
989
989
988
992
995
997
998
997
994
992
990
992
991
988
978
970
961
953
951
946
943
945
946
945
946
946
944
946
947
948
949
945
943
946
948
952
951
951
948
950
952
955
955
954
951
954
953
954
953
952
954
967
987
1018
1056
1090
1127
1167
1204
1232
1251
1259
1249
1224
1199
1181
1163
1150
1123
1090
1060
1043
1028
1011
990
974
962
955
942
931
922
922
922
921
917
914
911
911
915
916
916
915
912
915
917
923
921
919
918
917
920
921
923
922
921
921
922
921
920
918
918
919
919
920
917
914
914
916
920
922
920
918
917
918
919
919
920
918
917
916
918
920
922
919
918
922
924
928
928
929
931
936
939
943
946
949
948
951
953
956
958
959
963
968
973
977
981
980
978
982
982
985
983
982
981
980
979
979
976
974
974
972
971
973
970
968
967
966
967
965
966
964
962
960
965
967
966
964
960
963
964
962
962
959
959
962
961
963
962
963
961
963
961
963
963
962
961
962
962
963
962
962
962
965
967
965
965
961
959
961
965
966
965
963
961
962
963
965
965
963
959
959
960
961
963
963
960
962
965
965
966
965
963
964
966
966
966
965
960
960
965
970
967
970
970
971
977
980
985
983
981
980
985
988
992
995
996
996
1001
1004
1008
1009
1005
1002
1002
1002
1002
999
999
996
990
979
970
961
955
957
956
956
951
950
949
953
957
958
956
955
953
955
956
957
958
958
958
955
960
962
961
961
960
961
963
959
961
959
964
976
995
1021
1048
1078
1103
1136
1169
1200
1228
1246
1257
1253
1235
1206
1181
1159
1131
1103
1079
1063
1047
1028
1006
989
979
970
963
955
946
939
933
930
928
921
916
918
920
920
923
919
917
920
921
925
926
925
925
925
924
924
923
922
921
921
924
926
924
923
922
921
925
922
921
921
916
919
923
924
921
921
920
921
922
926
921
921
920
921
926
925
921
923
921
924
929
930
933
933
934
935
938
941
944
947
947
949
952
957
956
961
965
968
973
978
978
980
978
986
989
990
988
987
986
988
988
990
987
985
982
981
982
980
978
975
972
972
972
973
972
971
967
968
969
971
969
968
965
966
966
967
964
962
962
963
967
966
966
963
963
963
965
963
960
961
961
962
961
964
964
961
961
961
963
964
964
961
959
960
963
962
966
964
964
966
966
967
966
966
964
962
963
963
967
962
963
965
966
967
962
965
963
965
962
964
965
964
963
967
970
970
970
967
965
971
976
983
987
988
985
982
985
990
993
994
997
998
1002
1004
1006
1008
1005
1004
1005
1005
1002
999
997
994
990
984
972
964
956
954
954
954
953
951
951
954
956
958
957
956
955
956
957
960
958
957
954
956
960
962
963
962
959
959
961
962
960
956
951
957
967
981
994
1019
1047
1085
1125
1163
1198
1227
1249
1265
1259
1234
1205
1175
1153
1129
1099
1076
1060
1046
1033
1015
1002
992
981
969
954
944
939
935
932
928
923
924
926
925
925
924
923
926
928
929
928
925
923
924
927
930
929
927
925
926
928
927
927
927
924
923
926
927
929
927
922
925
926
926
927
926
924
924
924
925
925
924
921
924
926
928
928
930
929
931
935
936
937
936
940
942
947
951
956
955
957
961
965
969
972
974
976
983
986
990
990
988
985
986
989
991
990
987
984
984
984
985
983
978
975
973
976
976
973
971
968
967
969
970
970
968
965
964
964
964
963
961
961
960
961
962
961
958
959
959
960
961
960
960
960
959
960
959
958
957
957
961
963
963
960
958
953
955
961
963
963
959
957
957
960
960
960
958
959
958
960
962
963
961
958
959
962
961
961
961
959
960
963
966
964
966
963
964
964
964
963
963
967
974
978
981
981
978
972
977
983
987
991
991
990
997
1002
1005
1003
1001
995
994
996
994
995
990
980
972
962
956
955
950
948
949
949
950
948
949
947
951
952
955
955
955
951
951
953
956
954
955
955
959
959
960
961
961
959
960
960
962
962
970
991
1023
1059
1098
1137
1177
1208
1235
1255
1256
1242
1211
1183
1169
1158
1141
1116
1080
1051
1034
1023
1006
989
971
959
950
942
938
933
932
927
926
925
925
924
924
922
922
923
925
925
924
923
924
927
929
930
928
928
926
927
930
931
929
924
927
929
930
928
926
926
926
926
926
928
923
922
924
924
924
921
922
922
926
929
930
928
925
924
926
930
933
932
933
931
935
938
944
944
943
942
947
952
958
960
961
961
965
968
972
974
978
979
983
985
989
989
990
987
988
989
991
988
988
984
985
985
983
980
978
975
976
978
979
975
973
973
974
973
973
969
968
967
969
971
971
969
967
965
965
965
968
967
965
962
963
967
969
966
965
965
966
966
967
969
967
966
967
969
970
970
967
964
964
967
969
966
966
963
967
966
969
967
965
963
967
969
969
970
968
965
966
969
971
970
967
966
968
971
972
972
970
969
970
974
975
976
979
981
986
989
992
990
985
985
993
1001
1004
1008
1009
1008
1010
1012
1009
1007
1002
997
1002
1001
998
987
975
964
958
957
959
957
957
957
958
961
960
960
960
959
960
963
963
963
962
964
966
967
967
965
965
963
966
969
966
967
970
981
1006
1037
1064
1094
1130
1170
1213
1242
1259
1262
1251
1216
1186
1164
1140
1107
1074
1054
1044
1032
1015
999
986
972
963
955
948
943
935
930
927
928
932
931
929
927
931
934
933
934
934
930
932
932
934
936
935
930
932
934
935
937
932
930
931
932
937
935
932
932
933
930
932
931
931
929
931
931
931
932
929
928
929
933
932
934
935
936
939
942
944
943
944
945
948
953
957
958
961
961
967
972
976
978
979
982
989
994
997
994
992
995
995
998
997
998
995
992
994
992
994
990
986
983
986
984
985
985
985
982
979
981
981
980
976
975
976
977
979
977
978
974
974
973
972
970
970
965
964
966
968
969
969
970
973
974
980
987
994
1008
1029
1047
1070
1099
1128
1157
1180
1203
1234
1263
1292
1315
1340
1363
1378
1377
1342
1283
1218
1167
1116
1060
1008
965
938
922
917
912
907
904
906
909
910
907
907
903
907
907
908
906
903
899
897
898
895
894
889
883
882
884
890
896
897
897
898
898
897
897
901
899
902
904
905
906
906
901
899
898
906
903
902
899
898
899
901
901
898
897
897
897
898
900
899
902
903
904
909
909
911
911
915
919
923
926
925
927
930
937
940
944
947
949
955
961
967
969
968
969
974
975
977
981
979
979
979
982
983
982
983
979
980
983
985
983
983
980
979
980
982
984
982
982
981
982
984
982
983
980
982
981
983
983
981
979
979
981
980
979
977
974
974
977
980
981
979
975
974
976
975
975
973
969
974
975
976
974
971
969
972
974
975
974
972
970
970
970
969
970
970
966
971
973
973
972
968
969
969
970
973
972
970
966
969
972
972
972
969
968
968
970
970
972
968
966
967
969
970
970
970
966
970
970
968
968
968
966
969
972
972
970
970
967
971
970
973
973
970
969
969
971
971
970
969
967
965
967
972
974
969
968
969
968
973
973
971
968
969
971
972
969
970
969
968
972
972
971
971
971
975
977
977
974
970
968
969
972
974
974
972
971
970
974
976
972
972
968
970
971
973
973
972
971
971
974
972
971
970
969
973
974
975
972
973
971
973
973
973
971
973
971
972
975
980
980
979
982
985
990
992
994
988
989
992
999
1004
1004
1004
1003
1005
1007
1008
1008
1010
1008
1006
1005
1003
1004
1002
992
988
979
969
962
960
961
961
962
964
961
958
957
960
961
961
961
959
958
957
961
962
964
964
965
965
966
971
969
965
963
964
964
965
970
979
998
1030
1064
1098
1135
1175
1206
1235
1254
1267
1260
1236
1203
1181
1166
1152
1125
1093
1064
1046
1031
1012
991
974
960
950
944
938
932
930
925
920
920
917
922
919
918
916
918
922
922
922
923
922
921
924
923
925
922
925
924
927
923
922
920
922
922
929
926
925
922
923
927
926
927
927
925
926
930
930
932
931
929
931
934
934
934
933
932
937
940
944
943
942
944
949
954
960
960
960
958
966
970
973
975
977
978
982
988
991
995
997
997
1000
1003
1006
1008
1008
1008
1013
1016
1016
1017
1015
1013
1013
1015
1010
1010
1007
1005
1004
1004
1002
999
995
990
989
989
988
986
984
979
979
979
978
976
974
972
969
968
968
968
967
963
964
964
964
962
960
961
960
962
959
955
957
959
960
960
960
958
958
954
958
959
959
958
956
955
955
958
959
955
955
955
955
959
958
957
957
955
957
959
961
959
960
960
960
960
960
959
959
959
961
963
962
960
960
957
959
961
964
962
961
962
963
969
972
974
976
977
977
978
980
983
987
988
989
995
995
997
1000
1001
1004
1005
1004
1003
997
996
992
997
994
987
978
966
960
958
957
956
952
947
948
949
952
952
950
949
950
950
949
952
953
950
953
954
956
956
957
955
955
960
960
961
956
956
956
957
957
956
958
962
978
1006
1036
1067
1100
1136
1171
1206
1227
1246
1255
1260
1251
1228
1197
1172
1152
1129
1098
1066
1046
1032
1019
1001
985
973
965
957
946
939
932
931
927
923
920
916
916
916
915
918
916
916
916
921
922
922
920
918
917
918
922
923
920
917
922
922
924
924
920
919
919
926
927
924
923
922
921
923
924
923
919
917
920
920
918
921
920
920
922
923
923
924
923
920
922
925
929
929
928
926
928
929
933
933
934
938
940
944
947
950
949
948
954
959
963
964
968
965
970
973
978
979
981
978
983
984
983
982
981
981
980
980
979
978
973
973
973
975
975
974
969
965
967
967
969
968
966
961
963
964
966
965
965
964
965
968
969
967
966
963
964
966
964
963
964
962
964
966
965
966
965
964
966
967
968
968
966
965
965
966
967
967
966
963
963
966
966
966
964
963
962
967
965
964
966
965
968
967
968
966
965
966
968
967
965
964
964
964
967
970
970
970
967
964
964
963
964
966
968
967
971
975
978
982
986
985
987
985
985
986
991
992
998
1003
1004
1004
1004
1006
1007
1008
1007
1006
1001
1000
996
996
988
980
970
959
954
956
957
955
953
949
951
954
957
957
956
952
954
955
957
958
957
955
956
958
960
959
959
958
958
961
961
962
961
958
956
956
962
969
982
1006
1040
1077
1118
1160
1193
1217
1241
1256
1266
1263
1240
1212
1192
1176
1159
1132
1100
1073
1059
1047
1032
1011
990
973
963
958
949
939
932
928
927
924
922
916
917
914
915
917
917
918
914
914
917
919
921
920
919
917
919
922
923
924
922
918
923
920
923
921
918
916
919
920
922
921
920
918
921
922
921
917
916
916
917
923
922
920
919
915
915
919
923
924
923
920
922
924
927
928
929
930
935
937
942
941
942
941
946
950
953
954
955
957
964
967
974
975
974
975
979
983
989
990
990
989
990
992
988
990
987
984
984
984
984
984
980
980
978
977
977
973
974
971
971
975
975
971
967
965
964
968
967
967
964
962
964
965
966
963
961
960
965
967
968
966
962
961
961
962
962
959
962
957
960
964
965
960
958
957
958
962
960
961
957
958
960
963
963
963
960
958
958
960
964
962
961
959
964
964
964
962
961
959
959
966
966
963
964
961
961
965
967
966
963
964
966
970
973
976
981
981
982
983
983
982
983
986
993
997
999
1001
1001
1001
1003
1004
1002
1000
998
995
996
997
990
980
967
955
952
952
953
952
951
948
948
951
954
954
952
950
952
955
955
953
953
952
954
955
955
956
957
959
958
959
958
955
954
952
955
961
974
996
1022
1056
1096
1135
1176
1212
1236
1255
1266
1259
1232
1204
1176
1149
1119
1088
1066
1052
1043
1030
1011
996
983
972
958
946
935
929
926
924
918
919
917
918
919
919
919
917
918
917
920
922
919
918
921
923
924
922
921
918
921
925
925
924
923
922
924
924
926
923
920
919
917
922
924
923
922
917
918
920
922
925
923
918
921
922
924
924
921
922
925
926
930
932
931
933
934
937
943
944
945
947
953
960
962
959
960
963
967
972
975
981
980
980
983
988
989
991
991
987
987
987
985
986
982
982
983
983
981
980
977
974
977
974
976
974
971
968
968
968
966
966
966
967
966
966
966
967
966
964
965
965
965
961
961
955
956
962
964
963
962
961
963
965
965
962
961
958
957
961
963
962
962
960
960
961
965
962
961
961
962
961
963
963
961
960
959
965
963
964
963
962
963
966
966
963
961
958
962
963
964
963
963
961
965
965
967
968
968
965
972
977
980
982
979
977
977
982
986
990
993
994
996
1004
1004
1008
1006
1002
1000
998
998
997
997
988
984
974
964
957
952
950
951
952
953
953
953
950
951
953
955
954
953
953
954
956
955
955
955
955
955
959
960
959
955
952
952
952
957
966
978
1001
1031
1064
1104
1147
1185
1218
1242
1255
1251
1223
1191
1164
1143
1119
1088
1056
1041
1027
1011
994
975
965
953
940
935
932
928
927
922
921
919
921
923
922
921
919
923
927
927
924
925
923
927
929
929
927
928
929
929
928
930
928
925
925
928
932
932
929
927
926
926
928
928
928
926
925
925
928
930
931
928
926
929
930
930
930
931
929
932
936
935
939
940
943
946
949
951
952
954
958
963
968
971
975
978
980
984
986
991
991
991
988
989
991
991
990
989
984
985
983
984
982
979
978
980
977
976
977
975
972
973
974
971
971
971
969
969
968
968
966
965
963
965
968
968
967
966
963
967
969
968
968
966
964
967
968
969
969
967
967
968
969
970
966
966
965
965
969
969
968
966
966
967
968
969
968
966
964
965
968
968
968
964
963
962
967
972
970
967
965
967
966
970
972
967
964
965
969
974
976
978
982
987
990
990
989
987
988
992
996
1002
1001
1001
1003
1008
1012
1011
1009
1006
1003
1004
1003
