990
989
987
991
994
999
1004
1008
1011
1009
1010
1008
1007
1006
1005
1000
998
995
994
988
977
964
960
962
963
961
956
954
955
959
962
961
959
956
956
960
964
965
963
961
961
960
962
961
962
961
965
968
972
971
968
975
990
1021
1055
1095
1128
1158
1191
1222
1242
1252
1243
1212
1161
1112
1087
1072
1057
1028
999
984
977
969
960
953
948
944
939
937
933
933
935
937
935
934
938
935
936
939
938
936
937
935
937
941
942
942
940
938
939
944
946
945
943
938
944
948
948
946
944
940
941
943
944
946
945
943
944
945
947
946
945
946
949
952
954
955
955
955
954
954
959
963
963
965
968
974
979
979
980
981
988
993
995
996
995
996
998
1000
1004
1004
1002
1001
1000
1001
1000
995
993
994
994
991
989
986
983
980
982
983
982
979
979
974
970
973
974
973
970
970
971
975
981
981
981
983
991
1005
1024
1046
1066
1086
1115
1146
1170
1188
1205
1226
1262
1301
1333
1357
1365
1352
1310
1231
1147
1092
1058
1021
978
943
923
912
903
903
904
909
912
911
912
909
909
912
913
916
913
910
911
908
908
903
897
888
883
881
881
881
876
876
881
890
895
895
890
885
883
887
892
899
907
910
911
911
913
909
910
905
908
907
910
911
909
908
911
913
915
914
914
913
919
920
926
926
927
929
933
938
943
946
947
949
956
963
967
966
966
970
976
981
986
987
988
987
988
989
993
994
993
991
990
993
998
996
997
991
991
989
990
988
988
989
986
989
992
992
987
984
982
986
989
990
988
984
987
990
994
993
989
982
984
984
988
986
986
984
984
986
986
985
982
978
979
980
982
983
983
977
978
981
982
983
981
976
976
975
977
979
974
974
973
974
974
975
973
974
976
977
978
975
972
967
968
970
973
975
972
969
972
976
977
976
974
972
973
975
977
975
976
973
973
971
971
972
972
971
970
972
975
976
978
973
973
975
975
974
975
971
974
977
978
978
977
971
971
972
972
975
975
975
977
977
978
976
977
975
978
980
977
973
972
970
974
978
979
978
975
971
977
979
982
982
978
971
975
978
980
979
976
970
973
978
983
984
982
976
973
977
976
979
977
975
978
980
980
977
975
977
978
980
981
980
974
973
974
977
977
978
975
973
976
975
976
978
981
981
981
983
986
988
990
991
993
993
998
1002
1002
1004
1008
1011
1015
1015
1016
1016
1014
1013
1009
1006
1003
999
997
991
985
976
971
965
967
971
972
971
965
961
963
966
971
970
967
965
967
966
969
970
970
970
968
968
970
971
970
972
974
982
989
997
1014
1043
1080
1124
1165
1203
1231
1243
1256
1256
1233
1184
1130
1097
1083
1071
1044
1004
984
972
969
959
954
950
944
938
936
939
942
944
940
939
939
942
944
944
941
941
945
947
950
949
944
945
946
947
950
950
949
949
950
952
952
951
950
952
951
952
949
951
950
952
951
955
954
954
954
955
959
963
964
963
964
963
968
975
978
980
977
976
983
986
991
994
993
993
998
1004
1007
1005
1006
1008
1016
1018
1022
1023
1020
1019
1022
1025
1032
1032
1034
1033
1033
1034
1033
1030
1028
1024
1026
1024
1023
1020
1015
1009
1010
1008
1003
1001
999
997
996
994
990
988
987
987
987
986
984
980
979
975
974
976
979
981
981
978
975
977
974
969
970
969
971
974
978
975
975
972
974
974
977
979
976
975
973
973
977
978
979
979
979
977
977
974
976
975
978
976
978
976
976
974
974
974
972
973
972
970
974
977
978
978
978
976
978
979
981
981
982
983
987
994
994
994
990
988
993
997
1004
1007
1010
1009
1010
1014
1019
1019
1015
1007
1003
1001
1001
1003
999
988
980
973
969
968
964
965
966
966
964
966
966
965
968
966
965
963
963
963
965
970
971
970
969
965
966
972
974
974
970
970
969
972
980
988
999
1018
1049
1086
1124
1162
1197
1225
1245
1248
1233
1192
1141
1102
1090
1090
1076
1049
1012
990
980
977
972
962
954
946
943
943
944
945
948
949
943
941
941
942
941
941
941
937
943
943
944
941
943
946
949
949
949
944
945
946
948
947
947
945
946
947
953
951
948
946
944
949
953
952
949
945
951
953
956
957
954
953
953
952
956
955
957
956
958
960
964
967
970
967
967
969
974
975
977
978
982
986
987
993
994
992
993
997
996
997
996
997
1000
1003
1005
999
996
991
989
989
988
989
987
979
978
979
979
981
981
979
980
980
978
977
970
970
974
981
978
981
979
979
978
979
978
977
976
977
979
980
980
978
978
976
978
981
983
981
980
977
977
979
983
984
981
978
980
981
981
979
977
970
973
976
979
978
980
975
975
974
975
976
975
974
973
975
976
975
974
971
972
976
979
979
977
975
977
982
988
990
992
990
991
990
990
990
992
995
1001
1004
1008
1013
1015
1015
1014
1014
1013
1008
1004
1001
1003
1005
1002
994
983
969
964
960
965
967
966
958
956
958
959
962
961
961
961
964
966
964
964
962
963
968
970
966
965
965
966
971
975
972
973
970
973
978
983
993
1009
1037
1075
1116
1162
1202
1232
1252
1266
1270
1258
1224
1170
1128
1105
1092
1076
1048
1018
996
989
984
974
959
948
939
936
938
935
935
935
936
935
936
936
939
938
936
935
938
936
938
936
936
940
939
944
945
944
944
945
947
947
946
945
943
944
945
946
949
948
947
949
952
954
952
949
947
945
946
947
948
946
946
949
951
955
954
954
954
955
960
965
963
963
962
963
968
972
976
978
978
983
985
990
992
993
992
995
1001
1005
1007
1008
1003
1001
1003
1006
1005
1004
999
997
995
994
996
994
990
986
988
988
989
985
981
982
983
985
981
977
975
973
975
977
978
976
974
975
976
974
974
973
972
976
978
980
977
977
973
971
969
974
977
979
976
974
976
980
979
975
972
972
975
977
980
977
974
974
978
980
978
978
972
973
978
978
979
979
975
976
978
977
978
977
976
974
976
977
976
974
973
973
976
977
978
979
982
987
989
991
991
987
988
991
997
1003
1006
1003
1003
1003
1009
1011
1015
1014
1011
1009
1006
1005
1005
1005
998
995
987
978
971
963
961
963
960
962
958
958
959
959
961
966
966
964
961
961
962
961
959
959
960
964
969
969
966
966
963
967
969
973
973
975
976
981
991
1010
1038
1073
1112
1154
1196
1228
1246
1251
1249
1230
1189
1143
1113
1095
1085
1072
1046
1017
993
985
979
971
962
954
947
943
937
934
934
937
940
938
932
930
932
934
935
936
935
938
942
942
939
939
937
941
944
947
944
943
940
942
943
945
943
943
944
945
945
945
943
945
942
944
949
948
946
944
944
943
946
952
951
950
950
951
954
953
951
950
953
954
960
964
963
961
963
965
969
974
979
979
979
981
983
987
992
993
994
994
997
999
997
1000
1000
1002
1008
1007
1003
1001
993
993
994
995
993
992
987
988
989
989
990
989
984
982
982
983
978
977
976
975
977
978
976
975
973
974
977
976
977
973
970
973
975
975
977
976
972
970
973
973
975
973
972
972
974
979
979
974
972
971
972
978
977
975
973
975
975
974
974
974
970
975
976
976
976
975
975
978
978
973
972
971
969
974
976
979
975
975
972
973
973
972
973
972
975
979
982
986
988
990
988
984
983
987
992
998
999
1001
1007
1013
1017
1015
1012
1011
1011
1007
1006
1005
1001
996
992
984
974
963
956
958
959
960
963
962
961
957
955
956
957
963
963
963
961
958
958
959
961
965
969
968
967
966
964
967
969
973
973
975
982
998
1028
1063
1097
1131
1167
1205
1233
1248
1248
1234
1195
1143
1108
1095
1086
1066
1039
1009
992
984
976
966
955
947
948
943
938
935
935
938
941
943
936
931
931
934
941
942
944
944
942
940
939
940
943
943
941
943
943
946
948
948
949
949
953
952
951
943
940
940
945
949
946
943
944
947
950
950
951
952
950
950
950
955
955
953
953
952
958
960
963
962
963
966
964
968
971
974
977
981
984
985
986
987
986
988
990
995
997
996
997
1000
1001
1002
999
1002
1004
1003
1003
998
994
990
990
991
991
988
984
982
981
981
982
983
980
979
976
976
975
976
977
977
974
972
972
972
971
971
971
972
974
978
977
977
974
979
978
978
975
971
974
976
979
983
977
978
974
975
976
979
982
981
978
977
980
979
980
979
977
976
977
977
978
976
975
977
980
983
981
978
973
973
973
977
975
974
969
968
971
973
977
976
976
977
979
978
980
980
979
984
986
989
989
991
993
996
1001
1006
1007
1008
1010
1016
1018
1018
1009
1003
998
999
1003
1003
999
984
970
960
961
962
962
961
959
960
959
961
961
959
957
957
963
965
963
963
961
960
962
963
965
967
967
969
972
971
971
970
970
975
981
999
1025
1057
1091
1124
1154
1188
1218
1239
1249
1251
1228
1180
1125
1092
1081
1071
1046
1014
989
977
971
963
955
949
945
940
934
936
941
945
944
942
937
940
941
939
940
941
944
945
945
945
941
939
939
944
948
947
950
948
947
947
951
950
952
949
947
946
949
949
952
950
950
952
955
955
954
953
949
947
948
951
954
956
957
957
959
960
961
966
964
967
969
970
969
974
976
983
987
986
988
989
991
994
1001
1003
999
999
998
999
1001
1003
999
995
996
995
994
992
990
988
985
986
986
985
980
978
976
975
979
981
980
977
973
974
977
980
978
974
970
969
976
977
977
975
972
973
976
977
977
976
974
975
977
980
980
980
974
975
977
979
977
975
978
979
982
984
985
981
977
976
976
979
977
976
977
979
981
981
979
977
974
975
980
980
977
974
971
972
975
977
978
977
975
977
977
981
982
982
982
987
992
997
995
989
986
990
997
1001
1002
1002
1006
1009
1015
1018
1019
1016
1011
1006
1004
1005
1000
989
981
971
969
970
972
967
957
956
959
962
962
958
955
955
960
962
964
963
961
964
967
969
963
962
959
965
971
973
973
971
968
974
979
987
996
1014
1045
1082
1118
1149
1183
1214
1235
1250
1253
1236
1184
1126
1090
1076
1064
1036
1007
988
979
971
961
953
949
948
944
940
937
935
938
936
937
938
939
939
938
937
939
942
945
946
943
941
940
941
941
942
944
943
943
943
944
947
949
947
947
946
950
950
948
949
948
950
948
951
950
945
944
945
950
953
953
953
954
955
957
959
957
956
958
961
969
972
975
976
973
976
981
988
992
994
996
996
998
1001
1005
1002
1002
1003
1003
1004
1002
1001
1001
999
998
996
995
990
989
985
990
990
991
985
981
981
981
978
977
973
973
975
979
980
977
976
972
972
976
981
978
972
967
969
974
976
977
978
977
977
978
975
975
974
971
977
982
983
980
977
975
974
980
979
978
976
971
972
974
976
978
975
971
972
973
975
976
974
971
973
972
975
973
973
970
970
970
972
971
973
973
977
980
983
987
990
989
989
987
988
992
998
999
1001
1005
1009
1013
1015
1014
1010
1010
1007
1004
995
990
988
979
974
967
965
960
959
959
962
962
959
958
963
961
961
959
957
955
956
961
963
962
961
961
963
965
968
967
967
964
963
964
973
982
998
1022
1057
1101
1144
1186
1219
1239
1251
1254
1248
1219
1162
1113
1089
1078
1052
1015
984
972
966
956
945
941
936
936
937
935
936
929
930
927
930
935
936
933
927
928
932
939
940
940
934
930
929
934
938
938
937
937
938
941
941
940
939
938
939
941
942
942
942
939
940
939
940
941
941
939
939
939
941
943
946
945
947
951
954
955
952
952
957
964
967
963
964
964
968
975
980
982
982
980
987
990
990
993
991
989
993
994
1001
1002
1000
996
993
990
991
989
988
984
985
986
985
981
983
976
975
977
977
972
973
971
973
973
972
971
970
972
973
974
973
972
965
967
968
971
972
966
964
967
972
973
971
970
966
964
967
972
974
972
972
970
969
970
972
974
973
972
973
973
973
976
974
972
971
972
973
973
971
969
974
974
975
970
969
970
967
968
968
972
971
966
968
971
977
977
978
980
987
990
992
990
984
985
993
998
1004
1009
1010
1012
1013
1014
1010
1007
1000
997
999
999
994
985
972
964
961
965
965
966
960
957
959
961
961
958
959
957
959
959
962
961
960
963
966
967
963
964
964
967
968
968
969
973
975
984
1005
1035
1075
1116
1154
1191
1221
1240
1246
1232
1190
1134
1094
1081
1075
1057
1027
998
978
969
964
955
947
940
942
940
936
936
934
932
934
937
935
935
935
935
937
938
940
942
941
937
935
935
936
936
939
938
941
943
943
940
937
934
936
940
941
944
942
941
942
943
942
944
943
946
945
949
950
950
950
950
953
955
955
954
955
958
960
964
964
967
970
972
974
978
980
984
987
984
986
985
991
990
991
994
994
998
999
998
993
988
986
985
986
985
982
980
980
978
979
976
973
970
968
969
972
974
971
968
969
969
974
972
967
965
964
967
970
968
965
964
965
966
970
972
973
969
970
971
974
971
968
967
970
973
973
970
969
969
971
974
973
971
970
968
971
970
967
970
969
970
973
973
975
972
971
970
972
969
966
963
963
964
967
968
972
969
970
968
969
974
978
981
980
982
986
985
986
985
986
989
995
1002
1004
1006
1006
1004
1003
1000
1000
1002
999
995
992
986
982
971
961
954
952
958
958
957
952
951
951
953
955
954
952
953
954
958
961
961
962
956
957
957
960
960
962
958
963
967
969
971
973
981
1006
1040
1080
1115
1153
1184
1213
1236
1246
1249
1231
1188
1140
1106
1086
1074
1046
1014
990
982
976
962
948
941
937
936
934
929
928
926
926
928
929
928
929
927
928
932
935
933
935
934
933
935
935
935
934
933
936
939
943
941
937
934
938
938
941
938
941
939
939
938
938
937
938
938
943
943
943
942
941
939
940
943
943
942
944
946
950
954
956
954
954
952
956
962
964
966
969
968
973
974
974
977
980
984
987
991
994
996
995
994
995
995
998
997
995
996
994
991
987
981
985
983
984
982
979
975
973
971
971
974
971
968
967
968
969
971
972
969
970
968
970
970
971
970
970
966
970
974
972
971
968
969
969
973
975
974
970
968
968
972
971
972
970
968
971
970
969
967
968
968
973
975
977
977
974
968
970
970
971
973
973
973
974
974
974
975
972
970
972
972
970
969
971
967
970
972
973
974
974
974
979
985
986
985
986
985
985
987
989
994
995
999
1002
1005
1009
1013
1010
1008
1007
1009
1009
1007
1001
999
999
995
984
978
967
961
955
955
957
959
959
957
958
960
959
959
955
954
958
960
963
964
957
955
958
965
970
970
969
966
966
970
974
977
977
977
977
978
982
992
1010
1039
1082
1122
1163
1195
1221
1236
1246
1249
1232
1189
1139
1106
1095
1084
1071
1047
1018
995
989
988
979
963
952
946
946
940
939
932
933
933
929
923
920
920
922
926
930
930
930
932
933
933
934
934
936
934
933
931
934
938
940
940
940
938
937
938
939
941
943
943
945
946
944
944
939
938
939
945
949
953
950
949
952
954
960
961
960
962
963
963
962
960
960
962
964
969
972
973
972
972
974
979
984
986
986
989
994
993
997
995
996
998
1001
1004
1005
1006
1006
1004
1005
1008
1010
1013
1014
1011
1012
1010
1011
1011
1012
1011
1011
1010
1004
999
995
993
997
999
996
996
998
995
997
994
994
994
990
990
991
994
996
995
993
988
987
988
994
993
991
985
985
985
982
981
982
982
984
985
982
979
979
980
980
983
988
988
985
981
983
983
984
986
983
981
982
978
982
984
987
988
992
993
993
990
989
982
979
980
984
984
982
981
985
992
999
1003
1007
1005
1006
1010
1007
1006
1001
1000
1005
1011
1016
1020
1027
1029
1032
1041
1047
1047
1041
1027
1018
1016
1017
1016
1017
1011
1004
1001
995
990
978
964
958
957
958
954
956
960
966
974
978
973
964
959
961
963
966
965
967
971
974
968
960
954
958
966
967
964
950
938
929
932
956
999
1056
1103
1133
1142
1153
1167
1186
1191
1173
1131
1086
1058
1036
1013
974
937
911
903
899
889
870
853
849
848
841
838
844
853
861
861
848
826
806
802
810
825
836
843
848
855
861
865
864
872
881
895
921
956
991
996
953
883
828
818
840
875
902
908
902
887
886
898
909
917
919
913
911
915
923
936
945
946
936
920
912
917
928
931
917
907
906
916
932
942
946
950
955
961
970
971
963
950
943
945
950
951
957
963
964
955
949
948
946
935
927
922
923
927
929
930
928
921
909
891
881
879
885
889
888
889
891
892
890
890
889
888
885
883
884
881
882
883
886
886
881
864
851
846
843
840
839
839
847
853
856
856
849
849
848
845
839
835
841
854
870
870
859
843
845
856
870
867
843
820
825
849
880
888
875
845
816
811
831
863
894
914
914
888
861
852
866
877
867
857
859
868
875
874
877
893
921
948
955
944
925
912
917
936
962
975
968
959
972
999
1022
1018
1002
994
998
999
993
987
989
998
1021
1047
1057
1040
1019
999
1003
1029
1039
1030
1017
1011
1010
1016
1020
1016
1006
1008
1026
1031
1018
993
978
975
977
986
990
994
971
915
873
875
900
911
896
858
815
794
808
842
876
891
889
888
920
984
1046
1073
1068
1041
992
945
931
950
948
885
795
739
738
759
770
749
718
710
727
739
725
688
652
643
658
674
681
687
679
661
636
614
607
621
657
685
684
646
610
616
