999
1003
1007
1010
1008
1008
1011
1017
1020
1025
1024
1023
1025
1030
1038
1041
1037
1039
1036
1042
1048
1054
1056
1061
1069
1077
1087
1096
1105
1111
1119
1129
1137
1147
1157
1164
1170
1179
1187
1199
1201
1202
1205
1215
1221
1225
1225
1228
1228
1232
1235
1233
1228
1222
1213
1210
1207
1204
1197
1187
1177
1176
1170
1166
1155
1141
1136
1131
1125
1119
1110
1105
1095
1089
1090
1091
1082
1076
1072
1071
1069
1065
1061
1057
1055
1051
1056
1054
1051
1049
1050
1051
1056
1060
1064
1065
1073
1083
1096
1107
1116
1125
1141
1162
1192
1218
1241
1260
1278
1298
1318
1345
1357
1366
1366
1370
1379
1374
1367
1353
1337
1321
1316
1311
1289
1243
1185
1130
1080
1034
994
963
942
928
925
918
905
896
891
886
880
875
866
858
849
846
845
845
840
836
836
831
832
832
828
827
827
831
834
834
832
830
829
830
834
834
830
826
819
819
820
819
813
807
801
801
801
797
796
793
788
787
782
781
775
773
774
775
773
775
775
771
772
774
778
780
777
774
776
783
788
793
794
797
799
801
810
818
822
825
827
833
843
851
855
858
861
866
874
886
891
892
898
902
913
921
921
927
931
936
941
945
944
944
942
948
953
957
957
959
959
960
965
968
971
970
970
969
972
974
974
968
970
975
975
978
979
974
975
978
983
986
981
975
978
976
983
987
985
980
977
980
980
979
978
980
982
984
986
985
982
975
973
978
980
983
981
980
978
981
978
980
977
977
978
976
979
979
977
972
972
973
978
977
975
973
975
976
977
978
979
977
972
969
974
977
977
974
970
970
972
977
975
973
967
963
968
973
971
970
970
970
973
975
976
973
971
972
973
971
971
972
973
977
988
999
1000
998
993
989
982
969
959
954
953
959
965
971
969
961
956
956
954
960
963
957
957
959
959
962
961
960
963
968
974
978
979
980
981
988
999
1004
1003
1001
998
1001
993
978
961
953
949
954
955
951
945
937
942
951
964
975
980
981
979
981
992
1002
1020
1036
1039
1028
1004
992
993
1004
1016
1012
996
974
950
936
926
931
939
940
939
938
944
957
980
995
1006
1012
1028
1043
1047
1022
984
955
955
972
991
989
974
955
950
956
959
962
965
981
995
1000
988
965
944
936
951
976
999
1000
979
956
943
947
956
957
952
944
940
951
962
970
969
963
961
965
975
988
992
988
984
981
975
965
958
956
962
968
969
968
962
958
955
964
962
962
955
954
964
978
994
1005
1009
1005
993
976
969
972
987
1013
1041
1054
1043
1026
1015
1022
1038
1054
1061
1056
1046
1027
1001
985
981
985
983
969
964
965
968
968
966
968
961
965
970
978
976
955
943
947
966
973
964
940
926
933
963
1029
1123
1223
1309
1378
1426
1446
1440
1403
1322
1196
1068
942
884
884
893
895
902
913
928
943
948
947
937
928
924
929
934
936
935
934
932
937
941
940
925
907
899
891
896
902
906
906
905
908
910
914
915
912
916
922
924
929
930
923
909
909
913
912
908
909
909
915
920
924
928
930
931
929
928
934
942
943
938
924
908
909
919
936
949
957
961
959
954
953
953
962
981
991
983
967
950
941
935
941
954
965
970
974
977
989
1008
1024
1028
1021
1001
987
974
967
966
968
979
987
999
1013
1012
997
985
978
981
991
995
1002
994
988
994
1003
1008
1008
997
979
968
968
973
978
978
974
967
958
948
946
950
954
968
971
973
978
979
978
977
977
979
980
975
968
963
964
969
973
978
982
986
990
983
972
955
951
956
969
975
974
972
970
975
982
984
980
977
975
981
985
981
974
971
977
980
987
983
980
975
975
973
968
965
960
963
965
962
962
963
965
961
955
953
959
968
972
970
966
957
946
941
942
943
945
952
961
957
946
935
937
943
948
946
945
941
944
948
954
950
947
947
950
956
960
955
948
947
950
956
966
977
986
994
997
985
967
948
947
957
970
986
998
1004
1003
1002
1002
1007
1015
1021
1016
1001
990
985
980
973
966
960
956
951
947
949
948
947
948
947
954
953
949
942
941
946
950
945
936
926
921
916
915
929
963
1024
1119
1225
1320
1392
1438
1457
1455
1432
1366
1253
1125
997
883
886
915
927
920
915
917
928
927
928
923
920
917
924
923
924
923
921
923
929
934
931
923
913
910
913
921
922
916
915
919
922
924
922
923
924
926
930
933
930
925
927
925
928
935
930
927
929
934
942
947
955
957
959
959
959
955
948
936
933
938
942
947
952
954
958
963
968
971
972
973
978
984
991
994
995
996
993
999
1009
1018
1027
1030
1033
1038
1037
1034
1032
1032
1027
1030
1029
1028
1024
1021
1022
1024
1026
1025
1024
1022
1021
1018
1018
1020
1019
1020
1022
1023
1013
1002
988
979
976
976
967
963
959
953
954
953
955
959
957
954
956
956
960
960
959
959
958
960
962
965
963
965
965
969
975
981
976
967
964
968
974
973
974
969
969
972
976
981
984
986
984
983
990
998
1003
1008
1014
1027
1039
1053
1063
1071
1083
1103
1132
1161
1186
1201
1198
1166
1113
1059
997
942
893
858
817
771
732
712
713
731
751
766
771
768
767
776
788
803
808
813
823
837
856
870
885
903
918
936
948
953
958
964
970
978
986
995
999
1000
996
1000
1004
1007
1007
1007
1004
1009
1017
1018
1021
1023
1023
1027
1034
1037
1040
1038
1041
1047
1052
1059
1066
1066
1070
1077
1084
1089
1093
1093
1100
1110
1122
1131
1140
1143
1149
1160
1172
1185
1197
1202
1202
1210
1219
1227
1241
1245
1251
1257
1263
1265
1269
1271
1270
1272
1273
1270
1266
1261
1255
1251
1242
1239
1233
1224
1212
1209
1203
1194
1183
1170
1158
1151
1145
1142
1131
1123
1117
1117
1112
1104
1094
1087
1083
1082
1076
1075
1069
1061
1059
1063
1061
1062
1060
1052
1051
1052
1053
1051
1047
1045
1042
1042
1045
1045
1045
1036
1035
1037
1038
1036
1034
1033
1028
1030
1028
1028
1026
1023
1017
1016
1021
1021
1019
1013
1012
1010
1009
1007
1003
1000
1001
1005
1003
1005
1005
1001
999
998
996
995
997
992
989
989
987
986
983
984
982
981
984
984
982
980
977
977
979
982
980
975
973
975
975
976
974
974
972
970
972
975
977
976
978
979
978
973
970
968
965
969
975
977
970
964
964
966
970
970
966
964
965
966
969
972
973
972
967
965
965
969
971
974
970
968
970
970
964
959
957
961
968
973
974
968
965
963
960
964
963
961
958
956
956
957
960
964
968
970
972
968
961
955
952
951
958
960
961
959
957
956
956
957
954
952
952
955
963
969
970
964
958
958
963
962
956
951
947
954
963
967
959
954
951
948
948
945
946
949
952
955
961
963
961
955
950
953
955
956
953
954
954
958
961
958
954
949
950
956
965
969
966
963
959
959
960
972
979
975
975
981
997
1013
1021
1020
1017
1017
1026
1029
1027
1024
1023
1008
994
985
980
980
977
975
969
968
961
957
958
959
957
956
957
957
958
957
952
942
931
935
958
1014
1107
1221
1321
1391
1433
1456
1461
1435
1375
1273
1145
1017
909
907
932
939
943
947
948
947
946
946
941
938
940
942
940
940
939
943
943
946
942
936
932
935
942
947
946
941
938
940
940
938
940
941
939
942
941
941
940
940
943
947
948
946
943
940
939
943
950
953
948
946
947
952
954
957
956
955
958
962
966
969
965
966
964
969
972
978
979
977
975
978
986
992
990
993
1000
1003
1005
1009
1015
1017
1019
1021
1019
1018
1016
1016
1016
1024
1022
1022
1021
1018
1020
1019
1021
1028
1027
1024
1016
1015
1018
1025
1028
1021
1011
1005
1002
1005
1002
1002
996
994
996
997
992
992
990
994
997
997
989
984
987
991
993
989
981
979
979
985
990
994
995
993
994
997
1000
1000
998
1000
997
1002
1005
1008
1006
1008
1008
1012
1019
1018
1018
1021
1024
1030
1034
1042
1053
1070
1073
1074
1082
1107
1134
1162
1185
1210
1220
1203
1157
1103
1055
1011
964
910
843
781
733
718
729
758
780
792
796
793
789
793
799
804
815
824
844
863
877
887
897
915
931
941
947
949
949
952
962
973
979
980
979
981
991
998
1004
1000
991
992
1000
1004
1007
1009
1011
1015
1019
1024
1025
1023
1024
1028
1033
1037
1041
1043
1045
1049
1053
1057
1059
1065
1076
1087
1099
1110
1111
1108
1108
1116
1135
1152
1162
1169
1174
1177
1183
1196
1206
1208
1205
1209
1209
1211
1210
1212
1212
1210
1212
1210
1206
1195
1183
1175
1173
1167
1155
1145
1137
1133
1129
1125
1120
1115
1105
1096
1090
1087
1085
1077
1070
1069
1066
1064
1060
1052
1050
1046
1042
1037
1036
1033
1033
1035
1037
1032
1023
1017
1015
1017
1020
1021
1020
1014
1013
1011
1011
1013
1009
1008
1010
1010
1009
1011
1013
1008
1003
1004
1008
1010
1007
1002
1000
994
985
982
987
992
996
992
990
987
988
982
980
983
986
986
981
977
974
974
976
978
977
973
974
978
978
980
975
971
967
963
964
969
974
975
973
975
968
969
971
971
972
972
974
976
975
972
964
961
965
967
963
959
961
965
969
975
975
971
967
964
963
965
965
961
963
963
965
968
963
959
962
966
972
970
967
970
966
970
974
969
964
960
961
962
965
964
962
961
964
969
974
975
978
975
968
967
968
967
965
961
962
967
972
973
972
969
964
965
968
972
967
964
961
964
968
973
973
973
967
967
973
975
980
976
973
971
972
971
972
969
966
967
968
972
968
969
970
969
970
971
970
969
969
967
968
969
974
973
971
970
970
973
974
977
977
980
979
977
976
979
983
988
992
993
996
997
998
1002
1010
1022
1029
1031
1030
1029
1032
1037
1036
1035
1029
1020
1015
1011
1001
994
986
988
991
988
980
974
971
976
981
985
982
975
974
982
983
974
965
950
950
971
1015
1085
1174
1263
1336
1390
1426
1440
1429
1387
1312
1204
1077
971
919
930
954
967
969
969
966
960
961
967
969
970
965
957
953
958
965
965
961
954
955
956
963
963
959
955
955
960
963
962
958
958
957
959
962
962
965
965
961
958
961
964
967
964
962
969
976
975
971
969
966
971
976
982
984
980
977
971
978
984
989
988
983
991
999
998
998
999
990
991
996
1008
1015
1019
1019
1020
1024
1028
1022
1015
1011
1018
1024
1033
1036
1038
1035
1038
1044
1051
1051
1040
1029
1033
1045
1053
1052
1044
1036
1040
1043
1042
1036
1032
1030
1030
1029
1030
1023
1020
1016
1019
1019
1023
1021
1019
1018
1019
1017
1013
1010
1007
1002
1000
999
1002
1001
1002
1002
1005
1009
1011
1004
1003
1003
1007
1012
1014
1010
1011
1010
1013
1017
1025
1026
1023
1018
1017
1021
1025
1024
1019
1019
1023
1025
1028
1030
1030
1029
1023
1024
1023
1024
1024
1022
1020
1020
1018
1017
1016
1011
1013
1014
1014
1016
1016
1018
1021
1021
1019
1009
1002
996
998
1002
1003
1003
997
995
995
1000
1005
1003
997
992
992
998
1004
1001
989
980
983
995
999
997
989
982
979
986
991
991
986
987
992
995
994
992
992
995
1000
1007
1008
1010
1011
1011
1012
1016
1022
1029
1033
1035
1038
1044
1051
1049
1044
1044
1042
1041
1036
1018
1007
993
995
1000
1005
1000
994
986
980
984
984
982
979
975
976
976
981
982
981
981
979
972
965
957
950
953
968
1016
1092
1186
1275
1343
1397
1424
1435
1420
1387
1323
1222
1099
981
921
927
951
963
968
969
968
969
966
966
965
964
964
963
959
956
956
960
961
958
959
957
962
961
959
956
952
954
961
962
959
956
952
954
960
964
959
960
963
964
965
966
962
960
960
962
965
965
967
964
962
967
969
970
970
972
972
974
975
979
982
979
980
985
988
991
990
991
994
996
998
1005
1004
1003
1001
1004
1009
1016
1019
1020
1020
1024
1031
1038
1044
1045
1045
1049
1053
1053
1048
1045
1048
1051
1058
1067
1065
1061
1057
1057
1055
1055
1052
1047
1043
1041
1042
1043
1038
1032
1027
1026
1023
1023
1019
1013
1009
1005
1008
1008
1002
999
995
995
996
997
996
990
988
987
989
989
989
984
982
984
985
991
993
988
987
989
997
1001
1003
995
989
992
995
1002
1006
1005
1001
1001
1003
1007
1005
1007
1006
1008
1011
1011
1011
1008
1009
1010
1012
1015
1014
1013
1009
1010
1010
1018
1018
1018
1013
1010
1011
1013
1013
1008
1006
1007
1004
1003
1002
1000
999
999
997
999
997
995
994
995
996
999
997
993
994
994
996
997
997
996
995
990
992
994
995
992
987
986
991
993
993
989
986
987
989
992
990
988
986
989
991
995
994
991
992
995
998
997
998
1002
1013
1020
1020
1023
1026
1024
1025
1030
1045
1055
1056
1055
1050
1054
1060
1061
1060
1049
1035
1026
1019
1016
1010
1006
998
994
993
991
989
988
984
989
997
999
994
986
983
985
991
989
982
969
964
956
963
996
1054
1138
1234
1325
1392
1431
1447
1440
1413
1356
1269
1146
1018
941
937
964
981
981
978
977
977
980
980
980
976
971
966
968
971
976
977
973
965
966
971
975
976
973
969
968
970
970
967
967
965
967
970
971
972
973
974
975
974
973
974
976
974
973
973
975
979
981
982
982
980
986
987
987
981
985
988
991
996
998
998
1002
1005
1007
1008
1009
1009
1014
1018
1020
1023
1024
1026
1031
1037
1039
1042
1044
1045
1047
1053
1060
1065
1066
1065
1070
1076
1080
1084
1082
1079
1080
1079
1083
1087
1081
1082
1080
1079
1078
1072
1067
1066
1064
1065
1068
1065
1057
1053
1052
1047
1046
1040
1035
1031
1030
1028
1027
1026
1024
1018
1018
1014
1016
1016
1011
1009
1009
1011
1014
1015
1013
1013
1015
1013
1012
1006
1000
1003
1008
1011
1013
1017
1017
1015
1018
1016
1018
1022
1019
1018
1019
1023
1025
1024
1021
1022
1027
1032
1036
1033
1031
1033
1028
1028
1031
1037
1042
1048
1055
1065
1079
1089
1100
1112
1123
1141
1161
1181
1193
1194
1182
1145
1087
1017
949
889
848
816
794
764
734
714
711
715
730
748
765
770
778
785
794
794
797
799
810
820
839
851
865
879
891
918
941
958
969
975
983
996
1012
1019
1023
1025
1026
1032
1036
1035
1037
1039
1039
1046
1051
1051
1051
1051
1056
1058
1064
1068
1066
1067
1070
1075
1082
1082
1080
1080
1084
1086
1092
1096
1098
1100
1105
1114
1121
1125
1129
1137
1143
1149
1156
1160
1164
1170
1181
1197
1207
1214
1221
1226
1237
1245
1255
1258
1256
1257
1262
1270
1275
1275
1275
1271
1271
1270
1268
1259
1254
1246
1241
1236
1229
1223
1215
1204
1196
1188
1179
1174
1165
1156
1148
1144
1139
1134
1125
1116
1115
1113
1113
1106
1100
1095
1091
1091
1090
1087
1081
1076
1080
1080
1079
1074
1068
1064
1063
1063
1068
1070
1063
1059
1059
1062
1066
1063
1054
1055
1054
1054
1050
1044
1047
1046
1050
1051
1059
1053
1044
1037
1031
1033
1031
1027
1023
1023
1025
1027
1028
1025
1020
1016
1016
1016
1016
1014
1008
1009
1013
1018
1020
1017
1011
1008
1009
1008
1009
1008
1004
1001
1002
1004
1006
1003
1000
1000
1000
1000
999
1002
997
996
999
997
1000
997
994
994
997
1000
999
999
997
993
988
989
992
992
989
985
985
990
992
989
987
986
988
989
991
989
990
987
988
991
992
991
985
983
986
984
990
987
982
982
985
991
994
989
985
984
982
984
984
983
981
982
982
983
983
984
985
979
982
984
985
985
983
983
983
984
987
989
988
986
988
993
990
985
980
978
979
982
986
986
981
977
979
984
988
989
986
984
983
987
991
989
987
988
989
987
985
986
987
984
982
986
990
989
985
982
986
988
990
992
990
986
986
987
989
985
986
986
990
993
993
988
983
981
987
991
993
996
993
990
991
993
997
994
994
990
989
989
993
999
998
993
994
1000
1008
1014
1015
1017
1018
1020
1027
1033
1037
1045
1051
1056
1059
1054
1051
1050
1052
1059
1057
1048
1034
1026
1024
1019
1015
1003
997
997
997
998
1002
1003
999
993
994
996
1001
999
995
986
976
971
974
991
1027
1090
1168
1250
1313
1360
1377
1381
1372
1344
1286
1195
1085
990
947
957
975
978
972
968
972
978
981
985
981
975
971
969
973
978
972
973
977
980
984
982
978
972
970
976
978
981
977
971
973
982
982
980
973
970
975
978
977
975
975
972
971
975
982
985
985
985
986
987
989
989
984
978
978
982
988
991
992
994
998
1001
1006
1005
1004
1001
1006
1011
1018
1022
1019
1022
1023
1027
1033
1036
1037
1032
1037
1043
1046
1048
1051
1050
1052
1059
1062
1059
1062
1062
1064
1067
1070
1072
1069
1068
1067
1070
1076
1072
1070
1067
1068
1068
1071
1068
1062
1060
1058
1062
1066
1063
1057
1052
1053
1051
1053
1047
1044
1040
1037
1039
1041
1038
1035
1030
1031
1033
1035
1033
1031
1029
1028
1030
1034
1032
1033
1028
1029
1031
1033
1037
1037
1030
1031
1038
1043
1039
1036
1033
1031
1034
1040
1042
1043
1043
1043
1045
1044
1043
1037
1035
1037
1038
1037
1037
1037
1037
1034
1033
1035
1037
1032
1026
1031
1028
1031
1028
1026
1023
1025
1025
1026
1022
1018
1016
1014
1017
1021
1016
1011
1009
1010
1011
1014
1013
1012
1006
1006
1005
1003
1000
998
997
998
999
1001
999
996
994
993
994
997
993
989
987
993
999
1001
1002
1001
1004
1011
1013
1018
1022
1025
1027
1039
1047
1048
1047
1046
1044
1046
1050
1047
1034
1020
1009
1001
999
998
990
980
969
969
971
970
968
963
958
961
964
966
967
963
961
961
962
963
954
944
942
956
989
1041
1117
1199
1271
1324
1351
1359
1348
1319
1265
1175
1062
964
914
919
939
945
943
943
944
945
940
941
938
942
944
943
941
941
945
947
946
943
939
941
944
944
943
939
940
942
942
947
946
946
942
944
948
949
950
947
945
947
951
950
952
949
946
949
952
954
950
947
946
949
953
957
958
957
958
959
960
965
965
965
963
965
974
982
986
993
1003
1012
1014
1011
998
984
978
973
977
982
989
994
996
1002
1006
1013
1013
1018
1015
1018
1020
1026
1027
1020
1016
1015
1019
1025
1025
1019
1008
1001
1003
1007
1005
1000
995
990
985
978
970
968
963
962
963
967
963
957
954
948
951
951
943
942
939
941
941
943
941
938
934
933
931
935
932
931
931
933
937
939
939
934
933
937
938
938
937
938
938
942
945
948
945
944
944
944
948
953
955
953
958
963
981
990
995
1004
1015
1030
1046
1058
1070
1079
1089
1091
1082
1043
979
908
845
798
767
742
710
680
