1089
1010
959
931
924
917
911
902
901
895
892
884
881
881
876
871
865
855
851
848
850
845
840
836
842
845
846
842
842
840
839
838
844
849
848
840
835
839
849
850
841
834
837
842
844
843
838
834
831
828
829
830
827
817
811
815
816
810
803
798
794
794
791
784
777
773
770
770
770
770
768
762
760
761
756
759
758
757
758
763
766
772
775
778
781
786
794
800
806
806
807
822
833
841
841
841
847
856
865
869
871
872
877
887
891
894
891
889
895
903
910
908
905
910
914
916
915
918
922
927
924
923
924
925
927
928
929
931
930
932
934
931
929
935
938
944
944
942
944
945
945
945
944
948
946
948
948
950
953
952
950
952
954
954
953
952
951
951
957
963
964
956
950
952
958
959
959
957
956
951
949
958
960
952
947
953
960
959
953
947
949
952
955
951
951
948
951
950
946
941
944
949
950
947
950
949
946
938
935
939
948
949
944
938
939
941
944
946
941
941
943
941
940
941
947
948
944
941
945
947
941
937
938
940
944
944
946
941
941
943
941
937
935
939
943
943
944
944
940
940
940
944
947
946
941
942
942
946
946
939
937
939
945
946
945
940
940
947
950
951
946
947
946
944
946
952
950
948
948
946
945
945
942
947
950
951
950
950
951
955
954
950
945
949
955
954
947
940
942
951
956
954
944
940
945
950
948
951
951
948
951
952
952
953
951
949
947
950
953
954
953
950
948
946
944
944
950
947
945
946
946
948
948
950
950
952
949
943
946
946
949
952
952
951
949
950
949
952
953
952
952
951
946
949
951
954
950
949
952
956
957
959
954
952
957
960
953
946
949
957
961
959
957
960
957
950
951
956
961
960
956
954
952
956
958
959
956
951
953
958
961
964
963
957
952
954
958
961
959
960
961
962
965
962
960
963
965
966
967
967
967
965
965
972
976
972
971
978
987
992
998
1007
1018
1023
1026
1026
1029
1024
1027
1029
1027
1024
1017
1008
999
989
984
981
980
979
971
966
962
969
970
970
962
953
952
962
967
961
954
947
948
970
1004
1055
1136
1218
1292
1341
1369
1378
1369
1325
1247
1140
1023
922
869
881
915
930
934
935
938
937
939
941
943
943
941
939
937
936
938
940
939
940
942
945
944
943
942
938
938
939
941
945
943
938
938
943
945
947
945
946
947
947
944
941
945
946
947
952
955
957
957
958
956
958
960
963
962
961
961
967
971
975
973
975
981
986
991
990
990
990
993
999
1005
1011
1013
1013
1014
1020
1024
1032
1033
1036
1038
1042
1047
1049
1048
1048
1054
1059
1063
1062
1056
1054
1053
1059
1061
1060
1054
1048
1047
1046
1046
1041
1034
1029
1023
1023
1026
1026
1023
1014
1008
1010
1009
1005
1002
997
995
996
1000
998
989
975
970
978
988
984
977
975
971
976
978
979
977
979
977
978
982
981
979
977
976
979
984
985
984
982
979
983
986
989
988
982
979
979
988
987
988
989
985
986
990
990
984
980
981
983
985
983
983
980
985
984
985
989
985
981
971
975
981
978
975
967
966
970
969
965
965
962
959
961
961
959
957
954
953
951
957
957
953
952
950
953
953
953
949
946
945
946
947
949
945
943
940
942
945
947
946
943
942
943
946
945
944
942
942
941
944
940
938
937
936
939
939
940
938
935
935
935
938
941
939
942
944
948
947
944
943
944
943
943
945
944
943
941
941
947
949
950
948
944
943
943
948
951
949
944
943
948
951
949
946
945
944
947
954
955
953
949
948
950
952
954
952
952
952
951
957
960
960
964
968
975
980
986
990
993
1002
1012
1016
1018
1020
1018
1018
1018
1020
1018
1013
1003
992
979
976
974
967
960
953
950
950
949
947
942
940
943
948
952
952
950
947
947
942
938
942
958
995
1058
1147
1246
1320
1366
1385
1396
1389
1355
1278
1165
1037
909
849
862
893
908
910
914
920
928
931
933
935
938
946
947
946
942
940
939
934
928
923
922
928
935
941
943
941
938
936
937
940
937
933
928
933
938
945
945
943
936
934
941
942
945
946
949
948
949
950
953
948
949
955
961
965
964
960
961
963
970
976
980
978
978
983
988
998
1002
1007
1008
1009
1014
1026
1033
1038
1036
1037
1041
1047
1053
1058
1066
1069
1077
1085
1088
1090
1086
1081
1083
1087
1088
1085
1081
1085
1083
1082
1078
1068
1064
1059
1055
1043
1034
1031
1022
1014
1009
1005
1001
996
991
989
992
992
992
990
978
967
962
964
964
963
957
956
955
958
960
960
955
954
958
967
971
967
965
966
970
967
976
974
976
978
983
985
986
985
983
985
987
992
996
996
993
992
995
1001
1003
1001
1002
1004
1002
1005
1006
1004
1004
999
996
1002
1002
1001
996
994
995
996
996
992
992
989
990
991
990
990
986
983
984
989
986
983
981
978
984
985
985
982
981
978
979
981
982
981
973
972
974
979
985
985
979
978
980
982
980
980
977
980
979
979
980
976
974
975
976
980
979
978
976
975
977
978
980
977
972
974
976
979
981
980
975
976
980
981
985
981
977
976
980
983
985
984
982
978
982
984
985
987
982
982
984
988
989
989
988
988
994
998
1004
1005
1004
1009
1010
1018
1027
1035
1044
1049
1054
1055
1052
1046
1041
1037
1034
1032
1027
1022
1014
1010
1006
1005
1000
994
985
980
980
984
984
985
980
975
980
982
980
975
966
957
954
970
1003
1061
1142
1238
1324
1377
1410
1420
1401
1355
1280
1174
1047
935
879
896
933
951
950
948
946
953
958
964
963
963
958
958
960
961
961
959
959
957
960
964
962
962
961
960
960
964
964
964
961
957
960
964
964
963
961
963
963
966
970
971
967
971
972
977
979
977
972
970
973
978
981
982
979
983
988
996
1000
1000
1000
998
1001
1002
1009
1007
1011
1014
1022
1031
1034
1035
1041
1045
1053
1059
1064
1067
1068
1074
1086
1092
1101
1105
1108
1109
1113
1116
1122
1119
1117
1116
1117
1118
1116
1112
1106
1101
1098
1095
1091
1081
1073
1064
1060
1058
1054
1048
1037
1031
1023
1021
1019
1014
1010
1007
1005
1006
1001
996
988
987
987
988
987
986
982
980
980
976
974
971
970
966
969
970
969
967
966
965
966
969
973
974
970
970
970
975
972
971
976
978
977
982
983
981
977
977
983
989
988
989
988
990
992
998
1003
1009
1015
1020
1030
1040
1045
1049
1053
1062
1080
1109
1142
1176
1201
1209
1197
1173
1140
1101
1066
1031
990
933
860
796
758
748
759
771
774
766
760
757
761
770
781
787
790
804
822
838
849
865
882
901
915
920
925
934
944
952
956
961
962
962
962
962
966
974
974
977
971
975
979
984
987
985
982
983
988
993
994
989
988
990
994
995
997
999
995
994
999
1007
1010
1012
1013
1015
1021
1022
1027
1029
1035
1041
1050
1058
1066
1074
1082
1088
1095
1109
1116
1127
1134
1140
1149
1157
1165
1171
1173
1181
1184
1191
1192
1191
1190
1192
1192
1193
1188
1184
1177
1171
1167
1163
1155
1149
1145
1135
1129
1125
1116
1108
1093
1081
1079
1076
1069
1063
1054
1046
1046
1044
1040
1034
1027
1025
1022
1024
1026
1021
1013
1013
1014
1012
1016
1011
1008
1005
1007
1009
1013
1015
1013
1015
1018
1023
1031
1039
1043
1048
1053
1067
1081
1092
1105
1122
1144
1174
1203
1230
1245
1263
1284
1313
1335
1349
1355
1357
1351
1345
1338
1331
1326
1324
1327
1328
1334
1342
1330
1305
1260
1212
1149
1091
1040
997
959
941
935
924
912
900
896
893
890
881
872
863
861
859
854
845
837
831
834
836
835
828
822
821
823
831
836
834
823
823
823
831
834
831
831
830
830
828
827
823
821
815
815
815
811
810
802
797
795
794
791
787
782
776
776
779
775
770
764
756
753
754
755
752
751
749
748
751
753
754
751
752
757
761
763
769
769
772
778
784
792
797
800
805
810
825
833
837
838
842
846
856
864
870
875
878
886
891
895
896
900
904
906
912
914
917
915
916
919
926
929
930
925
921
928
931
937
935
931
931
938
939
942
939
938
940
944
946
948
949
947
947
948
952
953
950
949
950
950
951
951
949
948
947
952
953
954
954
950
949
952
953
957
955
953
953
951
950
951
950
948
946
954
956
957
954
949
948
950
955
957
952
952
947
947
949
950
949
945
946
945
949
953
953
948
947
946
950
949
946
945
941
942
948
950
948
947
943
945
947
946
946
945
944
945
948
950
948
943
943
943
950
948
949
941
940
944
947
949
949
948
944
943
941
946
945
946
945
948
950
949
945
942
941
945
948
946
944
943
944
943
946
947
946
944
944
946
947
950
949
948
947
950
953
953
950
947
944
945
947
950
951
948
948
952
955
952
947
942
939
944
950
953
951
945
945
948
954
954
950
949
946
950
953
954
953
952
951
954
957
958
957
954
954
955
954
957
955
950
952
956
958
958
960
957
952
956
958
958
955
952
951
952
955
956
959
955
955
958
962
960
959
958
954
956
958
961
957
955
952
959
963
965
962
958
960
961
965
966
964
962
962
964
966
964
962
959
961
962
969
964
965
963
964
965
968
967
964
960
959
963
965
968
968
967
964
963
969
972
970
963
964
964
968
970
969
966
961
960
969
972
973
971
967
970
970
973
972
970
967
968
970
974
972
970
969
968
973
976
977
975
976
973
975
971
968
965
967
971
973
973
974
970
969
971
975
977
972
970
970
971
977
981
979
980
975
981
987
998
997
995
995
995
1000
1008
1016
1029
1036
1042
1042
1042
1036
1030
1024
1020
1022
1024
1021
1009
997
996
996
998
991
984
981
978
981
980
981
979
977
978
977
977
981
976
975
972
974
980
990
1010
1049
1122
1208
1289
1341
1366
1379
1376
1360
1322
1250
1149
1038
934
879
888
920
940
940
944
946
955
958
960
961
964
966
968
968
960
963
963
964
966
968
963
966
969
972
977
977
970
966
965
968
972
971
968
969
971
976
979
977
974
973
975
980
982
980
979
978
979
982
986
987
986
987
991
995
1000
1000
996
997
998
999
1004
1004
1004
1006
1011
1015
1018
1021
1022
1024
1032
1039
1043
1045
1041
1044
1050
1056
1066
1068
1066
1070
1075
1080
1082
1084
1080
1081
1084
1089
1095
1095
1091
1092
1094
1099
1101
1100
1095
1091
1087
1091
1091
1089
1081
1077
1078
1081
1080
1073
1067
1061
1063
1060
1052
1049
1043
1041
1040
1041
1041
1037
1034
1032
1034
1031
1030
1026
1023
1019
1022
1022
1025
1025
1022
1021
1025
1028
1030
1032
1027
1026
1026
1028
1032
1032
1031
1033
1036
1040
1044
1046
1045
1045
1043
1044
1047
1047
1051
1048
1046
1051
1058
1057
1060
1058
1060
1064
1066
1065
1058
1050
1042
1036
1042
1043
1032
1014
985
959
926
906
892
881
862
835
805
781
772
777
793
808
835
860
883
905
941
984
1026
1052
1061
1056
1041
1029
1016
1001
993
987
990
993
991
979
967
962
962
962
961
956
953
956
960
959
960
963
959
960
964
971
971
972
971
971
977
980
986
989
986
984
988
993
994
998
997
995
998
1005
1007
1010
1009
1008
1014
1020
1024
1026
1032
1034
1043
1053
1056
1061
1063
1067
1075
1089
1099
1103
1105
1112
1123
1134
1141
1145
1146
1153
1159
1167
1173
1175
1176
1180
1184
1186
1191
1189
1184
1182
1181
1181
1184
1184
1179
1174
1169
1170
1165
1159
1151
1146
1142
1138
1135
1126
1115
1108
1104
1103
1099
1089
1077
1067
1060
1061
1062
1060
1057
1052
1048
1045
1044
1045
1044
1044
1047
1048
1053
1051
1049
1043
1039
1042
1044
1044
1039
1034
1036
1035
1030
1025
1024
1023
1023
1027
1029
1024
1021
1024
1023
1023
1022
1017
1010
1008
1010
1009
1009
1008
1003
1003
1002
1006
1006
1005
1001
999
998
1000
999
1001
996
994
992
991
993
992
985
984
987
987
989
986
980
981
979
982
980
979
975
974
975
974
978
973
971
970
972
973
974
975
972
973
975
974
973
969
966
965
964
967
967
965
962
963
962
962
969
969
968
965
964
965
968
967
966
965
968
969
970
969
964
961
960
958
959
959
959
957
959
962
964
966
962
961
964
966
967
966
961
962
964
965
969
964
963
961
962
964
966
968
967
960
961
964
968
962
962
957
959
963
962
960
958
958
961
962
964
964
963
957
959
960
962
964
963
963
963
963
964
962
960
958
957
957
962
962
961
960
961
967
967
963
960
957
958
961
965
961
959
956
960
965
964
960
957
954
960
964
963
960
958
956
960
964
963
960
956
958
959
962
962
957
955
954
955
956
956
963
961
960
958
961
961
962
959
956
954
960
962
961
960
958
961
964
966
966
962
961
959
958
961
963
956
956
960
964
964
960
956
957
959
960
960
961
960
958
960
962
966
966
966
960
960
960
964
964
963
958
960
963
965
966
963
959
957
963
967
970
965
963
964
970
971
967
960
955
958
961
967
970
970
969
965
963
966
968
968
969
977
981
988
991
994
990
990
991
1000
1012
1019
1024
1027
1031
1029
1027
1022
1016
1016
1013
1006
1000
993
984
983
985
982
975
975
969
963
963
968
966
963
963
962
967
967
964
958
948
945
945
963
995
1049
1127
1217
1291
1347
1381
1401
1389
1353
1297
1214
1107
994
911
886
918
945
953
945
946
949
951
950
946
944
940
941
942
944
939
937
939
943
944
942
940
938
937
942
948
953
949
944
941
938
944
944
942
938
936
938
943
945
949
948
945
951
955
954
952
948
945
952
958
959
960
957
958
959
962
967
969
968
968
970
974
977
978
979
982
986
993
996
1001
1004
1008
1013
1020
1026
1029
1028
1027
1031
1041
1049
1054
1056
1059
1063
1068
1074
1076
1075
1074
1081
1086
1088
1090
1088
1086
1087
1086
1088
1087
1085
1082
1080
1078
1075
1068
1060
1052
1046
1047
1045
1040
1036
1031
1028
1024
1028
1021
1013
1006
1004
1002
1004
998
996
994
994
994
995
994
990
988
989
989
985
984
984
982
984
987
990
990
988
985
991
992
992
991
987
985
985
987
990
986
984
983
989
990
995
992
990
988
989
993
994
997
998
999
998
1000
999
998
997
997
1005
1013
1020
1026
1030
1033
1038
1045
1056
1073
1096
1123
1158
1188
1200
1184
1153
1115
1086
1058
1023
967
893
815
762
737
733
748
762
756
746
739
736
739
748
759
773
789
808
818
832
844
864
883
896
902
905
904
911
923
935
940
943
945
948
953
961
960
958
955
956
959
962
964
967
969
969
973
975
976
979
974
979
979
979
982
983
984
987
991
1000
1004
1004
1003
1004
1014
1023
1028
1032
1039
1045
1057
1067
1074
1082
1089
1095
1108
1122
1130
1136
1143
1147
1157
1164
1171
1172
1175
1174
1176
1176
1175
1170
1165
1166
1163
1163
1158
1149
1141
1136
1132
1129
1119
1105
1095
1086
1082
1077
1068
1062
1053
1049
1048
1044
1038
1029
1026
1023
1019
1018
1018
1014
1012
1013
1015
1016
1011
1008
1005
1008
1011
1014
1014
1009
1008
1008
1012
1023
1033
1039
1045
1058
1069
1086
1100
1118
1145
1175
1208
1238
1258
1278
1301
1326
1349
1363
1362
1351
1333
1327
1328
1331
1332
1328
1332
1344
1339
1306
1252
1177
1104
1044
997
962
936
928
916
903
897
891
884
874
864
859
853
848
846
836
835
830
830
827
824
821
821
822
828
831
830
825
824
827
830
833
830
824
818
816
818
817
819
811
807
805
805
802
794
789
784
782
782
781
772
763
760
759
761
763
761
753
750
751
751
753
753
751
749
753
758
763
765
766
768
775
784
796
802
807
808
817
825
831
841
844
851
860
868
877
881
885
888
893
898
904
906
909
913
918
925
929
929
928
931
934
938
942
943
941
943
945
949
955
953
954
950
951
955
958
960
960
959
961
960
962
962
959
960
962
964
966
963
964
960
961
965
969
968
963
964
969
971
972
974
971
967
964
962
964
963
960
956
956
959
961
959
955
954
957
959
966
968
963
961
959
954
955
957
956
953
952
954
956
954
948
944
947
953
957
952
950
947
946
948
953
952
953
949
949
949
951
950
947
946
947
951
955
953
951
950
949
949
948
947
945
941
942
948
950
949
942
940
943
946
950
948
944
945
947
948
946
947
947
947
948
950
953
951
949
948
949
954
958
955
954
951
949
949
952
951
952
948
943
942
947
946
943
943
945
951
952
952
951
948
949
953
958
952
948
946
948
950
957
959
957
952
951
951
950
946
945
946
950
950
952
954
952
947
954
957
959
957
952
949
950
953
957
956
951
952
953
951
955
955
953
953
954
956
957
954
952
949
949
954
959
958
957
955
951
953
953
955
952
950
947
956
958
959
959
955
954
954
958
955
956
956
957
961
961
960
957
955
950
950
956
961
960
959
961
963
966
963
959
958
957
960
964
964
963
962
963
967
971
969
961
958
958
959
962
966
967
963
963
968
972
972
971
969
968
973
974
973
969
968
968
973
976
978
979
980
982
985
990
992
992
996
998
1009
1024
1031
1035
1036
1038
1035
1036
1032
1021
1013
1008
1004
1004
998
991
984
983
974
974
978
979
978
977
979
978
978
976
972
972
970
965
962
979
1009
1067
1154
1246
1314
1354
1374
1378
1364
1324
1244
1132
1012
912
879
906
938
947
943
944
950
959
960
958
956
957
956
960
960
959
955
955
957
961
961
959
955
960
960
963
959
957
955
956
960
963
963
960
955
955
956
959
958
961
961
963
964
964
961
964
966
968
974
975
974
970
964
971
976
980
981
981
980
980
990
999
1000
999
996
996
1002
1010
1011
1015
1015
1016
1019
1024
1028
1033
1030
1034
1042
1048
1055
1056
1055
1056
1057
1060
1063
1062
1062
1062
1067
1072
1077
1072
1072
1070
1070
1074
1075
1069
1060
1060
1058
1061
1057
1054
1052
1048
1046
1045
1038
1034
1031
1030
1029
1030
1032
1027
1020
1021
1024
1027
1024
1019
1016
1015
1020
1020
1017
1016
1013
1010
1016
1016
1015
1016
