960
958
958
956
959
961
961
961
957
956
955
958
958
959
955
953
952
955
952
953
954
953
954
957
957
957
955
956
960
959
960
959
956
956
962
967
968
966
963
964
968
977
981
975
971
971
978
992
1006
1017
1020
1020
1019
1015
1010
1003
1002
1000
997
993
987
978
971
968
967
966
964
960
954
952
953
957
954
952
953
951
952
954
954
952
946
944
941
940
946
959
990
1047
1134
1233
1312
1367
1389
1397
1384
1348
1272
1163
1038
918
858
865
899
921
920
922
928
934
932
930
926
924
926
931
931
931
927
924
926
930
931
932
928
927
932
930
933
929
927
929
929
931
934
930
934
935
938
943
943
942
938
939
940
945
947
944
942
938
938
941
946
946
946
947
949
955
957
958
957
959
965
969
976
977
975
981
985
989
993
993
995
999
1004
1012
1021
1020
1025
1031
1036
1046
1056
1061
1062
1071
1080
1085
1094
1098
1098
1102
1107
1117
1122
1123
1121
1119
1122
1126
1130
1127
1120
1110
1096
1092
1087
1083
1076
1074
1070
1061
1058
1048
1041
1035
1029
1026
1020
1017
1011
1003
1006
1006
1004
1000
992
987
988
989
986
978
976
975
975
975
975
974
972
969
968
971
976
977
969
961
953
952
953
952
950
950
950
955
960
959
958
958
961
968
967
966
963
964
967
969
972
972
970
971
971
975
976
974
972
975
978
981
980
977
977
978
982
985
984
982
977
977
979
981
979
978
975
972
974
976
978
974
973
970
971
974
974
972
969
966
969
968
969
967
965
962
964
966
965
964
963
960
961
963
965
959
960
957
958
962
963
964
961
958
956
962
960
957
957
957
958
959
960
957
956
955
956
959
959
958
956
957
960
964
962
961
956
952
956
959
959
960
952
953
953
958
962
963
964
962
960
960
960
958
958
959
963
968
968
959
950
949
953
961
964
966
958
957
960
962
964
960
950
951
953
960
963
969
967
964
963
966
973
975
975
976
979
987
985
978
975
982
991
998
1005
1011
1018
1018
1018
1019
1013
1008
1001
1003
1001
1004
1000
991
982
977
974
974
970
967
965
965
965
969
968
968
963
963
964
968
969
964
959
963
971
996
1048
1129
1224
1309
1367
1401
1404
1383
1334
1254
1145
1028
921
863
876
911
933
935
936
940
944
946
950
952
952
950
949
949
952
950
951
945
949
952
957
957
949
943
937
938
942
946
944
940
938
939
943
949
949
949
946
949
950
954
956
955
958
960
964
965
962
961
959
958
962
967
967
969
966
967
971
974
979
980
980
983
984
982
989
995
1000
1002
1011
1018
1022
1028
1033
1035
1042
1050
1053
1059
1062
1069
1077
1090
1100
1106
1110
1111
1113
1121
1124
1128
1122
1122
1123
1122
1122
1116
1109
1104
1102
1099
1094
1087
1077
1070
1066
1062
1057
1049
1040
1032
1025
1027
1021
1017
1011
1007
1007
1005
1005
999
993
986
980
980
978
978
975
972
972
969
968
965
964
964
962
966
967
964
961
963
963
967
969
962
964
962
966
970
970
971
972
970
975
974
975
973
972
974
979
983
984
981
984
984
989
992
987
979
978
980
984
990
989
992
985
978
975
976
981
982
980
983
984
983
979
974
973
972
976
977
979
975
965
965
964
966
968
968
968
970
970
966
958
954
950
952
952
960
961
961
955
952
956
957
957
960
955
955
955
957
959
957
954
954
953
950
952
955
951
952
956
958
958
952
945
943
946
950
951
950
949
947
950
953
953
946
939
941
946
948
949
945
944
947
951
955
953
947
944
942
947
951
953
948
946
949
949
950
947
951
945
947
951
955
953
952
949
951
956
963
962
962
960
958
959
964
968
973
970
977
980
985
988
990
995
1007
1018
1023
1020
1017
1009
1004
1002
998
993
987
974
970
972
972
968
961
955
950
951
958
960
960
958
955
955
955
956
955
948
945
942
940
946
960
993
1063
1157
1255
1331
1380
1398
1397
1368
1309
1213
1095
969
880
863
901
929
932
929
930
933
938
942
939
937
936
939
938
937
936
936
934
935
931
933
933
934
931
930
930
930
933
934
934
937
940
939
935
930
933
937
941
943
944
941
943
944
950
954
954
953
951
951
954
954
953
954
959
963
969
974
979
976
980
984
992
996
1000
1002
1006
1012
1016
1021
1026
1027
1034
1041
1052
1062
1064
1069
1076
1086
1098
1103
1109
1111
1117
1122
1132
1130
1128
1126
1124
1124
1125
1124
1119
1112
1106
1100
1093
1089
1081
1068
1063
1057
1055
1054
1044
1030
1027
1023
1018
1013
1009
999
992
997
998
996
992
991
985
984
984
984
987
982
980
977
979
979
972
965
961
965
970
968
962
961
961
965
968
969
967
970
971
970
965
963
966
968
971
973
974
975
968
964
967
971
977
978
977
977
976
979
983
983
982
979
982
985
987
989
983
985
985
984
985
989
993
992
987
978
974
970
967
966
968
973
974
967
963
963
964
963
970
972
972
965
966
967
967
967
968
969
967
970
973
971
966
960
959
959
962
962
960
958
961
960
964
962
957
954
954
955
956
955
957
956
955
954
956
960
956
951
948
950
954
957
953
951
946
951
953
953
954
956
956
961
956
955
948
947
948
946
948
949
948
947
944
947
953
954
954
950
946
941
950
950
951
952
952
955
956
957
956
950
946
945
944
948
949
947
944
948
954
954
953
948
943
945
947
951
950
948
947
950
954
953
953
950
952
956
964
965
967
964
962
963
969
970
972
974
977
983
990
1004
1012
1015
1014
1009
1008
1003
998
999
998
994
986
975
972
966
966
966
963
961
960
957
956
955
956
956
955
953
955
961
961
957
946
941
944
962
1004
1074
1168
1261
1334
1380
1400
1399
1370
1301
1201
1081
966
882
867
897
920
930
932
936
940
940
939
939
939
938
934
934
936
938
944
945
942
938
932
935
936
941
945
940
938
937
942
944
941
942
939
941
940
942
941
939
939
941
946
949
951
949
951
952
957
962
963
958
959
961
965
965
965
965
968
972
975
980
980
978
985
990
996
1000
1001
1003
1006
1015
1024
1030
1036
1038
1043
1046
1052
1054
1056
1067
1074
1081
1089
1094
1101
1105
1113
1117
1123
1129
1131
1128
1129
1129
1130
1128
1125
1120
1116
1114
1112
1105
1092
1081
1067
1056
1048
1042
1035
1033
1026
1025
1023
1021
1013
1005
1003
1004
1002
1001
998
994
993
993
994
993
989
984
982
977
976
975
978
976
975
970
971
971
971
969
971
970
973
971
971
969
970
975
980
978
977
972
975
980
986
986
983
981
985
987
988
990
988
986
986
989
994
995
994
992
992
997
1003
1007
1011
1016
1024
1029
1037
1040
1047
1055
1071
1100
1136
1177
1219
1250
1270
1268
1257
1241
1218
1191
1147
1077
988
895
831
798
793
811
820
814
797
774
767
766
772
781
786
790
800
815
830
841
855
868
888
901
913
920
930
936
941
952
960
962
956
948
950
955
958
961
960
959
959
962
968
968
969
968
970
974
976
978
978
978
976
981
986
989
989
987
987
992
1000
1003
1003
1004
1003
1012
1020
1024
1027
1030
1036
1042
1054
1061
1072
1076
1083
1095
1109
1118
1126
1131
1140
1151
1163
1169
1174
1178
1180
1187
1193
1195
1199
1197
1193
1196
1196
1192
1188
1181
1177
1172
1170
1164
1160
1150
1143
1137
1129
1126
1117
1108
1101
1096
1090
1085
1076
1069
1063
1058
1058
1053
1048
1038
1030
1022
1023
1016
1006
1003
1002
1001
1000
998
992
989
987
986
996
998
1000
999
999
1002
1001
1001
994
988
992
997
1005
1007
1001
986
979
979
985
990
992
990
991
993
994
994
992
991
992
991
995
995
996
993
988
991
995
989
988
988
984
987
992
993
992
990
985
987
992
990
982
972
967
971
981
984
977
965
958
964
971
973
974
967
961
959
959
961
961
961
957
961
963
964
962
959
958
964
966
966
963
961
961
961
963
961
966
961
959
958
958
960
961
959
959
959
961
962
958
957
957
957
963
961
958
957
958
962
961
960
962
958
958
959
962
962
958
956
955
957
960
960
958
959
955
959
965
963
962
958
958
963
964
965
963
959
955
960
964
967
964
962
961
967
967
969
963
957
952
955
962
964
960
952
952
953
960
957
955
957
958
963
966
965
965
960
960
959
958
963
962
960
958
961
963
964
963
960
961
966
970
969
970
966
966
969
969
968
968
966
966
968
969
969
966
965
962
962
963
964
966
964
964
968
970
969
968
970
971
970
972
971
971
970
971
973
975
975
973
971
971
975
979
977
971
966
966
966
969
966
963
959
961
967
972
978
974
971
968
969
968
972
972
971
972
976
981
982
983
979
972
967
970
972
974
974
976
977
980
978
981
974
977
979
981
979
974
971
969
970
977
977
981
981
983
983
988
991
993
993
998
1005
1010
1020
1023
1026
1029
1037
1043
1036
1028
1019
1015
1018
1020
1020
1016
1008
1001
998
999
991
986
983
980
981
986
986
984
983
983
983
988
987
985
981
978
975
971
970
979
1001
1045
1117
1205
1291
1360
1395
1417
1415
1395
1343
1251
1137
1015
926
904
932
955
958
957
959
965
969
968
964
962
962
965
966
965
961
959
965
969
967
966
961
960
963
967
966
962
963
964
968
972
971
967
964
961
962
964
965
965
965
963
970
972
970
971
968
969
973
979
980
980
981
980
984
988
989
990
989
989
991
996
999
1000
1002
1004
1005
1010
1015
1017
1017
1018
1021
1029
1032
1037
1043
1050
1058
1063
1065
1066
1066
1068
1072
1081
1089
1095
1097
1102
1109
1113
1116
1120
1122
1124
1131
1135
1141
1140
1141
1142
1147
1146
1142
1132
1124
1116
1115
1114
1111
1105
1100
1093
1088
1084
1079
1076
1069
1065
1063
1060
1059
1049
1044
1041
1039
1039
1036
1031
1023
1020
1020
1021
1020
1015
1010
1010
1008
1011
1012
1009
1007
1005
1005
1007
1007
1005
1004
1003
1006
1006
1007
1005
1000
1002
1002
1004
1006
1003
1000
1000
1004
1006
1003
1005
999
1001
1005
1005
1009
1006
1004
1005
1008
1011
1013
1012
1009
1007
1012
1015
1012
1013
1007
1008
1009
1010
1011
1011
1008
1007
1008
1010
1009
1006
1005
1001
1001
1004
1001
998
997
996
999
999
998
995
992
990
993
995
996
991
988
985
988
988
988
988
987
985
982
986
987
984
987
986
985
986
985
983
979
980
985
992
989
985
974
963
960
954
956
955
952
958
963
968
967
964
959
959
965
967
967
966
964
966
966
967
964
964
959
959
962
966
967
964
958
959
961
963
962
961
958
956
961
961
962
960
953
956
959
961
960
958
955
954
958
961
962
960
957
952
956
960
960
959
957
956
958
961
960
960
955
955
959
962
962
960
957
959
961
962
964
960
958
956
960
962
964
961
960
959
961
964
965
963
962
958
963
966
967
968
966
964
970
973
975
973
974
975
979
984
989
992
995
1004
1012
1026
1035
1036
1029
1024
1019
1012
1006
1000
994
992
987
986
979
974
973
970
969
965
962
960
957
959
961
966
965
965
961
964
966
969
965
964
959
956
953
959
972
1003
1051
1126
1211
1289
1343
1376
1393
1389
1366
1318
1237
1127
1013
917
877
894
929
942
940
939
943
950
952
951
950
949
952
953
952
954
948
946
946
946
949
947
945
947
949
950
952
954
951
951
953
958
957
956
952
949
955
958
959
958
958
959
965
966
968
965
963
962
964
966
970
966
963
966
970
974
978
977
977
978
982
986
984
986
990
992
999
1001
1006
1008
1008
1011
1015
1025
1027
1030
1033
1038
1046
1052
1058
1065
1067
1074
1085
1094
1099
1103
1107
1112
1114
1122
1128
1132
1131
1135
1140
1144
1144
1142
1138
1137
1137
1133
1131
1126
1118
1110
1109
1105
1102
1095
1089
1085
1083
1081
1074
1063
1052
1048
1049
1042
1029
1021
1011
1010
1011
1008
1004
999
996
997
999
997
993
985
983
983
982
982
983
981
978
980
979
983
982
980
977
976
978
981
982
981
978
981
984
989
992
988
985
986
989
993
994
990
989
990
993
998
998
996
998
998
1000
1002
1003
1002
1002
1002
1005
1007
1007
1005
1002
1002
1002
1006
1004
1004
1000
1000
1001
1002
1003
1001
995
995
998
999
1000
998
995
990
989
991
990
990
986
987
988
991
991
985
984
985
986
988
989
983
977
978
977
979
979
980
978
976
977
979
980
978
976
975
977
980
977
978
974
972
975
976
975
975
973
973
975
977
976
975
971
971
972
975
971
970
968
967
969
973
973
971
967
967
971
973
972
971
967
966
970
971
972
968
966
967
969
973
973
972
967
967
971
973
976
974
967
970
968
971
972
969
967
966
968
972
973
970
968
966
969
971
970
970
969
969
971
971
972
972
970
969
973
978
980
980
980
979
984
989
990
992
992
996
1011
1025
1028
1029
1022
1018
1016
1015
1013
1010
1003
996
993
990
984
979
972
970
969
972
974
972
969
966
971
976
974
970
967
965
966
963
959
960
970
1000
1062
1148
1234
1312
1358
1381
1387
1366
1316
1233
1123
1001
911
887
914
940
944
943
945
952
956
954
952
950
951
951
952
951
946
946
948
950
952
949
945
945
950
952
951
947
946
948
948
955
953
953
949
949
952
954
954
957
952
954
955
958
959
958
958
959
964
964
965
965
963
965
969
970
972
973
974
975
976
982
985
986
987
990
995
999
1000
1004
1005
1011
1015
1023
1026
1026
1028
1033
1042
1051
1056
1061
1065
1070
1078
1083
1092
1095
1097
1101
1110
1116
1121
1123
1121
1124
1124
1133
1130
1125
1122
1119
1118
1115
1108
1103
1095
1088
1083
1081
1075
1065
1053
1047
1047
1042
1036
1030
1022
1018
1018
1016
1015
1009
1001
997
998
996
996
992
985
980
982
982
980
974
975
973
973
974
973
973
969
968
970
974
972
970
969
970
974
976
975
971
971
974
975
981
982
980
983
980
985
987
985
985
984
986
993
996
994
993
988
990
993
996
996
994
992
990
992
997
995
995
989
990
991
992
991
987
985
982
985
987
985
982
979
977
978
981
979
976
973
972
975
976
976
974
972
973
973
973
972
968
966
966
969
971
968
969
966
964
968
970
971
967
963
964
966
963
964
964
961
962
963
965
964
962
962
962
965
967
965
964
962
958
962
966
966
963
959
959
961
965
965
962
961
958
960
963
963
959
958
958
962
964
964
961
955
957
959
961
961
961
959
960
962
962
961
963
958
960
960
964
963
959
959
958
963
961
961
964
960
962
965
964
964
965
961
962
966
967
970
967
967
967
971
974
974
970
968
974
980
985
988
988
991
995
1005
1021
1029
1034
1029
1021
1015
1012
1013
1011
1004
998
992
991
984
981
974
971
971
973
971
970
966
968
970
971
972
973
965
968
964
962
958
956
971
1009
1073
1159
1248
1318
1362
1390
1394
1375
1322
1228
1107
983
899
892
924
949
948
946
948
954
956
956
951
949
952
954
951
951
949
948
950
954
955
952
948
948
950
955
953
952
951
951
955
958
958
954
953
952
955
957
960
958
957
961
964
968
967
967
964
966
967
971
972
974
973
974
979
983
985
986
984
989
991
999
999
1003
1005
1006
1014
1021
1020
1025
1028
1034
1039
1046
1052
1056
1062
1067
1073
1084
1090
1095
1099
1105
1111
1120
1122
1130
1128
1134
1137
1140
1143
1142
1136
1137
1136
1138
1134
1124
1118
1109
1106
1101
1095
1085
1076
1067
1064
1061
1054
1047
1039
1033
1030
1023
1022
1018
1012
1008
1008
1007
1004
1000
996
988
990
994
989
986
981
978
980
978
977
975
974
973
973
974
973
970
968
970
973
974
976
976
973
970
973
976
979
977
974
975
977
981
981
983
982
985
986
990
988
987
984
983
982
986
987
988
988
990
989
988
982
977
971
972
972
977
977
973
969
970
971
975
975
972
969
971
971
975
973
972
966
966
967
964
968
962
960
961
963
964
966
965
962
962
964
963
963
962
958
959
960
957
954
954
953
955
954
956
955
956
950
949
953
955
956
951
948
948
953
956
955
954
950
951
954
952
953
945
944
946
952
953
953
948
943
945
943
946
948
949
947
944
947
948
951
949
948
948
947
950
953
950
951
949
949
951
949
946
943
941
943
947
949
949
948
949
953
954
955
953
947
950
953
954
956
953
951
950
956
958
958
954
953
953
957
960
957
959
956
960
961
964
968
967
967
967
971
973
978
977
983
987
997
1005
1009
1016
1011
1002
997
998
1001
1001
996
990
988
986
980
978
975
970
968
969
968
967
964
965
961
955
949
945
947
947
947
947
944
947
959
993
1054
1132
1223
1296
1339
1366
1375
1357
1308
1223
1112
989
902
884
910
932
934
932
934
942
947
946
943
942
944
945
948
945
942
942
946
949
952
951
948
951
955
955
952
948
945
944
945
943
941
940
936
937
941
944
948
946
943
944
947
952
954
954
952
954
955
960
964
964
963
962
967
973
971
970
972
974
979
982
985
986
986
991
996
1004
1008
1010
1010
1015
1022
1027
1032
1036
1039
1047
1054
1065
1075
1079
1086
1091
1098
1110
1116
1118
1120
1123
1125
1130
1134
1129
1129
1131
1135
1134
1133
1129
1123
1124
1120
1116
1108
1097
1079
1073
1063
1062
1054
1041
1033
1028
1028
1027
1020
1013
1009
1009
1011
1011
1007
1004
999
996
996
997
996
992
988
986
987
987
983
981
980
975
978
979
978
978
975
977
975
978
976
976
975
977
979
983
986
985
982
981
983
986
987
989
990
992
995
1001
1001
999
996
1000
1004
1009
1013
1016
1017
1020
1029
1034
1039
1042
1045
1055
1075
1107
1140
1181
1223
1257
1270
1266
1252
1226
1202
1165
1111
1032
943
861
806
788
798
811
813
798
779
771
769
780
786
793
798
811
823
839
850
857
870
887
898
912
916
924
930
935
943
952
955
957
954
955
960
964
966
963
964
966
969
974
971
974
973
975
978
980
981
979
979
983
986
988
992
992
989
993
998
1005
1008
1012
1007
1012
1018
1022
