956
956
953
954
956
957
956
959
953
954
958
961
962
961
956
955
960
962
964
960
958
959
965
969
969
969
967
967
970
972
979
978
978
978
983
986
987
993
990
993
999
1004
1007
1010
1009
1011
1017
1022
1028
1032
1035
1038
1044
1053
1060
1067
1068
1073
1084
1090
1099
1106
1109
1116
1124
1134
1141
1144
1141
1149
1153
1159
1159
1157
1156
1155
1153
1151
1151
1143
1139
1132
1129
1124
1119
1111
1100
1094
1088
1084
1077
1069
1062
1056
1048
1047
1042
1036
1028
1026
1025
1024
1018
1013
1009
1007
1007
1006
1004
1003
999
999
998
998
998
995
995
993
996
997
998
999
997
997
999
1000
1003
1004
999
1000
1001
1004
1010
1007
1007
1006
1010
1014
1017
1015
1015
1018
1018
1019
1023
1023
1020
1019
1020
1019
1025
1025
1026
1030
1042
1055
1062
1070
1071
1074
1088
1105
1133
1167
1205
1245
1281
1287
1267
1237
1199
1159
1123
1074
1002
907
824
771
751
758
770
771
762
750
750
755
762
772
779
793
815
834
852
868
882
902
913
926
934
944
956
962
964
968
969
971
974
976
980
984
985
991
989
990
990
996
1001
999
1001
1001
1005
1009
1012
1013
1011
1011
1017
1025
1028
1027
1025
1029
1035
1040
1044
1048
1049
1056
1064
1072
1082
1087
1093
1103
1115
1126
1139
1141
1152
1165
1178
1190
1199
1206
1211
1219
1225
1237
1240
1243
1244
1245
1247
1252
1253
1249
1242
1238
1236
1234
1229
1219
1210
1200
1195
1189
1181
1169
1157
1148
1141
1135
1125
1111
1102
1095
1086
1082
1073
1068
1058
1051
1048
1045
1041
1031
1028
1027
1028
1028
1026
1021
1016
1012
1013
1018
1014
1012
1010
1011
1011
1012
1013
1010
1008
1006
1008
1011
1011
1006
1001
1000
1002
1006
1004
1003
1001
998
996
998
998
994
991
987
988
986
987
981
980
979
979
980
978
976
968
968
967
967
968
964
960
958
958
958
959
954
951
951
952
954
952
948
946
944
946
948
951
947
942
941
943
943
941
942
941
940
941
943
945
942
939
939
939
941
944
941
939
939
941
944
945
942
941
939
940
943
947
942
941
941
942
945
947
943
938
939
941
942
947
946
945
944
944
943
948
946
944
947
949
953
952
948
947
945
950
955
953
951
947
942
945
951
955
950
951
952
956
958
960
957
955
955
958
961
963
961
958
957
959
961
964
959
958
956
962
968
971
967
964
965
965
969
969
966
963
963
966
967
969
967
963
965
968
970
970
967
967
967
969
966
970
969
962
968
970
974
973
971
971
966
970
975
975
973
971
970
971
972
972
969
967
966
967
971
974
971
967
969
967
971
971
973
970
970
971
977
975
973
968
966
970
973
975
974
972
970
972
976
978
975
973
975
980
984
982
978
977
978
980
982
985
983
981
981
984
989
991
991
993
998
1001
1003
1005
1005
1007
1019
1031
1044
1054
1055
1048
1048
1047
1046
1041
1032
1028
1020
1019
1014
1009
1002
998
992
991
991
991
987
988
987
987
989
991
989
985
983
979
976
976
990
1020
1085
1180
1277
1359
1404
1431
1438
1427
1385
1291
1163
1035
919
897
933
963
965
960
958
967
970
972
969
965
962
966
968
971
970
967
963
967
969
970
967
966
967
969
971
974
973
969
968
972
973
975
970
971
973
975
978
980
978
976
977
980
982
983
982
982
982
986
986
989
990
990
993
999
1006
1009
1010
1008
1012
1019
1023
1027
1025
1028
1033
1037
1045
1050
1051
1054
1059
1063
1070
1078
1081
1084
1090
1098
1103
1106
1112
1116
1127
1133
1138
1140
1137
1137
1139
1143
1145
1146
1144
1139
1134
1132
1134
1129
1125
1118
1113
1110
1106
1103
1096
1085
1079
1079
1077
1071
1069
1062
1058
1056
1055
1051
1046
1042
1039
1038
1040
1038
1032
1028
1026
1027
1027
1028
1027
1023
1020
1022
1026
1025
1024
1021
1023
1028
1028
1027
1027
1024
1030
1033
1034
1037
1036
1037
1037
1040
1038
1042
1041
1037
1041
1045
1047
1048
1046
1045
1046
1049
1052
1051
1048
1044
1043
1043
1042
1040
1040
1036
1035
1036
1039
1036
1034
1027
1026
1026
1028
1028
1024
1019
1016
1019
1017
1020
1018
1014
1011
1010
1010
1009
1008
1008
1005
1008
1007
1007
1003
1004
1001
998
1003
1001
999
999
997
1000
1000
999
1001
995
994
995
998
994
990
987
988
990
991
990
987
986
987
985
988
991
989
987
985
985
987
990
989
985
983
983
986
988
987
985
983
983
986
988
985
983
982
985
985
986
987
986
985
985
985
987
987
982
982
984
989
992
990
986
988
990
989
990
990
992
993
997
1001
1003
1005
1006
1005
1008
1014
1020
1024
1029
1039
1045
1054
1059
1057
1056
1053
1058
1058
1052
1042
1029
1023
1019
1018
1010
1004
996
990
988
986
986
983
982
979
982
987
986
984
982
979
980
978
970
968
976
1001
1054
1138
1235
1324
1383
1422
1441
1438
1411
1350
1252
1126
998
906
888
916
942
951
948
952
958
961
961
959
959
960
960
958
956
950
952
955
957
954
952
955
954
958
955
956
953
955
955
957
958
957
953
955
959
960
962
958
960
957
960
965
963
964
961
964
964
969
972
973
970
971
975
977
979
979
982
985
991
994
994
996
993
991
997
1003
1009
1009
1013
1017
1023
1029
1033
1035
1038
1043
1054
1061
1067
1075
1078
1082
1088
1097
1105
1111
1116
1120
1128
1135
1135
1137
1136
1137
1138
1139
1136
1134
1132
1127
1119
1111
1100
1094
1087
1081
1076
1071
1064
1052
1050
1046
1040
1038
1033
1027
1019
1019
1013
1014
1011
1004
999
997
999
997
997
993
987
984
986
986
986
982
978
977
979
981
981
981
979
982
984
986
987
982
979
979
980
985
986
987
982
984
990
991
995
991
985
985
990
994
999
1000
997
1000
1001
1005
1007
1002
997
995
995
997
997
997
996
996
995
997
996
997
994
992
993
995
994
993
990
992
989
989
992
991
985
985
985
986
984
982
981
981
980
983
983
980
978
979
979
979
980
976
973
972
976
980
983
979
976
973
975
975
976
972
970
970
970
974
974
972
969
966
971
974
975
970
965
965
966
970
971
969
965
963
967
970
970
967
965
964
965
967
965
962
960
959
960
960
961
959
958
960
958
962
963
962
955
956
960
963
963
958
956
954
954
961
961
958
954
954
959
961
962
959
957
957
957
960
955
960
958
960
961
965
967
965
969
968
972
976
978
980
979
989
1001
1015
1021
1017
1013
1014
1016
1018
1015
1006
999
994
988
986
982
974
967
960
963
962
958
956
953
952
957
959
958
957
954
956
959
963
959
953
945
942
952
976
1016
1078
1165
1260
1338
1388
1412
1421
1404
1369
1304
1211
1091
969
879
861
890
919
928
925
924
930
939
946
947
944
944
943
943
945
947
946
946
946
949
951
948
946
943
945
946
952
954
953
952
952
952
949
952
956
953
955
959
960
960
959
959
958
963
964
963
967
966
968
973
976
975
972
967
970
976
980
983
984
979
983
992
995
997
996
994
1000
1008
1013
1011
1016
1018
1023
1028
1032
1038
1043
1046
1052
1059
1068
1073
1078
1079
1085
1092
1103
1109
1115
1116
1119
1124
1130
1133
1140
1137
1138
1140
1142
1141
1140
1135
1130
1126
1122
1118
1113
1105
1098
1093
1089
1083
1075
1064
1058
1056
1050
1045
1040
1032
1030
1026
1023
1018
1014
1009
1007
1004
1004
1004
995
991
990
988
986
985
987
983
980
979
981
979
978
973
971
975
979
977
975
975
975
979
986
985
983
981
986
990
992
996
993
991
994
1000
1003
1005
1006
1005
1007
1011
1013
1015
1014
1014
1016
1020
1021
1024
1020
1019
1020
1019
1026
1024
1017
1014
1011
1014
1013
1019
1018
1014
1009
1008
1010
1012
1005
1004
1003
1006
1010
1006
1002
1000
997
996
999
1004
1000
998
995
998
1001
997
997
993
992
991
992
991
990
989
989
991
991
991
989
988
986
986
988
987
988
983
982
984
985
984
981
978
982
982
985
984
984
980
980
982
985
986
983
979
981
982
985
982
980
979
979
979
982
984
981
977
979
981
984
985
982
977
979
980
984
983
983
980
982
981
987
987
988
990
993
996
1005
1007
1005
1000
1004
1007
1014
1023
1031
1040
1044
1046
1045
1039
1035
1031
1027
1027
1023
1019
1011
1001
993
991
991
985
982
976
973
975
979
980
980
977
975
978
981
981
975
973
967
963
963
973
988
1021
1090
1180
1275
1347
1393
1418
1418
1393
1348
1266
1155
1035
925
878
897
931
943
943
943
951
961
963
964
960
955
956
959
959
957
953
951
957
962
959
958
954
954
957
959
962
957
954
955
959
961
962
960
960
961
960
965
964
961
959
960
966
970
971
969
966
964
969
969
971
972
972
969
972
975
979
979
979
979
984
988
992
992
988
991
997
1005
1007
1009
1012
1012
1018
1025
1032
1033
1039
1044
1049
1057
1063
1069
1072
1077
1085
1092
1102
1107
1109
1115
1122
1128
1130
1131
1128
1131
1136
1139
1138
1133
1127
1121
1123
1121
1116
1108
1101
1095
1092
1087
1082
1074
1066
1058
1054
1050
1042
1034
1026
1025
1023
1022
1019
1012
1006
1005
1002
1002
998
998
996
989
989
988
990
987
983
978
977
977
979
978
974
972
974
977
976
974
970
972
975
977
978
976
973
971
973
978
980
981
976
979
984
987
989
988
988
989
990
992
994
992
991
997
997
1000
1011
1017
1021
1027
1035
1043
1047
1047
1055
1070
1098
1134
1171
1216
1255
1278
1281
1268
1245
1222
1190
1152
1086
1001
899
817
771
761
775
782
776
757
741
738
746
759
768
778
786
801
816
832
850
868
879
894
904
918
929
935
938
939
944
950
951
948
946
946
950
952
953
955
952
955
957
962
965
962
958
962
967
970
974
972
972
972
972
976
981
984
984
982
989
996
1003
1006
1005
1008
1013
1022
1027
1032
1038
1045
1057
1066
1078
1085
1089
1099
1113
1123
1133
1143
1150
1155
1164
1175
1184
1189
1189
1187
1195
1202
1203
1196
1194
1193
1191
1187
1182
1173
1165
1161
1153
1148
1142
1131
1120
1112
1106
1096
1089
1079
1069
1062
1056
1047
1041
1033
1023
1019
1016
1015
1012
1007
1000
995
995
997
995
992
987
986
983
985
985
986
981
979
981
981
982
981
978
978
980
981
979
978
974
976
980
979
982
982
979
978
979
979
981
979
978
977
982
983
981
978
974
971
976
975
978
973
970
968
969
971
970
966
961
961
961
961
963
957
956
955
957
958
960
955
950
950
951
952
953
947
947
942
944
948
949
948
941
939
944
945
947
944
940
940
940
943
941
941
939
936
937
940
941
939
936
936
936
940
939
939
936
936
936
939
940
938
931
932
935
936
938
937
933
931
938
943
940
939
934
936
938
940
941
939
936
937
938
944
944
943
937
932
938
941
944
942
937
936
940
946
945
942
940
938
940
942
944
945
942
942
944
947
948
944
943
944
946
946
943
943
945
944
947
948
948
946
943
943
941
945
948
947
947
944
947
949
952
949
947
947
945
949
951
950
947
947
948
951
953
950
948
948
951
950
952
952
950
951
952
954
954
954
948
946
950
953
953
952
952
952
954
957
954
955
951
954
956
955
958
954
954
953
955
959
959
959
955
954
955
958
958
959
953
955
958
959
961
960
959
957
956
963
964
961
958
959
962
968
967
967
962
963
965
967
968
967
968
967
971
975
978
977
980
982
989
992
995
994
995
1001
1016
1032
1041
1042
1033
1025
1018
1017
1017
1017
1010
1004
999
995
989
981
976
975
972
973
973
969
967
968
969
973
976
972
965
966
961
962
960
968
994
1049
1145
1247
1331
1385
1415
1427
1414
1370
1289
1169
1041
918
873
900
940
950
943
942
950
954
954
951
945
942
941
946
947
945
945
945
949
948
949
945
943
943
944
949
947
944
944
941
946
951
951
950
946
947
950
954
955
953
949
950
957
960
959
958
956
958
963
965
968
965
965
964
973
975
978
978
980
983
988
991
996
997
1000
1005
1012
1018
1024
1025
1027
1032
1040
1046
1051
1057
1062
1066
1074
1080
1087
1091
1090
1094
1101
1103
1106
1108
1108
1109
1110
1107
1107
1104
1100
1099
1095
1096
1091
1085
1078
1072
1069
1066
1063
1051
1047
1041
1039
1041
1036
1030
1023
1016
1014
1013
1011
1011
1005
999
1000
1000
1000
996
992
989
991
992
992
991
989
990
988
991
990
989
986
984
985
989
992
990
990
986
988
991
996
997
994
993
995
997
998
997
995
996
1002
1006
1011
1011
1013
1010
1007
1005
1000
995
993
994
995
999
1002
1002
997
994
993
992
991
986
986
988
990
992
991
985
975
972
975
973
976
968
968
966
971
976
975
969
963
963
964
966
963
961
959
960
968
972
974
968
956
951
953
956
954
951
947
947
955
959
956
950
946
948
948
954
957
959
956
952
951
953
951
945
939
935
939
943
943
943
939
939
937
943
943
938
935
937
939
941
942
941
941
943
946
950
950
950
947
950
951
951
941
934
929
931
937
947
949
946
939
939
941
944
942
941
942
944
947
951
949
947
947
945
949
950
954
953
951
954
957
961
963
967
968
969
976
982
985
994
1003
1015
1023
1025
1024
1018
1012
1004
1005
1001
990
979
967
967
964
959
955
949
948
948
952
956
960
958
953
951
957
967
968
958
946
937
936
943
965
1007
1080
1182
1279
1349
1390
1406
1395
1357
1292
1192
1072
950
870
863
895
922
925
928
926
927
930
941
941
937
931
931
935
936
935
934
935
938
941
940
934
934
935
936
942
945
946
944
941
946
947
951
947
941
940
943
947
948
949
946
946
946
951
950
952
951
954
954
956
958
961
962
959
961
966
972
974
980
981
982
987
983
986
987
989
993
998
1003
1009
1010
1013
1017
1026
1037
1045
1049
1050
1055
1062
1072
1079
1084
1085
1092
1104
1112
1119
1117
1115
1115
1118
1120
1123
1119
1109
1100
1102
1102
1098
1092
1081
1076
1071
1070
1063
1053
1046
1038
1031
1027
1023
1017
1011
1004
1002
1003
1000
997
990
991
990
984
982
980
976
974
974
974
973
970
966
965
968
969
975
976
968
963
960
960
962
962
961
960
965
968
970
971
971
968
972
975
974
971
970
971
977
980
980
980
978
979
980
985
988
985
987
985
986
989
990
987
982
979
980
983
983
978
977
976
978
981
981
979
975
973
975
975
977
974
973
969
972
973
972
971
971
969
969
971
971
969
967
966
968
970
971
968
964
958
958
963
961
960
959
956
958
963
962
961
959
957
961
962
968
966
957
954
953
957
958
958
957
957
961
960
959
961
959
956
955
957
960
960
959
950
950
952
955
953
951
951
949
951
951
950
951
952
954
956
958
957
954
955
956
958
957
952
951
953
955
960
958
958
957
955
956
955
951
953
953
955
959
960
959
962
964
967
972
973
975
973
975
977
988
1002
1014
1020
1015
1009
1005
1002
1004
1001
998
991
986
983
984
978
973
967
963
962
962
965
963
958
960
960
958
953
947
947
949
952
948
941
934
932
946
972
1021
1100
1194
1287
1359
1404
1424
1411
1374
1301
1195
1074
950
875
868
900
924
935
933
933
933
934
935
938
936
936
935
932
930
931
934
937
934
932
937
939
937
937
936
938
939
940
944
941
938
937
942
944
945
947
946
945
944
946
950
952
951
946
946
949
953
950
951
953
958
962
963
962
960
962
968
970
975
973
974
975
981
985
992
994
993
994
993
1000
1007
1010
1016
1020
1025
1034
1035
1040
1041
1049
1057
1065
1075
1078
1081
1084
1094
1102
1106
1107
1106
1109
1107
1117
1117
1116
1113
1111
1107
1106
1103
1095
1088
1081
1078
1076
1072
1065
1058
1049
1042
1038
1037
1031
1022
1016
1011
1011
1013
1009
1002
997
990
988
982
982
979
977
977
979
978
973
964
962
962
963
965
962
959
958
958
964
964
964
961
960
962
962
963
962
961
961
965
970
973
974
972
975
977
979
978
974
976
978
979
984
983
983
980
977
984
989
991
991
988
987
988
992
992
985
988
984
984
988
986
981
980
979
980
986
985
981
978
978
982
983
982
979
975
970
970
974
973
975
972
971
971
975
972
971
967
965
965
969
967
967
966
965
964
967
965
964
963
961
963
966
966
964
962
963
963
967
967
964
960
959
963
965
966
963
958
962
964
965
965
964
962
961
963
964
966
965
959
958
960
963
963
960
960
956
959
961
962
961
961
957
961
963
964
959
960
960
960
963
962
963
958
958
960
960
963
960
960
959
958
959
961
960
959
958
957
962
962
961
962
962
965
971
968
968
972
974
979
981
985
986
985
993
1007
1024
1030
1025
1019
1010
1010
1009
1008
1005
998
994
987
986
982
977
970
965
966
969
967
963
965
964
965
967
967
965
961
963
964
958
955
945
938
949
976
1032
1118
1216
1302
1364
1405
1428
1429
1401
1351
1269
1157
1040
925
865
875
912
933
937
937
939
942
944
948
951
950
947
945
945
945
947
944
943
941
942
943
947
946
946
942
941
946
947
950
947
946
945
948
951
953
950
947
946
951
955
956
957
952
953
955
961
961
961
958
958
963
964
966
965
966
967
970
975
979
979
979
979
986
991
995
999
998
1000
1006
1010
1014
1014
1015
1021
1027
1036
1042
1048
1053
1055
1064
1073
1079
1085
1091
1099
1106
1113
1120
1124
1124
1129
1131
1139
1139
1141
1138
1134
1134
1133
1133
1127
1119
1113
1110
1108
1099
1093
1086
1078
1073
1070
1062
1055
1046
1037
1033
1031
1024
1021
1015
1011
1007
1005
1002
997
989
987
986
989
988
985
984
985
984
986
986
982
976
975
970
969
967
969
968
967
969
968
971
969
970
970
973
977
978
977
976
974
976
980
981
982
983
985
987
987
993
991
988
986
990
994
993
992
989
990
996
998
997
992
988
987
987
990
990
988
983
981
980
984
985
983
977
979
980
981
982
980
976
974
974
975
974
972
969
967
966
970
973
971
968
966
965
970
966
963
962
963
966
966
963
963
960
961
963
961
967
961
960
957
957
962
962
961
958
958
959
961
960
960
957
959
960
960
961
959
955
954
956
958
958
959
957
958
959
958
960
958
954
948
949
956
