958
960
960
958
957
956
953
952
956
959
960
960
958
955
956
954
959
959
956
953
954
953
955
957
960
962
963
967
969
973
973
971
977
986
990
993
998
1004
1010
1016
1018
1016
1013
1016
1014
1020
1023
1023
1016
1005
992
986
983
977
975
967
962
959
961
957
956
955
958
960
958
950
942
939
940
949
950
947
940
935
937
951
974
1021
1091
1173
1256
1318
1361
1390
1393
1373
1329
1258
1166
1057
946
875
869
903
927
931
927
928
931
934
937
932
926
921
916
924
927
926
923
921
919
923
927
929
926
924
925
927
930
929
931
927
925
929
932
931
931
927
928
931
936
937
935
929
931
930
939
941
939
939
943
945
947
946
944
940
946
951
954
956
954
954
953
957
962
965
966
968
968
975
980
981
982
984
988
997
1002
1008
1007
1007
1011
1020
1024
1029
1032
1034
1039
1049
1057
1059
1061
1061
1063
1066
1074
1073
1073
1068
1065
1070
1068
1064
1058
1051
1047
1045
1041
1039
1034
1025
1022
1018
1017
1012
1004
996
990
991
990
987
982
977
975
974
972
968
965
961
962
960
960
959
957
954
952
956
959
957
953
950
950
954
957
955
954
951
954
958
961
962
959
957
957
959
960
960
964
963
964
962
967
966
966
964
963
964
969
972
971
967
967
970
972
974
971
972
971
972
975
972
971
968
968
970
971
969
968
963
963
966
965
967
963
962
961
963
965
964
959
955
956
958
964
964
958
957
956
958
963
959
954
946
941
939
942
943
942
940
940
940
942
946
945
941
938
940
943
944
943
938
938
938
942
942
937
934
935
939
941
942
942
936
934
935
938
942
939
938
937
940
939
939
935
932
932
932
935
933
932
930
932
935
935
935
933
928
925
929
933
933
936
936
940
945
953
953
952
959
972
985
994
995
997
998
999
1000
999
994
988
975
966
959
954
948
940
929
924
925
928
929
927
922
923
925
928
926
923
921
917
913
907
895
891
898
929
989
1078
1181
1270
1336
1378
1400
1402
1373
1313
1223
1102
979
887
858
878
899
902
901
903
905
907
906
902
904
906
901
901
898
898
899
901
899
900
896
896
899
904
902
900
897
898
900
899
900
898
898
897
901
905
906
905
902
903
905
909
909
909
908
907
913
916
917
918
918
916
919
925
925
923
925
925
927
930
927
928
928
929
933
939
940
941
942
943
949
956
959
959
963
967
974
983
982
984
986
990
996
1004
1010
1013
1010
1012
1013
1022
1023
1022
1017
1018
1022
1021
1020
1018
1012
1011
1009
1011
1003
993
983
977
978
979
976
967
961
956
956
960
958
952
944
941
942
942
940
939
936
931
934
934
932
930
923
924
928
931
928
927
928
930
932
936
934
930
927
929
932
936
936
933
928
929
929
936
938
936
936
935
941
942
943
946
944
946
947
951
951
949
944
945
950
953
951
949
945
946
947
948
952
947
944
947
948
952
951
951
949
948
948
953
953
946
944
943
945
946
947
944
944
942
941
945
945
942
939
939
941
946
944
942
938
939
940
939
942
943
943
943
944
945
943
941
935
937
939
943
941
941
939
937
941
946
945
941
937
937
943
944
945
945
941
940
942
941
942
941
940
939
941
944
944
946
945
946
943
945
945
944
940
943
950
958
958
959
962
968
982
997
1003
1003
999
995
1001
1001
1002
998
986
978
967
961
959
953
946
937
937
939
940
940
939
934
934
937
937
939
934
934
934
931
925
922
934
965
1029
1122
1223
1298
1344
1367
1368
1344
1276
1172
1044
920
861
870
900
910
904
902
910
920
922
923
917
919
923
928
926
918
912
916
918
926
926
927
926
923
928
929
928
929
927
923
923
928
925
925
924
927
931
936
936
937
936
937
940
942
942
939
938
944
950
954
954
955
954
954
964
972
973
971
977
977
979
978
975
974
980
986
993
997
1003
1008
1008
1013
1022
1031
1037
1040
1042
1044
1047
1056
1059
1058
1057
1058
1060
1067
1066
1064
1063
1064
1065
1066
1058
1051
1051
1048
1046
1040
1040
1039
1033
1024
1010
1007
995
990
987
985
988
992
993
995
993
995
995
997
996
990
987
987
989
989
983
978
971
972
975
981
979
975
973
978
986
992
994
990
987
989
995
1006
1008
1004
998
999
1000
1002
1004
1006
1013
1017
1018
1017
1009
1011
1015
1020
1025
1027
1023
1017
1014
1008
1005
1011
1014
1016
1012
1007
1009
1015
1015
1015
1014
1017
1018
1016
1010
1002
998
1002
1010
1016
1015
1001
997
999
1005
1012
1015
1010
1002
999
1002
1005
1004
1000
994
992
995
995
996
994
993
993
997
1000
994
996
997
992
990
999
1003
1002
994
992
992
994
994
990
988
988
993
996
999
997
989
984
992
995
992
989
983
988
993
1004
1003
1000
1001
1010
1010
1010
1015
1022
1030
1038
1048
1051
1050
1047
1047
1049
1053
1057
1054
1048
1030
1020
1014
1016
1013
1003
993
995
999
1002
1001
993
991
994
995
994
995
991
986
988
986
985
982
991
1024
1086
1172
1265
1343
1388
1408
1410
1396
1353
1267
1146
1018
918
895
929
963
971
962
964
971
982
990
989
990
989
982
973
967
968
975
981
984
990
987
981
984
979
973
974
984
989
986
989
990
986
982
977
981
991
994
992
987
981
985
993
999
1001
994
983
980
992
1000
1003
1002
1003
1002
1009
1014
1022
1019
1014
1009
1015
1026
1025
1022
1024
1030
1039
1047
1050
1050
1048
1054
1060
1070
1085
1093
1096
1095
1096
1099
1110
1113
1111
1107
1109
1120
1132
1125
1113
1112
1125
1131
1123
1110
1105
1100
1099
1099
1097
1093
1088
1080
1072
1065
1063
1064
1061
1049
1029
1025
1039
1039
1030
1022
1013
1006
1014
1023
1018
1009
999
989
989
990
995
998
990
990
993
996
992
986
985
981
983
988
996
994
992
990
979
978
989
999
998
996
998
997
997
996
996
1001
1003
1006
1007
1005
1003
1002
1007
1011
1008
1000
999
1005
1009
1012
1006
1000
998
999
1000
1002
1004
1001
1004
1003
1000
992
993
991
993
998
999
995
989
986
982
981
984
986
985
982
983
984
983
986
979
973
974
981
988
984
978
975
977
981
986
985
985
982
980
980
980
979
975
973
972
973
974
978
981
979
977
980
985
979
980
981
987
993
996
994
1001
1008
1019
1029
1031
1026
1027
1032
1029
1029
1027
1028
1026
1015
1002
999
998
992
985
976
971
970
967
965
964
960
960
958
962
965
963
960
956
958
958
961
958
959
978
1009
1060
1134
1220
1302
1348
1372
1374
1363
1333
1267
1158
1030
912
853
857
889
916
921
919
925
935
935
940
946
948
949
942
938
937
940
946
951
952
948
945
945
946
951
950
946
943
944
951
951
951
948
946
951
952
955
957
952
954
956
961
962
962
961
959
963
970
973
974
971
971
973
976
978
976
973
978
982
991
998
1000
1002
1002
1006
1018
1020
1023
1024
1026
1035
1043
1045
1049
1052
1059
1068
1073
1079
1078
1080
1084
1094
1098
1101
1096
1099
1102
1103
1103
1100
1096
1091
1086
1087
1084
1075
1067
1056
1052
1047
1045
1040
1033
1027
1024
1023
1023
1022
1015
1008
1001
1002
1000
998
993
987
981
979
976
978
973
966
960
967
974
976
978
975
977
979
979
980
977
975
973
975
978
978
978
977
979
983
990
989
988
985
986
991
996
999
998
995
996
1000
1004
1004
999
993
991
992
977
965
961
969
987
1012
1020
1011
1001
995
995
1001
1008
1004
997
987
981
984
989
985
980
974
972
973
977
973
966
961
962
964
970
974
973
967
962
964
963
960
955
949
948
949
957
969
978
980
980
983
985
986
987
989
995
1002
1011
1015
1015
1012
1009
1012
1014
1014
1013
1012
1004
1004
996
989
980
973
967
962
965
960
949
945
940
942
951
949
948
942
941
942
945
946
942
944
942
947
948
949
953
962
984
1022
1080
1155
1230
1285
1322
1332
1326
1300
1259
1184
1076
968
878
834
845
870
890
895
900
903
907
912
920
923
925
921
917
915
916
916
918
922
922
920
920
920
925
932
930
928
928
930
933
934
929
929
926
929
932
934
937
936
935
938
939
942
942
940
943
947
948
947
946
946
947
953
958
958
958
953
953
960
967
970
969
966
970
975
981
983
981
982
985
990
1001
1002
1005
1006
1009
1016
1024
1030
1034
1037
1040
1045
1052
1059
1060
1065
1069
1076
1082
1082
1079
1074
1079
1083
1083
1079
1076
1073
1070
1070
1067
1065
1052
1048
1042
1037
1035
1030
1020
1013
1011
1008
1008
1003
998
993
986
985
984
982
977
975
969
971
976
974
965
959
957
956
957
956
955
953
953
957
958
953
949
947
948
945
947
949
947
948
945
947
947
954
953
948
951
959
961
961
957
959
963
966
969
971
968
971
968
969
973
974
976
978
981
982
985
982
979
977
976
978
983
982
981
974
977
980
983
984
979
975
974
973
976
975
972
971
972
977
976
973
968
967
968
971
974
971
966
964
964
969
970
966
961
959
955
960
961
961
960
960
961
963
966
970
967
967
969
973
980
984
985
987
993
1002
1014
1017
1015
1010
1013
1014
1016
1016
1013
1009
1004
1002
998
988
981
975
971
969
966
961
953
950
948
951
954
953
951
945
946
948
951
952
952
951
955
951
946
940
938
950
977
1027
1100
1185
1258
1310
1340
1358
1360
1332
1278
1196
1089
983
897
856
879
910
931
936
935
936
934
935
937
933
933
934
929
928
933
934
936
936
932
929
930
927
930
927
924
929
937
942
943
935
926
925
926
933
937
937
936
933
935
936
943
941
938
938
939
941
942
947
946
950
951
952
955
958
953
947
945
946
955
966
971
977
978
975
973
973
982
990
995
1001
1002
1002
1002
1007
1015
1025
1030
1029
1028
1027
1027
1038
1049
1057
1059
1058
1065
1072
1080
1083
1077
1077
1081
1086
1092
1088
1089
1086
1087
1089
1086
1076
1067
1063
1067
1070
1072
1066
1056
1046
1044
1045
1043
1039
1030
1022
1019
1016
1017
1012
1010
1005
1003
1001
999
992
989
992
989
988
991
990
986
983
982
982
984
983
981
978
977
979
984
983
978
971
974
978
980
980
979
972
974
979
983
981
980
980
981
982
984
985
984
985
987
991
991
992
990
988
987
989
990
990
990
987
985
988
990
988
990
992
994
998
1000
996
995
995
996
1000
1000
999
999
998
996
1001
1003
995
996
995
997
993
992
989
988
987
990
992
994
991
988
985
986
989
991
990
986
983
980
983
986
986
980
978
979
983
987
986
982
982
979
983
988
991
992
992
993
998
1003
1008
1018
1024
1029
1031
1035
1034
1032
1029
1028
1031
1033
1031
1020
1008
998
994
993
990
982
974
971
969
969
964
959
960
960
959
961
961
961
962
959
964
963
963
959
956
958
968
988
1025
1081
1153
1229
1292
1325
1333
1332
1313
1272
1203
1104
986
892
857
879
919
936
929
928
931
933
938
940
939
939
936
937
939
943
943
939
938
936
939
943
944
941
942
942
943
943
940
944
945
946
945
941
947
949
950
951
954
956
958
956
953
954
956
958
957
959
960
963
966
968
971
970
971
973
977
978
983
985
988
989
987
991
996
1002
1000
1002
1009
1010
1018
1021
1025
1031
1040
1047
1052
1049
1047
1055
1063
1072
1076
1083
1084
1084
1083
1081
1080
1082
1096
1101
1102
1095
1088
1082
1079
1082
1082
1077
1069
1063
1057
1055
1055
1052
1049
1038
1028
1024
1023
1022
1019
1020
1017
1012
1009
1002
1001
1003
1004
1003
1003
1001
997
997
990
987
985
987
991
985
981
975
977
982
984
982
980
979
981
984
984
985
982
985
985
989
988
985
985
985
988
987
986
981
983
984
985
988
990
989
984
987
989
991
985
982
984
991
992
994
993
993
991
993
1002
1010
1015
1016
1012
1018
1022
1027
1032
1044
1062
1092
1129
1171
1221
1262
1287
1303
1312
1317
1311
1290
1248
1173
1073
984
918
885
881
889
896
887
870
855
844
839
838
844
849
853
860
872
887
900
912
919
926
931
934
938
943
945
952
952
952
949
944
938
937
938
941
942
943
941
939
940
943
945
945
941
940
937
934
940
940
940
939
938
939
941
938
935
930
927
934
940
942
936
934
936
938
940
942
941
940
947
951
956
957
957
958
960
969
975
983
988
993
999
1006
1013
1022
1029
1037
1041
1048
1057
1062
1061
1061
1065
1071
1075
1079
1077
1075
1075
1076
1078
1075
1075
1073
1070
1071
1073
1067
1061
1055
1054
1055
1052
1048
1046
1044
1039
1037
1036
1032
1030
1028
1025
1027
1024
1020
1018
1016
1017
1020
1024
1026
1023
1020
1023
1029
1037
1047
1057
1066
1077
1091
1107
1131
1148
1170
1196
1222
1245
1271
1284
1300
1316
1326
1322
1301
1275
1256
1249
1250
1258
1277
1288
1279
1245
1205
1153
1097
1045
997
964
952
950
945
931
920
912
912
911
901
890
882
875
876
876
874
875
870
866
863
864
864
860
860
864
863
869
868
862
860
862
865
869
866
861
858
852
851
853
851
849
842
841
842
842
839
835
831
828
830
832
831
827
824
821
823
825
829
827
825
822
826
829
831
834
835
841
849
852
855
860
864
870
878
882
888
894
902
906
913
917
921
924
927
931
940
946
952
955
954
957
959
963
966
965
968
967
964
970
974
975
970
973
975
978
980
979
975
973
977
985
987
983
981
983
987
990
988
987
984
984
986
987
990
987
984
985
989
987
990
991
988
985
988
990
988
984
985
985
985
984
984
980
975
976
978
981
980
976
972
972
975
978
978
976
973
972
974
975
974
975
973
972
974
976
975
971
967
964
966
967
967
967
965
963
963
967
965
960
958
958
957
968
971
972
969
968
971
976
978
972
969
968
972
974
974
970
967
969
972
976
975
968
963
964
968
974
972
970
967
964
968
972
973
970
966
967
969
969
970
969
967
968
970
973
972
972
968
971
972
976
975
972
970
966
969
974
974
972
969
969
969
975
975
972
971
970
971
974
975
971
972
970
974
974
975
971
970
969
971
971
973
970
969
970
974
976
974
971
969
968
974
977
978
976
973
973
975
979
978
977
969
970
976
978
978
981
977
976
976
981
979
977
976
975
979
983
983
980
977
977
984
987
988
984
977
978
984
989
988
984
981
982
983
985
985
981
982
987
988
989
989
990
984
988
987
992
990
988
989
990
992
1000
1000
1001
1004
1009
1012
1015
1025
1033
1035
1044
1049
1051
1049
1046
1046
1047
1048
1053
1046
1034
1023
1020
1017
1015
1011
1007
1000
998
997
998
1001
999
995
995
998
1002
1001
1000
1000
1004
1017
1041
1081
1137
1205
1258
1291
1299
1291
1273
1239
1178
1092
1006
933
906
921
957
975
977
978
976
981
983
985
986
985
982
983
980
981
986
991
989
985
984
983
989
989
986
982
985
988
989
988
987
981
981
985
993
995
994
989
989
994
1000
999
998
995
997
1000
1005
1005
1003
1002
1005
1009
1013
1013
1012
1014
1014
1016
1022
1026
1028
1028
1031
1032
1040
1041
1042
1040
1039
1049
1053
1057
1061
1065
1066
1069
1076
1079
1085
1088
1087
1092
1097
1103
1105
1103
1106
1107
1112
1112
1110
1106
1106
1108
1112
1107
1104
1100
1101
1103
1103
1098
1095
1091
1086
1084
1083
1078
1073
1068
1065
1063
1064
1058
1051
1048
1042
1043
1039
1036
1031
1028
1034
1037
1038
1033
1031
1030
1029
1034
1037
1037
1034
1030
1030
1034
1038
1038
1036
1034
1035
1038
1042
1041
1039
1036
1037
1038
1042
1046
1045
1041
1044
1047
1049
1048
1047
1043
1047
1055
1063
1072
1077
1076
1082
1086
1095
1110
1132
1156
1189
1219
1232
1227
1213
1192
1167
1138
1095
1022
928
841
784
770
783
803
815
821
822
820
820
818
819
817
826
843
860
870
875
877
885
902
913
921
926
931
936
942
950
952
953
953
958
963
972
974
972
972
970
971
979
981
976
972
977
983
979
974
976
980
983
981
985
990
990
990
984
988
996
1000
1003
1001
1000
1003
1006
1008
1011
1014
1022
1031
1036
1041
1045
1051
1055
1067
1075
1087
1092
1095
1099
1109
1119
1124
1128
1129
1129
1135
1144
1148
1146
1143
1140
1140
1136
1131
1127
1122
1124
1123
1121
1114
1102
1094
1092
1094
1097
1093
1084
1073
1072
1070
1068
1065
1061
1060
1056
1054
1053
1048
1045
1039
1037
1037
1036
1035
1031
1026
1025
1026
1032
1030
1027
1022
1018
1023
1023
1019
1017
1015
1015
1016
1018
1021
1020
1019
1016
1017
1018
1017
1011
1008
1007
1011
1015
1012
1006
1002
1004
1005
1007
1006
998
996
992
993
995
996
994
992
990
990
990
989
987
985
985
987
989
987
982
977
974
977
979
981
984
984
982
979
977
974
971
967
968
967
971
977
980
979
976
977
975
972
970
966
972
975
978
976
969
964
965
967
970
972
971
972
973
976
980
973
971
972
973
976
974
968
963
959
965
969
967
967
968
969
972
972
975
972
974
973
972
976
978
974
970
970
970
974
976
978
975
972
975
973
973
976
977
972
972
976
978
978
976
973
972
975
979
976
977
981
980
979
985
983
982
979
978
980
980
983
982
981
982
980
986
988
985
984
985
986
989
987
991
990
989
995
1001
1003
1005
1006
1007
1011
1022
1032
1039
1041
1043
1039
1042
1040
1041
1038
1038
1036
1033
1024
1018
1011
1005
1004
1004
996
990
982
983
987
990
991
987
990
990
992
996
995
989
987
1000
1025
1070
1135
1208
1269
1314
1339
1352
1346
1317
1263
1173
1069
966
903
896
918
939
949
952
956
954
959
960
968
969
966
966
964
965
967
969
969
966
966
968
969
973
972
968
968
966
966
973
973
975
971
971
973
973
972
972
971
969
973
976
979
978
973
977
979
984
984
983
979
981
986
992
990
992
989
992
994
1002
1004
1002
1001
1002
1005
1015
1014
1014
1016
1018
1021
1026
1028
1031
1030
1035
1039
1044
1046
1046
1044
1048
1049
1054
1057
1057
1058
1063
1066
1068
1065
1065
1066
1067
1068
1068
1067
1061
1057
1058
1057
1057
1057
1051
1048
1044
1043
1042
1039
1033
1028
1027
1032
1034
1030
1023
1017
1014
1011
1017
1017
1016
1013
1010
1013
1016
1014
1010
1007
1003
1005
1014
1017
1017
1013
1011
1010
1012
1015
1019
1023
1023
1026
1028
1030
