1056
1052
1052
1052
1050
1052
1046
1045
1044
1044
1045
1042
1039
1034
1031
1032
1030
1029
1024
1020
1019
1022
1021
1019
1016
1012
1011
1012
1013
1010
1008
1005
1006
1007
1010
1008
1007
1003
1003
1005
1008
1006
1006
1004
1006
1004
1010
1009
1008
1005
1008
1008
1011
1009
1010
1007
1009
1010
1014
1012
1011
1010
1010
1011
1012
1014
1010
1009
1010
1009
1013
1014
1011
1008
1004
1008
1010
1010
1008
1000
1002
1002
1004
1002
1000
996
994
997
999
1000
996
992
995
995
995
995
988
982
978
981
981
982
981
978
979
977
981
977
977
974
974
975
978
978
977
972
972
973
977
974
972
967
971
970
973
975
971
971
970
970
972
973
970
970
967
969
973
974
973
968
963
967
969
970
969
965
966
970
971
973
970
967
968
969
972
973
970
967
964
968
971
968
966
965
967
965
967
966
966
960
960
964
967
967
966
962
964
965
969
970
968
964
964
969
971
970
968
965
967
966
972
971
969
967
967
971
974
972
971
970
968
972
972
972
970
971
973
976
980
980
979
973
970
975
984
985
984
983
983
988
989
992
994
995
996
1005
1011
1016
1016
1012
1012
1013
1017
1013
1008
1008
1005
1005
1003
1003
997
993
990
991
995
993
992
990
993
993
995
996
996
994
997
998
1004
1003
1001
1003
1007
1020
1041
1066
1096
1128
1158
1186
1204
1212
1209
1199
1180
1150
1114
1068
1025
995
984
986
986
983
976
974
975
977
980
978
975
973
971
972
975
974
971
969
968
972
973
973
970
968
966
969
974
972
973
971
970
969
972
974
968
965
964
969
974
975
975
972
972
977
979
981
980
977
976
981
985
986
987
981
983
984
989
992
992
991
995
995
1002
1005
1002
1005
1007
1011
1017
1022
1020
1023
1026
1028
1035
1036
1040
1041
1043
1050
1055
1060
1060
1060
1062
1067
1071
1072
1069
1070
1068
1077
1080
1079
1075
1072
1073
1076
1076
1072
1064
1062
1058
1054
1057
1056
1045
1042
1033
1034
1033
1031
1027
1016
1015
1015
1016
1014
1008
1001
998
1002
1002
1002
1001
998
997
998
999
997
995
989
988
989
995
992
986
984
984
983
989
990
989
989
989
993
996
997
995
991
992
992
995
995
995
994
993
997
998
998
997
994
993
994
1001
1003
1006
1002
1003
1005
1005
1002
997
995
995
1000
999
999
999
996
998
1000
1002
1003
1001
996
996
997
999
999
994
987
985
988
993
993
997
992
991
990
995
992
992
989
988
990
990
990
990
980
976
977
983
985
986
984
982
982
984
982
984
978
981
982
985
982
978
976
974
976
982
981
979
977
972
974
976
978
974
970
970
969
974
975
975
970
971
973
976
977
976
974
971
975
977
973
970
971
970
972
973
977
976
974
970
971
972
970
971
966
967
968
970
968
967
967
971
974
975
973
973
976
978
982
990
988
991
991
990
993
998
1002
1004
1005
1007
1011
1016
1015
1012
1006
1005
1003
1001
1000
996
995
991
990
991
992
990
987
984
984
989
990
991
993
995
1001
1004
1006
1005
1000
1008
1020
1038
1062
1087
1115
1141
1162
1172
1171
1160
1139
1106
1069
1032
1003
981
979
979
979
980
978
977
973
971
972
974
975
972
968
969
970
971
972
970
966
965
968
971
966
968
964
963
963
969
967
970
969
967
969
970
969
966
965
966
969
975
975
976
972
971
976
981
981
982
980
980
985
989
992
992
991
993
997
1001
1004
1000
1001
1002
1011
1015
1015
1019
1018
1021
1025
1028
1028
1032
1034
1039
1041
1049
1051
1053
1053
1053
1057
1062
1067
1066
1064
1066
1070
1073
1076
1073
1067
1066
1065
1066
1066
1059
1055
1054
1054
1054
1051
1042
1039
1035
1032
1035
1031
1027
1020
1018
1014
1015
1014
1012
1007
1006
1003
1003
1004
1000
995
995
995
995
995
992
989
986
988
991
993
990
989
988
989
990
990
991
991
989
993
994
995
993
992
991
990
993
993
993
992
990
993
998
996
997
994
995
994
997
998
998
997
998
999
1003
1001
998
997
998
999
999
1000
996
995
994
991
993
995
991
989
988
991
990
991
990
981
984
985
987
988
985
982
983
984
986
983
979
977
978
980
980
980
975
975
976
978
979
982
976
975
973
976
975
976
974
972
970
972
976
977
975
974
971
974
977
975
973
972
971
975
976
975
971
970
972
974
974
975
972
970
971
977
978
977
974
972
972
974
978
977
975
972
969
976
975
975
971
968
969
973
977
975
975
973
970
976
976
979
976
975
972
976
976
978
975
974
974
977
981
980
978
976
975
979
979
980
977
976
977
980
978
980
981
982
983
986
990
993
996
992
994
1001
1008
1013
1016
1018
1019
1019
1018
1014
1013
1009
1007
1008
1007
1005
1000
996
992
993
993
993
990
987
986
989
992
991
991
990
991
995
999
1002
1002
1001
1001
1010
1023
1038
1057
1086
1119
1150
1171
1182
1186
1176
1157
1133
1096
1056
1015
987
976
980
985
983
979
975
972
973
974
977
975
968
967
970
972
969
968
963
965
965
968
970
967
965
963
966
965
967
962
963
960
965
969
967
966
966
964
965
970
969
969
969
966
970
971
975
974
972
973
972
979
982
980
978
980
983
987
989
987
986
988
992
1000
1004
1005
1006
1006
1010
1019
1015
1020
1018
1020
1028
1032
1038
1040
1041
1045
1047
1055
1056
1059
1057
1061
1066
1070
1073
1072
1069
1069
1072
1078
1076
1071
1070
1068
1067
1066
1064
1060
1052
1049
1047
1045
1044
1039
1032
1029
1026
1027
1023
1018
1013
1007
1008
1012
1008
1003
999
997
998
1000
1000
995
991
988
988
991
986
986
983
982
983
986
984
982
980
980
978
981
983
978
974
975
978
981
981
980
978
979
981
984
982
983
981
979
983
985
985
984
978
985
988
988
989
991
988
990
995
1001
1002
1003
1002
1005
1007
1015
1021
1023
1024
1031
1037
1048
1054
1061
1060
1056
1045
1028
1008
992
972
958
942
921
896
872
853
844
846
851
851
847
840
838
841
848
850
850
858
863
873
882
892
897
902
907
915
925
930
935
936
941
946
952
956
956
955
957
962
968
969
972
971
972
974
978
982
979
980
984
986
991
994
996
995
996
1001
1005
1007
1007
1007
1010
1013
1020
1022
1021
1023
1027
1034
1039
1041
1045
1046
1052
1062
1067
1074
1079
1080
1086
1092
1096
1104
1109
1109
1115
1121
1127
1129
1130
1131
1132
1134
1141
1137
1139
1136
1132
1133
1131
1126
1121
1118
1113
1112
1112
1106
1100
1093
1086
1084
1084
1079
1071
1061
1053
1051
1053
1049
1045
1035
1031
1031
1032
1030
1026
1020
1015
1014
1014
1015
1013
1006
1006
1008
1011
1010
1007
1000
997
998
1003
1004
1000
1000
998
998
1002
1001
998
994
996
996
1001
1000
997
993
995
993
997
999
997
992
992
991
992
995
993
986
983
987
989
989
986
981
982
979
986
984
981
978
975
974
976
979
978
973
974
971
974
975
973
970
967
968
970
969
966
960
963
963
966
964
962
957
960
960
958
962
953
955
953
958
960
961
957
954
953
954
958
960
957
952
953
956
958
960
957
953
953
953
955
956
953
951
953
953
956
954
954
953
953
954
953
954
952
949
951
953
953
954
954
949
949
951
956
953
955
952
952
954
956
957
955
952
952
954
958
958
954
952
952
951
959
955
955
952
954
957
959
959
955
956
956
958
961
960
957
957
957
958
961
961
960
958
956
958
961
964
959
958
956
956
960
963
961
959
958
959
964
962
963
958
959
961
963
965
962
960
958
962
963
962
958
956
960
964
967
967
962
960
963
964
968
968
966
963
965
966
967
973
968
967
965
967
970
970
967
965
967
970
973
970
970
969
968
971
973
974
969
965
965
967
972
973
973
972
972
975
978
977
975
973
970
973
974
976
974
970
971
974
977
980
975
972
970
976
978
978
979
975
973
979
982
982
979
975
977
980
983
983
983
981
980
983
986
984
980
981
983
984
989
988
991
989
989
990
995
998
997
995
996
1003
1007
1009
1007
1008
1012
1018
1027
1032
1026
1026
1025
1025
1026
1023
1021
1017
1015
1014
1014
1011
1007
1006
1000
1002
1005
1005
1002
1000
1002
1006
1009
1011
1012
1009
1008
1013
1015
1019
1023
1031
1049
1077
1111
1140
1161
1175
1185
1189
1180
1166
1135
1093
1051
1020
1001
1001
1000
997
994
994
994
994
992
986
984
984
987
985
981
978
978
982
985
982
979
979
978
980
982
983
980
978
977
981
983
981
982
978
977
980
984
980
980
978
980
982
988
991
989
984
984
986
989
990
991
987
988
991
993
998
998
998
999
1003
1007
1007
1007
1007
1009
1014
1018
1023
1025
1023
1024
1024
1033
1035
1035
1035
1037
1044
1047
1049
1047
1048
1052
1055
1061
1064
1061
1065
1065
1069
1075
1077
1078
1076
1078
1080
1086
1085
1084
1080
1079
1078
1080
1079
1080
1076
1074
1074
1073
1073
1070
1066
1062
1061
1060
1059
1055
1050
1048
1049
1050
1047
1039
1034
1032
1034
1037
1035
1032
1029
1025
1023
1027
1026
1022
1019
1018
1020
1022
1023
1019
1015
1014
1013
1019
1017
1015
1013
1013
1013
1020
1019
1017
1015
1011
1014
1018
1018
1015
1016
1015
1015
1019
1019
1020
1018
1017
1019
1021
1021
1019
1020
1018
1021
1022
1025
1022
1016
1017
1012
1018
1021
1018
1017
1015
1016
1022
1022
1019
1017
1014
1015
1017
1016
1014
1009
1008
1009
1011
1013
1008
1005
1003
1006
1008
1004
1003
1000
1001
1001
1001
1003
1000
995
995
997
1000
998
994
990
989
992
995
993
994
990
989
989
993
992
990
988
986
987
989
990
989
986
985
987
988
987
985
980
980
980
982
982
985
982
977
979
982
982
980
977
978
978
981
981
978
981
981
981
988
987
982
981
980
983
982
985
980
976
978
979
979
980
979
976
980
980
983
984
982
978
976
978
981
982
977
973
977
976
981
981
978
977
975
977
980
982
982
979
976
980
983
985
983
977
977
979
981
983
985
980
979
981
984
986
983
983
981
984
987
990
988
988
990
992
997
999
1000
998
1002
1009
1014
1022
1022
1020
1019
1017
1017
1015
1012
1010
1007
1008
1011
1008
1005
1000
997
999
999
999
996
993
993
992
996
1000
999
998
998
1003
1006
1007
1008
1009
1010
1019
1035
1052
1073
1097
1126
1150
1171
1178
1181
1171
1156
1132
1100
1062
1024
995
979
984
988
988
981
976
975
977
978
979
977
972
971
973
977
977
973
967
967
970
973
974
972
969
968
971
970
971
971
966
966
966
970
972
969
968
968
971
972
974
973
972
971
974
978
977
977
977
978
979
984
985
984
982
983
985
989
990
988
986
988
993
999
999
1000
997
1000
1003
1009
1011
1010
1013
1013
1018
1024
1027
1027
1027
1031
1035
1040
1043
1047
1045
1045
1051
1060
1060
1062
1060
1059
1065
1066
1070
1068
1067
1068
1071
1076
1074
1070
1065
1062
1062
1061
1060
1055
1051
1046
1044
1045
1044
1037
1032
1028
1027
1025
1024
1018
1015
1010
1008
1009
1007
1004
1001
999
998
998
997
995
991
986
989
990
986
984
983
981
983
985
983
980
979
978
980
982
982
981
979
977
979
981
981
979
979
975
978
981
982
982
981
979
982
984
988
988
986
982
985
988
991
988
985
986
988
989
989
988
986
985
985
988
987
987
984
983
984
985
987
984
981
979
981
984
984
981
977
972
975
976
978
978
974
972
974
977
974
973
971
967
968
969
970
968
965
963
965
968
969
964
960
960
961
962
965
963
959
958
958
963
963
960
957
956
955
958
960
956
955
957
958
960
961
958
955
953
956
959
960
958
955
956
956
958
959
959
955
952
953
958
961
960
955
955
957
957
958
958
954
953
956
961
961
961
956
953
957
961
960
957
954
955
957
960
962
959
959
955
961
964
964
963
960
960
965
966
969
969
965
967
969
975
977
978
975
979
982
988
994
994
995
994
993
996
993
988
986
984
984
986
983
978
975
972
973
975
973
971
970
969
970
974
976
975
975
976
980
982
984
987
986
993
1007
1025
1048
1075
1104
1130
1146
1156
1158
1149
1130
1099
1066
1027
995
974
965
969
966
968
966
963
957
958
958
957
959
956
951
949
953
955
953
952
949
949
949
951
950
953
949
949
951
953
953
953
947
950
950
952
956
955
952
953
956
958
962
957
954
958
959
964
966
965
962
963
965
973
973
973
969
970
974
977
981
981
980
981
986
992
992
992
991
992
999
1002
1005
1007
1009
1010
1016
1021
1024
1025
1023
1028
1033
1040
1043
1045
1044
1046
1050
1053
1060
1060
1060
1055
1060
1061
1065
1062
1057
1058
1058
1058
1057
1054
1049
1046
1046
1046
1042
1037
1032
1027
1026
1024
1023
1019
1014
1009
1009
1008
1005
1003
998
994
994
995
991
991
987
987
984
986
986
981
977
972
976
978
978
976
974
972
968
975
975
973
973
970
973
976
975
975
968
969
973
976
976
974
976
972
976
980
982
979
978
976
979
983
984
982
978
979
981
984
985
985
984
983
985
986
988
986
985
984
985
987
988
984
985
984
983
986
984
982
978
978
978
979
980
981
976
978
976
978
979
976
973
972
971
978
978
977
971
974
970
971
973
971
968
966
970
971
973
971
968
965
967
967
967
964
963
962
962
964
966
964
961
959
962
962
965
963
961
962
965
966
966
964
961
962
965
964
963
963
960
957
961
963
964
960
960
960
960
962
962
959
958
958
958
961
962
962
958
957
960
960
962
961
958
958
960
962
963
963
959
960
962
964
966
963
960
960
962
964
964
962
960
960
963
966
964
966
963
962
961
966
968
965
964
962
965
966
967
966
963
964
969
972
974
973
973
975
979
982
985
990
988
993
999
1005
1008
1007
1002
1001
997
998
999
999
992
988
989
989
988
984
979
974
977
978
979
974
977
975
978
983
984
979
978
980
986
989
992
988
990
1001
1019
1042
1074
1103
1127
1144
1158
1167
1163
1144
1115
1077
1037
1002
981
977
974
973
971
972
970
967
963
963
963
963
961
959
955
953
954
956
954
956
953
949
951
952
949
950
948
948
950
952
954
949
948
952
954
956
955
952
951
953
954
960
960
961
959
961
963
966
966
967
964
966
970
974
977
976
974
973
977
980
983
984
983
984
986
988
994
990
995
996
998
1005
1007
1010
1009
1013
1020
1024
1030
1030
1031
1034
1039
1046
1050
1051
1049
1051
1053
1056
1060
1056
1056
1056
1057
1059
1060
1055
1052
1050
1048
1047
1047
1039
1034
1030
1027
1026
1023
1018
1012
1005
1004
1006
1001
995
987
985
982
979
980
977
972
972
976
976
974
971
964
966
966
967
968
965
961
962
962
959
962
957
951
947
951
957
959
956
954
952
952
957
956
958
957
955
957
959
959
957
955
955
955
961
962
959
961
962
962
965
965
966
963
964
967
971
975
976
977
982
988
999
1003
1008
1011
1017
1024
1034
1045
1045
1038
1029
1016
1000
986
965
941
920
900
877
856
836
827
824
828
830
826
821
818
817
816
825
829
832
834
841
850
862
869
875
881
888
896
903
909
913
917
921
926
933
937
940
942
941
946
943
948
950
951
952
957
963
967
969
967
966
969
973
976
975
976
978
983
986
991
986
988
991
996
1003
1009
1011
1014
1016
1022
1025
1032
1037
1037
1046
1054
1061
1069
1072
1077
1082
1089
1097
1100
1099
1104
1105
1109
1114
1118
1117
1115
1115
1116
1117
1118
1113
1108
1106
1104
1103
1100
1092
1083
1076
1074
1074
1070
1067
1055
1050
1048
1045
1041
1037
1030
1025
1023
1022
1018
1014
1006
1003
1001
1000
1001
997
990
987
987
987
987
983
980
978
978
980
980
980
978
977
978
982
981
979
975
975
975
976
979
975
975
975
975
974
975
974
971
974
973
976
979
976
971
971
972
974
972
972
969
967
968
971
973
969
966
964
966
965
967
964
964
957
960
963
961
957
956
956
955
955
956
951
947
950
952
952
953
952
949
945
949
951
951
949
945
945
946
947
948
946
945
943
941
946
947
948
944
945
945
945
946
943
944
940
942
942
944
947
939
941
944
945
945
943
941
940
939
944
946
943
939
938
940
945
943
940
938
940
940
942
945
944
941
940
941
943
945
945
943
940
940
942
944
944
942
938
940
942
943
941
939
937
942
941
942
941
940
938
939
942
943
941
939
939
937
942
945
943
936
939
939
944
943
944
941
938
942
944
947
945
940
941
941
946
946
948
944
941
941
945
947
947
945
941
941
943
946
946
941
943
944
948
948
947
943
942
946
949
949
948
945
944
943
949
951
950
948
946
948
949
951
949
947
947
948
951
952
950
948
951
951
957
955
957
951
950
951
950
952
953
948
952
951
953
953
952
952
952
955
956
957
956
954
951
954
956
956
957
956
954
959
960
960
958
956
955
957
960
962
960
959
960
960
964
967
968
964
967
971
975
977
978
977
979
985
995
1002
1000
998
997
997
997
995
995
988
984
985
986
986
981
975
974
974
974
977
975
974
975
975
980
984
982
983
983
985
990
998
1005
1018
1038
1072
1107
1139
1157
1165
1164
1161
1145
1115
1072
1028
991
967
966
970
967
962
957
959
962
963
960
956
953
952
954
955
955
951
948
949
953
951
953
952
950
950
953
954
953
950
947
949
953
955
953
950
952
954
955
960
960
957
955
958
961
962
962
960
960
963
967
969
968
966
967
968
971
974
976
975
976
981
985
989
987
986
987
992
997
1001
1002
1004
1004
1009
1014
1020
1019
1023
1023
1029
1033
1037
1041
1035
1039
1042
1048
1050
1048
1046
1045
1046
1051
1052
1048
1043
1042
1043
1045
1044
1039
1035
1031
1031
1030
1028
1024
1019
1014
1011
1011
1009
1006
1003
1000
996
999
998
995
991
990
989
992
988
986
984
979
985
984
986
982
981
979
980
982
983
980
978
976
979
979
983
979
977
977
982
983
986
985
985
983
984
988
989
985
988
988
990
995
997
993
990
991
994
996
998
995
991
989
990
993
993
993
989
985
985
991
992
988
982
983
983
985
985
981
977
974
975
977
980
