904
907
908
910
910
904
906
907
908
907
908
904
903
902
907
907
908
906
903
901
903
907
905
906
903
904
908
909
910
909
908
908
910
912
912
908
910
910
910
913
910
911
910
912
917
918
919
913
912
912
916
919
916
915
916
919
922
926
924
926
929
934
940
944
947
947
950
956
964
980
987
989
989
991
992
995
989
986
983
977
970
958
951
948
945
943
942
939
936
933
932
932
933
933
929
925
922
926
930
931
928
926
922
915
911
921
952
1011
1103
1204
1294
1352
1382
1391
1384
1353
1281
1165
1037
909
839
860
896
908
901
895
900
911
920
921
917
910
908
909
911
915
911
908
910
912
915
914
912
907
912
915
918
918
916
916
916
919
917
918
919
916
915
921
927
928
928
926
926
930
934
936
933
932
932
934
940
942
944
943
944
949
950
954
952
955
956
960
966
968
973
975
976
981
985
991
993
992
994
1002
1010
1015
1020
1021
1024
1031
1040
1049
1053
1052
1055
1064
1068
1078
1082
1080
1082
1085
1086
1085
1082
1078
1076
1071
1071
1065
1059
1052
1049
1044
1043
1036
1027
1018
1011
1009
1008
1003
997
990
984
982
980
977
970
962
960
962
962
966
963
958
948
945
945
946
941
940
937
940
943
941
937
933
930
937
937
937
933
934
934
935
937
941
942
941
941
944
947
950
948
946
942
949
959
957
956
952
954
955
958
961
959
958
955
959
963
961
961
962
960
959
960
960
962
957
955
958
961
958
957
952
953
954
953
956
949
949
945
948
951
952
953
949
946
948
946
945
945
944
943
942
944
943
942
940
940
941
941
943
943
940
939
939
940
942
942
938
937
940
940
940
941
940
941
942
944
944
942
938
937
940
946
945
942
940
940
941
944
943
944
939
934
936
940
940
938
936
938
939
942
944
944
940
936
939
947
952
951
952
953
962
966
971
973
977
986
996
1002
1006
1005
1004
1003
1006
1007
1004
996
984
974
970
969
963
959
949
948
943
943
945
937
937
937
938
940
939
937
934
934
933
930
920
908
905
919
966
1037
1136
1231
1309
1357
1392
1403
1397
1360
1291
1174
1046
921
877
893
920
928
922
922
927
928
926
925
924
924
927
927
922
918
923
926
927
923
920
917
922
924
927
925
923
923
925
927
931
928
927
928
931
933
932
927
928
927
930
935
938
939
936
934
938
938
943
941
941
942
945
947
951
952
953
952
959
964
963
962
961
965
967
975
974
977
976
980
983
994
1001
1002
1001
1003
1008
1017
1022
1027
1030
1033
1039
1049
1053
1055
1058
1063
1071
1076
1082
1082
1078
1083
1085
1085
1089
1088
1083
1081
1078
1077
1074
1066
1059
1053
1047
1050
1045
1037
1028
1018
1013
1015
1010
1003
995
991
992
990
989
988
981
973
968
967
966
968
965
962
960
961
961
961
956
951
954
956
959
956
953
953
952
954
959
958
951
950
952
957
957
960
959
957
959
966
967
966
962
957
958
961
962
962
962
962
962
965
965
965
964
963
966
966
964
962
959
958
962
967
966
970
966
965
966
967
967
964
960
959
960
963
964
960
959
958
959
958
960
959
956
956
954
959
958
955
952
951
953
956
956
953
953
953
951
953
953
953
950
947
947
949
951
952
947
948
946
945
946
943
945
945
948
950
948
944
946
944
949
949
950
946
941
942
939
946
946
948
945
943
946
947
948
947
945
945
946
950
952
945
946
943
944
947
947
945
942
941
946
947
943
943
942
942
946
950
950
950
951
950
956
963
967
969
969
973
980
994
1004
1011
1007
1004
1006
1012
1017
1014
1008
1000
992
987
982
975
967
960
959
959
960
956
948
941
937
939
939
937
940
942
940
937
932
924
922
924
923
920
915
915
924
956
1017
1096
1183
1263
1320
1358
1379
1383
1360
1307
1211
1089
961
880
870
898
916
921
917
918
923
924
922
923
923
924
919
918
915
913
914
918
920
915
911
914
916
916
917
911
909
910
914
918
920
917
913
913
918
922
925
921
915
914
917
921
924
924
920
923
925
926
928
926
928
927
930
933
937
938
938
937
938
942
946
945
945
945
949
954
957
958
954
954
957
962
964
968
968
972
974
979
983
984
988
993
996
1003
1008
1011
1013
1018
1024
1032
1036
1038
1042
1045
1050
1055
1059
1058
1058
1057
1062
1064
1065
1064
1059
1052
1052
1047
1046
1043
1036
1029
1027
1022
1018
1011
1002
999
997
993
990
985
979
975
973
972
975
969
963
957
956
957
957
955
951
948
944
945
943
938
935
935
936
939
938
935
931
933
933
937
936
933
929
925
925
934
937
933
932
927
930
932
936
935
933
928
927
930
930
931
927
929
931
937
936
936
933
933
935
935
938
935
933
933
934
937
936
934
938
936
936
938
937
935
930
927
929
931
932
930
931
925
930
930
927
925
923
923
923
923
926
922
920
915
916
916
917
915
913
913
916
919
917
913
908
909
912
914
913
910
903
900
906
909
911
911
908
907
910
911
913
911
909
909
909
915
917
913
910
908
907
907
909
907
907
907
907
909
909
910
907
905
906
910
913
910
906
908
909
913
915
913
911
912
913
915
918
918
918
918
922
925
926
928
930
933
941
951
962
966
968
966
965
970
975
974
969
962
957
954
949
945
937
930
925
919
918
916
911
910
912
915
917
914
916
914
911
911
914
914
907
905
898
896
896
899
922
971
1049
1150
1247
1317
1352
1372
1378
1359
1310
1219
1091
963
852
839
869
889
888
883
888
895
902
904
902
901
902
903
899
900
899
900
899
905
909
905
902
902
905
908
910
908
905
899
904
906
906
909
909
908
910
912
915
914
913
914
915
920
927
927
924
924
927
927
927
920
917
919
927
929
931
931
925
932
937
940
944
946
947
945
950
954
956
959
959
962
966
972
977
978
982
985
991
996
999
1007
1007
1010
1019
1028
1034
1039
1040
1044
1050
1058
1064
1064
1065
1067
1071
1074
1076
1073
1068
1064
1061
1063
1060
1055
1048
1040
1040
1039
1035
1030
1026
1017
1010
1006
1001
995
989
984
983
981
979
974
970
964
963
962
962
958
952
949
950
948
945
939
937
938
941
940
938
934
932
928
927
931
931
933
932
929
930
933
934
934
935
931
934
936
941
942
938
935
938
942
947
947
945
945
948
948
949
949
951
948
951
955
956
955
954
953
953
956
956
955
954
952
952
954
957
954
950
950
950
954
955
953
949
949
948
952
954
952
947
945
946
948
946
943
941
938
943
946
945
944
941
940
940
937
936
936
936
935
935
939
941
939
934
935
938
943
943
942
934
936
941
946
946
944
941
937
935
936
941
939
935
936
932
935
934
937
937
937
943
944
941
939
934
934
939
944
946
947
948
950
956
958
962
962
964
967
972
981
989
996
997
998
1001
1003
1001
999
994
994
991
984
979
972
966
961
958
956
955
949
942
940
939
943
942
938
936
935
938
941
942
942
939
934
928
926
918
915
927
964
1031
1113
1208
1291
1349
1386
1408
1415
1400
1351
1267
1145
1017
904
875
903
926
929
920
920
924
925
922
918
920
921
923
924
919
918
921
922
921
917
915
915
919
920
920
919
916
917
918
920
925
923
921
919
921
926
930
927
927
925
922
928
933
933
931
928
930
936
939
937
935
937
939
943
946
945
942
943
944
948
954
956
950
952
956
961
964
969
969
968
971
974
978
983
982
983
991
996
1003
1007
1009
1014
1021
1029
1035
1039
1041
1045
1051
1060
1066
1069
1067
1073
1081
1087
1092
1093
1092
1090
1092
1097
1095
1095
1091
1085
1083
1080
1078
1071
1062
1053
1049
1043
1040
1034
1027
1021
1019
1016
1013
1006
1002
993
992
991
989
986
980
974
976
978
976
971
966
961
963
965
964
960
952
953
954
956
958
955
952
949
949
950
949
949
945
945
947
950
951
947
946
947
943
949
952
950
947
946
949
951
951
951
950
947
951
954
954
953
949
950
950
950
955
951
950
950
955
956
959
956
952
949
952
954
956
952
953
951
951
956
955
948
947
944
945
949
950
950
947
945
946
948
947
948
944
943
944
946
947
945
942
942
943
942
942
942
939
938
939
943
946
945
941
937
939
941
942
937
938
938
939
943
943
939
940
938
940
941
940
941
939
937
938
941
943
942
941
939
940
939
941
944
940
942
942
945
944
943
943
940
943
945
946
943
940
941
946
952
956
955
956
956
960
967
970
976
980
987
998
1005
1005
1006
1002
1001
1003
1007
1006
1003
992
985
977
975
973
968
961
954
948
948
947
944
944
942
944
945
945
945
940
939
943
944
943
936
923
915
913
930
970
1030
1114
1212
1301
1361
1396
1410
1411
1392
1348
1267
1147
1019
896
870
898
928
931
926
921
923
929
932
934
931
927
925
925
924
926
929
923
923
927
931
934
932
927
926
927
927
933
934
933
934
935
934
933
930
929
929
932
938
942
941
939
935
938
940
945
943
942
943
944
948
952
952
952
952
956
961
962
965
962
966
969
975
977
979
980
983
986
994
999
1001
1000
1006
1012
1019
1023
1025
1027
1031
1039
1046
1056
1060
1061
1065
1070
1080
1083
1086
1087
1086
1092
1096
1099
1099
1096
1095
1091
1092
1092
1087
1083
1073
1069
1065
1061
1055
1045
1040
1035
1033
1028
1019
1016
1011
1008
1006
1005
998
992
984
983
983
983
979
973
971
969
972
972
969
964
961
961
964
962
957
955
952
950
958
955
960
955
954
955
957
959
958
954
954
955
956
957
954
954
953
956
956
958
957
954
953
957
960
962
962
958
962
966
969
969
965
964
962
962
964
966
965
962
958
961
966
965
963
962
960
962
966
966
965
961
960
961
961
961
962
961
959
960
963
963
961
955
956
957
961
962
959
959
957
959
961
962
961
957
955
955
959
962
959
949
951
954
954
956
953
949
949
953
952
957
954
953
952
953
957
957
955
952
950
951
954
959
957
955
949
949
954
954
950
951
950
951
954
958
957
955
954
953
956
955
955
954
953
951
953
954
955
953
956
959
961
959
962
956
956
962
968
976
976
980
978
987
993
1001
1008
1014
1017
1017
1021
1023
1021
1016
1015
1008
1005
997
989
980
978
974
973
968
963
960
955
958
960
962
962
961
960
961
962
963
959
944
937
932
943
975
1024
1099
1193
1281
1349
1391
1412
1413
1393
1345
1256
1128
1000
890
887
924
946
945
941
944
947
952
954
952
951
945
946
949
948
946
946
942
942
944
949
952
949
949
943
944
948
952
951
945
946
949
952
952
950
949
949
951
955
955
956
956
956
959
965
964
963
961
959
966
970
971
973
971
972
976
981
989
989
987
986
991
999
1005
1005
1007
1008
1015
1026
1029
1032
1033
1036
1042
1049
1057
1055
1055
1059
1067
1079
1086
1093
1093
1097
1098
1106
1109
1108
1108
1107
1110
1112
1108
1102
1094
1089
1089
1087
1084
1078
1069
1061
1056
1054
1050
1036
1027
1020
1017
1016
1013
1009
1003
1000
997
1000
995
993
987
982
981
979
980
978
975
971
969
964
965
966
965
963
963
968
965
965
959
958
959
964
966
965
963
962
958
962
963
963
961
958
961
961
965
964
963
960
963
968
968
966
961
964
968
971
975
974
974
980
990
1003
1013
1021
1030
1040
1055
1075
1096
1119
1139
1156
1162
1144
1113
1078
1040
1002
965
924
870
810
768
749
749
764
782
784
777
774
775
773
772
776
779
792
809
825
836
851
867
882
893
904
915
919
925
931
940
946
947
942
939
938
940
947
952
952
949
946
950
953
960
964
960
958
953
955
958
960
958
959
961
964
970
970
968
971
971
977
981
981
978
981
988
996
998
1002
1007
1013
1019
1024
1028
1034
1045
1059
1072
1083
1095
1101
1106
1116
1125
1138
1149
1154
1158
1160
1168
1178
1183
1183
1179
1174
1174
1175
1175
1171
1162
1154
1149
1144
1138
1130
1121
1109
1104
1098
1089
1075
1063
1055
1050
1050
1044
1036
1024
1014
1008
1004
1000
996
991
984
982
981
984
981
979
973
965
963
957
961
960
959
960
957
958
959
957
955
957
952
954
953
950
949
953
955
957
959
957
954
953
955
959
957
952
947
948
950
953
948
942
943
944
945
945
940
938
936
932
936
935
932
928
927
931
933
935
930
926
919
920
923
925
923
917
916
919
921
922
920
914
914
912
915
917
915
915
911
911
913
912
913
913
910
911
911
914
913
909
908
906
914
915
911
911
907
908
910
915
912
906
906
908
910
911
911
907
905
909
910
911
911
907
902
899
901
901
896
895
900
907
909
911
904
899
900
905
910
912
906
903
902
903
908
909
904
895
888
898
906
906
901
893
894
912
921
907
891
888
893
904
913
915
916
913
909
911
909
912
911
908
902
902
905
908
905
902
902
903
904
907
910
910
907
906
907
909
908
906
904
902
903
907
912
908
909
907
910
913
906
900
901
909
914
913
912
908
906
910
917
921
917
913
913
913
918
918
916
914
911
913
915
920
920
919
917
917
923
928
925
920
916
922
924
925
924
923
923
922
927
930
926
928
927
923
923
928
924
921
923
935
937
937
935
936
934
931
939
944
944
944
942
946
950
954
958
957
964
977
990
996
990
988
990
998
1001
997
989
983
977
979
978
976
970
964
958
960
957
954
952
949
947
954
962
957
953
954
954
955
959
965
979
1010
1068
1148
1229
1291
1329
1347
1342
1326
1289
1224
1130
1019
929
900
912
927
921
918
922
936
941
943
940
939
938
934
934
940
942
937
934
936
939
935
928
922
929
940
942
949
948
946
943
944
947
949
946
948
946
944
948
946
946
946
947
950
951
949
948
948
943
946
947
951
949
950
949
951
960
965
964
957
955
955
956
961
967
969
967
970
970
974
977
982
982
981
986
992
996
1000
1001
1005
1011
1012
1008
1010
1017
1029
1033
1035
1034
1034
1034
1039
1051
1054
1053
1051
1052
1054
1055
1057
1055
1050
1049
1049
1049
1050
1047
1035
1024
1019
1022
1026
1024
1018
1012
1007
998
996
995
989
984
979
980
980
980
974
971
972
969
969
963
963
963
962
965
967
963
959
958
960
963
972
971
964
959
964
970
971
970
972
974
975
975
978
983
981
979
980
983
984
979
980
983
982
986
991
981
969
974
979
984
983
982
981
976
974
971
977
975
967
965
969
972
971
968
963
961
962
966
968
967
964
962
954
948
954
959
956
950
951
955
956
954
949
947
948
950
951
943
938
941
946
951
952
950
950
948
948
945
940
932
934
941
945
943
943
942
945
942
942
941
942
943
942
940
940
946
950
950
944
935
936
945
946
943
940
939
942
944
943
940
938
941
941
944
948
944
939
936
942
945
950
950
945
941
945
953
956
956
955
953
953
958
971
974
970
974
984
997
999
999
997
996
996
998
1000
992
984
980
975
973
967
961
956
951
954
955
954
949
940
938
946
957
957
952
949
943
944
948
947
945
948
960
987
1034
1094
1169
1237
1286
1317
1336
1341
1327
1294
1232
1145
1045
954
903
899
911
920
923
922
920
924
927
931
934
940
936
931
926
926
934
941
936
930
928
929
934
934
934
935
935
936
935
936
935
934
934
937
940
942
942
941
942
940
939
939
940
944
947
952
949
949
941
937
946
955
956
960
955
956
955
958
959
964
967
966
965
966
970
975
977
978
976
980
983
989
990
987
986
985
992
1002
1007
1009
1009
1017
1021
1030
1031
1031
1035
1041
1046
1052
1059
1061
1068
1074
1080
1081
1085
1082
1080
1084
1091
1094
1096
1090
1088
1089
1088
1087
1081
1078
1073
1069
1069
1066
1062
1046
1039
1033
1034
1036
1028
1017
1013
1010
1008
1004
995
993
995
995
990
987
984
982
980
977
979
974
973
969
965
968
967
973
971
964
962
963
967
971
973
969
968
965
966
970
968
970
969
976
978
976
976
974
979
984
984
986
988
989
987
986
989
994
997
995
991
993
996
997
998
995
993
994
998
998
997
996
995
994
998
999
1000
995
992
991
994
995
993
991
990
990
994
995
992
989
986
985
986
987
986
987
985
984
985
986
984
982
983
982
984
986
986
981
977
979
984
987
987
981
979
981
981
984
982
984
982
981
983
986
984
980
979
978
981
984
983
982
982
980
982
980
981
982
980
980
980
984
982
980
979
981
981
984
986
983
983
982
983
986
986
982
982
982
985
991
989
988
985
989
994
999
999
1002
1002
1004
1009
1015
1016
1019
1025
1032
1040
1042
1042
1039
1040
1042
1042
1041
1040
1035
1031
1026
1023
1022
1012
1003
998
995
999
998
995
989
985
988
991
990
990
987
985
987
989
990
986
987
981
974
978
980
990
1019
1064
1127
1194
1254
1301
1330
1341
1346
1336
1308
1257
1184
1089
1001
951
948
964
972
969
965
968
968
966
966
961
963
962
962
962
960
960
957
962
965
962
960
958
958
962
966
968
966
964
957
955
956
955
959
962
964
963
965
966
966
966
968
970
973
973
973
972
972
979
981
980
979
977
980
981
983
986
989
991
991
993
995
996
995
998
1000
1003
1011
1012
1014
1016
1020
1023
1029
1030
1032
1033
1038
1042
1048
1047
1054
1052
1057
1065
1075
1081
1083
1086
1089
1093
1099
1104
1103
1106
1111
1116
1123
1124
1121
1123
1123
1124
1125
1120
1117
1110
1109
1104
1105
1103
1094
1086
1082
1081
1079
1072
1065
1057
1052
1049
1046
1041
1032
1027
1023
1022
1019
1009
1005
1001
999
997
996
996
988
981
976
977
978
977
974
969
972
966
967
967
965
962
965
962
961
963
961
956
960
961
964
964
961
958
959
962
961
966
960
956
957
960
962
960
959
959
957
960
963
960
959
958
960
959
964
961
958
