1003
1004
1004
1001
1000
1002
1005
1008
1009
1005
1003
1003
1008
1009
1006
1008
1007
1007
1008
1013
1009
1008
1006
1006
1008
1008
1006
1001
999
1001
1004
1007
1005
1001
998
995
995
1000
996
993
994
994
994
994
996
993
992
990
989
990
989
987
983
983
984
984
983
980
985
986
988
987
984
981
977
980
983
985
982
982
980
985
987
988
988
988
991
995
998
999
1002
1003
1005
1012
1020
1034
1040
1038
1039
1043
1048
1050
1043
1037
1021
1013
1004
1005
997
989
983
982
979
979
974
971
970
971
972
972
970
965
964
964
963
962
958
952
957
979
1015
1072
1155
1242
1319
1365
1389
1396
1382
1340
1262
1149
1032
925
870
877
903
923
929
930
930
933
930
935
938
940
938
934
934
935
936
937
934
932
930
932
935
937
936
933
931
931
932
933
932
929
929
930
934
938
939
935
937
940
944
943
943
941
941
942
943
948
950
946
951
952
955
961
963
962
963
965
971
975
975
974
977
984
989
992
993
993
997
1002
1013
1021
1023
1020
1027
1033
1040
1048
1051
1053
1053
1058
1064
1071
1072
1072
1071
1069
1071
1070
1064
1061
1057
1053
1054
1053
1049
1041
1035
1028
1026
1018
1013
1005
1001
997
999
998
992
985
980
979
980
977
971
967
965
968
968
968
962
960
958
957
961
959
959
953
950
953
960
962
962
958
957
958
963
961
964
965
966
969
974
973
976
978
981
983
987
987
985
987
989
1000
1004
998
988
982
985
994
998
1001
1000
997
999
1003
1006
1011
1008
1002
994
994
999
1000
998
992
992
993
994
993
990
985
981
987
989
985
986
984
984
982
983
984
982
981
983
984
984
985
979
979
976
979
981
982
983
980
976
977
980
982
980
977
974
977
979
983
978
979
975
972
973
978
978
976
977
978
979
983
979
980
977
980
988
996
997
998
996
1003
1012
1021
1033
1041
1042
1044
1045
1046
1046
1043
1036
1032
1024
1015
1006
999
991
985
982
977
972
966
966
966
969
973
976
973
970
968
968
971
970
965
958
953
957
971
1003
1057
1140
1230
1312
1366
1397
1408
1397
1362
1286
1179
1052
936
878
891
924
942
940
935
939
947
951
954
950
947
947
949
953
955
956
953
948
946
952
953
954
952
952
952
952
951
948
947
950
948
948
951
953
952
952
951
957
956
957
956
956
959
963
962
964
963
961
962
968
970
972
972
969
974
980
984
983
979
981
985
989
997
998
999
1000
1005
1011
1017
1018
1018
1020
1026
1033
1042
1048
1052
1053
1059
1064
1065
1072
1074
1075
1078
1082
1085
1083
1084
1083
1081
1082
1080
1078
1071
1068
1064
1064
1058
1054
1048
1043
1041
1037
1036
1030
1021
1018
1018
1016
1013
1006
998
996
998
998
992
990
986
979
983
987
990
986
982
977
980
981
979
983
979
977
978
981
976
976
976
975
976
979
982
982
980
978
979
981
984
985
987
984
987
989
993
992
989
989
992
993
996
993
994
992
996
997
997
1000
998
999
999
1000
999
997
999
999
1006
1006
1003
999
992
990
993
999
1005
1000
994
989
991
987
988
988
983
984
987
989
990
988
984
980
979
984
984
983
980
975
975
981
981
978
973
972
976
979
980
979
975
974
975
976
979
977
973
975
975
976
976
975
973
972
973
973
976
973
973
970
972
972
974
975
974
970
972
973
974
973
970
970
970
974
976
974
974
976
978
983
987
990
989
994
999
1004
1008
1012
1017
1028
1041
1050
1053
1050
1047
1041
1038
1029
1027
1017
1009
999
995
991
990
982
975
970
972
973
975
972
967
966
969
972
974
972
967
963
959
951
945
954
969
1010
1079
1169
1267
1343
1391
1416
1428
1423
1392
1320
1209
1081
953
884
898
931
947
943
943
948
954
954
953
951
952
950
952
950
948
943
946
952
953
952
949
946
948
949
952
951
948
946
953
956
959
956
953
950
948
951
956
956
956
951
954
960
960
962
960
959
962
965
969
970
968
966
969
973
976
978
977
980
983
986
986
989
987
989
994
999
1004
1005
1008
1009
1014
1022
1026
1029
1028
1033
1040
1047
1054
1057
1058
1059
1065
1073
1078
1081
1081
1083
1085
1084
1088
1088
1087
1084
1084
1087
1087
1080
1073
1066
1064
1063
1062
1055
1049
1044
1041
1037
1033
1028
1021
1016
1013
1014
1014
1005
1000
996
992
992
992
993
989
985
985
988
988
985
980
978
980
980
982
981
979
978
977
981
981
981
979
980
980
982
988
985
986
986
987
989
988
986
985
978
984
992
995
993
992
992
994
994
995
994
995
991
994
997
1000
999
997
996
996
994
997
996
992
990
990
996
996
993
992
988
990
991
989
988
985
981
984
982
984
981
979
976
976
981
982
979
976
973
974
975
977
972
971
969
968
970
972
971
968
966
967
970
972
970
968
965
969
969
969
967
963
963
964
966
965
964
963
960
964
964
967
965
964
962
966
965
967
967
962
960
961
967
969
969
966
961
965
968
968
964
960
960
963
963
966
965
963
962
965
966
968
965
962
963
963
967
967
968
961
962
963
967
969
969
969
969
970
970
981
980
981
984
985
988
995
998
1002
1010
1026
1040
1042
1035
1027
1019
1017
1018
1017
1012
1001
995
991
991
988
981
972
971
969
968
970
967
968
966
966
970
973
972
966
965
961
958
957
958
968
993
1045
1122
1221
1300
1361
1394
1415
1418
1393
1331
1235
1115
991
904
886
906
930
936
936
939
947
947
948
946
946
945
951
951
949
945
946
947
951
949
948
944
946
947
951
952
950
948
950
954
955
956
952
953
952
955
960
960
957
957
958
958
959
962
960
960
961
964
969
967
967
967
967
973
975
970
976
975
979
985
989
986
986
991
994
997
1004
1006
1005
1009
1018
1021
1024
1030
1030
1036
1040
1045
1053
1059
1061
1066
1071
1077
1081
1086
1087
1087
1090
1093
1097
1096
1090
1088
1089
1091
1091
1090
1084
1077
1074
1071
1070
1064
1054
1051
1046
1047
1043
1039
1031
1024
1019
1016
1019
1012
1005
1002
1004
1002
1001
997
994
992
993
996
994
992
989
986
986
988
989
985
983
981
981
983
986
983
982
984
985
987
990
988
988
990
990
994
998
996
997
997
999
1003
1007
1006
1005
1003
1005
1008
1010
1012
1011
1011
1012
1014
1017
1016
1016
1015
1015
1016
1015
1015
1015
1010
1010
1013
1016
1014
1009
1008
1010
1008
1009
1007
1006
1002
1001
1002
1006
1005
1002
996
996
997
999
998
994
991
993
994
996
993
992
988
986
986
992
989
985
986
985
987
993
987
982
981
981
986
988
986
985
981
981
987
985
984
982
980
982
985
986
985
985
983
982
981
983
981
978
978
976
980
981
981
978
977
979
982
984
980
980
976
975
979
983
980
978
977
978
985
988
989
987
989
994
999
1005
1007
1006
1005
1014
1019
1028
1038
1047
1049
1051
1050
1046
1037
1027
1023
1020
1021
1020
1014
1004
997
995
993
991
985
979
974
975
979
982
982
979
976
978
978
983
980
978
973
969
968
966
967
985
1023
1086
1172
1262
1335
1388
1417
1432
1426
1388
1324
1228
1117
998
913
895
918
942
949
948
948
953
959
960
957
958
955
959
958
955
955
954
957
959
956
956
954
956
958
960
959
956
954
956
954
959
963
961
958
961
962
965
965
963
961
964
965
967
969
965
967
969
969
971
971
969
968
971
975
981
980
980
978
980
982
986
988
989
988
992
999
1002
1004
1005
1006
1010
1017
1023
1025
1025
1027
1031
1038
1044
1049
1048
1052
1056
1060
1068
1073
1076
1075
1082
1087
1091
1092
1091
1089
1090
1093
1096
1094
1086
1088
1086
1084
1084
1078
1074
1067
1063
1063
1057
1055
1047
1040
1038
1034
1030
1024
1018
1014
1015
1014
1012
1010
1005
1004
1000
1002
1001
999
994
991
990
990
993
994
988
985
983
986
989
988
986
985
984
985
988
991
987
986
988
991
994
990
991
988
989
996
997
997
998
994
998
999
1001
1000
1001
1000
1003
1008
1008
1009
1009
1007
1007
1009
1011
1012
1009
1007
1007
1012
1015
1017
1014
1010
1009
1008
1010
1011
1006
1006
1006
1009
1012
1010
1005
1002
1002
1003
1006
1005
1004
1001
1002
1001
1005
1003
1000
997
998
1000
1001
998
996
993
993
998
998
997
995
994
994
995
1000
997
993
990
991
993
995
991
988
989
987
993
995
997
993
992
994
995
998
997
992
990
989
993
997
995
991
991
994
994
998
992
993
992
991
995
997
995
995
992
990
995
994
994
994
989
991
993
998
996
994
991
992
997
998
995
993
991
992
996
996
994
994
995
996
997
999
998
997
1001
1003
1005
1009
1008
1015
1016
1016
1021
1027
1029
1031
1037
1053
1070
1075
1073
1068
1058
1050
1049
1050
1051
1044
1035
1030
1027
1026
1022
1013
1005
1003
1000
999
996
995
993
996
999
998
996
992
989
992
993
996
989
982
971
962
966
984
1018
1068
1147
1239
1321
1386
1428
1453
1461
1456
1429
1365
1265
1140
1016
932
920
951
972
972
968
970
974
981
977
972
970
968
969
972
971
964
963
964
967
968
969
964
960
962
964
970
968
967
966
968
970
972
971
969
964
963
968
973
973
972
969
974
978
976
975
974
971
975
979
984
985
982
983
985
989
990
989
990
990
994
996
1001
1004
1004
1007
1009
1011
1017
1020
1020
1019
1026
1031
1036
1039
1043
1045
1049
1054
1058
1066
1067
1069
1073
1080
1085
1088
1089
1087
1090
1096
1096
1098
1097
1096
1096
1099
1096
1094
1087
1082
1080
1079
1077
1071
1066
1058
1059
1058
1053
1046
1040
1034
1033
1032
1028
1026
1016
1012
1012
1012
1013
1012
1007
1006
1004
1003
1002
1004
997
996
997
998
1000
1001
998
996
997
998
1003
1001
1000
996
1000
1001
1006
1004
1005
1001
1006
1009
1010
1009
1007
1005
1009
1014
1015
1015
1012
1009
1011
1017
1019
1018
1015
1015
1017
1018
1023
1021
1019
1016
1014
1017
1018
1014
1011
1009
1011
1012
1013
1012
1007
1006
1004
1008
1008
1007
1004
999
1001
1002
1002
1000
996
993
993
995
996
993
992
987
988
991
989
991
988
984
986
986
989
990
983
982
982
981
985
984
980
978
977
981
983
981
980
978
978
977
982
982
978
977
976
978
982
981
978
974
972
975
979
978
976
974
971
974
979
980
980
976
978
975
978
979
976
970
970
975
976
978
975
972
972
974
974
974
972
971
969
973
976
975
970
967
970
971
973
974
972
970
970
973
973
975
969
963
967
972
976
975
973
972
973
977
985
985
982
984
985
991
995
998
999
1005
1016
1026
1041
1048
1038
1026
1021
1019
1019
1018
1010
1008
1002
1002
998
988
981
983
979
975
979
976
973
969
970
974
978
975
973
973
970
969
965
959
958
973
1014
1081
1174
1267
1344
1395
1425
1437
1422
1371
1278
1150
1022
910
891
920
945
950
944
947
955
959
959
955
953
953
955
956
954
950
954
952
958
958
957
954
954
957
960
960
955
955
957
958
962
959
958
955
957
960
964
963
963
959
962
966
967
969
967
968
973
973
977
977
976
972
975
977
983
986
987
987
989
994
998
999
1000
1000
1003
1008
1016
1017
1021
1023
1029
1032
1039
1040
1043
1046
1053
1058
1068
1072
1072
1075
1080
1087
1093
1095
1094
1088
1092
1094
1097
1095
1089
1085
1084
1084
1085
1077
1072
1067
1063
1061
1060
1055
1046
1037
1034
1032
1031
1028
1021
1015
1013
1014
1012
1009
1002
998
999
999
998
995
992
988
988
992
993
991
990
990
990
993
992
991
988
987
988
990
989
992
990
991
991
997
1004
1004
1003
1001
1001
1005
1010
1008
1004
1005
1007
1014
1015
1016
1017
1015
1018
1021
1023
1022
1018
1016
1016
1019
1021
1023
1018
1019
1018
1021
1019
1023
1021
1017
1014
1015
1016
1012
1011
1004
1007
1010
1012
1010
1006
1004
1001
1001
1006
1004
1000
996
995
1000
1001
1003
999
994
992
1000
1002
1000
997
993
990
996
1001
999
997
995
994
997
994
994
992
991
990
993
996
997
995
993
992
996
997
996
989
989
992
993
994
993
990
989
992
994
998
997
994
992
994
994
1000
997
990
990
991
994
993
991
992
987
991
995
997
995
992
991
993
999
1002
1007
1008
1006
1010
1016
1020
1023
1024
1028
1031
1042
1058
1066
1064
1055
1046
1042
1042
1043
1039
1033
1030
1028
1024
1015
1005
1005
1001
1003
1002
997
993
990
991
995
998
996
994
994
992
993
992
980
980
989
1017
1066
1142
1234
1316
1372
1411
1432
1436
1409
1351
1260
1146
1032
946
919
940
966
974
976
981
982
981
983
981
982
983
981
979
975
977
979
982
983
978
975
973
977
983
984
982
979
978
981
982
982
984
981
979
983
982
985
983
983
983
992
994
992
990
989
991
992
996
996
997
999
1000
1006
1008
1010
1006
1003
1006
1009
1013
1017
1019
1016
1018
1025
1031
1034
1035
1038
1041
1045
1050
1053
1053
1056
1063
1067
1075
1079
1080
1084
1092
1096
1102
1104
1103
1103
1102
1106
1110
1105
1104
1098
1096
1096
1095
1085
1078
1074
1069
1066
1064
1059
1052
1044
1042
1039
1039
1029
1027
1023
1019
1021
1019
1016
1012
1006
1006
1006
1010
1006
1002
997
999
1001
1003
1003
999
998
997
996
997
997
997
997
1000
1002
1006
1005
1004
1002
1004
1004
1009
1010
1010
1012
1016
1020
1023
1022
1019
1019
1021
1023
1027
1029
1025
1023
1022
1024
1029
1028
1030
1030
1031
1030
1034
1032
1028
1026
1026
1028
1030
1026
1025
1022
1020
1023
1024
1023
1019
1016
1016
1016
1017
1017
1013
1010
1013
1014
1017
1013
1010
1008
1011
1011
1011
1010
1008
1005
1006
1005
1006
1003
999
998
1000
1001
1002
1002
997
996
998
999
1000
1000
999
995
993
994
998
997
995
992
991
997
1000
1001
999
996
999
997
1000
1001
1000
995
994
992
995
996
998
994
1000
1002
1002
996
994
990
992
995
997
1000
996
999
1002
1000
1002
1003
1001
999
997
995
995
995
994
993
994
996
998
997
994
991
997
1001
1004
1000
996
995
998
1004
1009
1007
1006
1004
1006
1009
1014
1018
1017
1020
1020
1022
1029
1030
1037
1038
1048
1056
1066
1074
1069
1055
1043
1041
1045
1045
1042
1040
1038
1035
1026
1019
1013
1009
1009
1010
1010
1010
1008
1003
1006
1013
1013
1012
1008
1004
1005
1007
1006
1003
1000
1013
1043
1100
1176
1261
1335
1383
1408
1417
1408
1372
1298
1185
1057
943
903
922
960
975
972
970
977
987
992
989
991
995
995
996
994
987
987
990
989
988
987
983
988
991
992
993
990
991
990
993
993
989
989
986
986
991
994
992
992
992
990
993
995
997
996
995
997
1001
1001
1004
1004
1003
1004
1007
1011
1013
1011
1013
1017
1018
1022
1024
1023
1022
1023
1031
1038
1039
1043
1044
1046
1052
1056
1061
1062
1066
1073
1078
1085
1085
1086
1088
1095
1103
1106
1112
1110
1109
1112
1116
1118
1117
1113
1110
1108
1110
1110
1105
1099
1093
1087
1085
1082
1076
1069
1066
1060
1056
1054
1050
1041
1034
1030
1029
1031
1029
1026
1021
1018
1020
1016
1010
1005
1002
1004
1006
1005
1004
1001
999
997
997
998
997
998
999
1008
1006
1006
1002
997
994
997
999
1005
1009
1009
1007
1008
1011
1014
1013
1009
1009
1014
1015
1020
1016
1017
1015
1017
1020
1017
1019
1018
1017
1016
1021
1023
1025
1022
1021
1023
1020
1020
1017
1012
1010
1010
1012
1010
1008
1005
1003
1002
1004
1004
1005
1003
997
995
997
999
1000
996
990
988
986
988
988
985
984
983
985
987
987
986
984
984
986
984
982
979
980
980
982
983
980
978
975
975
973
978
977
975
973
971
970
970
976
977
975
977
977
981
976
973
972
973
975
973
971
968
964
968
968
967
967
965
962
961
966
968
968
966
964
965
969
970
968
969
968
969
970
975
974
974
968
969
972
974
973
969
966
971
976
978
976
973
971
975
979
980
975
971
966
967
970
971
971
970
970
972
970
974
977
981
980
982
984
986
988
987
988
995
1004
1013
1021
1023
1033
1041
1047
1043
1030
1018
1011
1013
1014
1016
1017
1010
1000
995
990
992
988
985
979
977
977
976
978
974
973
972
976
979
981
979
975
976
975
980
980
990
1008
1045
1104
1185
1266
1326
1361
1383
1395
1392
1369
1326
1246
1135
1009
909
871
889
918
933
933
938
945
946
949
951
954
959
958
956
955
955
957
959
960
957
958
958
958
961
961
960
960
957
956
959
961
957
957
957
961
964
964
963
961
960
961
964
962
960
959
957
965
964
966
967
967
964
970
975
975
974
976
977
981
983
985
984
982
986
988
995
999
996
998
1000
1000
1006
1009
1012
1015
1019
1025
1030
1034
1036
1036
1041
1048
1053
1055
1056
1056
1060
1062
1072
1075
1076
1075
1076
1080
1081
1081
1078
1075
1074
1072
1073
1069
1064
1054
1054
1049
1046
1042
1032
1027
1023
1020
1015
1015
1008
998
996
993
992
988
984
979
978
973
974
969
967
964
962
964
960
958
954
951
954
958
959
955
953
951
952
956
958
956
955
952
954
953
957
955
952
955
956
960
960
964
965
965
963
970
974
977
975
973
973
976
980
979
979
977
981
984
985
986
984
983
983
986
988
986
982
980
984
984
987
982
984
984
991
1001
1009
1013
1012
1017
1027
1039
1051
1060
1070
1083
1103
1129
1153
1178
1199
1220
1248
1274
1300
1306
1312
1308
1301
1289
1278
1255
1237
1222
1213
1205
1192
1175
1158
1150
1148
1149
1149
1138
1128
1119
1104
1076
1033
985
943
914
901
892
891
884
877
870
867
867
865
861
863
863
866
874
877
874
869
868
869
867
869
869
866
864
866
867
868
862
859
856
857
857
859
853
852
848
847
848
853
848
841
840
839
842
843
838
836
836
834
837
836
835
832
832
830
832
835
832
826
825
825
828
837
835
833
832
834
837
844
846
846
845
848
854
862
861
868
869
871
879
886
888
889
889
895
901
905
908
907
911
909
915
918
921
920
921
925
928
932
930
929
926
927
928
932
930
926
924
927
929
932
930
925
925
926
930
932
932
926
927
926
930
932
932
932
931
931
935
938
937
937
933
936
940
944
943
938
933
935
941
944
945
941
939
941
942
946
946
945
941
941
942
945
943
940
940
946
948
952
950
944
942
941
944
948
951
946
943
942
942
945
944
942
940
940
946
946
947
945
940
938
940
946
944
940
940
938
943
946
943
941
938
939
942
944
942
940
936
937
942
946
940
938
937
938
