943
948
951
957
959
961
964
965
962
969
972
977
981
986
989
993
992
991
995
1006
1013
1013
1013
1015
1018
1024
1027
1026
1021
1020
1022
1021
1027
1025
1026
1021
1019
1021
1022
1019
1017
1013
1009
1004
1005
1003
993
995
993
990
988
987
979
978
976
976
974
969
967
961
960
958
963
964
961
958
958
960
961
960
958
958
957
960
960
959
955
955
950
953
960
962
960
957
957
963
964
967
965
959
961
965
966
965
965
963
961
965
966
965
965
961
962
966
969
967
964
961
958
961
963
959
956
955
954
955
957
955
951
947
946
951
953
951
950
945
944
948
945
942
938
934
937
939
942
939
935
933
932
931
933
931
930
928
929
925
930
926
924
925
924
924
924
923
920
918
918
918
921
924
923
922
923
926
935
941
942
948
951
954
961
964
971
980
987
995
996
998
996
994
996
996
994
981
970
962
952
951
947
942
934
925
920
923
924
925
920
914
916
918
923
920
917
914
917
920
918
911
896
897
912
953
1021
1123
1230
1313
1376
1413
1428
1422
1391
1323
1204
1076
948
836
844
875
890
888
885
888
896
897
896
896
901
899
900
894
887
891
896
899
894
890
892
896
901
897
893
893
895
898
898
892
893
888
893
893
897
896
898
895
894
899
906
905
901
898
898
901
905
906
907
905
903
907
912
914
913
912
913
917
920
924
925
925
926
929
933
935
937
936
939
946
950
954
955
955
959
970
974
976
976
979
987
991
998
1002
1003
1006
1008
1008
1018
1021
1021
1017
1016
1016
1020
1018
1018
1012
1009
1007
1007
1003
998
992
987
988
986
977
968
963
964
965
965
961
952
945
943
941
944
943
941
935
927
929
933
931
925
924
925
931
933
925
919
914
919
920
923
924
919
914
918
919
930
929
926
922
922
923
926
931
933
929
931
936
941
937
935
938
944
951
958
966
968
969
973
984
996
1009
1025
1037
1058
1093
1128
1158
1171
1162
1138
1113
1085
1057
1025
983
926
861
794
747
732
741
762
784
792
786
772
763
762
773
784
789
795
801
812
823
836
851
865
875
882
890
902
913
923
926
929
932
932
929
927
933
936
940
943
945
944
942
941
946
949
950
946
946
948
946
956
959
958
955
957
959
964
966
964
964
969
976
983
984
984
982
986
1002
1011
1008
1002
1006
1018
1030
1046
1052
1053
1058
1065
1074
1082
1089
1094
1101
1103
1108
1113
1114
1115
1119
1118
1115
1111
1111
1109
1109
1108
1106
1103
1094
1084
1080
1078
1075
1070
1060
1054
1049
1045
1042
1040
1035
1031
1023
1013
1013
1015
1017
1011
1003
998
999
1001
1000
999
989
978
980
988
989
987
985
982
984
986
981
980
979
981
979
986
986
979
975
974
974
978
980
979
972
974
975
978
976
974
972
970
969
971
970
971
970
966
963
964
960
958
953
951
952
954
952
949
951
953
957
961
963
958
957
950
951
954
953
951
947
948
953
956
952
945
942
941
946
948
949
946
942
941
945
947
942
942
942
938
941
945
949
949
945
944
947
950
950
947
940
939
936
939
941
940
939
937
940
946
944
944
941
942
942
949
951
953
951
946
945
942
937
945
948
948
949
953
953
950
948
952
960
962
961
957
958
959
967
970
967
965
958
953
956
963
965
961
955
956
959
964
965
963
960
962
965
968
967
965
964
966
967
967
968
967
962
962
966
969
967
970
968
971
975
977
973
966
961
962
966
970
967
965
966
966
968
974
976
973
970
972
971
972
972
973
968
968
972
978
978
978
979
980
978
980
977
976
974
974
978
983
985
986
980
982
987
990
996
999
1003
1010
1011
1015
1019
1017
1021
1031
1042
1051
1055
1054
1053
1052
1052
1054
1051
1042
1031
1024
1016
1016
1012
1005
998
996
993
995
992
986
986
987
990
993
990
987
979
968
962
962
977
1010
1076
1169
1274
1363
1425
1456
1461
1447
1411
1339
1211
1083
955
914
943
974
980
973
966
970
974
976
972
968
964
960
964
967
966
963
963
964
964
963
965
961
958
958
958
963
961
959
957
956
958
960
958
956
955
957
958
963
963
958
958
957
961
963
963
962
962
963
967
969
969
966
967
966
971
973
973
971
975
976
981
984
989
990
990
992
995
1001
1001
997
1000
1004
1011
1017
1020
1017
1022
1021
1031
1036
1038
1040
1040
1045
1050
1056
1056
1055
1055
1057
1065
1063
1067
1064
1058
1055
1057
1058
1055
1050
1046
1045
1046
1045
1042
1033
1032
1026
1027
1030
1029
1027
1025
1022
1020
1013
1006
999
996
994
996
996
995
994
992
991
989
990
989
989
986
986
989
992
1000
997
995
994
994
999
1001
1001
1001
996
1002
1002
1003
1002
1003
1004
1005
1011
1013
1013
1017
1025
1030
1040
1048
1052
1057
1064
1074
1090
1111
1135
1166
1194
1213
1213
1183
1137
1085
1038
992
939
877
806
744
695
681
692
723
752
769
776
776
779
786
796
810
820
835
852
868
878
888
902
917
933
939
938
942
946
952
960
964
965
968
969
971
975
984
989
991
996
1002
1008
1009
1003
1000
1003
1009
1010
1014
1012
1012
1013
1016
1022
1023
1023
1024
1026
1029
1035
1039
1041
1043
1050
1056
1064
1069
1070
1075
1083
1091
1102
1109
1115
1123
1130
1142
1155
1165
1168
1175
1182
1196
1204
1206
1211
1212
1215
1219
1221
1221
1220
1214
1212
1211
1210
1204
1200
1190
1184
1178
1175
1164
1155
1146
1141
1140
1135
1125
1120
1110
1104
1098
1093
1085
1080
1071
1065
1060
1061
1055
1049
1041
1039
1042
1040
1032
1024
1027
1031
1030
1031
1031
1035
1030
1026
1022
1021
1021
1017
1013
1015
1014
1017
1016
1016
1012
1010
1011
1013
1010
1002
995
998
1002
1009
1003
997
992
991
993
996
995
989
984
982
987
993
991
985
976
971
976
982
981
977
974
975
972
972
974
972
967
961
961
958
958
958
960
955
958
957
956
954
958
963
965
967
967
964
961
959
957
960
958
956
955
953
954
954
956
959
958
956
955
957
955
956
955
955
954
952
951
947
942
941
940
939
941
953
955
954
951
952
955
958
951
941
940
944
949
948
944
944
950
958
959
957
948
947
951
952
955
952
951
953
955
955
956
950
947
944
947
954
963
960
954
951
952
957
960
958
956
957
961
963
960
954
948
946
950
951
952
949
949
950
949
949
950
947
947
949
950
954
955
952
946
946
949
949
947
949
948
950
953
956
958
952
951
953
957
959
957
951
947
951
954
958
957
953
950
954
958
959
955
953
948
949
953
952
954
948
945
950
958
963
963
961
959
962
962
963
963
959
954
956
961
957
958
958
955
952
959
963
962
959
958
963
966
968
963
963
966
970
970
968
965
965
966
970
970
976
982
987
990
994
998
1005
1012
1016
1023
1025
1033
1037
1038
1039
1038
1037
1033
1030
1020
1008
999
996
993
994
992
984
971
969
970
972
972
969
966
961
959
964
964
958
944
932
930
952
999
1070
1168
1276
1362
1420
1446
1449
1435
1400
1329
1213
1085
957
894
914
946
960
952
949
945
946
948
950
949
948
942
941
944
948
947
943
937
935
936
944
947
944
938
937
940
941
939
940
943
943
945
947
948
944
940
939
941
944
947
948
943
944
945
950
954
952
949
953
954
961
962
960
957
955
959
964
967
969
971
971
970
974
977
979
976
978
979
984
991
993
994
998
1003
1007
1011
1012
1010
1014
1016
1023
1029
1035
1033
1033
1035
1040
1042
1042
1044
1044
1050
1052
1051
1051
1048
1047
1048
1052
1051
1048
1040
1037
1032
1041
1036
1033
1026
1022
1022
1026
1026
1016
1008
1003
1004
1005
1006
1002
996
996
996
996
990
989
987
989
986
986
989
987
985
981
982
984
987
987
983
985
988
989
990
989
982
979
981
985
987
987
986
987
990
991
988
986
980
983
987
990
991
988
981
977
982
988
990
986
981
982
984
990
992
987
984
980
980
982
979
976
970
970
973
977
975
973
968
962
963
967
968
968
961
957
959
960
959
955
952
950
952
954
954
951
949
949
951
953
948
946
945
942
941
943
944
944
945
944
948
950
948
945
944
943
944
946
944
946
947
947
950
953
959
961
966
975
977
981
983
988
997
1007
1018
1021
1020
1016
1012
1015
1016
1017
1009
998
984
974
971
966
964
956
948
939
940
941
940
937
935
932
939
940
940
938
935
932
930
923
907
900
903
926
973
1047
1141
1245
1329
1389
1428
1442
1436
1413
1361
1267
1140
1012
893
864
889
912
920
917
917
917
918
917
920
920
920
916
909
910
911
912
912
912
909
912
912
914
916
916
914
916
916
919
915
912
908
905
907
911
914
912
910
912
914
917
917
918
914
915
919
923
926
925
922
923
928
931
934
932
931
932
935
939
943
943
945
943
949
954
957
957
958
962
965
970
973
970
969
973
976
983
986
988
989
993
998
1003
1004
1011
1013
1015
1020
1024
1031
1033
1032
1034
1040
1042
1043
1042
1040
1036
1037
1039
1036
1034
1026
1025
1025
1025
1020
1013
1008
1003
1003
1001
992
985
979
974
972
976
973
968
964
959
955
955
952
947
945
942
942
948
946
943
940
938
942
943
944
943
939
940
942
946
947
946
939
943
947
948
949
951
948
950
947
950
950
951
949
948
953
956
958
959
958
957
959
963
961
960
960
958
957
961
960
956
956
953
955
955
958
958
956
952
954
958
954
951
950
951
954
957
956
952
946
945
945
949
948
951
947
943
946
948
949
949
942
942
943
945
947
947
944
943
945
944
942
941
940
938
938
942
945
947
947
950
954
960
958
960
959
963
966
973
975
979
977
978
991
1008
1022
1024
1023
1021
1021
1023
1026
1025
1021
1012
999
994
983
974
970
960
960
952
950
947
943
944
942
947
946
945
942
944
940
944
944
941
930
922
912
914
926
955
1003
1081
1180
1272
1347
1397
1423
1434
1425
1392
1318
1204
1076
948
865
876
908
922
916
916
922
930
934
934
928
926
927
932
933
930
926
927
930
933
935
936
932
934
936
936
935
930
935
938
945
945
944
938
928
922
925
932
940
942
940
935
933
938
940
941
935
934
935
934
935
929
923
932
944
952
953
953
951
950
951
955
960
960
960
966
977
985
983
973
965
968
975
985
996
1002
1003
1001
1002
1004
1011
1016
1024
1033
1038
1043
1045
1049
1043
1043
1049
1061
1071
1068
1068
1067
1066
1059
1049
1045
1043
1032
1028
1039
1056
1058
1052
1039
1028
1023
1022
1028
1027
1026
1022
1010
995
989
984
983
986
988
994
1002
1002
992
982
970
963
957
954
945
944
948
948
952
963
970
973
981
983
975
959
948
946
955
963
952
936
943
964
980
981
979
973
969
965
959
951
953
960
970
973
964
954
955
967
979
976
976
978
979
979
979
973
961
946
941
936
936
943
958
976
988
985
975
964
962
965
977
976
956
934
935
945
944
944
956
970
980
973
959
945
932
922
914
924
939
949
947
939
933
931
932
938
938
923
908
907
921
937
944
942
936
929
917
918
930
937
939
936
928
929
943
943
923
906
913
936
946
943
938
949
958
961
956
957
965
979
992
993
991
995
999
1003
1006
988
960
948
962
971
954
939
947
962
960
943
917
893
893
913
930
937
931
925
917
912
912
915
922
925
926
913
900
892
911
963
1052
1161
1266
1343
1391
1411
1414
1401
1352
1264
1153
1031
910
844
840
858
881
901
913
916
919
919
916
906
898
896
902
903
898
892
892
894
896
902
906
909
903
891
878
888
906
913
913
912
910
898
889
888
904
909
902
898
914
922
909
908
916
919
917
912
912
914
918
917
914
908
913
914
919
923
920
915
915
919
930
937
934
917
913
938
950
943
937
943
954
957
946
935
941
963
984
988
992
993
981
954
947
992
1040
1043
1019
1006
1009
1019
1020
1023
1026
1023
1025
1031
1038
1023
998
984
1005
1035
1035
1009
997
1002
1005
994
979
975
974
977
980
978
975
969
960
946
935
938
950
960
961
956
944
932
924
927
935
931
932
948
954
948
938
931
936
945
946
937
926
922
934
948
952
951
942
927
914
918
921
929
951
968
966
954
950
960
964
957
951
951
963
977
980
970
971
986
1002
1002
1004
1014
1029
1036
1044
1064
1097
1129
1159
1179
1174
1138
1091
1043
1008
977
939
877
808
750
716
709
712
726
742
749
744
730
723
739
755
759
755
762
783
801
804
801
812
837
868
882
890
896
903
918
926
935
941
943
942
944
947
950
946
946
945
948
953
961
960
958
957
963
969
973
970
965
967
969
974
979
977
975
978
979
983
990
1000
1002
999
1000
1003
1013
1017
1017
1018
1034
1050
1057
1058
1065
1075
1090
1101
1099
1098
1114
1143
1158
1162
1162
1171
1180
1178
1174
1173
1185
1190
1184
1184
1203
1208
1194
1183
1187
1190
1184
1174
1169
1156
1140
1134
1131
1128
1129
1126
1118
1110
1104
1082
1051
1049
1066
1073
1063
1050
1043
1042
1039
1035
1027
1031
1028
1018
1002
997
1009
1019
1014
1010
1006
1001
1001
1005
1005
998
988
986
992
1000
997
992
986
997
996
985
978
982
985
989
985
989
988
986
980
978
977
981
975
962
955
963
972
969
963
959
959
966
968
964
951
945
948
947
948
955
960
961
958
952
946
949
951
955
948
940
935
942
950
946
941
940
938
936
940
947
948
948
944
936
929
937
948
948
941
940
942
939
936
941
943
943
938
939
935
933
941
948
947
945
944
945
944
941
939
934
929
938
955
954
949
943
946
947
946
946
950
951
946
934
939
950
955
947
948
947
946
940
940
947
955
956
953
953
948
937
939
954
960
963
964
963
955
946
944
949
944
938
945
952
953
951
953
959
961
955
941
937
946
962
958
951
952
957
962
959
954
954
961
964
959
951
946
954
963
963
963
965
961
956
957
962
964
960
956
956
964
969
970
960
949
955
965
976
979
972
972
970
979
989
997
989
985
990
1008
1022
1036
1043
1045
1035
1025
1024
1041
1047
1039
1028
1023
1022
1017
1007
991
985
984
983
976
968
964
960
963
971
979
981
969
958
955
957
954
940
938
963
1023
1114
1221
1317
1385
1429
1455
1462
1442
1390
1297
1169
1041
916
883
911
939
944
943
940
948
947
948
947
945
946
946
943
940
940
940
942
945
945
943
939
941
945
949
948
944
943
942
939
942
939
945
945
946
950
948
938
933
939
948
954
954
952
949
948
950
955
954
952
950
952
954
957
960
957
958
963
965
972
975
983
979
967
964
970
983
986
987
990
997
1002
1003
1007
1008
1008
1011
1012
1018
1019
1020
1020
1027
1033
1035
1036
1032
1037
1040
1045
1046
1045
1040
1036
1044
1044
1039
1035
1033
1029
1031
1033
1033
1036
1029
1019
1016
1020
1019
1013
1007
1003
1008
1007
1005
1003
997
991
992
995
997
997
989
987
987
992
992
989
982
983
984
990
988
986
988
988
988
993
995
993
988
987
987
992
995
992
989
992
996
997
997
995
994
995
997
997
991
988
983
983
984
985
986
986
982
977
983
986
985
982
978
976
974
978
976
976
973
969
971
973
974
972
969
969
969
970
970
968
963
965
963
964
967
964
962
961
964
968
968
965
960
957
954
957
958
961
961
961
963
968
972
973
974
973
980
988
990
995
999
1010
1016
1024
1026
1024
1020
1021
1024
1030
1022
1008
991
980
975
972
968
959
950
944
947
953
954
954
950
949
946
949
949
946
945
937
928
920
913
922
950
1010
1107
1222
1327
1396
1431
1440
1428
1388
1303
1175
1047
919
861
896
921
927
922
924
927
935
936
936
932
929
931
934
933
932
930
928
927
935
936
935
932
926
927
929
933
933
933
932
934
938
942
936
933
932
934
938
941
937
933
933
938
943
946
944
944
941
946
947
952
951
951
954
959
966
967
964
962
963
965
973
977
982
981
979
986
990
994
999
995
997
1006
1011
1016
1019
1021
1028
1035
1043
1044
1046
1048
1052
1054
1061
1062
1062
1058
1057
1057
1064
1062
1063
1058
1053
1051
1049
1046
1040
1030
1026
1024
1022
1021
1016
1010
1004
1002
1003
1000
994
990
983
981
983
983
974
974
971
970
972
973
970
965
958
963
965
967
967
966
962
966
971
974
971
970
970
968
976
980
980
973
970
972
973
975
977
978
978
979
982
985
987
981
986
987
988
988
985
983
981
983
985
986
987
984
980
979
978
979
980
978
977
976
980
978
973
972
970
972
972
971
970
969
968
971
969
971
967
963
964
962
964
969
968
966
962
965
970
970
970
968
967
971
974
978
981
981
982
988
993
1005
1010
1016
1022
1023
1024
1024
1024
1025
1026
1026
1020
1010
998
985
979
974
969
965
958
952
951
950
954
954
952
951
951
953
955
956
954
945
936
927
926
944
977
1043
1140
1249
1345
1408
1441
1449
1430
1386
1302
1174
1046
918
870
897
924
933
928
929
928
931
934
933
931
928
926
930
929
925
919
914
915
917
919
922
922
921
921
919
922
924
925
920
922
920
923
926
926
921
922
922
926
923
921
918
918
921
920
925
925
925
928
930
933
934
935
933
934
937
943
948
945
946
947
949
953
954
958
957
960
966
974
978
979
974
980
984
985
993
996
990
996
1006
1015
1024
1030
1030
1029
1030
1031
1032
1033
1034
1032
1035
1031
1031
1029
1025
1020
1019
1013
1011
1007
999
996
996
997
993
987
981
977
975
974
973
973
968
965
964
965
967
965
962
961
962
966
967
964
960
956
957
963
965
966
962
961
963
969
972
972
972
971
974
976
977
976
976
976
978
983
986
986
986
984
991
1002
1012
1019
1026
1042
1055
1067
1073
1086
1100
1124
1149
1175
1197
1195
1164
1117
1067
1024
985
941
899
851
801
761
736
732
743
764
783
791
788
783
781
786
798
807
811
820
830
845
859
871
884
900
912
926
938
946
953
963
968
971
975
982
986
986
984
987
989
994
999
1001
1001
