1011
1018
1020
1023
1024
1023
1019
1023
1027
1032
1034
1034
1034
1034
1039
1043
1044
1045
1042
1037
1044
1045
1044
1041
1041
1045
1051
1058
1061
1059
1056
1053
1048
1044
1036
1029
1026
1026
1023
1013
990
954
918
900
900
905
896
878
856
839
826
829
834
850
865
890
924
962
999
1033
1059
1074
1072
1064
1047
1026
1009
997
987
984
980
975
963
959
963
960
960
959
957
954
959
963
964
969
969
969
973
975
975
971
971
975
977
979
979
978
978
979
986
991
991
988
986
989
992
998
999
997
995
993
1001
1013
1012
1019
1021
1026
1029
1034
1037
1044
1049
1055
1063
1070
1078
1080
1083
1093
1101
1112
1118
1122
1125
1130
1139
1145
1147
1150
1151
1155
1159
1163
1161
1159
1156
1159
1161
1164
1164
1157
1153
1147
1148
1145
1137
1130
1125
1123
1119
1114
1111
1102
1096
1091
1089
1085
1079
1069
1058
1050
1046
1051
1050
1043
1039
1033
1034
1035
1033
1030
1027
1026
1029
1030
1027
1023
1022
1024
1029
1034
1028
1027
1023
1023
1026
1029
1028
1028
1022
1023
1023
1024
1019
1015
1014
1013
1015
1016
1008
1008
1007
1004
1007
1010
1007
1003
1002
1000
1002
1002
999
999
998
997
998
996
995
992
991
990
990
992
988
985
982
987
985
986
983
981
977
976
981
982
978
978
975
975
979
981
980
976
973
973
970
968
967
967
967
969
969
972
972
970
967
963
967
969
965
963
961
962
966
972
970
965
958
960
963
970
968
966
962
962
962
960
959
962
961
962
962
967
966
966
963
963
964
963
964
961
961
963
967
966
964
960
959
962
965
966
964
961
958
960
961
964
962
961
959
960
963
968
965
961
960
957
961
964
962
962
957
958
963
964
965
962
966
967
966
966
964
960
959
962
964
967
962
958
958
960
962
967
966
964
960
961
966
968
966
962
960
961
963
967
968
967
959
958
964
965
965
963
961
960
960
967
964
961
958
956
960
965
964
960
959
964
966
970
969
965
963
960
962
965
962
957
959
962
965
970
970
965
963
960
962
964
965
962
960
961
964
968
970
969
966
966
968
970
969
967
963
965
964
969
969
970
967
964
970
972
970
966
966
966
968
971
968
964
966
970
971
974
969
964
961
963
966
974
970
972
968
966
972
974
975
974
971
974
977
985
992
993
990
991
996
1000
1007
1017
1022
1025
1028
1027
1031
1031
1030
1031
1031
1031
1023
1017
1006
1000
1001
1001
997
989
978
974
972
974
974
974
974
976
979
977
974
969
966
961
957
947
949
963
989
1046
1127
1211
1283
1333
1368
1387
1394
1374
1333
1255
1155
1039
939
886
894
927
945
944
945
950
950
950
949
953
954
953
952
949
949
952
949
951
953
951
947
947
950
953
950
952
949
949
952
952
951
950
949
951
953
955
952
953
947
946
948
952
952
952
953
952
955
956
957
956
955
957
961
967
967
967
965
968
970
975
975
979
979
980
984
988
990
990
991
996
1003
1012
1013
1014
1012
1014
1020
1026
1026
1028
1031
1034
1036
1047
1048
1054
1055
1059
1066
1071
1071
1073
1072
1073
1074
1078
1081
1081
1081
1080
1083
1086
1083
1075
1067
1067
1066
1068
1067
1068
1061
1054
1051
1047
1044
1039
1032
1027
1027
1025
1023
1021
1015
1013
1013
1010
1009
1006
1002
1001
1002
1001
997
993
990
990
993
996
994
990
986
985
987
988
990
991
989
990
992
994
996
989
991
993
996
1000
1002
1002
998
1003
1003
1009
1007
1002
1005
1003
1006
1009
1011
1012
1008
1006
1011
1019
1021
1024
1026
1031
1038
1048
1055
1060
1061
1062
1069
1085
1102
1120
1148
1177
1201
1208
1193
1165
1127
1090
1054
1023
977
916
849
781
733
715
718
734
751
758
760
756
750
745
750
755
768
778
791
807
823
837
847
865
883
893
900
906
915
925
929
926
925
930
943
954
958
960
960
959
959
966
969
969
971
971
978
985
983
980
980
980
986
992
995
994
992
993
998
1002
1004
1002
1003
1005
1010
1018
1022
1022
1021
1027
1034
1043
1048
1051
1057
1061
1074
1082
1091
1098
1107
1115
1125
1134
1140
1146
1150
1157
1166
1174
1176
1179
1178
1179
1182
1186
1183
1183
1178
1174
1176
1174
1172
1164
1156
1152
1146
1142
1134
1123
1116
1109
1104
1098
1094
1081
1072
1070
1064
1057
1058
1050
1043
1035
1035
1032
1026
1026
1018
1014
1016
1014
1010
1009
1003
1002
1004
1009
1003
999
997
996
997
1001
999
996
994
995
998
996
990
988
987
984
987
992
991
990
987
985
987
989
986
984
985
982
982
978
979
977
978
974
976
977
978
973
968
965
964
969
970
966
965
961
960
960
962
956
951
954
956
957
953
946
945
945
948
950
946
940
938
935
932
941
941
940
936
934
934
934
937
934
931
930
931
932
932
931
927
927
927
929
931
927
924
926
923
926
929
927
917
918
922
921
923
922
919
916
918
921
922
918
919
919
922
922
916
915
914
916
916
920
921
922
919
915
918
922
921
920
919
919
919
922
923
920
917
919
922
925
923
921
919
920
923
924
923
924
917
920
916
921
925
926
926
923
923
931
928
923
923
922
925
927
925
922
920
925
930
934
932
929
923
929
931
932
932
932
926
928
930
933
935
932
934
929
933
936
938
937
935
932
929
934
937
936
935
934
933
935
935
933
932
934
938
938
939
938
937
937
936
939
939
939
937
935
937
940
939
937
933
935
942
947
943
936
933
937
939
939
941
941
938
939
940
941
940
943
940
942
944
947
945
942
939
941
947
949
948
937
929
933
947
953
951
948
946
946
949
949
950
950
945
945
946
948
952
951
946
946
948
953
954
950
948
950
950
959
962
965
963
969
971
975
977
985
995
1006
1013
1015
1015
1011
1008
1006
1003
997
988
981
974
969
967
966
960
955
952
949
950
952
952
950
949
951
954
954
947
937
928
931
949
988
1058
1144
1232
1300
1344
1363
1350
1309
1234
1127
1011
903
856
871
899
912
915
917
923
928
929
929
930
935
933
929
929
928
930
933
934
929
925
930
931
933
932
931
930
929
930
934
938
937
934
932
929
934
936
936
934
934
939
943
946
940
935
935
942
946
946
943
940
944
946
949
950
952
948
950
957
966
966
964
964
964
971
978
979
982
983
984
989
994
999
1001
1001
1002
1010
1017
1020
1019
1022
1026
1030
1033
1037
1037
1041
1045
1048
1051
1052
1050
1049
1048
1050
1051
1048
1047
1046
1041
1040
1041
1037
1033
1025
1020
1023
1022
1018
1008
1000
999
1002
1000
997
994
987
983
982
985
986
981
975
974
974
978
982
981
977
977
977
976
979
976
977
976
977
979
983
981
981
981
985
988
992
990
988
987
989
992
992
993
993
994
997
1001
1004
1007
1006
1008
1010
1012
1014
1012
1007
1006
1007
1006
1006
1004
1001
998
1002
1002
1000
996
991
993
993
995
993
988
984
983
984
986
985
983
981
983
983
981
982
976
970
967
969
971
965
966
964
965
966
965
964
962
959
956
961
962
965
961
956
955
957
959
959
957
952
954
956
957
952
955
955
954
951
955
957
959
954
953
950
954
955
954
950
949
952
955
956
955
954
951
954
958
958
955
951
951
953
955
957
954
954
954
953
953
954
953
954
950
953
960
958
957
954
955
958
964
964
967
967
972
978
983
987
988
988
995
1008
1021
1025
1024
1017
1016
1021
1022
1027
1022
1010
998
992
990
987
981
971
969
966
964
959
959
954
954
955
954
956
958
956
952
952
946
937
925
919
937
970
1028
1121
1220
1299
1353
1380
1379
1340
1260
1146
1018
900
861
891
923
934
932
935
943
946
946
942
942
943
946
943
944
941
943
946
953
959
962
957
946
938
938
939
941
940
937
933
935
936
939
939
940
944
948
952
947
945
946
950
962
962
957
952
954
960
964
968
968
963
962
973
978
985
986
985
986
990
993
996
1000
998
1002
1008
1015
1023
1027
1029
1031
1042
1051
1055
1060
1064
1069
1077
1080
1078
1078
1075
1074
1080
1087
1092
1095
1089
1084
1084
1084
1083
1074
1068
1062
1061
1062
1056
1050
1037
1034
1028
1026
1023
1016
1007
1004
1003
1005
1003
997
987
984
985
986
986
984
978
978
981
983
979
975
975
973
977
978
973
967
962
963
967
971
973
970
967
969
972
981
983
979
974
973
974
974
978
981
986
982
981
983
987
987
984
978
976
973
981
983
984
982
984
995
1004
1012
1016
1023
1035
1046
1056
1067
1086
1112
1137
1152
1138
1102
1055
1005
966
939
913
867
807
750
724
721
729
733
733
732
726
725
727
735
745
758
777
799
818
842
861
877
888
899
903
918
929
938
943
945
941
935
935
941
954
967
975
968
958
950
949
955
962
967
967
964
968
972
980
979
980
980
981
984
988
994
996
998
999
999
1000
1002
1005
1009
1018
1026
1031
1039
1042
1050
1058
1073
1080
1087
1093
1099
1112
1125
1133
1136
1144
1151
1155
1159
1162
1163
1162
1161
1166
1170
1168
1171
1165
1165
1165
1165
1165
1160
1149
1144
1140
1136
1134
1129
1117
1101
1084
1072
1069
1068
1063
1055
1042
1028
1018
1009
1004
1008
1015
1019
1016
1007
995
986
984
988
990
989
981
978
975
978
984
987
983
982
982
985
986
988
985
982
981
980
977
977
977
978
979
977
972
975
974
975
973
967
961
962
966
971
969
969
966
961
960
958
957
959
963
965
965
960
954
950
948
943
942
940
942
943
941
939
937
945
950
943
932
917
914
921
927
929
927
926
926
926
927
927
928
926
925
927
930
933
929
924
922
927
929
926
916
906
904
911
918
920
913
908
909
911
914
919
917
912
907
905
911
917
924
925
923
921
924
924
920
911
897
888
898
908
914
910
902
898
901
910
913
911
910
902
903
902
907
917
918
913
911
910
909
902
895
893
898
903
908
908
908
907
908
908
909
910
909
914
919
923
924
920
916
906
905
904
902
902
898
901
905
907
912
913
908
908
906
911
920
915
908
900
903
909
915
912
906
902
909
914
915
912
910
913
919
922
925
915
909
907
910
913
913
911
909
907
907
907
911
908
912
913
921
923
928
919
903
898
901
910
913
910
907
906
910
913
910
907
905
909
912
914
916
914
914
913
914
917
919
918
911
906
910
916
919
919
914
913
917
920
921
922
918
917
919
920
918
917
913
913
916
923
925
924
922
921
925
931
932
930
928
932
934
941
943
948
959
968
983
989
986
983
976
972
970
969
969
963
955
951
943
940
939
938
935
933
927
926
924
926
926
928
933
938
939
934
921
913
912
914
918
920
935
970
1040
1128
1214
1276
1311
1328
1334
1317
1276
1194
1090
968
859
825
845
875
887
883
885
892
898
903
906
910
915
917
918
913
901
889
885
886
893
896
897
901
905
906
911
909
905
903
904
907
912
916
916
909
908
901
898
900
905
912
922
927
924
909
899
898
904
920
938
943
942
940
945
944
936
926
917
909
912
923
939
942
935
935
940
951
955
949
945
948
959
967
974
970
965
960
962
964
971
976
983
996
1008
1013
1013
1006
1004
1011
1018
1030
1034
1032
1024
1020
1020
1026
1033
1038
1044
1052
1054
1048
1033
1025
1021
1031
1039
1047
1033
1006
983
969
969
969
970
970
970
966
967
969
967
963
959
958
958
961
958
955
955
951
956
959
959
962
955
952
946
948
947
946
945
945
946
949
948
945
942
944
950
950
957
958
959
956
954
959
962
962
960
963
965
970
973
972
970
971
971
970
971
969
968
973
980
980
981
975
973
972
975
977
976
975
970
969
966
967
967
967
966
968
970
976
976
974
966
957
951
949
949
948
946
946
948
952
951
949
942
939
944
945
948
946
940
932
934
940
945
944
940
938
944
948
951
946
940
932
933
938
945
938
927
925
927
930
934
945
944
941
940
943
942
942
937
936
941
940
942
940
936
937
935
938
939
934
932
933
936
937
941
935
934
933
937
939
937
934
938
938
941
946
947
949
944
946
948
950
950
951
950
960
967
972
964
954
948
951
963
969
978
982
986
987
990
992
997
998
996
994
992
994
989
983
974
968
960
954
943
938
937
936
935
940
939
936
934
932
933
936
939
938
935
930
925
924
920
921
936
973
1036
1120
1201
1263
1301
1328
1341
1335
1306
1253
1181
1087
982
889
842
847
874
892
898
902
909
912
911
916
918
919
918
911
916
914
916
918
920
921
917
918
922
924
926
927
920
918
918
921
927
927
924
923
922
930
934
931
924
917
915
914
918
916
914
920
930
933
933
930
929
932
935
941
945
943
941
940
942
950
954
956
956
956
959
964
965
963
965
969
975
977
984
989
989
995
1001
1009
1014
1016
1015
1017
1024
1030
1033
1040
1040
1044
1050
1057
1061
1061
1067
1069
1073
1076
1074
1075
1074
1073
1078
1077
1075
1068
1058
1054
1051
1048
1044
1039
1027
1019
1013
1011
1008
1002
998
995
991
989
983
976
969
969
968
967
967
961
955
955
956
958
960
957
955
955
951
950
946
943
941
939
942
948
946
947
943
941
944
943
946
945
945
946
944
946
951
957
956
954
956
952
951
945
938
940
948
957
963
963
961
958
960
954
958
958
962
967
970
972
975
976
978
978
983
989
995
1003
1008
1012
1018
1028
1039
1052
1063
1083
1113
1143
1166
1164
1151
1124
1096
1068
1041
1014
977
918
852
794
759
742
739
746
755
752
744
731
724
722
724
733
745
760
772
786
802
820
839
858
868
875
882
892
906
915
917
922
925
930
931
934
938
939
940
933
930
930
934
941
948
955
954
953
950
950
954
956
957
958
955
955
964
968
973
971
970
969
977
980
985
989
991
995
1000
1000
1003
1003
1007
1012
1020
1028
1041
1047
1049
1056
1064
1075
1085
1094
1101
1109
1116
1125
1134
1142
1144
1147
1154
1159
1166
1166
1166
1163
1161
1162
1164
1158
1154
1146
1140
1137
1134
1129
1119
1110
1103
1099
1089
1079
1069
1060
1055
1048
1044
1037
1030
1025
1022
1020
1014
1008
1006
1005
1005
1005
1005
1002
997
992
988
985
990
990
988
985
987
987
993
997
997
993
987
985
990
994
1001
1007
1018
1026
1028
1030
1034
1052
1074
1098
1120
1148
1174
1207
1236
1254
1263
1277
1292
1306
1315
1308
1296
1280
1264
1254
1255
1258
1263
1270
1281
1296
1302
1285
1241
1181
1116
1055
1006
967
934
916
907
896
886
875
870
864
856
850
844
841
839
834
827
823
820
819
820
816
809
807
808
817
820
819
814
811
814
817
820
818
818
816
813
813
810
806
803
798
796
800
798
795
791
786
780
778
775
770
765
764
761
761
760
753
748
741
741
738
736
733
731
730
732
734
734
727
722
722
725
731
734
735
735
737
744
754
763
766
767
772
781
790
798
799
801
812
821
829
831
829
836
843
851
861
868
869
867
868
870
879
882
884
883
885
888
895
903
902
898
891
896
904
909
912
913
909
906
901
909
910
911
913
917
919
917
913
909
910
914
918
922
920
919
919
921
926
927
920
916
918
918
917
923
925
925
918
908
910
918
924
924
921
921
923
923
919
919
919
922
924
923
922
923
922
922
924
922
918
916
914
917
918
922
916
912
911
912
915
917
914
912
908
909
908
915
917
914
911
910
914
914
910
910
909
908
909
909
910
909
911
911
913
914
912
912
908
906
910
912
909
907
901
903
908
911
909
904
904
906
909
913
909
906
907
911
912
916
911
904
905
906
909
909
911
908
908
907
910
909
908
904
906
906
911
912
911
910
907
907
912
914
911
909
908
910
913
916
916
912
909
910
909
912
913
915
916
916
920
921
920
913
911
912
916
924
918
917
914
912
907
912
916
915
912
912
914
915
913
912
910
911
916
916
918
917
916
919
924
925
927
922
921
922
922
923
920
916
912
914
918
921
922
921
918
921
922
925
924
921
917
920
920
925
924
922
922
925
927
930
931
932
929
927
925
924
925
923
926
927
931
933
934
930
933
936
937
938
932
929
925
924
924
924
926
926
929
931
933
933
932
933
930
931
932
935
935
931
930
934
940
942
940
941
938
940
941
941
937
938
939
948
950
952
948
941
932
931
936
941
941
945
948
950
952
958
958
963
967
978
990
1004
1006
1004
1001
1001
1000
1005
1001
997
984
978
975
975
972
965
961
956
957
952
949
946
946
949
953
951
951
947
949
950
955
955
949
945
948
969
1006
1069
1148
1223
1285
1322
1339
1336
1309
1255
1170
1070
977
901
872
884
903
916
920
924
929
930
932
931
927
924
920
919
922
924
929
931
933
933
931
930
933
937
933
930
929
930
933
936
932
926
923
921
929
939
941
940
934
929
926
927
928
931
934
935
940
941
941
945
947
948
948
947
947
945
938
940
946
955
957
960
958
959
963
971
979
977
977
982
986
989
992
996
1000
1010
1018
1020
1011
1005
1002
1015
1025
1032
1034
1029
1028
1031
1034
1043
1040
1041
1041
1042
1042
1041
1039
1040
1038
1035
1034
1031
1024
1019
1016
1014
1014
1015
1009
1001
1000
999
998
997
997
989
985
985
984
985
984
979
979
980
982
986
982
979
972
969
973
976
976
973
972
972
978
985
984
984
981
981
984
985
990
991
992
991
991
990
988
992
992
995
1001
1003
1001
997
994
996
1000
1002
1005
1006
1004
1004
1010
1015
1018
1014
1005
1001
997
995
990
980
975
972
966
944
918
891
878
881
886
880
860
837
822
818
821
832
850
869
900
936
972
1006
1030
1039
1033
1017
999
981
959
946
936
934
935
934
931
928
926
929
931
932
932
933
935
938
941
944
939
939
934
938
940
943
941
939
940
943
945
949
949
948
944
943
947
949
951
950
954
956
963
963
966
968
975
978
984
988
994
995
999
1003
1015
1023
1032
1033
1034
1040
1046
1051
1059
1064
1073
1079
1086
1094
1091
1091
1096
1105
1108
1114
1114
