954
957
961
967
970
970
968
966
971
974
978
982
979
981
983
986
990
987
991
990
996
998
1003
1005
1005
1009
1012
1019
1022
1026
1027
1031
1038
1046
1054
1057
1062
1067
1076
1085
1094
1100
1107
1112
1117
1126
1132
1140
1143
1143
1149
1155
1160
1160
1160
1161
1162
1164
1164
1161
1154
1150
1150
1149
1148
1143
1138
1131
1126
1123
1119
1111
1104
1097
1091
1086
1081
1073
1069
1061
1057
1050
1048
1043
1038
1031
1027
1025
1027
1023
1020
1016
1015
1015
1015
1011
1011
1005
1007
1008
1011
1007
1005
1007
1007
1011
1015
1016
1014
1015
1018
1025
1032
1036
1043
1049
1056
1070
1081
1091
1102
1111
1126
1141
1154
1168
1177
1185
1192
1198
1195
1186
1177
1166
1154
1142
1131
1113
1100
1091
1083
1075
1064
1045
1026
1007
990
975
968
955
947
937
931
926
923
914
908
903
897
897
891
883
880
874
873
878
879
875
871
870
868
870
875
875
870
870
870
875
878
876
872
869
870
872
872
869
864
863
864
864
869
865
861
860
864
864
863
862
856
856
858
861
867
865
861
858
867
872
875
874
877
878
881
888
894
897
897
902
908
915
921
922
924
924
930
935
944
944
944
944
947
949
953
954
952
954
953
955
960
956
952
954
955
957
959
959
955
952
953
951
954
955
953
953
954
954
957
956
952
952
951
958
958
956
951
953
954
957
960
957
957
954
954
957
961
957
954
954
953
956
959
956
954
953
955
956
955
954
952
950
952
954
957
956
952
948
948
951
955
951
950
948
949
950
952
948
948
944
946
947
946
946
942
941
943
945
947
944
938
938
942
944
945
944
940
939
941
942
942
940
938
938
938
937
940
943
940
937
936
939
941
938
939
938
937
940
942
942
939
937
938
941
943
940
941
939
940
940
940
940
941
936
936
939
940
941
939
936
938
940
942
944
939
937
940
942
943
943
942
939
938
940
942
944
942
938
939
942
944
943
941
939
940
944
947
944
942
939
939
943
949
945
944
939
940
945
949
948
944
941
941
944
950
946
948
945
944
948
949
946
944
945
947
952
951
952
947
948
949
951
954
950
950
947
950
950
954
952
950
950
949
953
956
957
954
949
951
954
956
958
955
954
956
954
955
958
956
953
953
959
960
958
957
955
957
962
963
961
957
956
957
959
961
959
959
956
958
957
963
963
957
957
958
963
963
963
958
958
961
963
965
966
964
959
962
963
966
962
961
960
962
965
966
965
962
962
964
966
968
968
966
963
964
966
968
969
967
967
967
972
973
970
970
969
970
971
975
974
969
972
973
974
977
978
977
977
977
979
983
981
984
984
985
988
993
992
991
992
998
1003
1007
1009
1007
1009
1014
1021
1023
1022
1016
1016
1013
1011
1011
1008
1007
1000
999
1001
999
994
991
989
991
994
993
991
995
992
996
1001
1003
1006
1007
1010
1020
1033
1055
1081
1110
1141
1166
1188
1198
1195
1186
1163
1133
1094
1052
1012
985
976
980
981
984
977
972
974
970
971
975
974
970
965
965
966
970
970
966
965
964
966
970
968
963
963
966
968
969
968
964
964
964
965
971
972
971
968
967
973
976
973
975
973
976
977
982
979
979
974
978
983
988
988
990
989
991
996
999
1000
998
998
998
1004
1011
1014
1013
1014
1017
1021
1026
1027
1024
1028
1033
1039
1043
1044
1045
1044
1050
1053
1060
1060
1061
1063
1062
1066
1070
1070
1071
1071
1071
1075
1077
1075
1073
1072
1073
1073
1076
1071
1068
1063
1061
1062
1062
1060
1055
1052
1049
1047
1048
1045
1043
1035
1033
1037
1035
1034
1028
1025
1020
1022
1024
1023
1020
1015
1014
1018
1016
1016
1011
1009
1009
1013
1016
1014
1012
1009
1008
1010
1010
1012
1012
1012
1012
1017
1017
1015
1014
1013
1015
1019
1018
1018
1017
1015
1017
1019
1021
1020
1018
1016
1018
1018
1018
1020
1019
1016
1016
1016
1016
1016
1014
1010
1010
1009
1015
1013
1010
1005
1008
1006
1008
1005
1001
996
998
1000
1000
1000
993
993
991
992
994
993
989
988
987
989
990
985
986
983
980
982
985
983
983
979
978
980
980
978
977
977
976
975
977
977
973
972
973
973
975
976
972
971
971
973
976
974
971
971
968
971
973
972
968
968
965
971
972
967
965
967
966
970
971
971
964
963
967
970
969
970
968
963
963
967
970
969
969
964
966
967
971
970
964
960
967
968
967
967
965
965
965
967
968
970
967
965
966
965
971
968
968
965
963
967
967
970
968
966
965
971
972
970
968
965
967
970
975
972
969
964
969
968
973
971
969
968
968
971
974
973
967
969
971
971
975
976
975
969
974
978
984
979
980
980
984
987
990
992
993
991
994
1001
1004
1007
1006
1008
1012
1018
1019
1020
1016
1014
1013
1012
1015
1011
1008
1003
999
997
1000
996
993
990
990
992
992
992
990
988
989
992
996
996
998
998
1000
1005
1009
1011
1016
1024
1041
1068
1100
1132
1160
1181
1194
1204
1204
1191
1167
1132
1091
1051
1016
995
989
990
988
986
988
985
982
980
976
975
978
975
973
971
970
971
973
969
965
966
968
970
969
969
966
967
966
971
973
971
969
968
969
971
975
972
971
969
969
976
977
977
975
972
973
977
982
981
983
981
984
985
987
989
987
986
989
993
994
997
999
996
999
1004
1009
1009
1010
1010
1016
1018
1023
1024
1024
1026
1033
1036
1045
1045
1047
1046
1051
1056
1064
1066
1064
1066
1070
1075
1080
1082
1084
1084
1086
1091
1094
1096
1093
1092
1095
1095
1098
1095
1093
1087
1085
1086
1085
1084
1078
1072
1071
1064
1065
1060
1056
1050
1046
1045
1046
1042
1036
1029
1028
1027
1028
1024
1021
1013
1009
1009
1010
1010
1004
1003
1002
999
1001
998
996
991
993
994
994
992
992
986
985
987
991
989
987
983
985
986
990
990
987
984
984
990
991
988
987
986
986
991
994
992
990
990
991
993
998
996
994
989
992
996
996
998
995
992
990
994
1000
997
994
992
993
993
997
997
993
987
989
987
992
991
990
984
984
988
986
986
982
979
980
981
981
981
979
977
978
980
980
978
975
970
972
974
977
976
973
971
968
966
970
970
970
966
967
969
971
968
967
962
961
966
972
969
965
962
960
963
965
963
966
961
960
960
967
967
965
961
960
962
964
963
958
959
960
964
967
965
961
960
960
961
959
959
961
958
959
962
963
962
961
958
960
958
963
963
959
956
961
960
962
961
962
957
957
960
963
963
961
959
959
961
962
963
961
959
961
963
963
964
961
958
958
962
967
966
961
961
962
964
966
964
962
959
958
963
965
965
965
961
959
963
968
966
967
964
966
966
966
967
968
967
969
972
976
974
971
973
975
980
982
984
983
981
988
993
999
1001
1000
1004
1005
1011
1014
1013
1011
1007
1003
1002
1000
994
998
994
992
993
991
986
984
980
977
981
980
979
976
977
977
981
986
980
984
984
986
991
993
997
996
998
1005
1016
1034
1057
1086
1120
1154
1177
1196
1203
1201
1188
1167
1137
1101
1054
1010
984
980
984
985
975
974
972
973
972
970
971
968
964
962
963
966
965
962
956
960
961
963
961
958
956
956
958
958
959
955
955
956
959
962
958
959
955
956
962
964
964
963
963
960
965
969
968
968
966
969
972
975
974
974
973
977
980
985
984
981
984
986
990
995
996
996
1000
1001
1006
1007
1010
1013
1011
1016
1019
1023
1030
1029
1027
1029
1038
1044
1047
1050
1051
1054
1059
1069
1071
1072
1072
1077
1083
1085
1088
1087
1087
1089
1091
1093
1094
1089
1084
1088
1092
1089
1086
1082
1077
1073
1071
1070
1062
1058
1052
1048
1049
1048
1043
1034
1027
1027
1026
1025
1021
1017
1010
1010
1006
1007
1005
998
994
995
993
995
990
985
983
981
982
982
981
976
975
976
975
976
977
974
971
969
971
975
973
970
969
969
970
973
971
968
966
971
971
971
973
971
970
968
974
974
977
976
973
975
976
981
979
976
973
975
978
982
980
975
972
975
977
980
979
974
973
969
975
977
978
974
971
972
971
973
972
970
967
967
969
972
967
966
961
964
968
968
971
963
963
962
962
966
965
962
959
959
961
960
962
961
956
958
961
961
961
958
955
955
958
962
959
956
953
952
957
960
960
956
954
954
955
956
958
954
949
951
953
955
955
954
948
948
953
956
955
951
951
949
952
954
954
951
949
951
950
952
954
953
950
950
952
956
955
954
951
953
953
953
955
953
950
952
953
957
956
956
952
950
954
958
956
953
948
950
955
955
957
956
953
956
956
959
960
958
950
953
960
960
961
959
955
955
959
961
964
960
958
959
961
964
964
962
961
965
969
972
971
971
971
973
979
984
986
987
987
988
994
1000
1002
1001
999
1001
1002
999
998
994
992
991
991
991
988
984
977
975
978
976
979
975
972
970
974
976
976
978
976
978
980
985
985
987
987
991
1002
1014
1026
1045
1073
1106
1139
1165
1181
1187
1180
1166
1147
1109
1065
1014
980
966
968
972
969
963
960
958
962
962
960
958
953
951
951
954
950
951
948
949
951
952
952
947
945
946
951
953
950
947
943
943
949
951
952
949
945
948
950
954
955
951
951
951
955
960
959
954
956
960
962
967
967
965
964
966
970
974
974
973
973
975
981
984
985
986
987
987
993
1000
1002
1002
1005
1008
1014
1019
1021
1023
1024
1026
1032
1042
1045
1044
1048
1052
1060
1063
1066
1065
1066
1072
1076
1080
1078
1077
1074
1074
1075
1078
1074
1069
1066
1066
1062
1062
1059
1051
1043
1041
1039
1038
1035
1027
1022
1019
1017
1017
1012
1004
1000
998
995
998
993
989
984
983
982
984
980
975
973
970
973
975
972
966
963
963
964
966
960
960
956
956
958
961
961
958
957
958
959
958
960
959
958
957
962
966
964
964
962
962
966
968
969
966
964
967
968
968
970
969
970
968
968
971
972
970
969
970
972
974
973
973
971
966
968
968
969
967
960
963
965
971
967
966
963
960
962
964
959
956
957
955
957
960
959
955
953
954
954
959
956
952
948
947
948
954
953
950
947
946
948
953
951
948
945
944
945
949
946
949
947
945
947
948
948
944
943
943
945
948
946
941
943
941
943
946
947
941
942
942
945
948
947
943
942
941
944
947
946
944
943
940
944
950
947
944
939
942
947
948
949
947
943
943
943
949
948
947
946
947
947
951
952
951
949
948
946
953
951
951
949
950
952
952
954
951
947
953
952
958
957
956
952
953
958
960
958
957
955
954
959
964
964
963
960
959
965
971
970
968
968
971
975
981
982
982
986
989
995
1002
1002
1004
1003
1005
1006
1007
1005
999
996
997
999
997
996
990
988
983
988
988
986
981
981
981
984
985
986
985
984
986
993
996
999
999
1000
1006
1016
1035
1057
1081
1113
1144
1169
1189
1197
1195
1183
1162
1135
1098
1052
1012
990
988
990
989
988
981
976
974
975
975
971
971
965
965
963
967
967
964
960
957
960
966
963
962
959
958
960
964
965
963
961
960
966
967
968
962
963
962
967
970
969
969
966
968
970
974
977
973
975
977
978
984
986
986
985
987
993
998
998
999
1000
1002
1008
1013
1014
1018
1018
1021
1025
1031
1031
1034
1039
1046
1052
1059
1063
1063
1067
1070
1076
1085
1089
1088
1090
1092
1099
1104
1103
1101
1100
1100
1103
1105
1103
1096
1093
1089
1089
1088
1084
1076
1071
1068
1062
1063
1057
1049
1043
1042
1038
1037
1035
1028
1024
1017
1017
1021
1013
1008
1005
1005
1004
1004
1000
995
993
989
991
991
990
989
982
983
984
985
981
978
977
977
979
981
979
979
976
976
975
980
978
976
975
973
979
982
983
980
977
979
980
980
980
979
978
983
986
987
987
985
983
985
984
988
989
986
982
983
986
989
988
984
984
984
984
988
987
988
983
983
983
983
982
983
979
981
976
981
982
980
975
976
977
977
979
977
976
973
975
978
976
973
969
969
971
975
973
970
968
966
969
972
968
967
965
963
966
965
965
966
965
964
967
969
969
962
961
962
967
970
968
964
962
962
962
966
967
960
959
961
963
965
963
959
959
960
961
965
965
961
959
960
962
964
960
957
958
957
962
964
962
960
957
958
957
962
959
959
960
958
961
962
960
959
960
960
962
965
961
961
959
956
961
962
962
959
958
956
960
962
961
958
956
957
957
965
964
961
957
958
960
961
962
961
959
959
962
965
965
961
959
957
960
964
963
961
960
959
962
966
964
965
965
960
964
967
965
964
965
965
966
969
969
969
967
968
971
975
972
972
971
972
977
983
983
981
979
982
985
992
993
994
994
999
1003
1011
1015
1013
1011
1009
1009
1010
1007
1002
1002
1002
1002
1000
998
992
988
989
987
986
986
986
983
983
986
990
994
991
990
992
998
1003
1007
1007
1007
1016
1036
1058
1086
1116
1146
1172
1190
1205
1206
1200
1180
1153
1114
1070
1025
993
984
987
989
989
982
976
973
972
975
976
973
969
962
963
964
968
966
964
960
962
962
964
963
960
958
957
961
962
963
960
959
959
959
963
965
965
964
963
964
970
969
969
968
967
970
978
978
972
972
974
979
982
983
983
981
985
989
993
996
995
992
998
1000
1006
1007
1006
1007
1008
1018
1021
1025
1026
1028
1032
1039
1044
1048
1053
1055
1060
1066
1072
1078
1078
1080
1084
1090
1094
1099
1100
1101
1102
1105
1108
1108
1107
1102
1101
1103
1102
1100
1095
1091
1086
1085
1085
1078
1074
1067
1062
1059
1057
1050
1045
1040
1037
1035
1032
1028
1023
1016
1014
1016
1014
1011
1006
1002
999
999
999
996
995
988
988
989
988
987
984
981
978
977
979
978
975
974
972
977
978
977
976
972
971
975
976
977
972
975
975
975
980
980
977
977
977
981
983
983
980
976
976
979
985
986
986
982
984
981
986
985
982
984
987
985
987
989
987
985
983
987
990
989
985
985
982
983
986
984
982
979
978
978
983
981
977
973
973
973
980
974
972
968
967
969
971
969
967
966
967
967
971
967
962
960
960
962
965
961
962
959
959
962
966
963
960
959
960
963
964
964
959
955
956
960
963
961
960
957
956
956
962
960
960
957
959
958
960
960
959
955
952
954
958
959
956
955
957
956
960
961
956
951
953
956
958
960
956
953
955
958
961
959
959
955
955
958
964
963
959
954
958
957
959
960
958
958
958
961
966
961
959
958
959
961
963
965
963
959
963
966
968
966
966
962
964
971
974
980
977
977
978
980
990
991
992
990
993
997
1004
1006
1007
1004
1003
1000
1003
1001
999
994
992
991
993
991
984
982
980
980
979
976
978
971
976
979
981
983
979
980
980
985
991
994
994
995
998
1006
1019
1034
1058
1085
1121
1156
1177
1191
1192
1186
1169
1147
1111
1068
1023
989
977
978
980
977
972
968
968
968
970
967
961
961
958
958
961
959
957
953
954
957
958
958
956
953
953
955
958
958
954
949
950
954
957
958
957
955
955
957
961
962
960
957
957
961
967
967
965
962
963
966
968
968
967
967
969
971
974
976
979
978
978
982
987
988
988
989
990
995
1000
1002
1007
1003
1001
1006
1015
1021
1025
1021
1026
1032
1038
1041
1043
1044
1045
1051
1062
1063
1066
1066
1069
1077
1083
1083
1086
1085
1085
1087
1094
1095
1096
1090
1092
1091
1094
1092
1090
1083
1079
1078
1078
1075
1069
1062
1058
1057
1054
1045
1040
1035
1032
1031
1032
1027
1019
1013
1008
1009
1010
1007
1000
995
992
991
991
991
988
983
983
982
983
979
978
974
973
973
975
976
970
967
965
968
967
964
965
965
963
966
967
964
962
962
961
962
965
965
964
960
963
962
965
971
970
963
964
969
971
971
971
967
971
972
975
974
971
971
972
974
977
975
975
973
974
973
977
976
976
974
972
977
981
977
977
974
972
975
974
975
972
970
972
974
974
973
968
967
966
967
967
969
965
963
962
965
968
963
960
959
958
959
962
962
959
955
954
955
961
961
957
953
952
955
958
958
957
954
954
953
953
955
954
953
951
954
958
955
954
952
951
953
955
954
952
948
950
952
955
955
953
948
948
951
954
954
953
950
948
952
956
954
951
951
951
952
955
957
955
955
954
958
961
962
963
960
963
966
971
973
975
972
975
979
984
987
987
988
990
993
995
993
989
985
981
984
985
984
981
976
972
970
974
972
970
965
964
965
966
966
966
967
964
968
972
973
974
975
978
979
985
991
996
1003
1018
1045
1079
1110
1133
1151
1162
1168
1169
1155
1130
1092
1050
1014
984
965
966
962
958
957
958
957
953
949
950
949
949
948
945
943
940
943
941
942
940
939
935
941
943
942
939
935
933
937
941
942
941
939
939
937
945
945
942
942
939
943
947
948
948
945
947
948
950
951
948
949
949
955
959
958
959
956
958
958
965
969
967
967
970
975
981
981
981
981
985
990
994
996
999
998
1003
1010
1016
1019
1020
1022
1026
1031
1037
1038
1045
1044
1048
1054
1059
1063
1060
1062
1061
1067
1073
1073
1071
1067
1064
1067
1071
1069
1065
1059
1056
1057
1058
1053
1047
1040
1038
1037
1032
1029
1023
1016
1014
1010
1012
1009
1003
997
993
992
991
990
989
982
980
979
978
977
973
966
968
966
967
966
965
960
958
960
960
959
956
954
955
956
958
953
951
947
949
952
953
950
949
945
946
948
953
955
951
947
948
951
954
953
952
951
951
954
957
955
955
953
952
952
956
958
958
956
956
958
963
963
961
957
956
958
960
961
956
952
955
958
960
962
959
954
954
958
958
958
954
952
951
956
958
957
955
952
949
951
955
953
950
948
947
949
949
951
951
946
948
946
948
949
950
944
940
944
946
946
946
943
941
945
945
943
942
940
940
943
944
944
943
940
940
941
942
943
942
939
938
941
944
943
939
935
937
938
940
942
