1021
1028
1034
1039
1040
1035
1036
1031
1028
1019
1005
998
991
988
985
977
974
963
960
962
964
966
964
962
958
957
957
958
953
943
928
917
918
938
979
1057
1156
1258
1342
1396
1426
1435
1416
1368
1284
1171
1043
915
870
892
925
936
931
926
929
934
943
945
942
938
935
934
937
940
939
936
929
931
933
937
937
935
931
931
934
936
934
934
932
932
933
935
933
935
931
933
936
938
937
940
940
940
942
946
946
946
948
949
949
953
957
959
958
959
964
968
972
972
973
976
983
989
990
992
994
998
1003
1009
1016
1016
1017
1021
1025
1032
1036
1039
1043
1047
1052
1055
1058
1058
1054
1052
1053
1054
1054
1049
1045
1043
1041
1039
1033
1029
1022
1017
1014
1011
1008
1000
992
986
984
986
980
976
967
969
967
964
964
961
958
955
955
956
956
949
948
949
947
949
949
948
945
941
947
953
951
945
942
947
951
954
952
951
951
955
957
958
963
962
961
960
963
963
968
965
964
964
965
972
973
972
971
970
970
972
975
971
968
970
972
974
971
968
964
966
970
972
970
967
962
964
967
966
968
963
962
960
962
963
961
962
957
956
958
958
958
954
949
947
950
954
952
950
948
944
946
949
946
945
945
944
943
948
950
950
943
941
944
946
946
945
942
943
943
946
945
943
942
941
942
946
945
941
940
943
945
947
946
945
940
941
947
945
945
944
940
941
944
943
944
940
939
940
945
950
953
951
949
951
957
965
969
966
967
973
977
992
1004
1011
1009
1008
1012
1017
1021
1021
1018
1011
1003
995
986
978
970
964
956
950
949
945
944
942
946
949
948
943
942
937
937
933
926
914
909
926
967
1044
1148
1250
1329
1382
1413
1423
1403
1344
1244
1116
988
874
866
895
915
914
916
922
929
933
930
928
927
928
928
924
925
925
926
928
927
927
924
924
926
929
931
928
926
922
928
928
928
927
925
925
927
933
938
933
929
931
936
937
941
940
938
939
941
944
946
948
948
949
952
956
958
959
959
960
965
970
974
979
978
979
986
987
994
1001
1002
1003
1011
1018
1027
1032
1031
1039
1043
1049
1049
1053
1053
1056
1059
1062
1060
1057
1054
1050
1050
1047
1047
1040
1034
1026
1025
1023
1020
1013
1006
1001
995
995
993
989
980
976
976
976
973
972
966
965
966
967
965
961
957
955
952
955
954
951
947
949
946
950
950
948
946
943
944
947
952
949
949
950
951
957
959
957
953
954
961
964
964
964
964
967
967
975
977
976
976
978
983
989
992
997
1002
1013
1021
1034
1048
1058
1068
1080
1101
1126
1150
1164
1166
1141
1089
1024
959
905
865
833
797
753
705
669
660
672
690
715
724
725
719
720
725
735
748
758
768
785
806
825
836
852
867
886
905
920
929
934
940
949
957
961
967
971
972
974
976
975
978
978
978
980
981
988
992
992
992
992
1000
1003
1002
1007
1008
1010
1015
1021
1026
1024
1024
1027
1035
1043
1046
1051
1055
1059
1066
1074
1083
1093
1101
1108
1121
1135
1148
1157
1163
1174
1184
1196
1206
1214
1218
1221
1227
1234
1234
1237
1234
1233
1236
1236
1232
1226
1221
1214
1208
1203
1198
1186
1177
1168
1164
1157
1147
1136
1123
1111
1104
1098
1090
1081
1071
1062
1055
1052
1046
1039
1031
1028
1026
1025
1024
1019
1012
1011
1008
1011
1011
1007
1004
1001
1002
1004
1004
1004
997
995
996
1001
1003
1000
996
995
996
998
1000
996
991
989
989
995
997
994
990
987
987
991
989
986
984
981
980
987
983
981
973
973
972
972
975
971
968
967
963
966
968
967
964
961
961
963
962
959
956
957
958
959
956
954
949
949
949
953
950
949
949
947
947
948
946
947
945
943
945
946
945
942
937
937
936
939
939
942
940
939
937
941
940
939
934
936
936
940
942
938
934
932
935
940
942
941
937
934
935
939
939
935
934
934
935
937
937
935
934
935
937
936
937
933
933
933
938
939
940
940
935
935
936
936
940
939
937
934
935
940
941
937
939
937
938
937
936
938
933
935
935
940
942
939
936
935
939
941
939
939
936
937
936
937
939
941
935
933
938
942
942
939
938
939
940
944
945
941
938
938
940
940
941
939
936
935
938
942
944
941
938
937
937
941
942
938
938
939
939
943
944
940
940
938
941
945
944
944
942
942
944
945
947
944
942
942
944
945
948
946
945
943
946
950
947
948
944
944
946
948
949
949
945
945
947
951
951
947
947
947
949
951
954
953
952
946
950
952
956
951
954
953
957
959
961
958
961
962
967
973
978
980
977
978
984
991
1001
1009
1015
1018
1025
1029
1027
1027
1029
1030
1028
1027
1018
1007
995
990
987
984
980
971
965
961
961
964
964
962
960
957
959
962
960
956
945
935
927
921
926
942
975
1036
1123
1214
1291
1353
1396
1424
1437
1426
1391
1322
1222
1112
998
914
893
906
925
928
931
934
938
941
942
941
941
941
938
939
936
934
933
935
935
935
936
935
938
941
941
939
934
933
935
937
938
938
933
934
938
939
940
938
935
935
935
938
942
939
940
938
944
945
947
949
946
946
947
951
952
952
951
951
954
959
960
962
959
962
964
968
976
976
974
977
978
986
988
989
992
997
1001
1005
1009
1010
1010
1011
1019
1023
1027
1028
1029
1029
1031
1037
1038
1041
1041
1041
1045
1049
1050
1050
1044
1043
1045
1046
1047
1042
1038
1038
1035
1034
1033
1028
1023
1018
1017
1016
1016
1014
1008
1007
1005
1002
1003
993
992
991
994
996
991
992
985
985
986
987
987
986
982
981
983
986
988
983
984
984
985
987
988
985
988
989
992
996
997
995
994
996
999
1001
1002
1000
999
1000
1002
1003
1005
1002
1001
1003
1007
1011
1010
1010
1008
1008
1009
1008
1008
1010
1009
1007
1011
1011
1010
1008
1003
1001
1002
1004
1004
998
998
995
994
995
997
994
991
989
990
992
991
989
987
986
986
987
985
981
979
979
983
984
984
980
977
976
977
980
979
979
977
974
973
973
974
972
968
970
966
972
971
970
967
968
972
969
971
968
966
967
967
971
968
967
963
966
966
970
968
968
965
965
967
970
969
967
965
963
965
967
967
964
961
962
961
966
968
967
962
962
966
967
970
968
965
963
967
970
975
973
972
978
981
989
992
992
989
992
997
1011
1023
1031
1032
1034
1034
1033
1035
1036
1033
1034
1030
1019
1010
1000
994
987
985
978
976
970
968
968
967
968
967
965
960
959
963
964
963
960
950
938
932
937
954
984
1038
1120
1217
1304
1365
1404
1429
1435
1423
1384
1302
1196
1075
952
884
883
907
924
921
920
927
938
943
948
946
942
943
945
944
942
941
941
939
943
942
940
938
938
942
944
944
944
940
938
941
945
944
944
941
939
945
944
944
943
941
944
947
949
952
948
949
950
954
956
956
958
956
958
962
967
967
966
965
964
972
975
981
979
980
983
987
989
996
997
999
1003
1006
1013
1020
1023
1019
1026
1033
1038
1045
1050
1051
1051
1057
1060
1063
1063
1065
1068
1069
1069
1070
1067
1066
1065
1064
1064
1058
1053
1049
1044
1040
1037
1034
1031
1024
1024
1020
1017
1011
1008
1003
999
997
999
997
990
988
986
987
986
984
980
976
976
977
977
977
973
969
971
971
973
972
972
972
972
974
973
976
974
974
973
977
977
982
981
977
980
987
989
991
991
989
990
992
996
998
1000
999
998
1002
1006
1007
1003
1002
1002
1007
1007
1011
1011
1008
1007
1006
1012
1010
1009
1007
1008
1008
1009
1010
1007
1001
1000
999
1002
1004
1004
998
997
997
1000
1000
998
994
994
990
993
991
989
984
985
987
987
988
986
982
980
979
984
984
983
979
977
980
984
983
981
980
979
977
980
977
977
977
976
977
978
978
977
976
975
976
979
978
977
975
974
976
977
979
976
972
972
972
977
974
975
972
972
973
976
977
974
975
972
974
980
976
977
976
981
988
991
991
994
992
998
1001
1004
1014
1027
1036
1038
1044
1046
1045
1044
1044
1047
1045
1040
1029
1016
1006
1001
997
992
986
980
972
971
975
976
975
974
970
969
970
974
974
972
959
948
939
939
953
989
1052
1158
1263
1349
1403
1434
1437
1414
1356
1261
1139
1011
906
883
907
933
938
938
936
944
949
953
954
950
948
943
948
950
949
950
946
945
948
951
951
948
947
944
942
943
949
947
943
944
946
948
951
950
948
949
950
954
955
953
953
955
956
957
959
960
955
959
962
965
966
967
966
967
970
977
978
978
978
980
986
990
994
996
993
995
1001
1007
1013
1015
1015
1020
1027
1033
1040
1041
1043
1047
1053
1056
1062
1064
1063
1065
1069
1071
1075
1074
1073
1073
1070
1074
1068
1063
1058
1054
1054
1050
1046
1044
1038
1034
1029
1027
1020
1016
1007
1005
1003
1002
1001
998
991
988
989
991
989
985
980
977
977
975
980
977
974
973
975
980
978
971
973
971
974
977
977
974
971
973
977
980
983
981
978
981
981
984
984
985
985
989
990
993
995
998
998
1000
999
1003
1004
1003
1002
1001
1006
1009
1011
1008
1001
1005
1006
1007
1010
1010
1007
1007
1007
1012
1013
1010
1005
1002
1006
1012
1011
1007
1003
999
1002
1004
1001
995
994
992
992
994
998
995
992
991
994
998
998
995
990
988
991
993
993
987
987
985
984
988
987
987
982
983
985
984
987
981
981
982
981
985
988
986
981
981
982
986
987
985
981
984
985
986
986
984
980
982
983
984
986
982
980
980
981
984
987
982
982
982
984
985
987
987
982
986
986
988
990
988
989
990
993
998
999
1002
1003
1006
1012
1016
1019
1019
1023
1034
1047
1058
1057
1056
1057
1058
1063
1065
1063
1053
1036
1024
1024
1022
1016
1010
997
994
993
992
992
991
988
987
988
991
992
987
985
980
977
968
961
961
973
1010
1076
1171
1271
1351
1402
1436
1455
1452
1417
1340
1228
1100
972
915
926
960
971
968
971
975
974
979
974
969
969
971
971
971
967
966
970
970
970
966
966
965
968
969
972
969
968
969
971
973
974
972
969
971
972
972
975
973
970
971
974
978
979
981
979
977
980
986
989
989
989
989
994
995
998
995
997
1001
1004
1009
1010
1011
1012
1015
1022
1026
1031
1033
1034
1037
1042
1046
1051
1055
1059
1064
1065
1077
1080
1082
1083
1088
1094
1099
1101
1101
1101
1103
1105
1107
1106
1101
1098
1093
1091
1090
1086
1083
1077
1072
1067
1066
1061
1052
1047
1044
1042
1040
1037
1030
1025
1022
1020
1017
1017
1011
1008
1004
1006
1005
1003
1003
1001
999
994
999
1000
999
996
995
995
998
996
992
989
995
998
999
999
1001
998
998
999
1005
1004
1003
998
1004
1004
1007
1010
1009
1008
1005
1008
1010
1011
1011
1010
1012
1012
1016
1015
1012
1014
1013
1015
1013
1015
1013
1013
1014
1015
1019
1017
1017
1012
1012
1015
1014
1015
1012
1011
1008
1008
1009
1008
1006
1002
1001
1002
1004
1004
1001
996
994
996
995
998
994
991
992
994
993
995
993
990
988
992
996
994
992
989
988
990
991
991
989
987
984
985
988
989
988
987
981
983
988
989
986
985
983
984
986
988
987
980
982
984
987
987
984
982
980
981
984
984
983
978
976
976
982
982
981
977
977
978
980
980
979
975
973
975
977
980
977
974
975
974
976
976
972
971
969
973
975
976
976
972
972
974
975
976
974
973
971
974
976
975
974
972
976
980
985
986
988
991
996
1000
1002
1006
1011
1015
1027
1042
1054
1052
1044
1033
1026
1021
1023
1022
1018
1006
997
993
989
986
978
971
968
967
972
969
968
964
965
967
968
968
964
957
946
938
942
965
1011
1087
1190
1286
1364
1409
1437
1440
1420
1366
1270
1142
1014
899
875
909
939
944
939
935
942
948
952
947
937
929
929
927
928
927
926
926
927
934
937
933
930
927
922
923
927
929
927
926
923
929
931
932
930
927
928
932
938
939
937
934
935
939
943
945
946
945
946
950
955
957
957
957
957
963
969
968
968
966
967
975
985
990
988
988
989
999
1009
1014
1020
1023
1026
1031
1039
1044
1049
1050
1055
1060
1068
1072
1067
1067
1064
1065
1068
1069
1067
1063
1056
1049
1046
1039
1035
1028
1023
1021
1020
1013
1009
1003
996
993
989
989
987
979
981
983
986
991
990
986
979
972
962
954
950
947
947
949
952
956
956
954
955
954
955
961
962
960
960
965
969
968
969
969
969
967
971
972
972
970
974
980
982
983
983
981
979
984
988
987
987
987
989
992
995
996
993
988
990
991
989
989
992
985
986
992
994
996
994
992
993
992
991
992
993
991
989
990
992
994
993
991
992
992
991
985
978
973
973
970
973
973
976
972
972
971
976
973
972
969
972
976
980
979
979
975
972
970
976
978
977
971
976
978
979
974
968
961
957
961
967
967
965
962
965
965
969
970
971
966
963
961
967
971
968
963
962
967
972
975
975
972
969
969
972
971
971
968
970
975
980
984
982
973
964
962
965
969
972
975
979
984
985
989
991
992
996
1009
1030
1045
1048
1044
1036
1030
1023
1022
1017
1011
1007
1005
1004
1000
997
986
981
979
980
981
977
973
972
972
973
976
976
975
979
982
976
968
958
962
989
1038
1109
1199
1285
1352
1400
1435
1445
1427
1366
1275
1154
1026
919
891
915
942
951
955
958
964
964
964
966
963
964
967
966
962
960
960
960
963
959
956
952
956
965
964
962
960
963
970
973
972
969
967
967
969
971
975
970
973
969
978
980
983
982
980
982
987
988
988
988
986
990
997
1000
1002
1001
1006
1009
1016
1018
1019
1022
1018
1020
1026
1035
1042
1042
1042
1047
1056
1062
1069
1070
1071
1075
1080
1091
1092
1098
1097
1098
1103
1106
1103
1104
1104
1100
1099
1095
1095
1090
1085
1078
1075
1072
1072
1065
1058
1050
1047
1048
1046
1040
1034
1031
1027
1024
1022
1016
1011
1006
1004
1001
1003
1004
1002
1000
997
999
1002
997
995
990
993
1000
999
998
990
989
996
1001
1003
1004
1000
998
994
998
998
1001
1004
1003
1008
1009
1012
1011
1011
1011
1012
1016
1019
1017
1016
1014
1020
1021
1023
1024
1021
1019
1023
1027
1026
1027
1026
1024
1025
1026
1026
1025
1023
1018
1019
1020
1024
1023
1023
1017
1016
1015
1015
1016
1014
1011
1009
1010
1013
1012
1009
1006
1007
1013
1014
1014
1009
1004
1005
1010
1006
1002
997
997
998
1002
1002
1004
999
998
1000
999
1000
997
1002
1000
1000
1000
1001
998
998
994
1001
1003
1004
999
995
994
997
1002
1002
1002
995
986
990
994
993
993
994
996
999
1004
1007
1004
997
991
990
993
1000
1004
997
994
997
999
1003
1001
998
998
995
994
995
996
995
998
1000
1002
1006
1007
1007
1010
1011
1014
1018
1020
1020
1025
1025
1032
1036
1039
1044
1059
1075
1078
1073
1066
1055
1051
1050
1050
1047
1038
1032
1024
1018
1015
1012
1007
999
995
992
993
994
991
991
991
994
1003
1004
998
987
980
975
973
968
963
971
996
1051
1142
1248
1336
1391
1427
1447
1456
1441
1392
1309
1194
1066
950
901
916
953
968
966
966
970
972
971
966
967
969
971
966
964
962
963
967
970
965
958
956
959
970
971
970
969
966
967
968
968
964
958
961
969
970
969
967
967
970
972
975
975
975
972
972
972
976
980
982
982
983
983
985
990
991
989
987
991
998
1003
1007
1003
1005
1010
1016
1021
1021
1023
1023
1032
1038
1046
1048
1051
1053
1061
1068
1071
1072
1071
1080
1087
1099
1103
1106
1103
1102
1098
1095
1096
1099
1100
1096
1094
1092
1089
1081
1073
1067
1064
1062
1062
1054
1045
1035
1030
1027
1026
1020
1011
1008
1006
1004
999
991
992
989
991
993
993
987
982
978
978
982
981
979
975
974
969
974
976
978
977
975
974
973
975
977
975
973
973
978
983
980
977
975
979
983
984
987
985
983
983
989
989
986
983
984
986
990
994
989
986
989
992
997
996
994
990
987
989
990
991
992
989
988
990
991
991
993
985
984
984
991
987
984
981
979
978
981
986
985
975
973
968
973
974
968
965
964
968
970
974
969
965
965
964
969
973
968
960
962
960
966
964
964
961
963
962
966
964
962
961
960
963
964
962
959
957
960
961
966
964
958
953
952
957
963
962
957
954
952
959
959
960
956
955
955
961
963
965
961
957
956
958
962
962
959
957
956
960
960
959
957
954
954
957
958
962
960
961
959
959
962
967
966
963
960
959
964
970
973
974
974
976
979
981
979
981
985
991
995
997
1001
1003
1014
1026
1034
1036
1029
1022
1016
1012
1013
1012
1004
999
994
991
988
985
981
975
971
970
970
973
969
964
961
964
969
971
968
964
964
966
965
964
959
958
967
993
1031
1090
1177
1262
1330
1378
1406
1414
1397
1353
1283
1181
1067
952
882
879
909
932
939
938
941
943
948
952
955
950
949
945
947
945
950
952
948
947
946
949
953
954
950
944
946
946
949
954
956
951
950
952
954
956
956
952
949
954
960
961
961
958
960
960
961
964
965
964
967
968
972
973
973
971
973
979
982
984
988
987
986
991
996
999
1000
1000
1002
1006
1015
1019
1022
1024
1027
1031
1038
1041
1046
1049
1052
1056
1062
1071
1074
1078
1082
1087
1091
1096
1093
1089
1086
1087
1088
1089
1083
1079
1074
1071
1072
1068
1062
1054
1048
1048
1045
1040
1033
1020
1017
1015
1013
1015
1010
1005
1001
1001
1001
996
996
990
986
989
987
986
982
980
980
983
981
982
981
978
975
978
978
978
978
976
974
980
983
984
983
983
986
987
990
993
991
988
990
989
995
997
997
994
1000
1006
1008
1010
1007
1005
1006
1011
1013
1016
1016
1014
1013
1016
1019
1020
1019
1016
1015
1016
1017
1020
1020
1017
1016
1018
1016
1014
1012
1010
1008
1010
1010
1012
1007
1005
1002
1004
1003
1009
1008
1001
1000
1001
1003
1002
1001
995
998
996
998
1000
997
995
993
993
995
997
998
991
989
992
997
996
993
987
986
990
993
993
993
991
989
987
989
990
987
986
984
987
986
990
989
986
984
988
992
991
986
986
983
985
988
989
988
988
986
989
993
992
988
986
985
985
988
992
991
985
986
986
992
995
994
994
997
996
1003
1006
1006
