979
974
978
978
987
988
984
983
985
987
987
993
989
988
991
1000
1011
1025
1041
1060
1093
1122
1150
1167
1177
1177
1166
1156
1130
1094
1056
1014
987
984
987
990
988
984
984
984
989
983
979
969
963
962
963
964
967
966
967
967
968
969
967
961
958
960
968
968
970
966
962
962
963
963
958
955
954
950
959
958
961
962
963
970
975
981
982
979
984
986
989
988
983
978
974
969
970
974
978
978
980
984
989
991
993
994
992
994
996
1002
1006
1008
1010
1012
1016
1016
1018
1021
1021
1026
1031
1037
1040
1040
1041
1037
1036
1031
1028
1028
1034
1039
1048
1051
1047
1042
1039
1039
1041
1039
1037
1032
1033
1035
1035
1032
1026
1020
1018
1015
1016
1013
1009
1006
1004
1005
1007
1008
1004
999
998
999
1002
1002
1002
999
998
995
997
999
1001
994
989
988
985
987
984
985
985
987
991
991
989
981
977
977
982
983
982
985
988
988
984
986
986
988
993
996
999
1000
1003
1005
1008
1011
1016
1016
1013
1010
1014
1016
1025
1026
1024
1028
1032
1045
1056
1069
1072
1068
1061
1049
1041
1024
1007
987
965
947
926
904
883
869
864
865
869
871
867
864
861
864
867
873
874
873
878
884
892
897
899
897
904
915
928
937
942
946
949
954
960
965
968
969
975
983
991
992
994
989
984
989
997
1003
999
997
996
996
992
992
992
992
994
1003
1012
1016
1016
1014
1016
1016
1025
1027
1032
1036
1041
1048
1054
1057
1062
1063
1068
1074
1078
1082
1087
1090
1096
1101
1114
1119
1123
1123
1125
1134
1143
1145
1142
1143
1145
1146
1152
1151
1149
1145
1146
1150
1153
1156
1149
1148
1150
1149
1149
1144
1139
1136
1132
1133
1131
1124
1117
1109
1104
1103
1102
1092
1083
1075
1074
1075
1071
1065
1058
1055
1052
1049
1047
1046
1041
1032
1029
1033
1040
1042
1039
1029
1028
1024
1029
1031
1025
1021
1019
1023
1031
1031
1031
1023
1023
1020
1021
1021
1014
1010
1014
1018
1024
1021
1015
1004
1002
1003
1004
1008
1006
1005
996
994
998
1000
1003
1004
1004
1002
998
992
989
991
990
986
984
991
992
992
990
982
975
971
975
979
983
980
976
970
969
968
967
968
970
973
974
975
976
977
972
968
962
957
956
962
965
964
966
961
964
965
964
966
967
965
962
963
969
973
972
969
962
958
959
957
953
948
950
954
957
958
958
955
956
958
962
966
968
963
959
959
959
955
950
951
951
955
960
962
959
959
957
958
957
950
943
940
940
945
947
953
953
952
957
958
962
964
962
957
949
946
950
955
962
959
959
953
950
942
940
937
936
941
944
945
945
944
946
950
956
958
959
958
961
964
967
964
960
954
951
953
954
950
944
943
944
949
953
952
952
955
954
961
964
969
971
969
963
956
955
956
956
955
954
953
956
957
958
962
960
966
971
976
974
968
965
965
972
978
977
978
979
983
989
990
989
993
998
1009
1009
1010
1006
1004
1002
1007
1007
1010
1007
1006
1005
1006
1005
998
989
985
984
986
986
980
977
974
971
973
979
981
982
983
986
993
1002
1008
1022
1044
1071
1109
1141
1164
1180
1181
1186
1179
1162
1132
1091
1044
1003
982
982
986
985
978
975
979
976
975
967
961
959
962
965
964
960
963
964
965
966
959
955
952
953
954
957
956
956
952
956
960
965
966
963
959
961
958
963
961
956
955
958
961
960
964
964
964
965
972
977
974
970
967
966
974
981
986
988
984
982
983
985
990
985
986
987
989
996
999
1000
1004
1003
1010
1017
1020
1020
1019
1019
1023
1027
1028
1027
1024
1023
1026
1028
1027
1024
1022
1023
1026
1028
1029
1027
1027
1023
1022
1023
1022
1019
1014
1015
1016
1016
1015
1006
1004
998
997
1000
1000
999
997
997
996
1000
1000
995
992
989
992
996
1000
998
995
989
988
988
991
987
989
992
999
1001
997
990
985
988
991
996
999
998
995
994
995
995
1005
1003
999
1000
998
999
1002
1003
1001
1001
1001
1006
1004
1004
1000
998
1001
1001
1003
1000
997
997
997
1000
1001
999
994
991
992
993
992
989
988
986
990
990
992
991
985
986
985
985
987
985
984
984
983
981
980
982
976
976
979
981
981
980
981
979
980
985
987
989
984
979
978
973
970
963
960
962
965
968
970
970
969
970
971
974
977
976
973
972
978
981
984
987
985
985
986
994
999
999
1000
1000
1005
1009
1011
1011
1010
1008
1008
1004
999
995
988
988
987
987
985
978
968
964
969
971
974
973
971
971
975
974
978
976
976
977
984
989
999
1013
1030
1058
1096
1130
1152
1160
1164
1156
1139
1111
1069
1021
980
965
964
968
966
961
954
953
956
956
957
954
950
949
951
955
952
952
948
944
941
945
946
944
943
946
946
948
946
945
942
942
946
946
950
946
945
948
950
953
956
957
957
957
962
965
967
959
950
948
949
950
958
960
961
960
964
971
972
973
973
975
980
986
990
991
989
994
998
1003
1006
1006
1009
1010
1016
1018
1022
1023
1025
1026
1028
1032
1039
1038
1034
1033
1031
1032
1031
1029
1023
1021
1023
1023
1017
1012
1005
998
995
992
992
991
988
985
986
986
985
977
974
973
970
972
973
973
969
967
970
973
971
960
951
945
951
955
956
952
951
952
956
959
960
958
955
957
958
964
962
962
962
963
967
966
971
969
967
965
969
973
976
975
972
971
975
977
977
975
975
974
976
978
978
976
974
977
980
980
981
977
969
968
968
970
969
968
966
967
962
967
970
969
965
967
967
973
973
971
970
968
970
972
970
963
953
950
954
958
960
961
956
960
963
965
968
964
962
963
965
971
969
969
967
970
978
980
982
982
983
983
985
990
994
994
994
993
995
998
1001
1000
996
998
999
999
1002
995
992
987
986
990
989
988
984
982
980
982
977
975
971
975
979
980
982
981
980
981
985
989
994
999
1009
1027
1054
1088
1116
1138
1147
1153
1156
1148
1126
1094
1049
1011
986
977
980
980
973
967
965
965
964
963
960
960
959
962
961
958
954
955
956
960
960
956
956
958
958
963
961
956
953
949
952
954
955
954
954
954
956
960
962
959
954
958
964
970
973
970
964
963
963
965
964
968
968
965
971
973
977
974
974
977
981
985
989
990
991
992
999
1003
1007
1008
1007
1009
1012
1019
1022
1021
1021
1024
1028
1037
1041
1040
1041
1043
1045
1047
1045
1041
1035
1033
1033
1036
1036
1034
1031
1025
1026
1024
1025
1020
1018
1012
1010
1011
1010
1008
1003
1002
1000
1001
999
996
993
989
991
995
990
985
981
981
980
982
984
979
978
978
978
980
981
978
975
973
976
978
981
978
975
973
973
978
980
974
974
977
980
984
985
983
979
982
987
991
994
993
989
986
987
991
989
986
984
988
990
993
994
992
990
990
994
994
996
992
983
981
985
988
986
987
982
983
985
990
989
986
983
982
984
986
987
983
980
979
981
983
981
979
973
973
974
975
978
976
974
972
972
977
976
975
975
969
973
974
975
973
970
969
972
975
975
975
970
968
971
975
976
975
974
970
975
974
979
973
973
973
975
978
981
982
980
981
981
987
988
991
990
990
995
1000
1002
1005
1006
1010
1015
1015
1018
1016
1012
1011
1013
1015
1015
1010
1003
1000
995
994
994
992
987
984
984
986
987
984
981
981
982
980
984
985
981
984
986
989
993
991
992
995
1002
1020
1040
1069
1100
1131
1158
1177
1187
1187
1183
1169
1146
1115
1073
1026
988
973
980
983
984
977
974
969
967
971
971
967
962
960
960
962
962
959
955
954
956
956
956
952
952
953
952
953
956
950
947
947
953
957
957
958
952
952
952
955
959
959
957
956
959
960
962
959
958
958
960
966
969
966
966
964
968
972
974
976
972
971
974
980
984
983
981
981
984
990
995
994
994
997
1000
1008
1010
1011
1012
1013
1017
1024
1028
1029
1029
1029
1036
1040
1042
1042
1040
1038
1044
1048
1046
1045
1040
1038
1042
1046
1041
1041
1034
1035
1032
1033
1028
1025
1020
1016
1016
1019
1014
1009
1005
1000
1001
1002
999
995
987
989
989
990
988
985
983
982
982
984
983
975
975
974
976
978
980
977
973
972
974
978
977
977
973
970
972
974
977
975
977
973
975
980
981
979
975
975
980
983
982
982
982
980
980
983
985
983
982
982
982
987
986
985
981
980
982
987
984
981
981
980
982
981
984
982
978
978
976
980
979
978
977
977
978
979
980
977
971
973
974
972
974
973
967
966
972
973
972
968
965
966
967
971
972
967
963
964
965
966
967
964
964
961
964
965
966
964
962
960
960
964
963
965
962
957
963
963
966
962
959
958
957
961
963
960
958
958
959
962
961
960
956
956
957
961
962
959
957
957
957
960
962
962
956
958
960
962
961
961
960
961
962
964
966
966
966
967
969
972
978
978
976
979
984
989
993
993
993
992
994
997
998
997
993
990
989
988
984
982
977
973
973
974
971
968
965
961
961
965
966
966
964
962
963
969
968
967
969
969
976
977
987
998
1013
1043
1077
1112
1138
1157
1165
1165
1161
1148
1122
1080
1030
988
965
963
962
962
954
954
953
953
952
947
942
943
943
943
943
942
937
934
935
940
939
936
934
934
933
939
938
934
931
933
935
937
937
938
935
936
938
936
942
940
935
934
937
940
943
939
941
939
942
944
949
947
946
943
946
949
950
952
951
951
954
959
961
962
959
961
964
968
972
973
969
973
976
983
986
988
987
990
995
1000
1000
1001
1002
1004
1010
1016
1019
1021
1019
1021
1021
1026
1025
1027
1025
1024
1028
1028
1030
1025
1024
1020
1018
1021
1017
1016
1010
1007
1007
1005
1004
999
994
991
990
988
986
983
981
979
977
979
974
971
970
968
971
973
972
970
966
963
965
967
966
966
963
961
964
965
967
964
961
959
961
966
970
965
962
964
966
970
971
970
965
966
971
971
974
974
971
969
971
971
978
976
971
974
978
982
984
983
982
985
988
994
997
1002
1000
1004
1010
1016
1022
1028
1033
1043
1054
1068
1070
1065
1052
1041
1029
1020
1003
984
958
927
900
880
866
856
851
856
855
854
850
847
843
843
849
852
857
861
864
866
876
885
891
897
900
907
915
926
931
939
943
947
950
951
950
949
951
950
949
945
943
941
940
942
950
954
958
956
956
960
966
970
970
972
972
974
978
984
990
991
989
994
1000
1004
1008
1012
1011
1015
1018
1027
1036
1039
1042
1046
1052
1058
1062
1068
1071
1077
1083
1090
1093
1094
1094
1097
1105
1106
1109
1108
1109
1110
1110
1112
1112
1106
1103
1099
1100
1098
1096
1091
1082
1077
1077
1074
1073
1069
1060
1056
1056
1054
1051
1045
1036
1031
1031
1031
1030
1023
1021
1018
1018
1018
1017
1014
1011
1008
1008
1010
1008
1006
1003
998
1001
1001
1002
1000
998
995
993
996
1000
996
993
990
994
996
995
993
991
988
990
992
990
989
984
981
981
982
985
983
976
975
976
981
981
977
971
973
972
976
976
972
969
967
969
971
971
969
964
962
963
964
964
962
959
957
954
958
955
955
953
952
954
955
956
956
953
952
953
955
957
955
951
948
952
955
957
955
950
951
956
958
957
950
944
939
937
944
945
944
939
942
942
946
946
945
944
943
945
944
947
950
945
947
949
957
955
948
938
934
938
946
947
947
949
950
950
946
941
937
938
938
942
948
950
946
942
942
944
944
943
941
941
941
946
949
949
944
939
939
941
944
947
942
942
939
941
946
945
944
940
942
944
945
946
943
939
939
941
945
945
941
940
938
942
945
947
942
938
941
944
946
947
944
937
942
946
947
948
946
942
940
944
949
946
947
946
945
949
953
950
948
945
944
946
948
952
950
950
954
958
957
948
945
946
950
954
955
946
942
943
943
946
947
949
949
944
946
946
953
954
953
948
951
956
961
960
957
954
952
958
963
965
968
966
966
969
973
976
978
982
983
990
999
1000
999
995
990
991
994
991
986
980
977
978
978
975
970
971
969
969
970
974
971
969
969
970
976
979
976
976
977
982
992
998
1010
1025
1054
1082
1108
1125
1130
1130
1126
1117
1098
1067
1030
994
966
961
962
963
961
960
956
955
954
955
953
949
949
949
948
949
949
945
947
946
951
949
947
946
946
946
948
947
946
941
942
945
945
947
948
946
945
946
949
949
949
945
948
951
955
954
952
953
951
955
957
959
959
954
955
961
964
966
964
961
963
968
968
973
973
970
973
975
979
981
982
983
984
987
988
992
992
994
994
996
1000
1004
1002
1002
1002
1007
1010
1015
1013
1011
1009
1013
1017
1019
1018
1014
1015
1014
1016
1016
1012
1008
1007
1007
1006
1008
1007
999
990
989
989
988
986
985
981
980
981
981
978
972
973
970
972
973
972
968
967
969
970
969
966
962
959
962
963
966
963
961
959
964
966
967
966
961
959
963
967
971
971
967
967
969
971
973
972
970
969
973
974
972
973
971
968
970
972
974
974
972
970
973
974
974
974
970
967
968
971
971
970
963
963
963
967
967
963
960
958
960
962
961
958
956
956
956
958
957
955
954
950
952
952
952
948
946
946
949
948
944
945
940
942
943
949
947
945
942
944
942
946
942
947
943
941
944
943
945
943
940
940
939
943
944
941
937
938
942
941
943
942
939
938
941
944
943
945
942
943
949
953
953
954
951
954
958
961
965
969
967
970
974
976
977
979
974
971
970
971
969
962
956
953
956
956
954
952
950
949
950
950
952
950
948
949
952
956
963
960
962
961
971
984
1004
1026
1051
1078
1098
1112
1116
1113
1096
1075
1047
1008
971
943
929
930
935
934
937
933
932
931
933
935
934
933
931
926
931
933
933
933
930
929
932
933
934
934
927
926
927
930
932
931
927
930
937
938
938
936
934
934
938
940
940
941
939
938
941
945
947
947
945
944
947
954
954
956
954
953
958
964
967
968
967
967
970
974
977
977
978
984
989
993
996
996
997
998
1001
1005
1007
1008
1010
1010
1015
1017
1018
1015
1016
1014
1016
1015
1017
1012
1011
1008
1007
1008
1006
1003
999
993
992
990
987
983
978
975
973
975
974
972
966
963
965
963
961
958
956
952
953
958
957
954
951
948
949
950
954
952
950
946
952
953
952
952
949
951
953
956
955
952
952
953
955
958
962
962
959
960
961
967
967
968
966
966
967
970
973
971
965
967
971
972
974
971
970
969
972
973
972
970
967
967
969
973
971
969
967
965
964
966
969
966
961
958
961
962
964
960
956
954
958
959
956
957
954
952
956
957
959
957
953
951
950
954
955
951
951
951
953
955
954
951
948
949
953
954
952
953
950
951
955
953
955
956
954
955
961
963
967
965
964
966
972
977
984
986
982
981
983
984
986
982
978
976
974
971
967
962
958
958
957
956
955
954
951
954
955
956
959
957
954
954
956
963
964
963
960
964
971
982
1000
1021
1041
1070
1098
1116
1126
1128
1119
1103
1083
1050
1011
974
947
944
949
951
949
944
940
940
940
941
941
939
937
935
935
936
935
934
932
928
931
935
937
935
931
928
929
932
937
933
932
934
935
936
934
937
936
935
939
941
942
941
938
939
941
946
948
945
944
946
949
955
956
955
955
954
959
964
967
967
966
967
972
977
980
983
983
983
988
995
994
999
1000
1001
1003
1013
1016
1017
1017
1015
1019
1021
1026
1023
1020
1021
1022
1025
1023
1023
1015
1014
1015
1015
1014
1010
1004
1001
1000
1001
997
991
988
985
982
984
982
980
973
968
973
972
971
961
959
952
949
956
954
958
958
959
957
957
958
955
950
951
953
957
963
961
957
961
960
961
963
961
961
962
961
968
970
968
966
966
966
971
973
973
969
968
969
974
977
975
975
972
980
984
988
987
988
985
990
997
1002
1004
1007
1009
1015
1022
1030
1035
1037
1045
1053
1058
1054
1043
1032
1022
1013
1002
986
966
937
907
885
873
865
862
859
856
855
851
845
841
838
839
845
851
860
865
871
875
883
894
901
905
905
914
923
930
933
936
934
934
943
946
946
946
946
946
947
954
956
956
956
953
958
965
964
962
958
962
963
966
970
968
968
968
972
972
974
977
976
979
984
988
992
996
996
996
1002
1010
1015
1018
1018
1022
1026
1032
1038
1039
1042
1045
1053
1061
1067
1071
1068
1070
1073
1079
1082
1082
1080
1080
1083
1084
1084
1078
1075
1073
1075
1076
1076
1070
1064
1057
1056
1054
1051
1043
1037
1035
1041
1041
1037
1031
1023
1017
1015
1016
1020
1018
1016
1014
1016
1018
1014
1010
1009
1007
1007
1007
1009
1006
1004
1001
1005
1009
1010
1008
1008
1007
1011
1016
1020
1024
1026
1031
1038
1047
1050
1057
1062
1076
1083
1092
1100
1106
1107
1113
1122
1125
1122
1111
1100
1090
1077
1062
1043
1029
1021
1024
1032
1042
1037
1026
1006
989
980
976
970
961
953
947
947
944
935
933
922
917
916
914
911
905
896
895
892
893
892
889
883
887
885
885
880
877
873
875
879
891
896
896
889
888
889
892
884
883
878
876
876
880
883
882
878
875
875
876
874
869
865
868
872
879
882
879
875
872
873
876
881
880
880
885
895
902
901
901
904
907
911
914
921
927
925
927
929
936
944
942
944
943
944
945
944
945
947
952
956
959
960
958
957
960
966
970
969
966
963
962
965
966
969
963
962
962
963
966
966
965
964
962
963
965
965
963
962
961
962
965
966
963
960
958
959
958
961
958
956
955
960
963
957
958
956
953
953
955
950
951
952
955
955
954
955
951
950
948
946
951
949
948
944
942
939
940
947
951
948
945
945
944
947
941
938
936
937
939
939
936
932
930
936
934
935
934
927
926
927
933
942
943
938
938
940
943
941
937
928
931
930
938
939
936
932
933
937
936
938
936
930
928
930
935
935
935
930
928
932
937
937
