979
976
970
971
977
987
990
984
973
967
963
964
965
966
967
973
977
978
977
977
976
977
976
976
977
981
984
983
979
980
980
980
980
977
974
976
984
988
992
992
989
987
986
987
995
1006
1015
1016
1003
987
982
989
997
999
995
993
994
996
1000
1005
1003
996
994
992
1000
1010
1022
1022
1018
1013
1008
1003
1000
1004
1007
1002
993
997
1004
1011
1013
1013
1002
995
996
1000
1001
999
1001
1008
1006
1002
996
987
984
986
994
998
1002
998
991
991
995
1004
1003
987
969
960
959
961
964
967
973
976
972
970
969
970
973
980
986
983
975
968
966
964
961
958
952
940
937
952
967
973
963
952
944
944
947
951
953
954
948
948
950
948
947
944
944
947
949
951
944
940
942
956
968
971
962
950
939
935
946
966
976
970
963
956
951
942
942
951
954
955
956
954
959
963
964
964
961
960
964
962
958
954
952
955
963
971
977
971
964
957
960
963
963
960
956
954
957
960
961
960
961
960
955
950
949
959
967
970
968
966
964
965
968
965
962
955
950
951
957
960
958
959
964
974
976
976
971
976
981
984
987
989
990
990
993
1000
1005
1008
1005
999
993
999
1010
1025
1028
1017
1004
997
993
987
980
978
981
983
976
960
943
941
946
954
955
952
946
951
958
961
964
963
961
958
954
954
952
951
950
956
961
967
968
966
959
959
958
960
960
963
958
955
957
959
962
966
965
966
962
960
961
970
987
998
1010
1030
1049
1062
1057
1046
1045
1058
1075
1082
1083
1088
1089
1093
1097
1101
1096
1097
1098
1082
1052
1020
992
968
943
912
884
859
842
836
850
870
883
889
894
906
918
931
937
938
939
940
937
940
939
942
941
940
939
941
942
944
944
944
943
939
936
935
929
927
928
935
943
939
934
928
923
925
927
930
937
939
933
932
936
938
936
931
926
928
930
932
933
935
931
931
931
933
935
933
937
936
936
935
933
932
928
932
935
935
936
936
939
942
946
945
944
945
943
948
951
950
949
948
952
959
967
974
972
966
956
954
961
966
965
961
963
970
982
982
973
966
964
971
977
978
975
974
973
972
971
970
973
973
971
974
974
975
977
976
975
973
976
981
980
979
979
978
978
974
966
960
963
970
972
970
967
963
959
961
965
965
965
964
962
964
964
963
961
961
959
960
959
956
956
951
946
948
949
947
947
947
946
949
950
947
942
941
941
942
949
950
947
943
936
935
940
945
950
948
948
948
948
947
946
950
951
954
952
948
944
945
947
951
957
961
957
957
955
955
956
955
952
951
948
951
955
955
956
955
954
955
960
961
957
957
955
955
959
959
955
950
953
958
965
966
963
957
954
954
957
959
959
960
958
959
962
961
962
959
965
969
972
973
971
971
971
977
980
979
984
987
989
992
994
994
994
996
998
1001
1005
1007
1008
1013
1011
1014
1015
1014
1006
999
987
981
979
972
965
958
954
955
957
957
955
950
947
949
953
958
958
957
958
956
958
957
957
952
951
952
956
954
952
953
957
964
970
963
949
938
940
948
957
957
955
953
950
952
952
953
954
964
982
1005
1026
1043
1052
1047
1042
1045
1055
1066
1070
1073
1074
1080
1090
1094
1093
1093
1075
1046
1012
985
958
926
890
859
842
834
849
869
885
892
901
914
923
924
923
926
926
927
929
929
927
928
930
932
934
931
930
929
930
931
931
930
927
929
930
931
926
928
928
927
927
927
924
927
929
928
928
926
924
926
929
931
934
930
922
915
915
920
926
925
919
916
914
916
923
926
927
924
918
919
927
934
937
925
917
921
931
934
929
930
938
943
942
938
940
952
954
942
932
930
939
948
953
952
949
950
952
953
951
952
960
959
950
945
942
943
949
954
950
940
941
952
955
951
947
941
940
949
958
960
953
941
928
928
935
945
942
935
932
938
944
944
940
935
928
922
924
933
941
936
926
924
925
923
924
928
927
930
928
926
919
912
911
921
921
919
913
906
900
904
914
909
901
897
900
905
905
901
901
904
909
913
914
902
895
896
898
904
907
903
903
905
912
917
913
905
907
908
907
906
904
899
899
902
903
904
905
909
908
905
905
916
926
925
913
908
910
915
918
921
922
922
920
917
918
919
927
924
915
914
918
923
927
922
924
920
917
913
914
918
925
930
922
912
904
902
903
912
925
931
925
922
919
926
927
924
919
921
926
932
932
926
916
915
915
921
931
935
936
934
932
934
936
939
944
944
949
957
964
969
968
968
970
978
978
967
965
972
975
974
966
955
946
939
934
925
915
911
911
911
913
917
920
922
921
918
915
909
906
908
914
915
920
919
914
912
916
923
925
924
919
921
922
921
914
918
916
913
918
921
929
926
922
923
923
928
938
956
978
992
990
981
982
999
1015
1018
1012
1013
1011
1017
1021
1022
1021
1016
996
970
948
923
894
862
837
819
815
822
838
847
858
867
880
889
896
898
895
897
891
891
897
905
908
905
901
899
892
889
888
895
898
897
896
898
901
904
900
895
893
896
900
894
887
879
881
892
904
908
902
896
896
895
895
899
895
890
887
891
891
895
896
899
901
903
900
900
899
903
906
904
893
890
900
912
919
916
902
899
902
902
903
910
917
921
920
921
915
909
909
920
929
928
920
910
907
916
927
941
942
932
924
920
928
936
940
938
933
929
928
930
927
925
923
930
935
939
937
932
930
933
935
938
934
930
926
926
929
932
938
940
934
928
921
920
923
925
922
920
920
921
921
921
922
922
924
926
927
923
918
914
914
912
911
908
906
908
912
913
917
919
917
918
922
916
904
892
888
896
903
907
901
898
897
890
893
898
907
906
902
903
907
910
907
900
897
898
904
903
905
905
903
904
908
908
901
886
878
883
893
908
911
908
906
918
929
928
919
906
895
900
912
922
926
922
916
917
919
921
919
916
916
917
919
921
928
933
932
926
918
914
906
899
894
891
897
913
937
957
954
939
926
919
923
925
922
922
920
925
927
929
931
934
937
936
936
937
943
944
948
951
952
955
958
964
965
966
963
964
965
967
967
963
963
965
964
960
962
956
948
938
926
922
919
922
920
917
912
914
913
913
913
912
909
906
906
908
909
910
909
906
897
897
898
897
902
923
943
938
916
892
878
886
903
914
925
928
917
899
893
901
919
937
944
952
960
968
962
954
964
998
1031
1048
1035
1000
976
985
1012
1034
1032
1005
967
936
915
889
861
836
821
815
812
813
817
825
833
848
860
867
870
871
877
886
886
887
890
895
896
893
886
876
870
867
874
883
894
897
899
895
894
891
888
883
879
880
882
887
886
883
884
879
875
872
874
880
880
881
881
880
882
880
880
879
878
883
886
891
890
893
890
890
892
888
883
877
874
875
879
883
883
884
885
891
892
883
871
869
879
892
897
894
881
874
868
876
885
895
903
906
904
912
920
924
918
915
911
912
917
920
922
919
920
922
921
920
922
919
918
921
922
923
925
925
925
926
926
926
926
924
923
924
924
922
922
921
922
924
924
923
920
919
918
917
916
915
914
916
923
921
916
912
907
900
895
900
905
908
902
901
902
905
905
902
897
895
896
898
898
896
894
891
888
890
891
889
886
884
884
891
897
897
896
893
894
894
896
895
894
892
892
893
902
901
899
895
895
897
899
901
899
900
902
907
910
910
907
908
905
907
911
914
911
906
907
908
912
914
915
913
911
914
916
918
914
914
913
914
915
915
916
919
918
919
924
923
922
920
918
921
921
924
923
921
920
923
929
927
929
928
929
935
940
941
941
943
945
951
960
960
962
964
964
968
970
970
971
973
976
980
984
980
975
963
954
949
943
936
932
926
920
921
922
920
922
917
919
923
923
925
922
924
923
923
923
925
924
922
923
926
925
926
927
926
927
929
931
932
928
930
928
930
931
930
929
929
929
929
930
937
950
966
985
1008
1028
1039
1037
1028
1032
1048
1055
1064
1068
1069
1070
1076
1088
1094
1094
1081
1054
1020
990
966
935
898
865
840
824
827
843
856
865
868
873
882
892
901
906
908
912
912
913
912
912
909
912
910
908
913
911
913
912
913
911
911
910
912
914
914
913
910
911
909
911
909
910
912
911
913
914
911
911
911
911
912
915
913
913
909
908
912
914
913
909
909
909
913
916
917
915
913
913
918
919
920
917
917
919
922
923
924
922
924
926
927
932
932
932
936
934
940
943
948
947
946
948
948
952
957
959
960
960
960
962
966
966
965
965
967
970
970
966
966
966
970
973
972
969
967
969
970
971
968
967
964
965
970
972
974
970
968
967
970
970
971
969
969
968
968
970
968
963
963
960
960
963
964
963
961
956
960
957
955
954
951
950
953
953
950
947
948
945
946
949
946
950
947
945
946
948
947
946
944
941
944
948
948
947
945
946
950
954
956
954
952
950
954
955
956
955
953
957
958
959
962
961
961
957
960
960
961
961
962
960
960
962
966
964
963
962
963
966
967
963
962
962
966
968
967
967
964
965
966
970
972
969
965
966
970
969
973
972
969
968
976
983
988
987
985
986
989
995
999
1003
1004
1007
1008
1012
1016
1017
1012
1014
1019
1023
1023
1022
1017
1010
1002
999
992
986
977
968
963
963
961
960
958
957
961
965
963
961
957
955
960
963
962
959
958
962
964
965
961
962
959
960
962
963
964
962
959
958
961
966
961
961
958
958
961
962
961
962
966
977
997
1016
1030
1043
1054
1052
1046
1054
1065
1070
1075
1077
1081
1084
1085
1087
1087
1087
1083
1072
1035
1003
976
955
930
901
879
861
853
859
878
893
900
903
910
919
930
937
938
940
942
938
941
945
943
939
941
940
941
942
942
937
938
938
940
940
939
938
934
935
935
936
934
931
932
933
935
937
933
932
931
931
933
935
935
934
933
932
930
935
934
935
933
931
932
936
936
935
936
934
934
937
936
938
937
939
943
946
946
945
942
946
946
950
950
952
950
953
956
960
959
962
961
966
968
972
974
974
975
975
977
982
981
979
979
978
981
984
984
983
983
980
983
981
984
985
982
981
981
982
983
982
980
978
981
983
982
980
977
975
977
978
979
978
975
974
975
974
970
972
969
969
971
971
970
968
967
966
966
969
967
965
965
966
969
964
949
933
925
923
927
932
949
966
961
935
909
884
857
852
862
879
874
853
816
781
755
735
729
736
741
749
761
780
799
810
812
821
836
853
870
879
889
899
912
928
943
956
964
972
974
976
978
984
987
990
991
990
991
995
995
995
996
996
997
1001
1001
999
1001
1002
1005
1007
1008
1008
1012
1010
1013
1017
1016
1016
1016
1015
1019
1025
1024
1025
1027
1026
1029
1031
1031
1034
1032
1032
1035
1041
1040
1041
1040
1041
1047
1049
1047
1048
1047
1046
1049
1051
1052
1050
1050
1049
1054
1056
1060
1059
1057
1054
1057
1058
1061
1059
1061
1063
1068
1071
1069
1068
1066
1068
1069
1073
1072
1072
1071
1070
1067
1066
1061
1051
1042
1031
1026
1021
1010
1001
991
985
978
983
982
980
973
975
975
974
971
968
968
967
967
969
965
964
963
961
965
966
964
961
962
960
962
965
963
962
962
962
964
964
965
964
962
959
963
966
964
965
965
965
967
967
967
966
964
964
966
969
967
966
966
964
965
970
968
966
964
966
968
971
968
969
968
965
969
971
968
968
969
968
970
971
971
970
968
969
969
973
973
972
971
973
973
973
975
971
972
972
971
976
974
972
972
971
974
977
973
973
971
975
974
976
977
976
975
974
977
976
978
977
975
973
978
978
978
975
977
977
979
979
978
977
977
977
981
980
980
978
977
976
979
981
980
979
979
980
981
983
982
981
979
978
983
985
985
980
982
981
982
984
984
983
978
981
983
985
985
983
981
980
983
984
982
984
982
981
983
984
983
980
979
980
985
987
985
982
983
981
982
984
984
983
980
982
986
985
986
984
982
982
984
987
983
984
983
982
984
986
986
985
985
982
985
987
987
982
984
982
985
985
985
986
984
983
985
985
986
985
982
981
983
985
985
985
983
983
985
986
986
983
984
984
986
989
987
986
984
983
986
989
987
986
985
985
984
988
983
987
985
985
986
987
987
985
984
983
986
987
984
984
984
985
988
990
987
987
984
984
985
992
986
986
986
985
987
990
986
986
985
985
987
990
990
988
987
987
987
989
989
984
986
985
987
989
987
986
986
986
988
989
988
989
985
987
991
992
994
993
995
996
1000
1001
1002
1003
1001
1004
1009
1015
1016
1019
1021
1022
1027
1028
1029
1028
1027
1029
1033
1036
1036
1034
1031
1024
1021
1013
1003
997
992
988
984
981
977
977
976
976
978
976
976
976
976
978
977
980
976
976
975
975
977
978
977
976
975
976
978
980
980
979
976
975
975
980
978
977
977
975
977
978
977
979
981
994
1011
1029
1048
1064
1069
1061
1053
1059
1072
1079
1079
1079
1080
1082
1087
1084
1080
1078
1073
1053
1023
994
974
957
932
907
886
872
865
870
887
901
908
911
915
922
933
945
951
952
952
949
953
957
956
952
950
949
952
956
953
954
951
950
953
952
953
949
950
950
952
954
953
951
949
951
950
952
951
951
948
951
953
952
953
951
950
949
949
953
952
953
949
949
949
952
952
952
951
951
952
952
954
955
953
950
953
957
955
957
952
956
958
962
960
959
956
957
961
962
962
963
963
966
969
974
973
971
971
970
972
976
977
978
977
979
981
983
983
984
983
983
987
988
987
986
986
987
988
989
988
989
988
989
988
989
991
990
989
988
989
990
990
989
989
986
986
990
986
985
982
984
986
988
987
985
983
977
977
978
977
976
975
973
973
976
974
973
968
966
967
967
966
960
959
955
958
959
955
952
949
950
952
955
954
950
944
948
946
953
950
947
946
947
950
952
950
949
949
949
952
957
957
954
952
954
957
960
959
957
957
958
961
963
962
962
964
963
964
966
968
967
968
971
971
973
974
972
969
972
973
973
972
971
972
972
975
977
977
979
977
976
976
978
979
978
976
976
979
984
982
980
980
980
981
984
982
979
980
980
982
984
984
982
983
983
985
985
983
981
982
982
985
984
987
986
984
984
992
996
994
994
996
995
999
1004
1006
1009
1008
1012
1020
1026
1027
1026
1026
1026
1030
1037
1038
1039
1038
1035
1033
1025
1015
1007
999
993
988
980
976
972
974
976
977
979
979
976
975
975
979
981
977
978
978
975
980
981
980
978
978
976
980
982
982
978
980
980
979
984
983
984
980
980
979
983
982
979
982
987
1000
1020
1037
1060
1080
1092
1092
1088
1094
1100
1108
1116
1125
1127
1126
1131
1133
1135
1126
1102
1064
1025
989
951
919
894
878
870
878
895
909
917
921
927
932
942
951
953
953
952
949
948
949
953
952
953
951
948
951
953
951
948
947
948
949
950
948
949
945
944
946
947
947
945
944
944
945
949
946
946
944
943
949
951
948
948
945
949
950
952
951
949
948
947
952
954
954
950
949
952
955
961
960
959
958
960
964
962
966
966
967
969
971
974
976
977
978
978
985
987
991
988
990
992
993
998
1000
998
999
999
1000
1000
1003
1002
1002
1003
1003
1006
1006
1002
1002
1003
1003
1007
1003
1002
1001
1000
1002
1004
1002
1003
1001
998
1000
1002
1000
1000
998
998
996
999
998
996
995
995
996
999
998
992
992
992
990
992
991
990
985
986
988
985
983
982
982
982
985
983
982
979
977
976
978
981
980
978
974
974
976
979
979
978
974
974
975
978
978
978
976
971
977
981
981
981
978
980
980
982
984
981
979
982
986
987
987
985
986
986
987
990
987
987
989
989
990
992
990
992
991
991
991
994
995
990
990
991
993
996
995
996
995
991
995
998
999
998
997
1001
1005
1008
1008
1010
1008
1013
1016
1020
1022
1025
1029
1032
1036
1039
1040
1041
1040
1043
1048
1051
1053
1052
1048
1045
1040
1028
1022
1013
1006
1002
997
993
992
991
992
991
991
994
994
996
992
990
993
995
994
991
992
994
996
997
996
994
995
994
995
998
998
998
996
996
998
999
999
1000
998
996
1000
1015
1030
1047
1067
1086
1095
1089
1087
1093
1100
1109
1115
1119
1118
1118
1115
1117
1113
1098
1063
1026
997
972
944
919
903
888
890
902
922
931
935
941
949
960
969
977
977
978
976
975
976
977
978
979
979
978
979
980
980
977
976
974
977
978
977
976
974
974
978
980
978
977
976
972
975
978
977
976
974
974
976
978
977
976
975
976
974
976
976
976
975
975
975
979
977
976
976
974
979
980
981
979
981
980
983
986
987
985
985
984
990
991
992
991
992
994
1000
1000
999
999
1000
1001
1005
1009
1009
1008
1010
1012
1015
1016
1018
1015
1014
1016
1018
1019
1019
1015
1015
1014
1018
1018
1019
1018
1018
1019
1018
1020
1020
1019
1015
1017
1016
1017
1018
1016
1014
1012
1014
1016
1017
1015
1012
1009
1010
1017
1014
1010
1011
1009
1011
1009
1010
1010
1007
1007
1008
1007
1007
1002
1000
999
999
999
996
991
989
989
992
991
991
989
985
984
987
988
987
986
983
983
984
986
986
983
983
982
984
986
985
985
986
987
990
988
989
990
990
989
994
994
994
991
989
991
996
998
999
996
995
996
997
