1003
998
993
988
984
983
987
988
988
986
985
983
984
985
988
989
988
987
984
987
989
989
988
987
989
990
992
992
991
987
985
989
992
994
988
990
988
991
992
992
990
989
987
999
1014
1028
1047
1068
1093
1111
1115
1104
1102
1107
1116
1125
1130
1133
1132
1132
1137
1145
1145
1139
1114
1074
1034
1004
979
949
924
908
899
902
917
924
930
935
939
955
963
963
960
961
961
959
963
967
968
968
967
965
965
961
961
963
962
964
963
959
961
960
955
958
958
959
960
958
957
957
959
955
955
954
954
954
955
954
955
953
951
951
953
955
954
952
949
952
955
956
955
953
953
956
957
956
955
953
953
956
957
958
958
957
958
961
962
962
962
961
963
964
966
967
964
965
966
968
971
971
971
969
970
973
973
977
976
975
977
980
983
983
979
978
976
979
986
986
987
983
982
986
986
989
989
985
984
987
990
990
988
985
984
986
989
988
989
986
982
987
986
987
985
984
980
987
985
983
981
979
977
979
981
982
979
979
975
976
979
980
979
977
971
973
975
975
972
969
971
973
972
969
968
968
968
969
968
969
968
966
965
967
967
967
966
965
965
963
965
965
964
959
960
962
967
969
969
968
963
966
967
967
969
966
965
967
972
973
971
969
968
967
972
975
973
971
972
971
974
975
974
971
972
974
975
975
976
972
974
975
976
974
975
976
975
976
979
978
977
978
975
976
979
979
979
982
979
983
984
982
980
979
976
980
984
984
982
980
978
981
982
983
980
976
976
978
980
979
982
981
978
979
979
980
979
978
979
982
983
985
980
977
977
979
982
984
982
979
980
982
986
984
981
981
982
983
982
982
984
984
986
988
995
996
995
994
995
999
1003
1006
1009
1010
1014
1019
1022
1024
1024
1021
1023
1030
1034
1034
1036
1034
1026
1018
1008
1003
996
990
984
979
973
973
975
975
976
976
978
979
976
973
972
975
977
975
976
974
972
976
978
977
977
972
974
974
980
982
980
979
978
982
984
982
978
978
980
984
994
1002
1022
1041
1067
1101
1121
1122
1112
1119
1128
1139
1147
1155
1157
1160
1168
1173
1172
1158
1128
1084
1040
1006
973
940
909
887
882
892
906
913
915
916
921
932
942
950
951
951
953
955
954
957
953
951
950
950
952
952
947
949
947
948
952
948
947
948
946
947
946
945
947
945
946
948
947
949
945
942
943
947
949
948
948
945
945
948
949
947
944
942
941
946
947
948
947
947
947
947
950
951
947
948
947
950
954
953
951
951
951
955
960
958
958
957
957
961
963
962
963
961
963
966
970
971
972
972
973
976
982
979
981
981
982
984
986
988
987
987
986
989
990
990
993
990
991
993
995
995
993
990
989
995
998
1000
994
993
992
996
994
994
993
992
992
993
997
995
994
990
991
994
992
992
990
988
987
989
993
993
990
988
987
988
988
989
986
985
986
986
988
986
986
982
980
981
982
982
983
980
980
980
982
981
979
978
976
979
980
981
980
978
977
980
981
982
979
978
978
981
984
984
985
981
983
986
987
989
984
984
985
988
989
987
988
985
985
988
990
991
987
986
986
988
992
991
991
992
990
992
994
992
994
992
991
992
994
996
993
994
991
993
996
996
994
994
994
993
996
999
998
997
993
996
997
997
996
993
996
997
998
997
996
993
993
998
1002
999
994
995
994
997
999
1000
998
995
994
995
997
997
998
996
996
996
997
998
997
997
996
996
996
998
995
997
996
997
999
999
1000
999
999
1006
1009
1008
1009
1008
1008
1009
1013
1017
1020
1021
1025
1030
1033
1037
1038
1040
1038
1039
1044
1045
1047
1047
1048
1051
1047
1040
1026
1017
1012
1005
1001
996
989
986
988
992
992
991
987
988
989
993
993
992
987
989
992
992
995
994
988
990
990
994
990
992
990
993
991
991
993
994
995
996
995
994
996
995
993
993
993
998
1006
1020
1037
1058
1085
1112
1128
1125
1120
1123
1133
1141
1149
1151
1151
1154
1159
1166
1168
1160
1135
1102
1069
1043
1017
985
955
929
914
904
906
917
928
933
936
944
951
958
963
965
968
972
975
972
970
970
970
973
973
970
968
966
965
971
971
969
968
968
966
967
967
967
968
966
963
965
965
967
966
966
962
963
961
962
963
961
961
960
961
961
960
962
960
961
965
963
960
961
960
963
965
963
963
962
961
965
969
969
969
964
967
970
973
973
971
971
969
974
976
977
975
973
974
976
982
983
984
981
979
984
986
985
984
984
986
989
990
993
991
993
992
994
997
996
995
995
997
1000
1001
1000
999
996
996
997
1000
998
996
993
995
999
1004
1001
998
994
994
999
999
998
999
995
994
995
994
994
992
994
990
993
993
993
992
991
990
988
989
988
986
984
979
978
981
982
984
982
980
981
978
978
976
975
975
976
978
977
975
972
971
973
973
972
969
969
968
971
973
975
968
972
971
973
973
973
975
973
974
975
978
977
975
974
975
978
981
983
981
977
978
979
981
982
979
982
978
984
987
984
985
986
985
987
987
986
985
983
983
986
987
985
987
986
983
984
985
987
988
984
986
984
990
991
990
989
987
990
990
990
989
989
987
988
992
992
989
990
990
992
992
991
990
987
987
992
993
993
989
988
989
989
991
992
990
990
990
993
995
992
994
994
993
995
996
998
998
1000
998
1001
1008
1008
1009
1010
1010
1017
1021
1025
1028
1026
1029
1031
1034
1035
1037
1038
1040
1045
1047
1047
1040
1028
1019
1014
1011
1002
994
986
984
985
989
991
987
986
988
990
990
987
988
989
987
988
990
988
989
989
989
989
988
991
990
988
991
991
992
993
993
991
992
992
996
995
994
989
987
992
998
998
1001
1012
1029
1054
1081
1105
1126
1128
1121
1121
1132
1145
1151
1156
1159
1162
1172
1181
1183
1175
1162
1135
1101
1062
1029
998
967
934
915
901
900
910
922
928
934
938
945
952
956
962
964
967
966
963
963
965
967
966
965
962
961
962
965
966
962
960
958
960
964
962
960
957
957
960
959
958
955
956
954
955
960
959
958
957
956
956
960
959
958
956
956
957
959
960
959
957
956
959
959
961
959
958
962
966
967
966
962
965
964
967
968
969
969
969
967
971
973
975
974
974
975
977
977
980
980
982
982
984
988
989
989
988
987
989
993
994
993
994
994
997
998
999
997
996
997
998
998
999
997
995
995
994
998
1000
995
994
994
994
996
998
996
994
993
994
997
997
994
992
989
993
994
994
990
987
988
991
990
988
987
987
986
986
987
982
983
979
981
979
980
979
978
978
976
976
978
977
975
971
972
973
975
976
975
973
972
974
974
974
974
972
972
975
973
978
976
975
976
977
978
978
979
978
978
978
981
979
978
977
979
982
985
988
985
982
981
982
985
983
983
983
984
985
988
986
988
983
983
985
988
987
986
985
985
985
985
986
986
983
983
986
987
989
990
987
986
987
986
987
987
985
983
986
988
988
988
985
985
987
992
990
988
988
986
987
988
990
988
988
988
989
988
990
989
989
987
990
989
989
989
989
989
991
990
988
989
988
986
988
990
991
990
991
990
992
992
994
991
989
990
993
997
996
998
997
997
1004
1007
1008
1008
1008
1010
1016
1020
1023
1023
1024
1026
1028
1031
1032
1032
1035
1037
1037
1039
1034
1023
1013
1005
999
996
987
981
978
977
978
981
980
981
979
981
980
982
980
981
977
977
978
982
983
980
980
976
977
981
981
981
981
981
981
983
982
981
980
978
981
981
979
977
978
980
989
999
1014
1033
1057
1082
1103
1108
1103
1099
1106
1116
1118
1127
1128
1129
1131
1134
1138
1137
1125
1102
1065
1033
1011
991
962
932
907
890
883
895
909
919
922
925
934
942
949
949
949
952
955
955
956
952
949
951
951
953
950
950
950
949
950
949
951
950
947
948
948
946
947
943
942
942
946
945
946
944
945
943
946
949
945
946
943
943
943
944
946
942
943
942
944
945
946
945
946
945
946
947
946
945
946
944
949
948
950
949
948
950
952
953
953
952
951
952
956
959
959
959
960
958
960
961
961
962
963
961
963
966
966
967
966
965
966
970
971
971
969
967
969
974
977
976
974
973
974
979
978
979
977
976
975
977
977
977
974
973
977
979
977
975
975
974
977
978
977
975
974
972
975
977
972
973
974
973
974
974
975
974
971
972
972
972
970
966
967
966
966
970
967
964
960
960
961
963
963
960
960
956
956
957
958
958
957
954
953
954
955
947
947
946
949
953
954
952
952
949
950
951
949
947
946
942
944
950
952
952
948
948
948
948
949
949
948
948
950
953
954
953
952
951
955
957
954
953
954
954
953
957
957
955
953
954
957
958
957
957
954
953
958
962
962
960
958
958
959
962
962
963
960
961
962
964
965
963
962
961
958
962
961
963
961
961
964
966
966
964
962
962
965
968
964
965
963
961
962
966
965
965
965
964
967
969
971
969
968
967
971
972
973
969
971
969
969
972
971
968
968
967
969
972
974
973
972
970
973
973
973
971
971
972
977
981
983
982
979
981
983
987
990
992
992
994
1000
1005
1003
1006
1004
1006
1009
1014
1017
1018
1018
1019
1020
1023
1018
1009
996
988
984
981
973
965
961
961
965
966
964
965
965
963
967
970
965
964
964
964
965
967
967
966
963
964
966
969
968
968
968
966
968
972
971
971
969
969
970
971
971
970
968
969
971
974
979
989
1005
1024
1048
1077
1095
1101
1091
1086
1098
1112
1119
1119
1123
1123
1128
1139
1143
1141
1135
1113
1081
1050
1021
991
963
931
910
895
883
883
888
898
907
914
917
920
925
934
940
943
946
948
949
947
947
947
949
950
948
947
947
949
952
949
947
945
948
949
949
947
943
942
946
948
947
945
943
942
944
945
945
945
943
941
946
947
948
945
945
941
944
946
946
943
943
945
947
949
948
948
945
946
947
949
948
949
948
946
947
950
951
951
950
950
952
955
954
954
955
953
958
961
964
960
959
959
963
965
964
964
965
964
967
972
971
973
971
973
975
977
976
978
979
980
981
982
985
984
981
984
986
986
985
984
985
987
987
990
988
987
988
987
988
991
989
989
988
987
986
988
988
987
988
984
988
990
989
988
986
983
985
985
986
983
981
978
982
987
985
982
981
977
979
979
978
977
976
974
976
978
974
974
972
973
974
976
974
972
970
969
970
972
969
968
966
967
966
970
969
966
966
966
969
969
967
966
966
965
967
971
970
973
971
968
973
972
974
974
972
973
975
976
976
973
975
974
977
980
982
979
978
975
979
983
980
981
979
977
977
983
981
982
980
978
981
984
984
980
978
977
980
985
983
984
982
980
982
984
982
982
981
982
985
989
985
983
982
982
985
988
986
985
985
985
987
988
987
986
986
986
988
989
987
986
986
987
988
991
988
988
987
987
986
992
991
991
989
986
988
990
990
992
990
990
990
992
991
991
988
987
990
987
992
992
991
988
991
993
991
991
989
990
990
992
991
994
994
996
997
1001
1000
1000
999
1001
1004
1008
1006
1009
1010
1015
1018
1023
1023
1027
1028
1030
1031
1032
1034
1036
1035
1036
1040
1043
1040
1031
1022
1012
1004
1004
998
990
983
979
982
985
985
981
981
979
982
982
985
983
979
980
984
987
985
981
978
978
981
983
983
983
982
981
984
987
985
983
983
981
986
991
988
985
981
979
981
985
984
983
988
1003
1024
1046
1068
1090
1106
1109
1105
1108
1117
1123
1126
1131
1134
1136
1138
1142
1140
1141
1127
1102
1067
1031
1003
976
948
921
902
891
888
894
910
918
923
925
932
937
946
953
955
957
955
955
955
958
957
956
955
953
953
954
955
954
952
950
952
954
954
952
951
949
949
952
947
947
945
948
950
952
948
944
944
947
949
950
949
948
948
948
948
952
948
948
946
948
949
949
951
951
953
950
951
953
953
953
953
950
953
956
957
956
955
957
959
963
962
961
960
961
967
971
970
969
968
968
971
974
972
972
969
972
974
977
978
978
978
978
980
982
983
983
980
980
985
986
985
984
983
981
982
982
982
984
980
981
983
983
983
984
981
982
980
982
979
982
979
977
976
980
978
977
977
975
976
976
976
975
970
971
971
972
971
968
966
963
965
969
967
965
961
959
959
961
961
961
956
957
959
961
959
956
954
952
954
956
955
955
953
951
951
955
956
956
955
954
957
960
958
954
954
955
955
958
958
955
954
954
956
959
958
959
956
956
958
961
961
961
959
959
961
962
963
962
962
959
964
965
965
966
963
966
964
969
968
968
965
964
965
967
968
967
966
967
966
969
969
968
967
967
969
972
968
966
963
964
967
970
971
971
969
969
970
971
970
970
964
965
969
973
974
973
969
969
970
973
971
972
969
970
972
971
971
972
971
970
972
973
971
971
970
969
972
975
975
974
972
970
973
977
975
974
973
975
980
984
985
984
984
986
988
993
996
998
1001
1004
1009
1013
1012
1011
1011
1015
1023
1026
1025
1024
1022
1016
1006
997
991
982
974
966
964
967
969
969
964
965
966
968
967
965
964
967
969
972
971
968
965
966
967
969
970
971
969
969
969
971
971
972
971
973
974
975
974
971
970
972
977
985
1002
1019
1042
1073
1102
1109
1102
1099
1108
1117
1129
1134
1137
1137
1144
1147
1148
1143
1117
1079
1039
1008
982
951
917
892
876
876
887
903
910
913
914
922
932
942
941
944
944
947
947
950
948
947
945
944
946
949
948
946
942
943
943
942
942
943
939
941
942
943
942
941
939
939
942
943
944
941
937
936
939
942
943
940
939
939
942
944
942
942
941
939
942
943
943
943
941
943
945
946
946
946
946
948
950
952
954
953
952
951
953
957
958
957
954
955
960
963
965
965
960
962
968
968
968
966
964
963
971
975
976
973
972
972
975
978
976
975
972
975
978
979
978
975
975
975
976
977
978
978
975
974
974
974
971
967
962
956
954
942
916
887
863
857
862
881
901
923
950
980
1011
1038
1060
1076
1082
1086
1087
1099
1114
1125
1114
1087
1052
1019
978
942
916
907
912
907
889
873
877
892
907
920
929
936
942
952
958
956
957
953
952
953
957
959
958
955
955
954
957
960
957
956
950
952
954
958
959
954
951
955
957
957
957
956
954
956
956
957
957
956
953
955
958
959
956
957
955
956
959
960
962
962
959
957
961
963
963
963
958
958
961
964
964
961
961
960
963
965
963
961
958
963
965
967
964
963
962
964
967
967
967
966
967
967
971
970
971
970
968
966
967
971
969
968
967
966
968
970
970
968
963
963
965
966
964
962
958
957
962
963
961
959
958
956
958
961
959
958
959
959
962
966
966
964
967
970
974
978
978
980
978
979
986
993
995
998
998
1000
1006
1006
1010
1011
1011
1013
1017
1022
1022
1017
1008
1006
1002
995
990
981
972
966
965
966
968
967
963
965
968
969
969
965
965
964
965
966
963
964
963
966
970
970
969
968
964
969
968
968
970
968
969
969
970
971
973
970
968
970
973
973
974
972
972
973
975
976
974
974
974
972
976
975
976
976
974
975
979
977
978
978
975
975
975
979
981
979
975
976
978
982
981
979
974
975
979
983
989
997
1009
1027
1055
1080
1103
1107
1102
1104
1114
1128
1130
1128
1121
1123
1129
1137
1135
1130
1121
1100
1069
1039
1013
992
968
940
913
895
887
892
901
910
917
920
929
937
939
943
947
949
951
950
946
947
950
952
951
947
945
945
947
949
947
945
940
942
943
944
940
941
938
938
940
944
941
940
936
935
939
938
938
935
934
937
938
941
942
940
935
937
939
943
941
940
939
940
941
944
942
941
941
943
944
946
944
944
944
947
948
950
948
948
951
949
953
954
957
955
955
955
956
957
961
958
957
958
960
963
964
966
966
966
968
969
975
974
971
973
973
976
975
975
972
974
975
977
975
973
970
974
975
979
979
975
973
971
974
975
974
971
971
969
974
974
971
972
966
968
969
970
968
964
963
965
965
966
963
964
960
962
961
962
958
958
956
954
955
954
957
952
948
949
949
949
948
947
948
948
945
948
947
946
945
946
947
949
946
946
945
945
947
948
951
949
945
946
949
953
953
954
952
954
954
956
958
959
955
958
958
961
960
960
957
959
960
964
962
963
959
962
965
965
966
965
960
962
964
963
964
963
963
963
966
968
967
969
964
965
966
967
969
968
969
970
968
969
970
972
968
967
969
970
971
970
969
970
971
975
973
971
969
969
972
972
975
973
972
970
977
976
978
979
981
982
986
988
991
987
990
995
1000
1004
1006
1007
1010
1009
1015
1017
1018
1019
1020
1023
1024
1024
1019
1010
996
992
985
981
975
966
961
962
965
971
969
967
964
963
966
967
967
964
962
964
967
969
968
968
968
967
968
972
973
969
967
967
970
971
973
969
968
970
974
972
970
969
969
970
974
973
979
985
1001
1023
1049
1074
1094
1104
1100
1094
1102
1109
1118
1124
1128
1133
1135
1139
1146
1145
1141
1132
1105
1072
1037
1006
979
950
921
901
888
881
883
894
905
913
915
920
923
932
938
945
946
947
945
945
946
947
948
949
944
946
943
947
947
945
942
944
946
946
944
942
941
942
944
944
946
945
941
