990
987
986
986
986
984
984
983
982
984
986
984
983
979
975
979
982
983
980
979
977
979
979
978
976
974
972
971
972
973
971
971
968
968
967
965
964
965
966
963
966
966
962
954
953
958
963
964
961
958
955
957
958
958
957
955
954
953
957
958
956
954
957
960
961
961
959
959
961
964
964
965
963
961
962
964
968
967
966
965
967
966
966
967
967
969
970
972
975
971
968
966
971
974
979
979
976
974
973
972
973
975
973
974
974
974
973
974
975
975
976
977
975
975
976
975
975
978
978
978
979
976
973
977
982
982
980
978
978
982
984
986
979
975
976
976
981
981
983
980
983
981
980
978
979
981
985
989
988
986
985
983
980
982
981
982
983
979
979
985
991
989
988
984
984
985
983
981
982
981
980
982
982
982
981
980
985
989
991
989
985
983
983
986
987
986
985
983
984
985
988
987
987
986
987
989
989
990
989
988
991
998
999
1001
1001
997
997
997
1004
1009
1013
1015
1016
1018
1021
1023
1023
1022
1025
1029
1035
1038
1037
1035
1037
1034
1029
1023
1018
1010
1001
996
987
984
981
980
983
986
987
984
980
977
978
983
988
985
982
978
982
985
989
991
986
984
984
986
989
985
985
984
987
987
986
985
988
990
986
988
990
990
987
985
986
987
990
989
993
1004
1021
1041
1063
1086
1109
1123
1122
1117
1122
1131
1138
1142
1151
1156
1158
1162
1174
1181
1182
1177
1164
1137
1106
1077
1057
1031
1002
971
941
917
904
908
921
927
928
926
931
938
947
952
955
957
957
959
957
956
958
962
965
966
970
965
964
960
958
960
963
959
955
952
955
957
961
957
957
954
954
956
955
955
953
951
954
952
954
958
956
952
950
951
953
958
962
962
962
961
961
962
958
957
958
958
963
966
966
960
963
963
969
965
962
959
960
965
970
972
971
972
978
982
981
981
983
980
985
988
989
990
988
986
987
991
992
991
992
991
993
997
997
1000
997
997
997
1001
1002
1002
1003
998
1000
1000
1001
997
998
999
1001
1004
1003
1003
1000
998
998
999
1003
999
1002
1000
1000
1000
999
998
997
998
1000
1003
1003
998
994
993
993
994
996
998
996
995
994
996
994
991
992
991
994
994
993
992
987
985
986
989
992
990
984
983
984
986
987
988
984
980
979
981
983
980
981
980
980
977
979
978
980
980
981
983
981
977
977
977
979
982
982
982
982
982
985
988
993
990
984
972
965
967
975
979
979
985
995
1003
993
970
950
938
925
918
929
943
946
926
885
838
799
763
736
721
726
742
755
760
768
780
807
828
839
846
850
863
880
894
904
912
921
931
947
959
973
988
996
999
999
1004
1010
1014
1019
1021
1025
1030
1034
1032
1031
1027
1030
1035
1038
1038
1038
1038
1038
1042
1044
1045
1044
1044
1043
1047
1048
1050
1047
1049
1052
1054
1058
1059
1060
1060
1061
1062
1065
1068
1071
1073
1076
1078
1081
1081
1081
1081
1085
1088
1091
1095
1098
1099
1100
1103
1105
1106
1104
1107
1109
1107
1109
1109
1113
1110
1112
1115
1116
1110
1112
1107
1107
1109
1112
1112
1106
1101
1098
1101
1098
1098
1095
1092
1093
1094
1095
1095
1092
1092
1091
1091
1095
1094
1092
1090
1089
1087
1085
1089
1089
1086
1084
1083
1080
1074
1064
1055
1045
1038
1029
1022
1010
999
992
996
1002
1001
996
991
990
991
992
989
986
981
981
982
981
980
980
980
981
982
982
979
977
974
974
975
979
983
978
977
974
976
978
978
982
980
979
978
978
977
975
974
978
982
982
980
974
972
975
979
981
984
983
979
980
979
984
981
980
980
979
979
982
982
982
982
982
982
985
984
984
982
984
982
981
986
984
983
983
985
987
985
980
978
984
988
988
985
984
980
983
986
991
991
988
984
982
980
982
985
983
983
982
982
984
989
988
985
984
981
980
984
981
981
980
983
986
987
986
982
983
981
985
985
984
979
981
982
985
986
984
982
980
982
986
985
984
981
984
986
984
984
981
979
982
981
983
983
982
978
978
978
984
985
984
980
979
979
982
981
983
982
982
979
980
979
979
979
981
984
985
983
982
981
981
984
987
985
983
978
978
978
980
979
979
980
978
986
987
985
982
981
981
983
985
984
981
979
982
983
984
983
982
980
979
978
982
980
981
979
977
980
986
985
983
980
980
980
983
984
981
978
974
979
983
987
987
982
982
981
979
981
980
978
980
983
984
982
978
976
980
984
986
986
982
980
982
980
984
984
984
980
981
986
987
983
982
981
980
981
982
984
982
982
981
984
983
981
979
976
979
985
990
988
985
978
980
983
986
983
981
977
976
975
985
986
987
983
983
984
984
983
983
979
978
980
981
985
984
982
982
981
980
984
983
979
979
979
981
982
981
978
977
980
986
987
985
981
979
978
983
985
981
977
978
980
983
984
979
977
984
984
985
982
980
980
983
981
982
980
981
980
979
977
976
977
978
981
986
987
986
984
982
983
985
987
989
993
994
993
993
997
1006
1012
1014
1014
1014
1016
1019
1021
1019
1020
1021
1026
1029
1031
1032
1029
1021
1014
1006
998
991
984
977
972
970
971
972
968
970
969
973
974
973
968
971
973
976
972
965
963
965
970
973
975
976
974
976
973
972
972
970
968
969
972
975
974
973
971
974
982
996
1012
1026
1047
1074
1100
1110
1104
1101
1105
1116
1122
1126
1126
1126
1132
1138
1139
1136
1125
1095
1065
1042
1016
986
950
918
894
890
901
913
921
921
922
927
934
941
939
939
938
942
943
942
941
939
937
936
940
944
944
943
938
942
944
944
939
935
931
931
936
938
941
941
937
936
937
938
937
938
934
935
936
936
934
933
934
938
938
939
936
933
933
933
937
939
941
940
937
940
940
941
939
938
938
942
944
945
945
946
943
945
945
945
947
943
941
944
948
955
953
949
951
950
954
957
956
953
951
956
958
961
960
963
958
957
958
960
963
963
965
967
965
965
969
968
963
963
966
970
970
966
964
965
966
971
975
973
969
969
970
972
970
966
963
964
965
964
962
961
964
966
963
964
964
963
963
968
966
965
965
961
955
954
955
956
959
955
954
955
953
954
951
948
945
944
947
950
948
945
937
938
940
945
945
941
940
937
934
936
937
935
932
936
936
939
940
939
937
937
937
937
941
942
941
941
943
945
943
944
943
946
949
951
950
948
946
949
951
950
953
953
952
950
953
951
951
949
950
956
960
963
959
956
954
956
957
955
956
956
957
957
961
963
963
960
958
960
964
964
961
958
956
957
963
967
965
965
962
962
961
961
963
964
961
961
961
964
966
965
965
966
967
967
967
962
960
961
960
964
968
972
963
966
965
966
967
967
966
968
971
970
969
965
964
964
969
970
969
968
966
968
971
973
973
971
966
968
968
969
969
967
967
968
970
972
974
978
980
983
985
985
984
983
985
991
997
998
1002
1003
1003
1009
1014
1017
1020
1020
1021
1020
1026
1026
1023
1013
1000
994
987
983
975
966
958
957
960
965
969
966
963
964
964
965
966
968
969
971
968
967
967
966
966
966
969
969
968
966
964
962
962
965
965
967
965
964
968
971
972
965
962
965
971
974
979
983
996
1018
1040
1071
1094
1109
1103
1103
1110
1125
1131
1138
1146
1150
1160
1169
1175
1172
1163
1145
1118
1093
1067
1037
1004
965
931
906
895
892
903
907
912
914
919
923
929
933
934
939
940
938
935
935
936
940
936
937
935
933
936
938
938
933
929
927
929
930
935
935
932
930
929
930
929
931
932
931
933
933
931
930
928
930
928
930
929
928
927
928
930
932
931
931
932
931
931
932
931
933
933
934
936
940
940
940
938
941
944
945
945
944
944
948
949
953
954
948
946
952
961
966
967
964
963
964
967
969
968
967
967
970
972
975
975
974
971
972
977
979
980
978
976
974
977
980
983
982
979
979
982
984
979
980
979
981
982
980
978
975
976
978
980
985
982
976
973
974
978
980
977
975
974
974
972
972
971
970
967
968
972
968
969
968
966
968
967
967
967
965
963
965
967
967
964
963
958
960
962
963
963
960
960
963
961
963
963
963
961
961
963
967
966
964
964
965
966
965
966
966
969
969
972
973
972
970
965
965
970
974
975
975
969
970
974
976
973
971
973
978
980
981
977
978
977
978
979
981
980
979
976
977
976
979
980
981
979
977
980
981
980
976
977
979
979
983
982
980
980
983
984
984
984
985
983
987
990
995
993
989
982
981
984
985
984
983
985
989
992
991
990
987
985
985
989
992
991
989
989
989
988
992
997
1002
1007
1007
1006
1004
1006
1007
1011
1022
1025
1028
1026
1028
1029
1031
1035
1034
1036
1036
1037
1037
1039
1039
1033
1025
1013
1006
999
995
988
985
982
986
990
990
989
985
980
981
990
991
991
985
983
986
988
988
986
984
986
988
992
989
989
986
985
984
988
992
992
990
987
984
988
989
985
982
984
995
1010
1033
1051
1076
1100
1114
1115
1111
1119
1128
1133
1142
1148
1153
1158
1161
1159
1158
1146
1121
1091
1067
1042
1017
991
961
932
912
908
915
928
933
937
940
947
955
958
962
963
963
964
964
968
966
963
962
965
968
969
967
965
963
961
961
963
962
958
957
958
960
961
961
960
957
956
957
958
959
963
966
964
961
961
962
961
961
962
962
961
960
959
960
961
965
967
966
966
967
967
969
970
970
968
970
972
972
975
979
982
982
979
982
984
986
986
985
987
988
989
990
990
991
988
990
991
996
1000
999
998
996
997
998
998
997
994
996
1000
1000
999
995
997
1000
1003
1001
1000
997
996
996
998
999
998
995
995
997
998
998
996
995
998
1000
997
998
996
992
991
992
996
995
995
991
987
986
988
990
990
988
982
983
984
986
984
982
977
979
979
979
979
978
974
975
977
977
974
969
967
973
975
975
972
971
970
972
976
976
977
974
973
973
974
975
974
972
973
972
978
981
980
977
978
981
981
982
982
981
976
979
981
983
982
980
981
983
986
989
988
987
984
987
987
991
989
988
984
984
982
983
985
982
986
986
987
989
990
990
987
986
984
985
988
989
987
989
990
993
993
991
987
987
989
991
989
988
986
988
990
989
986
982
982
985
989
993
989
989
988
992
993
995
994
993
988
988
989
991
988
987
984
982
985
988
991
991
989
990
992
996
996
995
993
997
1000
1002
1004
1002
1003
1002
1008
1011
1014
1020
1025
1027
1031
1031
1027
1029
1028
1033
1037
1039
1040
1035
1028
1023
1014
1005
999
990
983
979
979
980
981
982
981
984
984
984
983
981
978
979
980
980
982
983
982
981
984
984
982
982
979
978
977
980
984
984
981
979
980
979
980
980
980
981
984
989
1007
1028
1054
1086
1110
1121
1114
1113
1120
1134
1140
1153
1159
1159
1164
1173
1170
1166
1158
1136
1107
1078
1054
1031
995
957
927
907
901
911
917
918
919
928
938
946
952
948
950
950
952
950
951
951
949
950
951
950
947
946
944
948
948
949
946
944
943
942
946
945
939
938
934
936
941
944
948
945
943
946
943
940
938
938
942
945
945
947
944
943
941
944
947
951
950
948
948
948
951
949
948
947
947
950
952
954
954
951
947
951
955
959
960
958
954
958
963
965
968
967
968
968
969
970
970
969
971
971
974
975
973
973
976
982
985
985
983
979
978
981
986
987
989
987
983
984
985
987
989
987
987
991
992
994
989
985
982
986
988
992
994
992
986
985
986
985
986
984
982
984
984
983
981
984
985
986
982
983
982
980
979
981
981
980
977
977
974
977
976
977
972
971
970
972
972
973
970
970
968
967
965
964
959
963
967
968
968
965
963
960
960
964
966
965
962
960
957
961
964
965
962
959
957
958
961
963
966
965
965
964
966
967
967
969
971
970
971
968
970
970
970
971
972
970
967
965
965
973
977
980
976
975
973
976
976
974
972
973
975
980
980
978
977
975
975
978
977
978
979
978
977
975
976
976
978
984
982
978
975
976
978
981
979
983
984
984
981
979
978
979
980
979
984
983
982
981
983
982
981
981
980
982
985
988
987
986
978
985
987
998
999
997
994
997
999
1001
1003
1002
1002
1006
1010
1014
1017
1017
1019
1020
1022
1023
1023
1028
1031
1037
1037
1037
1035
1032
1025
1017
1008
1002
997
986
982
979
980
982
981
979
975
978
980
982
981
978
981
983
984
983
982
979
978
978
980
981
982
982
979
983
986
989
987
984
981
984
984
984
984
985
984
983
981
983
983
984
992
1007
1026
1049
1076
1101
1113
1110
1108
1113
1123
1130
1133
1141
1148
1153
1157
1164
1162
1163
1160
1147
1123
1096
1069
1046
1022
997
968
940
913
898
901
912
921
929
927
931
937
942
946
949
951
956
963
962
959
958
954
955
956
953
957
956
954
956
957
957
957
950
949
950
950
951
954
955
954
954
953
951
952
951
949
950
950
950
951
947
947
952
955
960
959
957
956
959
959
958
953
953
954
958
959
962
961
960
960
959
960
959
960
959
958
966
968
969
967
966
963
969
972
973
972
973
972
976
978
981
977
975
977
979
983
984
984
981
981
983
985
987
990
992
994
997
996
996
993
991
994
993
992
993
991
991
991
996
997
999
997
993
989
994
998
1001
996
995
995
994
994
994
995
993
990
992
992
995
993
990
987
989
989
991
991
989
990
991
989
986
983
977
978
984
985
986
987
984
981
982
982
982
977
975
973
976
979
978
978
973
969
968
974
976
974
973
971
971
974
973
972
968
968
971
969
969
968
967
967
968
969
972
971
969
966
968
971
974
971
969
964
965
971
975
978
979
974
972
974
975
977
978
979
980
983
981
980
977
975
976
981
982
983
980
978
979
980
986
983
982
979
983
985
985
983
984
978
979
983
984
987
985
982
984
983
985
984
983
981
983
984
983
986
987
988
989
990
987
987
985
986
985
988
989
989
988
985
986
987
990
988
986
984
985
989
992
990
988
987
989
991
990
987
986
985
986
992
995
993
991
989
992
995
996
996
994
997
1001
1004
1007
1007
1010
1013
1017
1019
1020
1024
1026
1027
1027
1030
1033
1034
1033
1032
1034
1036
1032
1022
1014
1006
1007
1002
993
984
976
977
983
986
986
982
979
977
980
978
978
980
980
978
980
978
979
980
980
981
983
984
985
982
979
976
980
983
984
980
976
976
983
985
985
982
980
979
981
980
986
993
1005
1023
1044
1068
1089
1101
1099
1092
1101
1118
1130
1133
1134
1134
1138
1143
1148
1149
1145
1139
1131
1114
1088
1062
1042
1018
994
965
937
914
899
898
912
924
927
928
931
935
945
952
954
954
953
950
958
959
955
953
953
956
960
961
955
955
952
954
952
952
954
955
952
950
951
955
955
953
953
952
949
951
953
950
949
946
949
952
950
949
949
949
951
955
953
953
951
948
951
954
951
952
952
954
957
959
960
957
956
957
959
961
966
965
966
966
967
972
972
972
971
970
976
976
981
980
980
978
982
983
984
984
985
985
985
985
989
990
986
986
988
990
990
989
982
984
987
987
987
983
987
987
990
990
986
986
984
982
984
986
986
983
981
978
979
982
980
978
977
974
977
979
981
978
974
972
975
978
977
974
968
967
968
971
974
971
967
965
965
964
964
960
959
958
960
959
958
955
953
954
956
957
958
953
952
950
953
952
951
949
947
947
948
946
952
952
951
949
950
951
953
955
952
951
955
953
958
955
956
955
958
956
958
957
957
957
959
959
960
958
958
956
958
961
959
960
957
956
961
961
964
963
960
962
965
965
964
961
963
961
965
965
965
963
962
962
966
967
966
963
962
960
964
967
967
964
964
963
965
967
967
967
965
963
969
969
968
967
965
963
967
966
968
970
970
966
967
967
968
966
966
962
963
967
967
965
962
963
965
970
971
970
970
966
971
974
979
980
979
977
980
984
988
990
992
994
998
1002
1003
1002
1005
1005
1010
1014
1016
1017
1014
1015
1011
1006
997
988
978
971
969
966
961
956
956
957
958
959
961
959
956
954
956
957
957
958
956
959
957
958
960
958
957
954
955
954
958
956
956
958
961
963
962
959
953
953
955
959
962
967
979
998
1025
1058
1084
1098
1096
1093
1101
1113
1123
1133
1140
1142
1152
1162
1159
1154
1132
1097
1062
1031
998
965
931
900
880
876
883
893
896
899
904
912
919
924
926
927
929
931
928
925
926
925
927
927
927
925
922
920
921
924
926
923
920
917
919
920
921
918
917
912
914
919
918
919
917
917
916
919
919
918
917
918
917
921
922
920
918
917
921
922
924
924
921
922
922
927
925
924
926
927
929
933
932
933
930
930
933
936
939
938
938
941
945
946
950
947
946
948
953
955
954
953
954
955
956
961
962
964
966
962
966
967
967
967
967
967
971
971
968
970
970
967
970
968
967
967
963
964
967
972
968
967
964
964
968
970
970
967
965
965
964
966
966
963
961
961
960
962
961
959
960
959
957
958
958
954
953
952
953
956
954
952
947
947
950
952
951
949
945
944
947
946
948
944
942
943
942
945
946
945
944
943
942
947
949
947
945
947
946
949
948
948
946
948
950
955
953
951
949
950
954
957
956
953
952
953
958
957
958
957
957
955
958
961
960
959
957
959
961
963
960
960
961
959
960
962
962
962
