1044
1044
1042
1039
1039
1042
1047
1044
1040
1038
1040
1040
1043
1044
1039
1035
1038
1041
1044
1042
1040
1036
1038
1038
1041
1040
1038
1036
1036
1038
1040
1042
1040
1035
1040
1040
1045
1042
1039
1037
1038
1041
1043
1043
1041
1038
1038
1042
1043
1043
1041
1041
1040
1043
1045
1043
1041
1036
1042
1044
1045
1045
1043
1042
1039
1041
1047
1045
1044
1042
1044
1046
1048
1046
1047
1041
1043
1047
1050
1049
1048
1048
1050
1052
1058
1054
1057
1054
1056
1059
1063
1061
1059
1058
1061
1062
1061
1060
1054
1053
1054
1052
1058
1057
1057
1056
1056
1057
1060
1060
1056
1055
1056
1059
1060
1056
1051
1048
1046
1052
1056
1056
1054
1049
1048
1053
1054
1053
1049
1048
1051
1054
1057
1053
1051
1050
1049
1052
1055
1052
1053
1050
1051
1051
1055
1059
1055
1054
1056
1061
1063
1066
1066
1075
1084
1097
1110
1119
1128
1145
1171
1202
1226
1250
1275
1300
1328
1369
1408
1432
1432
1403
1342
1261
1181
1118
1076
1054
1046
1050
1056
1055
1052
1051
1050
1051
1052
1049
1044
1042
1038
1043
1046
1043
1039
1039
1039
1041
1044
1042
1040
1038
1039
1041
1043
1039
1036
1033
1034
1037
1041
1036
1037
1034
1032
1036
1035
1035
1035
1031
1030
1034
1035
1034
1031
1029
1031
1034
1038
1034
1035
1029
1029
1033
1036
1035
1036
1030
1031
1037
1041
1040
1037
1036
1039
1042
1042
1041
1039
1039
1040
1046
1048
1047
1045
1044
1048
1052
1055
1057
1055
1057
1059
1064
1069
1070
1070
1073
1075
1086
1088
1091
1090
1092
1093
1099
1105
1105
1101
1098
1100
1099
1101
1102
1095
1091
1088
1089
1090
1087
1082
1077
1075
1077
1077
1073
1068
1066
1065
1067
1066
1063
1060
1060
1060
1057
1065
1061
1059
1055
1058
1060
1062
1059
1057
1053
1052
1057
1059
1058
1053
1051
1051
1053
1057
1054
1052
1049
1048
1052
1053
1050
1047
1045
1048
1048
1051
1050
1048
1043
1044
1047
1051
1046
1047
1044
1046
1046
1049
1048
1047
1045
1047
1052
1054
1049
1048
1046
1046
1051
1053
1054
1051
1046
1047
1049
1052
1049
1046
1044
1047
1051
1050
1050
1048
1043
1045
1049
1052
1051
1046
1045
1045
1046
1048
1046
1044
1043
1042
1044
1048
1043
1042
1041
1042
1045
1045
1044
1041
1040
1039
1043
1045
1045
1042
1038
1041
1042
1043
1044
1039
1039
1040
1044
1048
1044
1041
1040
1040
1043
1044
1047
1041
1040
1040
1042
1043
1043
1039
1039
1037
1044
1045
1046
1042
1040
1042
1044
1045
1044
1040
1039
1037
1042
1047
1045
1039
1038
1038
1042
1043
1041
1041
1040
1041
1046
1045
1042
1039
1036
1040
1040
1045
1043
1041
1040
1039
1043
1047
1046
1046
1044
1045
1048
1052
1052
1051
1049
1050
1054
1056
1053
1051
1045
1044
1046
1050
1047
1043
1043
1044
1045
1047
1047
1047
1047
1048
1051
1051
1050
1047
1040
1041
1042
1042
1044
1039
1035
1037
1036
1041
1040
1038
1038
1039
1038
1041
1039
1036
1036
1036
1038
1039
1038
1036
1034
1037
1039
1040
1039
1035
1034
1036
1036
1039
1041
1042
1040
1046
1051
1058
1064
1072
1081
1088
1100
1115
1136
1159
1183
1208
1238
1266
1291
1323
1360
1400
1421
1411
1359
1277
1195
1123
1077
1047
1029
1022
1023
1031
1032
1034
1032
1028
1026
1022
1021
1023
1021
1018
1015
1018
1018
1019
1018
1013
1012
1011
1015
1018
1016
1012
1010
1010
1011
1013
1014
1010
1008
1008
1011
1009
1010
1005
1007
1005
1010
1011
1007
1004
1003
1004
1006
1009
1009
1006
1003
1004
1007
1008
1005
1003
1000
1005
1007
1008
1008
1003
1005
1004
1011
1013
1011
1007
1007
1010
1012
1015
1015
1011
1013
1015
1018
1019
1020
1018
1019
1023
1026
1031
1029
1028
1030
1031
1036
1044
1044
1046
1044
1048
1054
1059
1061
1060
1063
1066
1074
1076
1077
1078
1073
1077
1078
1080
1077
1073
1070
1068
1072
1068
1066
1063
1057
1056
1056
1055
1050
1047
1043
1045
1047
1045
1044
1042
1037
1039
1042
1040
1042
1037
1038
1039
1039
1040
1038
1037
1037
1036
1038
1038
1037
1034
1030
1033
1033
1039
1033
1034
1032
1032
1034
1038
1032
1032
1030
1030
1031
1034
1031
1028
1029
1030
1034
1035
1034
1031
1030
1030
1034
1036
1036
1033
1030
1034
1034
1036
1036
1032
1034
1034
1036
1039
1038
1031
1032
1036
1037
1038
1037
1033
1030
1033
1036
1036
1036
1032
1029
1031
1036
1035
1036
1031
1031
1030
1033
1033
1030
1029
1027
1031
1032
1035
1031
1030
1028
1027
1031
1032
1030
1027
1028
1028
1030
1033
1030
1029
1029
1028
1030
1031
1028
1026
1026
1028
1032
1033
1031
1027
1025
1027
1031
1031
1032
1028
1026
1028
1031
1029
1030
1028
1024
1026
1030
1030
1028
1025
1025
1027
1030
1032
1031
1026
1023
1025
1027
1031
1030
1027
1026
1027
1028
1032
1029
1028
1026
1025
1030
1031
1030
1028
1025
1031
1032
1033
1035
1029
1031
1030
1035
1037
1039
1037
1036
1038
1041
1043
1044
1042
1041
1044
1045
1047
1044
1044
1041
1039
1041
1042
1040
1037
1035
1038
1037
1041
1040
1039
1036
1039
1042
1046
1043
1037
1035
1035
1035
1037
1033
1032
1031
1031
1035
1036
1034
1034
1031
1032
1033
1038
1032
1033
1031
1032
1035
1036
1032
1030
1029
1030
1033
1036
1034
1033
1030
1032
1031
1036
1036
1035
1037
1041
1046
1053
1058
1062
1075
1086
1096
1109
1130
1155
1184
1216
1246
1277
1306
1338
1375
1411
1433
1426
1389
1318
1233
1155
1102
1061
1038
1023
1024
1030
1036
1035
1032
1029
1026
1021
1022
1021
1020
1017
1016
1017
1018
1020
1017
1014
1012
1016
1018
1017
1014
1015
1013
1012
1016
1018
1015
1011
1008
1009
1013
1014
1011
1011
1006
1008
1013
1011
1008
1007
1005
1007
1008
1007
1009
1007
1006
1009
1010
1014
1010
1009
1010
1012
1015
1013
1015
1013
1012
1015
1020
1023
1022
1022
1022
1025
1032
1036
1037
1033
1038
1045
1052
1055
1060
1065
1065
1074
1078
1082
1080
1081
1080
1081
1087
1085
1081
1076
1071
1073
1070
1067
1062
1057
1053
1053
1057
1054
1054
1048
1046
1048
1048
1047
1045
1042
1041
1042
1046
1046
1044
1041
1040
1042
1046
1044
1042
1039
1036
1037
1041
1044
1042
1038
1035
1035
1039
1040
1038
1036
1034
1037
1040
1039
1038
1033
1033
1035
1038
1039
1038
1035
1034
1036
1039
1041
1039
1035
1036
1038
1039
1040
1040
1036
1038
1040
1041
1043
1044
1038
1039
1040
1042
1043
1042
1040
1038
1039
1043
1042
1041
1037
1036
1038
1040
1042
1040
1037
1035
1037
1039
1040
1040
1035
1035
1036
1039
1042
1036
1035
1033
1035
1041
1040
1039
1035
1034
1036
1035
1036
1037
1033
1033
1033
1034
1035
1034
1030
1029
1031
1033
1035
1031
1028
1029
1028
1032
1034
1032
1030
1027
1026
1030
1030
1030
1026
1027
1029
1032
1033
1030
1025
1025
1027
1029
1031
1029
1028
1029
1029
1032
1030
1028
1026
1026
1026
1029
1032
1031
1025
1024
1025
1030
1031
1031
1027
1024
1029
1030
1033
1029
1027
1027
1029
1029
1031
1028
1025
1022
1026
1029
1032
1029
1026
1025
1026
1030
1033
1031
1028
1028
1033
1037
1037
1035
1036
1035
1036
1040
1040
1035
1032
1030
1032
1035
1037
1034
1031
1027
1030
1036
1036
1036
1036
1035
1036
1038
1038
1034
1032
1027
1029
1031
1032
1028
1026
1025
1025
1031
1032
1028
1027
1027
1026
1029
1031
1030
1028
1027
1029
1029
1030
1026
1028
1027
1028
1029
1032
1031
1027
1026
1028
1030
1032
1033
1033
1035
1040
1047
1052
1060
1069
1077
1087
1098
1113
1131
1152
1176
1202
1230
1255
1281
1309
1347
1385
1408
1406
1366
1295
1207
1130
1081
1046
1023
1017
1019
1023
1026
1026
1027
1024
1023
1020
1020
1016
1015
1012
1009
1011
1013
1014
1010
1006
1009
1008
1012
1013
1009
1007
1006
1008
1009
1011
1007
1007
1004
1006
1008
1009
1006
1003
1003
1005
1006
1008
1003
1002
1001
1003
1005
1005
1004
999
1000
1002
1002
1004
1002
1001
998
998
1001
1004
999
1001
998
997
1002
1003
1000
997
1001
1003
1004
1006
1003
1001
1001
1002
1005
1007
1005
1003
1002
1006
1009
1012
1010
1008
1011
1014
1016
1020
1019
1016
1018
1023
1026
1031
1033
1032
1032
1036
1042
1043
1043
1045
1047
1053
1057
1060
1062
1059
1059
1063
1066
1065
1065
1062
1060
1060
1060
1057
1057
1052
1050
1048
1048
1046
1042
1040
1038
1037
1037
1039
1035
1032
1032
1029
1031
1030
1029
1028
1027
1028
1029
1030
1028
1026
1025
1027
1029
1026
1026
1023
1023
1023
1025
1026
1022
1020
1020
1023
1024
1024
1022
1019
1016
1019
1023
1023
1022
1018
1018
1018
1019
1021
1019
1019
1019
1020
1023
1022
1021
1017
1016
1019
1025
1025
1025
1020
1018
1023
1024
1026
1024
1020
1021
1023
1026
1027
1024
1023
1023
1027
1036
1043
1053
1067
1092
1121
1144
1158
1158
1143
1116
1074
1011
933
841
743
667
631
625
620
619
608
615
635
661
696
731
759
782
811
839
853
865
882
895
911
924
930
936
943
952
964
980
992
1002
1008
1018
1029
1040
1047
1050
1049
1052
1056
1061
1065
1066
1067
1069
1071
1075
1075
1072
1072
1075
1079
1083
1087
1085
1083
1085
1090
1095
1095
1098
1098
1100
1100
1106
1107
1109
1109
1111
1117
1121
1127
1127
1131
1132
1139
1148
1152
1155
1157
1162
1171
1178
1181
1186
1190
1194
1204
1211
1220
1220
1226
1231
1242
1251
1256
1260
1259
1263
1266
1273
1275
1276
1272
1273
1273
1268
1267
1262
1254
1252
1245
1243
1236
1228
1219
1213
1207
1202
1196
1184
1175
1167
1161
1154
1150
1142
1130
1126
1120
1116
1108
1102
1095
1088
1083
1083
1077
1070
1065
1062
1057
1059
1054
1050
1043
1040
1040
1044
1042
1035
1035
1031
1033
1036
1034
1030
1026
1028
1030
1030
1030
1027
1024
1024
1026
1028
1027
1024
1024
1022
1026
1026
1026
1026
1024
1022
1023
1025
1024
1021
1020
1018
1020
1022
1023
1020
1016
1013
1018
1021
1017
1016
1013
1013
1014
1017
1015
1014
1009
1012
1012
1012
1013
1012
1008
1010
1010
1013
1013
1011
1008
1008
1009
1009
1010
1007
1004
1008
1008
1011
1010
1010
1005
1004
1008
1010
1010
1007
1004
1004
1005
1008
1007
1007
1004
1004
1006
1010
1008
1008
1004
1003
1008
1010
1010
1008
1003
1003
1006
1009
1008
1006
1005
1004
1008
1007
1009
1006
1004
1005
1008
1011
1010
1008
1007
1003
1008
1010
1008
1010
1007
1006
1007
1012
1010
1009
1006
1005
1009
1010
1010
1009
1006
1007
1008
1010
1012
1010
1008
1009
1009
1013
1014
1010
1010
1010
1013
1013
1011
1011
1007
1010
1012
1017
1016
1012
1012
1011
1012
1015
1017
1015
1012
1009
1016
1017
1018
1015
1011
1012
1016
1018
1018
1016
1013
1013
1017
1017
1019
1017
1015
1012
1016
1019
1018
1021
1017
1017
1020
1024
1023
1021
1018
1016
1020
1021
1023
1020
1019
1018
1023
1023
1024
1019
1020
1018
1022
1026
1026
1024
1020
1020
1023
1023
1023
1022
1020
1020
1023
1025
1024
1023
1021
1020
1022
1025
1023
1023
1020
1022
1023
1025
1024
1023
1021
1021
1024
1025
1024
1024
1022
1023
1024
1025
1027
1025
1021
1023
1024
1028
1028
1027
1024
1026
1025
1030
1031
1026
1022
1025
1028
1030
1030
1028
1024
1025
1026
1031
1032
1031
1027
1028
1029
1031
1031
1031
1024
1027
1031
1033
1034
1033
1030
1030
1031
1032
1031
1030
1030
1031
1033
1035
1036
1033
1027
1031
1032
1034
1038
1035
1033
1031
1032
1036
1035
1032
1030
1030
1033
1035
1036
1032
1029
1032
1033
1035
1037
1035
1030
1031
1033
1036
1037
1033
1032
1031
1032
1036
1035
1031
1031
1032
1035
1037
1038
1036
1032
1033
1034
1038
1038
1035
1032
1034
1038
1037
1039
1035
1037
1036
1037
1040
1039
1040
1037
1037
1042
1046
1047
1046
1043
1041
1046
1051
1051
1048
1046
1047
1047
1049
1047
1043
1039
1041
1043
1048
1048
1046
1044
1043
1048
1051
1050
1048
1048
1048
1047
1047
1043
1039
1040
1040
1041
1045
1042
1040
1037
1038
1040
1043
1039
1037
1036
1037
1037
1041
1040
1038
1037
1037
1037
1039
1041
1038
1038
1038
1044
1047
1044
1047
1048
1056
1065
1077
1087
1092
1098
1115
1140
1171
1204
1234
1266
1297
1339
1383
1417
1436
1423
1368
1285
1192
1117
1066
1041
1042
1045
1051
1048
1042
1037
1039
1036
1035
1031
1026
1023
1022
1024
1024
1024
1019
1016
1015
1016
1017
1016
1016
1010
1009
1015
1016
1017
1013
1010
1011
1013
1017
1016
1012
1009
1010
1011
1012
1012
1010
1009
1009
1008
1015
1012
1009
1007
1009
1012
1018
1017
1015
1013
1015
1015
1019
1017
1016
1015
1014
1017
1022
1020
1020
1018
1019
1021
1023
1021
1019
1018
1021
1024
1027
1026
1025
1023
1026
1028
1032
1031
1035
1034
1035
1038
1043
1044
1043
1042
1043
1050
1054
1054
1056
1056
1062
1068
1072
1074
1074
1075
1075
1079
1081
1081
1082
1077
1080
1081
1083
1080
1078
1072
1074
1074
1074
1074
1069
1063
1061
1063
1067
1062
1060
1055
1055
1057
1057
1054
1052
1050
1049
1049
1051
1051
1050
1045
1044
1046
1050
1049
1044
1041
1042
1042
1044
1044
1041
1041
1039
1041
1044
1042
1038
1035
1038
1040
1042
1041
1038
1038
1040
1040
1041
1041
1042
1039
1039
1041
1043
1042
1041
1038
1041
1041
1042
1042
1038
1036
1037
1040
1039
1039
1036
1034
1033
1034
1035
1037
1034
1031
1031
1030
1033
1032
1030
1027
1027
1031
1033
1032
1031
1027
1026
1028
1030
1031
1028
1024
1024
1027
1029
1028
1027
1021
1024
1024
1029
1026
1022
1021
1020
1024
1024
1024
1021
1019
1019
1020
1023
1022
1020
1017
1017
1018
1020
1020
1020
1017
1016
1016
1018
1018
1014
1012
1014
1015
1018
1016
1014
1011
1013
1015
1017
1017
1015
1014
1018
1019
1021
1016
1013
1011
1011
1013
1016
1015
1011
1010
1013
1013
1017
1018
1014
1013
1011
1015
1015
1017
1013
1014
1012
1013
1016
1017
1013
1013
1015
1017
1019
1017
1016
1012
1015
1018
1020
1019
1017
1017
1021
1024
1027
1027
1024
1023
1024
1025
1030
1029
1028
1025
1027
1027
1029
1025
1022
1020
1020
1024
1026
1024
1024
1024
1025
1026
1029
1026
1024
1021
1020
1018
1020
1019
1018
1016
1015
1021
1023
1020
1018
1014
1016
1016
1020
1019
1020
1015
1016
1019
1020
1018
1017
1015
1015
1018
1021
1017
1017
1014
1015
1018
1021
1023
1022
1022
1025
1033
1041
1050
1060
1069
1076
1091
1111
1138
1166
1194
1223
1256
1289
1326
1366
1402
1421
1413
1369
1286
1191
1112
1062
1028
1018
1015
1015
1015
1016
1018
1018
1014
1009
1004
1003
1005
1005
1003
999
1000
1002
1002
1003
1002
998
998
995
1000
1000
999
997
996
994
996
998
999
996
994
992
996
998
998
994
990
990
992
996
996
995
992
992
993
997
995
995
993
994
996
998
998
996
994
996
996
997
997
994
993
994
999
998
999
1000
995
996
998
1003
1002
1001
999
1000
1005
1008
1005
1004
1003
1006
1008
1012
1015
1015
1013
1017
1020
1025
1026
1026
1029
1030
1035
1041
1042
1042
1042
1045
1050
1056
1055
1050
1054
1054
1056
1057
1054
1049
1048
1046
1048
1051
1044
1039
1036
1034
1035
1036
1034
1029
1026
1026
1026
1028
1027
1023
1020
1021
1021
1025
1025
1022
1020
1019
1022
1026
1023
1021
1018
1018
1019
1022
1024
1021
1018
1017
1019
1021
1019
1018
1015
1016
1020
1020
1019
1015
1016
1016
1020
1021
1018
1016
1014
1016
1018
1022
1021
1018
1016
1020
1021
1021
1021
1021
1020
1021
1022
1024
1021
1019
1020
1020
1023
1024
1023
1023
1019
1019
1021
1025
1023
1020
1016
1019
1021
1022
1021
1018
1016
1018
1021
1021
1021
1019
1016
1018
1019
1023
1020
1019
1015
1016
1018
1022
1016
1018
1015
1015
1019
1020
1018
1015
1014
1011
1018
1019
1019
1016
1014
1012
1016
1020
1019
1018
1015
1015
1019
1019
1017
1015
1015
1016
1017
1020
1017
1016
1015
1014
1016
1018
1019
1014
1014
1014
1015
1019
1017
1016
1014
1014
1018
1020
1016
1016
1014
1012
1016
1018
1018
1015
1012
1015
1017
1020
1018
1016
1016
1016
1018
1020
1018
1018
1015
1019
1016
1022
1020
1018
1016
1015
1018
1022
1023
1018
1017
1017
1018
1026
1024
1027
1024
1026
1029
1031
1030
1027
1025
1029
1031
1034
1033
1031
1027
1027
1028
1030
1027
1025
1025
1026
1027
1031
1031
1028
1025
1029
1030
1035
1033
1033
1029
1028
1025
1026
1026
1022
1021
1024
1025
1027
1025
1023
1021
1022
1025
1027
1025
1023
1021
1020
1023
1026
1023
1024
1019
1021
1021
1024
1021
1021
1018
1020
1020
1024
1025
1024
1024
1028
1034
1042
1047
1053
1064
1072
1081
1097
1117
1141
1163
1191
1221
1249
1275
1306
1343
1390
1420
1421
1382
1306
1214
1128
1070
1039
1023
1016
1016
1022
1023
1024
1022
1019
1012
1012
1011
1011
1008
1005
1005
1006
1007
1008
1008
1005
1002
1002
1003
1005
1003
1000
998
999
998
1001
1002
1000
997
996
999
1000
998
996
994
994
997
1003
998
995
993
996
995
1000
999
998
993
997
998
1002
1003
999
999
1001
1002
1003
1003
998
999
1003
1004
1009
1005
1004
1004
1004
1007
1008
1008
1007
1008
1010
1011
1015
1017
1017
1017
1019
1021
1027
1026
1025
1028
1031
1040
1042
1046
1045
1046
1051
1055
1064
1062
1060
1063
1065
1066
1069
1069
1063
1063
1063
1065
1064
1060
1056
1051
1050
1051
1055
1053
1045
1041
1041
1043
1044
1040
1038
1037
1039
1039
1039
1037
1035
1033
1037
1038
1042
1039
1037
1032
1032
1036
1037
1037
1035
1032
1035
1034
1037
1036
1031
1032
1035
1036
1037
1034
1032
1029
1032
1036
1035
1032
1030
1032
1032
1034
1037
1039
1034
1031
1032
1034
1038
1039
1036
1035
1036
1040
1043
1043
1039
1036
1038
1040
1044
1043
1038
1038
1039
1040
1042
1043
1040
1037
1039
1043
1042
1045
1041
1039
1037
1041
1041
1042
1041
1040
1042
1044
1044
1044
1038
1038
1040
1042
1043
1041
1038
1037
1040
1043
1044
1041
1041
1034
1037
1041
1041
1040
1039
1034
1034
1039
1040
1042
1039
1035
1035
1040
1042
1040
1036
1035
1039
1040
1042
1040
1037
1036
1035
1039
1042
1039
1036
1036
1037
1039
1041
1043
1041
1038
1039
1039
1040
1042
1038
1035
1036
1037
1041
1040
1041
1038
1038
1041
1043
1042
1039
1038
1040
1044
1047
1044
1044
1046
1050
1052
1055
1052
1050
1049
1051
1054
1056
1057
1054
1054
1050
1052
1050
1049
1044
1045
1048
1052
1054
1050
1051
1051
1051
1055
1055
1054
1049
1043
1040
1044
1046
1045
1042
1040
1042
1044
1042
1043
1038
1039
1041
1041
1041
1039
1038
1040
1039
1040
1043
1042
1036
1038
1042
1045
1047
1047
1045
1043
1043
1050
1054
1059
1061
1069
1080
1093
1103
1111
1123
1142
1169
1198
1221
1248
1272
1303
1344
1388
1417
1421
1391
1324
1233
1150
1091
1053
1032
1027
1031
1036
1040
1039
1034
1032
1032
1029
1030
1026
1023
1018
1019
1022
1023
1024
1021
1018
1016
1020
1020
1021
1019
1015
1017
1019
1021
1019
1016
1013
1012
1017
1018
1019
1013
1012
1012
1015
1018
1016
1014
1011
1013
1016
1017
1013
1009
1007
1011
1013
1016
1012
1009
1010
1010
1011
1015
1013
1008
1008
1012
1014
1016
1016
1012
1012
1012
1012
1015
1017
1012
1012
1013
1017
1016
1017
1015
1015
1015
1021
1021
1022
1018
1018
1021
1027
1029
1029
1029
1028
1030
1035
1039
1037
1037
1038
1040
1046
1048
1048
1050
1049
1054
1058
1062
1063
1064
1064
1067
1069
1073
1071
1069
1069
1068
1072
1071
1069
1061
1061
1059
1063
1061
1057
1052
1051
1050
1051
1054
1050
1047
1044
1045
1047
1048
1047
1044
1042
1044
1047
1048
1043
1043
1039
1039
1043
1042
1041
1040
1036
1037
1039
1041
1039
1037
1033
1036
1036
1037
1037
1035
1033
1035
1038
1041
1037
1035
1032
1034
1037
1037
1033
1033
1035
1035
1038
1039
1036
1035
1035
1038
1038
1040
1038
1037
1032
1036
1037
1039
1038
1034
1037
1037
1038
1043
1048
1055
1062
1077
1100
1124
1145
1159
1165
1164
1153
1134
1087
1019
941
858
770
702
665
653
647
643
649
658
664
681
708
739
770
797
820
836
853
867
885
899
913
923
933
940
949
957
966
973
982
996
1011
1023
1030
1036
1041
1049
1058
1061
1064
1063
1064
1070
1073
1073
1075
1076
1078
1081
1084
1086
1085
1083
1084
1087
1095
1098
1096
1096
1098
1099
1104
1107
1107
1105
1108
1111
1115
1116
1119
1118
1119
1125
1129
1134
1136
1140
1139
1149
1153
1158
1162
1166
1169
1175
1180
1190
