1000
1003
1009
1009
1010
1012
1010
1016
1020
1022
1023
1022
1022
1028
1033
1039
1039
1039
1043
1044
1047
1051
1049
1051
1049
1048
1051
1047
1046
1041
1038
1038
1039
1037
1035
1029
1029
1028
1029
1030
1028
1024
1021
1023
1025
1025
1023
1021
1021
1023
1023
1025
1022
1018
1018
1019
1022
1025
1022
1018
1020
1020
1021
1022
1021
1018
1016
1020
1021
1022
1020
1018
1019
1020
1022
1023
1019
1016
1018
1019
1018
1022
1021
1017
1016
1017
1021
1023
1020
1020
1017
1018
1020
1023
1020
1019
1017
1017
1021
1023
1021
1018
1018
1017
1020
1021
1017
1014
1012
1014
1016
1018
1017
1013
1013
1014
1014
1018
1015
1017
1013
1016
1017
1014
1012
1010
1009
1014
1015
1014
1015
1010
1007
1008
1011
1014
1013
1011
1009
1011
1013
1014
1015
1011
1009
1013
1015
1016
1011
1009
1010
1010
1014
1013
1012
1010
1008
1010
1014
1014
1013
1011
1009
1009
1012
1012
1013
1009
1005
1010
1015
1013
1012
1009
1008
1011
1013
1012
1011
1010
1007
1009
1011
1013
1011
1010
1008
1010
1012
1011
1010
1007
1006
1009
1011
1014
1010
1007
1004
1006
1010
1013
1013
1008
1007
1008
1010
1011
1012
1009
1007
1010
1012
1014
1012
1011
1012
1016
1019
1021
1020
1017
1016
1019
1024
1027
1024
1022
1018
1018
1019
1019
1016
1013
1016
1018
1015
1017
1017
1015
1014
1015
1020
1021
1020
1017
1015
1013
1011
1013
1013
1009
1008
1009
1011
1011
1009
1006
1004
1008
1009
1012
1007
1004
1002
1005
1009
1011
1008
1006
1005
1005
1009
1011
1010
1008
1008
1010
1013
1016
1016
1015
1015
1024
1035
1046
1057
1062
1069
1084
1108
1135
1160
1186
1210
1242
1272
1306
1347
1381
1405
1404
1375
1311
1221
1132
1070
1033
1015
1011
1011
1009
1008
1008
1009
1008
1003
998
992
994
994
993
990
989
986
989
993
989
989
985
985
985
987
990
988
984
986
986
991
988
987
983
979
981
983
983
982
979
980
980
982
982
982
980
979
979
982
983
981
979
979
980
984
984
983
978
978
978
982
982
984
980
976
978
983
987
984
984
981
984
984
986
984
983
984
984
991
989
989
989
991
991
996
999
1000
998
998
999
1004
1007
1009
1010
1010
1016
1020
1025
1026
1024
1024
1031
1036
1037
1040
1034
1033
1035
1042
1042
1039
1038
1037
1035
1037
1036
1034
1032
1026
1028
1028
1029
1023
1019
1016
1016
1020
1020
1018
1015
1015
1015
1016
1015
1014
1012
1012
1012
1017
1016
1015
1010
1009
1010
1013
1017
1012
1009
1008
1011
1012
1014
1013
1008
1006
1008
1010
1012
1009
1006
1007
1009
1010
1012
1010
1008
1007
1009
1010
1013
1011
1010
1006
1007
1011
1011
1011
1006
1009
1009
1010
1011
1010
1006
1006
1008
1012
1014
1011
1009
1005
1006
1006
1011
1005
1003
1003
1004
1006
1007
1004
1003
1000
1004
1006
1008
1002
1001
1000
1001
1006
1003
1004
1004
1002
1003
1004
1005
1004
1002
1003
1002
1004
1005
1001
997
999
999
1003
1004
1002
1001
999
1001
1003
1005
1002
1000
1000
1002
1005
1006
1004
1001
1001
1002
1006
1005
1004
1003
1000
1003
1004
1004
1006
1001
1004
1003
1005
1006
1003
1001
999
1003
1004
1006
1007
1001
1000
1002
1004
1006
1003
1001
1001
1003
1006
1006
1003
1002
1001
1005
1007
1008
1003
1002
1002
1003
1007
1008
1008
1004
1002
1003
1004
1006
1007
1005
1004
1006
1007
1010
1009
1008
1009
1010
1014
1016
1015
1013
1013
1015
1018
1022
1020
1017
1018
1020
1022
1022
1015
1014
1012
1013
1016
1015
1016
1011
1011
1015
1020
1021
1018
1016
1015
1016
1016
1018
1011
1007
1006
1009
1013
1013
1011
1010
1009
1013
1018
1018
1015
1012
1009
1008
1008
1008
1008
1006
1004
1005
1006
1009
1010
1006
1007
1008
1011
1013
1011
1010
1010
1012
1021
1021
1026
1034
1039
1052
1066
1078
1087
1105
1133
1165
1195
1225
1254
1280
1315
1354
1402
1435
1433
1391
1315
1221
1140
1079
1035
1012
1006
1009
1013
1012
1009
1005
1001
999
997
995
991
985
988
986
989
992
986
982
979
983
985
987
987
985
985
988
987
987
984
980
977
977
984
984
983
977
974
977
980
982
979
977
974
981
982
982
980
981
981
985
990
990
989
984
982
982
985
985
983
984
984
986
992
994
994
991
990
991
995
995
998
997
997
1001
1004
1007
1003
1003
1005
1009
1009
1011
1014
1012
1016
1022
1022
1024
1026
1024
1026
1032
1040
1043
1046
1046
1049
1050
1054
1057
1056
1053
1053
1054
1055
1054
1053
1046
1042
1043
1045
1044
1043
1038
1037
1036
1034
1028
1024
1021
1021
1025
1026
1025
1023
1017
1016
1020
1022
1025
1023
1018
1018
1020
1022
1021
1020
1018
1014
1017
1017
1015
1017
1015
1019
1022
1023
1024
1017
1011
1008
1010
1017
1019
1019
1016
1018
1019
1021
1021
1016
1016
1015
1021
1023
1024
1022
1018
1019
1020
1021
1019
1021
1022
1026
1026
1028
1027
1025
1020
1021
1024
1027
1025
1021
1014
1017
1023
1027
1028
1029
1030
1034
1043
1056
1072
1096
1122
1149
1167
1167
1152
1127
1086
1026
949
863
765
672
621
603
601
602
610
622
642
674
704
738
769
796
817
838
859
874
892
906
916
925
939
950
957
966
972
981
997
1011
1019
1027
1031
1039
1048
1055
1054
1054
1051
1057
1063
1068
1072
1076
1076
1075
1075
1071
1073
1076
1073
1074
1081
1087
1094
1098
1097
1098
1098
1098
1101
1104
1107
1110
1118
1122
1127
1128
1132
1136
1142
1146
1149
1153
1159
1167
1179
1192
1194
1197
1197
1205
1212
1221
1233
1239
1246
1251
1257
1265
1269
1270
1262
1259
1259
1260
1254
1246
1236
1226
1217
1207
1198
1189
1175
1162
1154
1146
1135
1121
1111
1103
1098
1092
1085
1072
1064
1060
1056
1053
1045
1044
1039
1038
1034
1035
1034
1029
1024
1021
1028
1029
1029
1023
1017
1014
1021
1024
1025
1022
1018
1018
1025
1027
1028
1023
1019
1015
1015
1018
1020
1022
1017
1013
1013
1017
1018
1015
1009
1007
1010
1011
1012
1010
1010
1008
1011
1011
1011
1004
997
996
1003
1008
1007
1006
1002
1002
1002
1005
1008
1005
1004
1004
1009
1010
1004
997
999
999
1000
1002
1005
1005
1000
998
996
1001
999
999
999
1003
1005
1005
998
995
994
998
1001
1004
1000
999
999
1000
1005
1008
1007
998
1000
1003
1006
1006
1002
999
998
1004
1005
1006
1004
1003
1003
1000
999
1002
1001
1002
1002
1004
1008
1009
1004
999
1001
1002
1003
1006
1006
1007
1003
1000
1001
1002
1004
1004
1005
1005
1005
1008
1006
1002
1002
999
1003
1006
1010
1011
1003
1001
1003
1008
1009
1005
1002
1004
1008
1010
1010
1005
1002
1004
1007
1010
1009
1006
1004
1007
1006
1007
1009
1008
1006
1009
1010
1010
1010
1009
1009
1008
1006
1008
1008
1004
1003
1005
1006
1012
1013
1010
1008
1005
1005
1010
1010
1006
1001
1000
1007
1011
1014
1015
1011
1008
1004
1003
1006
1011
1009
1012
1013
1016
1014
1003
1000
1004
1007
1009
1010
1011
1007
1008
1008
1011
1009
1009
1012
1017
1018
1015
1011
1008
1007
1009
1012
1012
1009
1007
1006
1009
1015
1013
1011
1009
1009
1010
1016
1017
1009
1005
1006
1012
1014
1016
1015
1010
1011
1011
1013
1012
1013
1007
1007
1010
1016
1017
1012
1011
1009
1011
1014
1014
1016
1014
1012
1008
1009
1011
1014
1015
1016
1011
1012
1014
1013
1012
1014
1016
1017
1019
1016
1012
1011
1011
1016
1018
1014
1014
1015
1017
1016
1017
1014
1014
1012
1015
1018
1019
1018
1015
1013
1010
1018
1021
1023
1022
1017
1015
1012
1014
1017
1016
1016
1015
1020
1019
1014
1014
1018
1019
1022
1020
1021
1020
1019
1016
1018
1019
1020
1022
1023
1022
1025
1026
1027
1030
1029
1025
1024
1023
1026
1026
1031
1030
1036
1037
1036
1035
1027
1023
1025
1026
1029
1027
1027
1029
1030
1031
1033
1029
1027
1027
1030
1033
1034
1031
1029
1027
1024
1019
1017
1022
1025
1024
1024
1022
1022
1019
1017
1020
1021
1022
1024
1022
1022
1023
1022
1024
1021
1021
1024
1026
1027
1022
1024
1024
1024
1024
1027
1029
1031
1028
1031
1035
1042
1049
1054
1061
1063
1071
1082
1097
1115
1139
1162
1188
1220
1255
1289
1324
1359
1388
1402
1385
1333
1251
1170
1106
1062
1037
1035
1033
1035
1028
1026
1029
1031
1028
1023
1017
1014
1014
1012
1013
1012
1011
1010
1011
1011
1009
1007
1005
1007
1009
1008
1005
1001
1004
1006
1010
1011
1008
1006
1001
1004
1008
1006
1006
1001
1002
1007
1013
1013
1009
1005
1006
1008
1008
1007
1006
1006
1006
1008
1010
1011
1009
1008
1007
1008
1011
1011
1013
1010
1012
1016
1018
1018
1011
1005
1012
1019
1024
1021
1016
1016
1015
1019
1023
1018
1020
1018
1017
1022
1024
1028
1025
1025
1026
1028
1031
1031
1031
1032
1035
1041
1045
1046
1043
1039
1042
1049
1050
1054
1054
1057
1060
1067
1069
1073
1074
1073
1074
1079
1077
1073
1070
1069
1074
1075
1076
1073
1068
1065
1066
1066
1067
1066
1065
1061
1060
1060
1058
1056
1051
1049
1048
1051
1053
1054
1050
1050
1049
1049
1050
1048
1045
1046
1047
1050
1052
1050
1046
1041
1044
1049
1050
1048
1046
1044
1043
1046
1048
1046
1044
1042
1044
1048
1053
1050
1045
1042
1039
1041
1045
1046
1044
1042
1043
1044
1046
1048
1046
1042
1044
1043
1046
1045
1043
1038
1038
1039
1043
1045
1046
1042
1040
1041
1042
1040
1036
1033
1032
1033
1037
1038
1035
1036
1035
1034
1039
1036
1036
1032
1031
1030
1032
1028
1032
1032
1032
1035
1036
1031
1027
1025
1027
1034
1033
1032
1031
1026
1027
1034
1034
1031
1028
1024
1024
1030
1032
1032
1028
1024
1026
1032
1032
1032
1027
1023
1025
1029
1033
1031
1029
1027
1025
1027
1031
1031
1028
1026
1027
1030
1034
1031
1028
1023
1024
1028
1031
1031
1029
1026
1024
1026
1029
1032
1032
1028
1024
1021
1023
1029
1028
1031
1029
1027
1030
1030
1030
1026
1028
1029
1033
1033
1029
1022
1022
1025
1031
1033
1030
1029
1027
1029
1031
1033
1028
1026
1028
1028
1032
1031
1033
1033
1037
1040
1044
1044
1042
1036
1036
1034
1038
1040
1041
1038
1039
1036
1036
1033
1031
1031
1033
1035
1042
1041
1040
1034
1031
1033
1038
1037
1041
1035
1034
1031
1031
1030
1030
1030
1031
1032
1030
1026
1024
1021
1025
1031
1033
1035
1031
1028
1026
1024
1028
1031
1030
1027
1030
1030
1032
1030
1029
1025
1027
1030
1034
1033
1034
1029
1032
1036
1040
1044
1049
1053
1066
1077
1087
1094
1103
1116
1136
1160
1189
1215
1236
1259
1285
1320
1362
1394
1409
1399
1370
1309
1231
1154
1092
1053
1033
1028
1027
1029
1027
1027
1030
1030
1028
1022
1018
1014
1015
1016
1015
1013
1010
1010
1013
1015
1017
1015
1011
1009
1008
1009
1011
1012
1011
1007
1005
1009
1011
1011
1008
1006
1008
1010
1016
1015
1011
1007
1007
1007
1011
1009
1009
1004
1009
1009
1013
1011
1010
1005
1002
1007
1011
1012
1012
1008
1011
1016
1016
1016
1014
1013
1013
1017
1018
1016
1014
1012
1013
1015
1019
1017
1018
1020
1022
1023
1022
1019
1021
1023
1027
1025
1030
1031
1030
1028
1029
1031
1039
1041
1041
1041
1040
1047
1052
1052
1047
1046
1050
1057
1058
1062
1063
1065
1067
1071
1071
1072
1069
1066
1067
1069
1072
1071
1065
1060
1060
1062
1059
1055
1050
1046
1048
1048
1049
1046
1045
1042
1041
1042
1045
1046
1043
1039
1037
1037
1038
1036
1034
1033
1038
1040
1041
1037
1033
1030
1030
1033
1034
1036
1032
1031
1033
1033
1034
1030
1032
1030
1030
1032
1033
1031
1028
1030
1029
1032
1032
1031
1027
1025
1026
1030
1035
1035
1032
1031
1030
1031
1037
1034
1030
1024
1027
1031
1035
1034
1032
1028
1028
1029
1033
1032
1029
1027
1029
1028
1030
1030
1027
1029
1028
1026
1029
1028
1028
1027
1028
1030
1033
1029
1028
1028
1028
1028
1028
1026
1023
1022
1023
1027
1027
1029
1024
1021
1022
1023
1026
1023
1022
1023
1025
1028
1030
1026
1022
1021
1023
1023
1028
1027
1027
1027
1027
1028
1022
1019
1019
1020
1023
1023
1027
1027
1026
1023
1021
1023
1028
1029
1026
1024
1023
1025
1026
1028
1026
1022
1023
1025
1028
1027
1021
1019
1023
1025
1028
1026
1025
1020
1018
1023
1026
1028
1025
1022
1025
1029
1030
1027
1024
1021
1025
1028
1032
1031
1034
1029
1032
1036
1039
1037
1038
1037
1041
1043
1043
1042
1041
1038
1034
1037
1037
1036
1035
1033
1035
1034
1040
1041
1038
1035
1036
1041
1042
1040
1038
1035
1036
1036
1035
1033
1034
1031
1030
1032
1034
1034
1029
1027
1026
1027
1031
1031
1029
1028
1029
1031
1034
1029
1031
1028
1029
1030
1032
1033
1031
1030
1034
1041
1041
1038
1032
1024
1030
1035
1040
1043
1044
1051
1058
1066
1075
1083
1088
1098
1113
1137
1167
1192
1216
1238
1263
1296
1330
1368
1396
1406
1394
1355
1292
1209
1127
1072
1043
1029
1028
1030
1029
1027
1027
1032
1033
1032
1027
1021
1018
1018
1019
1019
1017
1018
1015
1019
1018
1017
1018
1015
1017
1015
1015
1014
1013
1012
1010
1013
1017
1015
1016
1015
1014
1016
1017
1018
1016
1012
1015
1016
1023
1018
1012
1008
1009
1015
1019
1019
1018
1015
1013
1016
1020
1020
1018
1016
1016
1021
1025
1022
1023
1020
1023
1026
1025
1024
1024
1024
1024
1024
1027
1033
1034
1031
1027
1026
1035
1035
1037
1036
1039
1042
1044
1049
1045
1044
1049
1058
1059
1059
1057
1056
1064
1067
1071
1072
1075
1075
1079
1081
1081
1081
1078
1074
1073
1071
1075
1074
1068
1062
1059
1062
1065
1062
1056
1051
1050
1051
1054
1050
1047
1047
1045
1050
1050
1049
1049
1043
1043
1048
1051
1050
1045
1042
1040
1039
1041
1041
1039
1036
1037
1039
1041
1042
1040
1035
1038
1039
1041
1039
1038
1037
1040
1039
1038
1033
1033
1033
1037
1041
1044
1042
1039
1032
1033
1037
1039
1040
1034
1036
1037
1040
1042
1040
1039
1038
1038
1040
1042
1041
1040
1038
1039
1037
1037
1038
1038
1038
1038
1038
1036
1038
1036
1034
1034
1037
1037
1039
1037
1033
1031
1033
1038
1037
1037
1034
1033
1033
1035
1037
1035
1030
1029
1032
1034
1033
1030
1029
1035
1035
1036
1036
1033
1034
1030
1034
1031
1034
1033
1033
1032
1032
1036
1034
1031
1028
1028
1031
1034
1036
1034
1034
1032
1035
1033
1033
1031
1030
1030
1035
1037
1036
1038
1032
1032
1032
1032
1029
1029
1025
1025
1032
1034
1033
1032
1028
1034
1034
1038
1036
1033
1031
1034
1037
1040
1033
1032
1029
1035
1040
1042
1040
1034
1028
1030
1035
1038
1037
1034
1031
1036
1042
1047
1045
1048
1045
1048
1049
1053
1049
1045
1043
1045
1051
1053
1049
1042
1039
1040
1041
1046
1047
1045
1039
1039
1041
1047
1049
1047
1047
1049
1046
1049
1041
1040
1039
1038
1039
1040
1041
1035
1031
1032
1036
1041
1041
1036
1039
1037
1040
1039
1039
1037
1033
1033
1039
1041
1038
1033
1031
1036
1039
1043
1043
1039
1035
1039
1042
1049
1050
1052
1055
1065
1075
1088
1098
1108
1124
1148
1173
1202
1223
1246
1270
1304
1347
1385
1403
1393
1353
1285
1206
1136
1081
1045
1025
1023
1027
1035
1036
1036
1033
1035
1034
1032
1026
1020
1017
1019
1020
1023
1023
1022
1018
1017
1018
1021
1021
1022
1019
1020
1020
1019
1019
1016
1017
1019
1018
1018
1017
1017
1018
1021
1020
1016
1014
1013
1016
1018
1020
1025
1022
1019
1014
1015
1022
1028
1024
1023
1019
1019
1022
1024
1028
1024
1021
1020
1022
1023
1027
1025
1023
1025
1030
1034
1035
1031
1028
1027
1034
1038
1036
1034
1028
1032
1036
1043
1046
1044
1043
1045
1047
1051
1050
1051
1052
1052
1055
1061
1064
1065
1065
1069
1073
1077
1079
1077
1079
1080
1084
1083
1079
1079
1076
1076
1078
1076
1073
1069
1065
1067
1064
1065
1064
1058
1052
1052
1054
1056
1051
1046
1046
1044
1046
1049
1049
1047
1043
1045
1046
1045
1042
1043
1041
1043
1044
1041
1041
1039
1040
1039
1040
1043
1042
1042
1039
1037
1040
1042
1042
1039
1037
1036
1037
1042
1039
1040
1037
1036
1036
1039
1039
1038
1037
1040
1042
1042
1039
1037
1037
1039
1043
1043
1044
1038
1036
1036
1041
1042
1045
1042
1038
1038
1037
1039
1040
1039
1037
1037
1040
1045
1044
1041
1038
1040
1039
1044
1038
1035
1032
1036
1039
1042
1039
1036
1034
1036
1038
1040
1037
1031
1028
1030
1035
1038
1037
1037
1034
1035
1037
1040
1039
1037
1033
1032
1030
1034
1037
1034
1034
1036
1041
1042
1038
1034
1029
1028
1036
1041
1038
1035
1033
1033
1035
1038
1041
1039
1039
1037
1037
1039
1037
1033
1036
1039
1040
1041
1037
1032
1030
1033
1038
1041
1040
1043
1046
1049
1058
1073
1090
1113
1135
1159
1180
1186
1180
1161
1123
1065
995
906
801
716
669
653
646
645
645
654
670
698
734
771
801
827
849
866
883
902
916
929
942
958
971
979
987
994
999
1010
1023
1034
1043
1051
1055
1064
1074
1080
1084
1085
1085
1088
1093
1092
1089
1087
1086
1089
1092
1096
1097
1096
1095
1098
1103
1110
1107
1104
1106
1110
1110
1116
1120
1118
1119
1122
1125
1132
1133
1137
1137
1138
1141
1147
1153
1155
1158
1162
1166
1174
1177
1180
1184
1189
1196
1202
1210
1212
1215
1222
1229
1237
1238
1241
1244
1245
1249
1255
1254
1253
1252
1250
1253
1256
1251
1249
1243
1239
1236
1235
1221
1215
1208
1202
1199
1197
1190
1182
1172
1166
1162
1160
1153
1143
1136
1130
1125
1125
1119
1111
1103
1099
1100
1098
1094
1089
1086
1081
1078
1077
1071
1063
1058
1056
1057
1063
1064
1060
1057
1053
1051
1050
1049
1050
1050
1052
1051
1053
1050
1047
1046
1047
1050
1049
1042
1039
1039
1040
1046
1044
1041
1040
1040
1041
1042
1044
1039
1036
1031
1031
1034
1041
1037
1034
1034
1029
1029
1028
1029
1028
1028
1029
1028
1029
1027
1024
1023
1023
1025
1027
1024
1022
1020
1021
1021
1022
1019
1016
1014
1018
1020
1025
1021
1016
1014
1017
1019
1020
1019
1016
1017
1017
1016
1019
1017
1012
1013
1015
1015
1020
1017
1014
1013
1011
1015
1019
1017
1014
1013
1012
1016
1017
1016
1013
1012
1013
1018
1015
1010
1011
1009
1013
1014
1016
1014
1015
1013
1012
1012
1016
1014
1012
1010
1011
1015
1016
1017
1015
1013
1011
1013
1008
1013
1014
1013
1013
1013
1020
1017
1016
1012
1013
1015
1019
1019
1017
1014
1015
1017
1018
1018
1014
1009
1013
1016
1019
1019
1015
1014
1015
1019
1020
1017
1016
1012
1012
1014
1018
1016
1015
1013
1014
1018
1021
1018
1018
1012
1010
1017
1019
1020
1018
1017
1016
1017
1020
1018
1017
1014
1016
1021
1020
1017
1015
1012
1014
1019
1020
1019
1016
1015
1016
1016
1019
1018
1017
1013
1016
1014
1016
1017
1018
1019
1019
1018
1018
1020
1019
1021
1018
1016
1016
1015
1016
1014
1016
1019
1025
1022
1019
1016
1016
1016
1020
1022
1018
1019
1018
1021
1024
1021
1018
1016
1016
1018
1024
1021
1019
1017
1019
1024
1030
1028
1027
1028
1025
1029
1032
1032
1032
1031
1028
1032
1032
1031
1029
1028
1026
1029
1029
1027
1024
1022
1026
1030
1033
1030
1027
1027
1030
1033
1032
1030
1027
1026
1023
1026
1027
1025
1025
1022
1021
1025
1024
1023
1019
1017
1020
1023
1027
1025
1021
1020
1018
1021
1024
1024
1021
1022
1024
1023
1023
1021
1020
1020
1020
1025
1029
1026
1027
1027
1034
1043
1052
1056
1060
1063
1075
1090
1109
1132
1155
1182
1210
1242
1277
1312
1352
1382
1395
1376
1322
1231
1141
1075
1035
1020
1019
1023
1023
1019
1018
1021
1020
1016
1012
1009
1008
1008
1009
1002
999
997
1001
1005
1002
1001
999
998
999
1000
1000
1000
998
995
996
998
1003
999
996
996
995
998
1000
1001
1002
997
996
997
998
1000
1000
1000
1001
1001
999
995
992
991
994
1001
1003
1003
1002
995
997
999
1003
1004
1002
1001
1002
1008
1011
1009
1004
1003
1004
1008
1012
1012
1011
1011
1012
1016
1016
1015
1015
1015
1020
1021
1026
1025
1026
1025
1026
1027
1031
1029
1028
1029
1035
1042
1045
1045
1045
1043
1044
1049
1055
1057
1056
1056
1059
1062
1066
1065
1063
1062
1062
1064
1066
1061
1059
1056
1056
1057
1058
1057
1052
1047
1043
1039
1040
1039
1039
1034
1036
1037
1035
1035
1033
1032
1034
1036
1035
1035
1032
1030
1033
1035
1037
1036
1035
1030
1027
1029
1029
1029
1027
1026
1029
1033
1033
1035
1034
1029
