1034
1034
1036
1035
1030
1035
1038
1036
1033
1030
1025
1029
1033
1032
1030
1026
1027
1031
1035
1039
1034
1032
1029
1033
1031
1031
1028
1022
1022
1025
1026
1027
1024
1023
1022
1024
1026
1027
1025
1023
1021
1022
1023
1024
1027
1020
1019
1021
1026
1025
1024
1023
1023
1024
1028
1028
1027
1026
1027
1031
1037
1043
1047
1049
1056
1071
1082
1090
1100
1111
1134
1164
1198
1227
1253
1283
1315
1356
1402
1436
1447
1429
1377
1296
1209
1138
1089
1052
1031
1022
1022
1026
1026
1022
1020
1022
1025
1023
1021
1013
1008
1009
1010
1011
1013
1007
1005
1009
1007
1011
1008
1006
1006
1006
1007
1009
1007
1003
1001
1004
1006
1005
1003
999
1001
1002
1002
1003
1000
999
997
999
1002
1004
1001
998
997
999
998
1000
999
999
1000
997
1003
1004
1001
1000
998
1001
1005
1005
1004
999
1000
1001
1006
1007
1006
1002
1003
1006
1010
1009
1011
1008
1009
1012
1013
1014
1016
1015
1015
1021
1023
1027
1028
1026
1027
1031
1035
1042
1042
1044
1049
1050
1059
1061
1063
1059
1064
1068
1077
1076
1077
1074
1074
1074
1077
1075
1072
1069
1064
1063
1065
1062
1059
1055
1051
1053
1051
1050
1045
1043
1041
1042
1041
1043
1042
1037
1033
1035
1038
1037
1037
1036
1032
1036
1037
1036
1033
1031
1033
1032
1038
1037
1033
1031
1031
1032
1033
1036
1034
1033
1028
1030
1031
1029
1030
1027
1029
1032
1033
1032
1029
1029
1027
1027
1031
1032
1031
1030
1026
1029
1034
1033
1033
1027
1030
1032
1034
1034
1033
1030
1029
1032
1036
1035
1035
1033
1033
1031
1035
1035
1034
1033
1032
1031
1032
1034
1034
1031
1031
1032
1033
1033
1035
1029
1030
1029
1035
1033
1033
1030
1027
1030
1031
1034
1031
1028
1027
1030
1030
1031
1029
1027
1026
1027
1029
1031
1031
1029
1024
1025
1031
1031
1028
1026
1024
1026
1033
1029
1027
1024
1024
1024
1027
1029
1026
1024
1024
1027
1029
1027
1028
1026
1024
1024
1029
1032
1028
1026
1026
1029
1030
1030
1029
1024
1026
1026
1029
1028
1028
1026
1025
1027
1030
1029
1028
1024
1022
1027
1030
1030
1029
1025
1024
1024
1027
1030
1026
1023
1025
1024
1029
1028
1028
1025
1022
1025
1027
1032
1030
1026
1026
1027
1033
1033
1035
1032
1033
1035
1037
1038
1037
1035
1034
1037
1040
1040
1039
1037
1037
1035
1036
1036
1035
1032
1031
1035
1037
1036
1035
1033
1032
1037
1039
1040
1039
1036
1034
1030
1035
1031
1030
1027
1026
1028
1031
1032
1029
1027
1027
1029
1030
1030
1028
1026
1027
1029
1031
1028
1028
1027
1026
1028
1031
1029
1027
1025
1026
1028
1031
1034
1033
1033
1031
1031
1040
1042
1049
1051
1059
1071
1081
1091
1105
1119
1142
1169
1198
1226
1253
1277
1309
1353
1395
1423
1422
1382
1314
1223
1137
1080
1046
1025
1021
1026
1030
1034
1029
1026
1023
1024
1025
1020
1017
1013
1013
1015
1015
1015
1015
1013
1010
1014
1015
1016
1014
1010
1014
1014
1016
1015
1012
1007
1008
1010
1013
1014
1011
1008
1006
1011
1011
1012
1009
1003
1004
1008
1010
1010
1009
1004
1006
1007
1011
1013
1011
1007
1005
1006
1012
1011
1010
1007
1005
1009
1013
1013
1012
1009
1010
1009
1013
1016
1013
1009
1011
1014
1021
1021
1021
1018
1020
1020
1025
1027
1025
1022
1028
1033
1036
1039
1039
1038
1039
1048
1054
1056
1054
1055
1056
1062
1068
1073
1073
1073
1074
1074
1078
1076
1073
1071
1069
1070
1071
1067
1065
1059
1055
1057
1056
1056
1052
1046
1040
1041
1045
1046
1045
1038
1039
1039
1044
1040
1037
1035
1033
1034
1040
1038
1035
1034
1032
1037
1038
1037
1035
1029
1030
1032
1032
1033
1031
1027
1027
1028
1032
1033
1030
1026
1023
1025
1027
1026
1023
1022
1023
1024
1024
1025
1023
1020
1022
1021
1023
1025
1026
1021
1020
1023
1026
1027
1024
1024
1019
1020
1025
1026
1024
1021
1021
1024
1026
1026
1023
1021
1021
1025
1028
1025
1024
1021
1019
1021
1024
1026
1024
1024
1021
1024
1024
1024
1021
1019
1020
1022
1023
1023
1021
1018
1017
1021
1023
1021
1019
1013
1015
1015
1020
1020
1020
1015
1018
1019
1018
1016
1019
1017
1014
1017
1019
1017
1014
1014
1015
1015
1019
1016
1016
1015
1015
1016
1021
1019
1016
1012
1013
1015
1019
1017
1014
1013
1013
1016
1016
1014
1016
1012
1011
1012
1016
1016
1015
1012
1011
1014
1017
1018
1015
1012
1013
1015
1017
1017
1016
1015
1013
1019
1020
1021
1022
1019
1021
1022
1025
1029
1027
1024
1024
1027
1030
1030
1026
1021
1021
1023
1022
1024
1022
1021
1021
1022
1026
1024
1023
1024
1023
1025
1028
1027
1025
1020
1018
1019
1020
1019
1016
1015
1015
1017
1016
1021
1018
1014
1014
1016
1019
1017
1015
1014
1013
1013
1018
1019
1016
1015
1016
1015
1019
1018
1019
1014
1016
1016
1020
1020
1016
1016
1017
1023
1033
1033
1037
1043
1054
1066
1074
1083
1100
1117
1144
1174
1204
1231
1258
1283
1319
1366
1403
1422
1415
1379
1319
1236
1161
1101
1061
1028
1010
1008
1013
1015
1015
1011
1011
1012
1010
1010
1005
997
998
999
1001
1001
999
996
996
997
1000
995
997
994
992
996
997
997
996
993
993
992
994
994
993
988
987
992
993
992
988
986
989
990
994
993
991
988
986
989
992
994
991
988
990
989
992
992
992
991
990
992
995
995
993
993
992
997
1000
998
1000
998
996
1001
1005
1002
1003
1003
1003
1009
1013
1013
1013
1014
1014
1021
1026
1027
1025
1024
1029
1034
1037
1042
1041
1046
1046
1051
1057
1058
1059
1058
1062
1068
1074
1072
1070
1068
1067
1065
1068
1067
1066
1058
1057
1055
1055
1053
1051
1046
1045
1045
1043
1042
1038
1033
1031
1034
1035
1034
1030
1030
1028
1030
1031
1031
1029
1027
1026
1030
1031
1028
1028
1025
1024
1028
1029
1027
1027
1023
1020
1027
1028
1027
1023
1022
1023
1025
1025
1025
1025
1021
1021
1022
1025
1023
1019
1020
1021
1023
1024
1025
1022
1022
1018
1023
1025
1025
1023
1023
1022
1023
1028
1025
1024
1022
1020
1022
1027
1025
1025
1021
1023
1024
1027
1027
1024
1023
1022
1029
1028
1026
1022
1021
1023
1023
1024
1026
1024
1022
1021
1027
1027
1026
1021
1021
1019
1022
1025
1025
1023
1021
1024
1022
1023
1024
1022
1019
1019
1020
1023
1022
1020
1018
1020
1022
1025
1026
1024
1020
1019
1023
1025
1026
1025
1022
1020
1024
1024
1026
1024
1022
1024
1028
1028
1026
1023
1021
1020
1026
1025
1028
1025
1023
1022
1023
1029
1028
1027
1023
1022
1026
1028
1028
1025
1024
1023
1027
1029
1027
1025
1023
1025
1028
1031
1030
1025
1023
1023
1026
1028
1030
1028
1026
1027
1032
1032
1029
1031
1030
1033
1034
1038
1038
1034
1034
1034
1039
1042
1043
1041
1036
1038
1039
1039
1036
1035
1032
1033
1034
1035
1034
1033
1031
1031
1037
1039
1037
1038
1032
1034
1034
1039
1032
1031
1025
1026
1030
1031
1031
1029
1028
1028
1029
1031
1031
1030
1026
1028
1031
1031
1031
1026
1025
1026
1029
1031
1032
1032
1029
1030
1031
1032
1032
1028
1029
1030
1035
1040
1042
1047
1049
1057
1070
1082
1092
1106
1124
1152
1185
1216
1245
1274
1298
1332
1375
1415
1427
1410
1360
1279
1192
1123
1075
1038
1021
1021
1023
1027
1025
1025
1023
1023
1022
1022
1018
1014
1010
1010
1014
1013
1014
1012
1008
1012
1011
1014
1013
1010
1010
1009
1011
1016
1012
1009
1007
1007
1008
1009
1010
1007
1005
1006
1010
1010
1008
1003
999
1002
1004
1008
1007
1005
1000
1001
1002
1006
1008
1006
1002
1003
1006
1006
1008
1006
1006
1007
1010
1011
1011
1007
1007
1007
1011
1013
1013
1012
1010
1011
1016
1022
1023
1021
1020
1020
1026
1032
1032
1032
1032
1037
1042
1048
1050
1049
1050
1055
1059
1066
1068
1069
1067
1067
1073
1073
1075
1071
1070
1069
1068
1068
1063
1057
1054
1057
1055
1055
1051
1044
1041
1041
1041
1043
1040
1041
1036
1034
1036
1037
1036
1033
1029
1029
1031
1034
1033
1032
1028
1028
1032
1035
1032
1031
1026
1026
1028
1029
1030
1027
1024
1024
1027
1027
1027
1025
1023
1022
1023
1024
1025
1022
1019
1019
1023
1024
1026
1021
1017
1021
1022
1023
1024
1021
1019
1019
1022
1024
1025
1024
1024
1021
1023
1026
1026
1024
1022
1023
1023
1025
1023
1022
1023
1022
1021
1027
1021
1022
1016
1019
1022
1023
1020
1018
1016
1018
1021
1021
1020
1017
1014
1015
1018
1019
1019
1016
1015
1014
1016
1019
1018
1017
1014
1014
1015
1016
1016
1013
1011
1012
1014
1017
1016
1012
1011
1011
1015
1017
1016
1012
1009
1010
1013
1017
1016
1012
1010
1011
1014
1016
1014
1010
1010
1009
1012
1013
1012
1009
1008
1010
1012
1016
1016
1013
1008
1012
1014
1015
1016
1012
1010
1011
1013
1015
1014
1014
1011
1012
1013
1017
1013
1011
1010
1011
1015
1016
1016
1014
1011
1010
1013
1017
1016
1015
1015
1017
1021
1024
1023
1023
1021
1022
1025
1026
1029
1026
1022
1023
1024
1024
1022
1019
1019
1018
1020
1022
1023
1021
1020
1020
1024
1026
1025
1021
1017
1018
1019
1019
1017
1015
1014
1014
1017
1020
1019
1015
1013
1014
1017
1018
1016
1015
1013
1015
1016
1018
1018
1014
1013
1013
1017
1019
1018
1017
1013
1013
1016
1020
1020
1019
1020
1024
1029
1037
1042
1051
1059
1068
1080
1097
1116
1144
1172
1205
1238
1270
1305
1342
1385
1419
1432
1412
1351
1260
1175
1106
1064
1036
1014
1009
1007
1012
1015
1018
1019
1014
1008
1004
1005
1007
1002
1002
999
1000
1001
1004
1001
999
1000
999
1002
1004
1000
999
997
997
1001
1003
1000
998
995
997
995
1000
998
995
993
993
995
999
997
996
992
994
995
998
997
995
992
993
995
999
1001
997
995
998
997
1005
1001
1001
998
1000
1002
1007
1007
1006
1007
1007
1009
1016
1017
1016
1017
1018
1024
1027
1032
1033
1036
1037
1043
1051
1053
1053
1056
1062
1068
1072
1072
1070
1072
1073
1074
1078
1073
1071
1066
1063
1065
1063
1059
1056
1050
1048
1049
1051
1044
1042
1038
1040
1041
1042
1037
1035
1034
1033
1036
1036
1036
1034
1032
1032
1036
1035
1034
1033
1032
1032
1035
1038
1035
1029
1029
1030
1033
1035
1034
1029
1028
1027
1030
1032
1031
1028
1027
1030
1029
1032
1031
1027
1026
1030
1030
1031
1029
1027
1026
1027
1031
1031
1030
1030
1028
1029
1031
1033
1033
1031
1029
1030
1034
1039
1039
1038
1039
1048
1061
1078
1095
1114
1129
1142
1147
1141
1125
1097
1057
1001
935
857
764
690
653
643
643
642
644
654
667
690
715
746
775
798
820
840
861
877
893
908
918
930
940
949
956
964
971
980
995
1006
1015
1022
1029
1036
1048
1057
1061
1062
1060
1066
1069
1073
1075
1076
1076
1081
1082
1088
1086
1083
1083
1083
1088
1094
1094
1091
1095
1093
1102
1104
1105
1106
1106
1107
1113
1116
1116
1116
1117
1119
1125
1131
1130
1131
1133
1137
1142
1150
1151
1153
1156
1159
1166
1173
1178
1179
1183
1191
1197
1204
1209
1212
1215
1223
1229
1236
1239
1241
1244
1250
1255
1260
1259
1257
1254
1256
1256
1258
1253
1246
1240
1240
1236
1232
1226
1217
1208
1204
1197
1196
1189
1181
1172
1167
1166
1160
1154
1145
1136
1130
1128
1122
1116
1111
1101
1095
1092
1092
1086
1079
1073
1069
1068
1069
1064
1057
1056
1055
1055
1056
1053
1053
1045
1047
1048
1049
1045
1044
1040
1041
1044
1045
1042
1037
1036
1037
1038
1042
1038
1037
1033
1036
1034
1042
1036
1035
1032
1033
1034
1034
1034
1030
1027
1030
1032
1034
1029
1029
1026
1025
1027
1030
1029
1023
1023
1022
1022
1026
1023
1022
1019
1020
1021
1023
1020
1017
1015
1016
1018
1020
1021
1018
1015
1018
1019
1021
1019
1016
1015
1016
1020
1019
1017
1014
1012
1013
1016
1018
1017
1014
1015
1015
1017
1017
1017
1014
1012
1014
1018
1016
1016
1015
1012
1011
1015
1017
1020
1015
1013
1014
1016
1016
1015
1014
1012
1014
1016
1020
1018
1014
1013
1014
1016
1019
1018
1017
1014
1015
1019
1019
1018
1014
1014
1013
1016
1019
1018
1015
1014
1016
1016
1019
1018
1015
1015
1015
1018
1021
1017
1016
1015
1016
1018
1022
1020
1015
1013
1015
1017
1020
1019
1016
1016
1016
1021
1022
1020
1018
1015
1018
1020
1024
1020
1017
1017
1020
1021
1024
1020
1020
1018
1020
1025
1027
1026
1021
1020
1020
1023
1026
1026
1024
1022
1026
1027
1027
1028
1027
1024
1028
1028
1029
1030
1026
1023
1027
1028
1030
1031
1030
1028
1027
1032
1035
1033
1031
1030
1030
1032
1035
1032
1026
1027
1029
1034
1036
1035
1031
1031
1031
1034
1034
1036
1032
1029
1031
1034
1036
1035
1033
1032
1034
1039
1040
1038
1035
1032
1034
1038
1040
1042
1037
1036
1038
1036
1041
1042
1038
1039
1038
1041
1042
1041
1037
1038
1039
1040
1043
1040
1039
1037
1039
1041
1042
1041
1042
1038
1039
1043
1043
1043
1039
1037
1040
1043
1042
1041
1038
1039
1040
1044
1046
1046
1044
1042
1041
1044
1044
1043
1043
1043
1044
1043
1047
1046
1044
1043
1044
1044
1044
1045
1045
1039
1043
1044
1048
1044
1044
1043
1045
1048
1049
1047
1042
1044
1044
1046
1047
1044
1042
1041
1043
1045
1047
1046
1045
1044
1042
1046
1046
1045
1045
1042
1043
1046
1049
1048
1041
1042
1044
1045
1049
1046
1045
1042
1042
1046
1049
1047
1045
1042
1045
1047
1047
1047
1045
1044
1045
1048
1052
1049
1048
1050
1050
1054
1056
1053
1052
1055
1054
1060
1060
1058
1057
1057
1054
1060
1059
1056
1054
1053
1055
1052
1057
1054
1051
1052
1053
1056
1060
1057
1057
1057
1057
1058
1058
1053
1051
1048
1048
1049
1051
1049
1048
1044
1045
1049
1051
1049
1048
1043
1042
1045
1049
1048
1044
1043
1045
1048
1047
1045
1041
1043
1042
1050
1052
1051
1049
1048
1051
1055
1059
1065
1068
1073
1084
1097
1100
1107
1118
1140
1167
1198
1224
1252
1282
1313
1351
1395
1429
1435
1411
1350
1263
1178
1115
1072
1048
1043
1052
1057
1055
1051
1046
1040
1038
1040
1038
1035
1031
1026
1030
1033
1034
1031
1026
1023
1028
1029
1030
1026
1023
1022
1024
1025
1025
1025
1021
1018
1021
1026
1022
1024
1023
1019
1019
1024
1023
1024
1022
1021
1020
1024
1025
1023
1019
1017
1020
1025
1023
1021
1020
1018
1021
1026
1023
1022
1019
1022
1023
1025
1026
1026
1025
1024
1026
1027
1032
1031
1031
1027
1030
1033
1034
1033
1033
1031
1035
1039
1038
1038
1039
1034
1037
1041
1045
1044
1044
1043
1045
1048
1055
1052
1053
1054
1058
1062
1066
1066
1067
1068
1075
1082
1085
1085
1085
1084
1087
1092
1095
1095
1096
1090
1094
1094
1094
1093
1088
1086
1087
1086
1085
1083
1081
1075
1078
1078
1079
1074
1070
1067
1070
1070
1071
1069
1067
1063
1063
1066
1066
1063
1060
1060
1062
1064
1066
1062
1060
1057
1059
1061
1063
1062
1062
1057
1059
1059
1061
1059
1059
1058
1058
1062
1064
1061
1058
1055
1058
1060
1060
1060
1057
1055
1058
1060
1061
1059
1058
1055
1056
1058
1061
1059
1055
1053
1052
1056
1058
1056
1051
1050
1052
1052
1056
1052
1049
1048
1051
1050
1052
1049
1047
1045
1045
1049
1050
1048
1044
1044
1045
1046
1045
1044
1041
1042
1041
1043
1043
1043
1038
1037
1040
1040
1042
1038
1037
1037
1037
1040
1041
1037
1034
1033
1036
1038
1038
1037
1032
1031
1034
1036
1037
1036
1031
1031
1032
1036
1037
1037
1031
1032
1033
1035
1035
1034
1032
1031
1034
1036
1036
1036
1031
1030
1030
1034
1035
1034
1033
1028
1033
1034
1034
1030
1030
1029
1031
1035
1036
1034
1028
1030
1031
1033
1034
1032
1030
1030
1031
1033
1033
1033
1031
1032
1033
1035
1035
1032
1029
1027
1031
1034
1036
1034
1031
1029
1032
1032
1034
1034
1031
1031
1032
1033
1037
1035
1030
1032
1033
1039
1040
1042
1039
1040
1044
1044
1046
1045
1043
1044
1043
1047
1046
1045
1040
1036
1040
1039
1041
1039
1038
1039
1041
1043
1046
1044
1042
1040
1041
1044
1043
1040
1033
1032
1030
1033
1038
1034
1033
1031
1031
1033
1035
1031
1029
1031
1033
1034
1034
1034
1030
1028
1032
1035
1034
1033
1029
1030
1033
1037
1038
1035
1034
1033
1035
1042
1046
1051
1056
1063
1075
1088
1098
1109
1125
1151
1188
1225
1259
1292
1321
1360
1409
1448
1461
1437
1369
1270
1175
1108
1066
1037
1027
1028
1032
1036
1035
1029
1024
1022
1021
1019
1019
1016
1012
1010
1009
1013
1015
1012
1010
1007
1007
1012
1009
1008
1005
1004
1006
1006
1004
1005
1001
1003
1004
1004
1007
1002
1001
997
1003
1006
1007
1006
1001
1002
1002
1003
1007
1004
1004
1001
1002
1006
1006
1005
1003
1000
1005
1009
1011
1008
1006
1006
1004
1011
1009
1010
1007
1009
1012
1013
1016
1015
1013
1011
1016
1021
1020
1020
1018
1018
1019
1024
1026
1026
1027
1026
1033
1036
1037
1037
1037
1039
1045
1050
1050
1053
1051
1051
1058
1060
1063
1065
1061
1065
1066
1069
1070
1069
1066
1064
1066
1068
1065
1063
1058
1055
1058
1057
1054
1053
1051
1046
1046
1050
1049
1044
1043
1042
1042
1046
1045
1043
1039
1038
1039
1043
1044
1041
1037
1037
1038
1039
1040
1038
1038
1035
1036
1039
1039
1037
1032
1032
1034
1036
1037
1037
1034
1031
1035
1036
1037
1036
1034
1032
1033
1037
1038
1035
1034
1034
1037
1041
1039
1040
1039
1035
1037
1041
1043
1042
1039
1036
1038
1039
1040
1039
1039
1039
1038
1041
1042
1039
1035
1035
1038
1039
1040
1040
1036
1035
1033
1038
1036
1037
1033
1032
1033
1036
1035
1033
1031
1032
1032
1035
1035
1034
1029
1028
1030
1033
1031
1033
1030
1028
1032
1035
1033
1032
1029
1027
1031
1035
1034
1031
1028
1030
1030
1032
1033
1030
1029
1026
1030
1028
1031
1030
1027
1026
1030
1032
1033
1030
1027
1027
1028
1033
1031
1030
1029
1027
1027
1032
1031
1031
1028
1029
1029
1032
1035
1030
1029
1026
1029
1033
1033
1034
1030
1030
1030
1032
1034
1033
1032
1032
1032
1033
1034
1031
1028
1029
1032
1035
1033
1033
1031
1028
1031
1035
1035
1034
1033
1031
1034
1034
1032
1032
1030
1033
1033
1036
1035
1034
1034
1035
1038
1043
1042
1041
1041
1040
1043
1046
1048
1047
1042
1042
1045
1043
1042
1037
1037
1034
1037
1039
1041
1039
1037
1035
1038
1043
1044
1041
1038
1036
1039
1039
1039
1035
1029
1028
1032
1035
1036
1034
1030
1030
1030
1034
1035
1033
1030
1030
1032
1033
1035
1031
1029
1030
1034
1035
1035
1032
1030
1029
1031
1032
1035
1032
1032
1029
1035
1040
1043
1043
1048
1052
1064
1076
1087
1092
1104
1123
1154
1185
1217
1244
1273
1307
1347
1393
1427
1435
1404
1339
1249
1165
1104
1058
1029
1018
1020
1029
1033
1029
1026
1024
1026
1026
1022
1017
1014
1015
1014
1016
1014
1016
1011
1011
1011
1014
1013
1012
1009
1009
1011
1011
1011
1010
1006
1004
1009
1009
1010
1007
1005
1002
1006
1008
1007
1008
1005
1006
1006
1008
1008
1008
1005
1004
1005
1010
1010
1008
1006
1004
1008
1010
1012
1010
1006
1005
1008
1013
1013
1015
1010
1011
1012
1014
1018
1019
1016
1017
1020
1021
1022
1024
1023
1022
1029
1034
1036
1036
1034
1038
1039
1044
1048
1048
1050
1051
1056
1060
1065
1065
1066
1067
1069
1073
1072
1071
1068
1067
1067
1071
1068
1066
1061
1059
1057
1059
1056
1055
1048
1049
1046
1047
1047
1044
1043
1042
1043
1043
1042
1039
1037
1037
1040
1041
1041
1038
1034
1034
1039
1040
1042
1038
1036
1033
1036
1040
1039
1036
1034
1034
1036
1037
1035
1035
1030
1034
1033
1037
1037
1033
1031
1030
1036
1039
1038
1038
1033
1036
1036
1038
1041
1037
1037
1039
1041
1040
1040
1040
1038
1037
1039
1041
1042
1040
1039
1035
1038
1040
1039
1037
1032
1032
1034
1035
1037
1033
1034
1034
1033
1038
1037
1035
1032
1033
1032
1034
1035
1032
1031
1030
1031
1032
1032
1032
1028
1029
1033
1033
1032
1030
1028
1027
1031
1034
1033
1032
1027
1027
1030
1030
1033
1030
1029
1030
1027
1030
1031
1031
1028
1027
1029
1034
1034
1031
1027
1028
1028
1029
1030
1029
1026
1027
1027
1030
1029
1026
1026
1027
1027
1031
1031
1028
1025
1026
1029
1033
1030
1029
1029
1025
1030
1031
1030
1029
1028
1029
1031
1031
1032
1031
1030
1030
1033
1032
1034
1030
1030
1030
1034
1036
1032
1031
1029
1031
1033
1035
1034
1035
1029
1031
1034
1038
1039
1038
1037
1038
1038
1042
1044
1041
1039
1041
1044
1048
1049
1048
1041
1038
1039
1041
1039
1038
1038
1039
1041
1046
