1027
1024
1027
1027
1028
1028
1027
1026
1026
1027
1029
1029
1027
1025
1026
1029
1033
1027
1025
1025
1024
1027
1031
1030
1029
1025
1026
1029
1031
1030
1029
1024
1024
1029
1030
1030
1028
1025
1028
1029
1031
1031
1026
1025
1026
1030
1031
1031
1029
1026
1028
1028
1029
1031
1028
1029
1028
1029
1030
1031
1029
1028
1030
1035
1037
1038
1036
1035
1035
1038
1042
1042
1040
1038
1041
1043
1045
1043
1039
1035
1035
1037
1038
1037
1035
1032
1034
1038
1041
1039
1038
1038
1040
1042
1044
1043
1039
1035
1033
1033
1035
1034
1033
1027
1029
1032
1033
1032
1030
1030
1031
1034
1037
1032
1030
1027
1028
1032
1035
1032
1033
1030
1030
1033
1035
1032
1031
1029
1030
1034
1036
1036
1032
1031
1034
1039
1043
1045
1048
1054
1063
1075
1089
1098
1112
1129
1154
1186
1219
1246
1273
1300
1330
1367
1407
1442
1460
1452
1417
1351
1272
1187
1119
1073
1050
1041
1039
1039
1035
1035
1035
1035
1038
1032
1024
1019
1017
1018
1020
1019
1017
1014
1015
1015
1017
1017
1014
1013
1013
1016
1018
1014
1010
1009
1010
1011
1016
1011
1010
1006
1007
1009
1012
1010
1010
1006
1007
1008
1011
1009
1006
1005
1006
1009
1012
1011
1008
1006
1005
1007
1012
1011
1012
1011
1010
1010
1013
1009
1008
1009
1011
1013
1015
1013
1012
1011
1012
1014
1020
1018
1019
1017
1020
1022
1027
1027
1028
1029
1032
1035
1041
1042
1042
1043
1048
1053
1062
1062
1066
1064
1069
1075
1083
1082
1086
1083
1085
1088
1091
1087
1086
1082
1081
1082
1082
1077
1074
1067
1069
1068
1070
1066
1058
1057
1053
1054
1056
1056
1051
1049
1048
1051
1053
1050
1047
1047
1048
1050
1052
1052
1046
1046
1044
1048
1050
1051
1047
1044
1042
1044
1045
1046
1043
1043
1041
1044
1046
1044
1041
1037
1039
1043
1045
1043
1039
1040
1034
1038
1040
1043
1038
1036
1038
1038
1041
1042
1037
1038
1039
1040
1045
1041
1039
1040
1038
1046
1045
1047
1044
1042
1045
1044
1047
1049
1045
1044
1043
1046
1050
1048
1047
1043
1047
1049
1050
1051
1046
1044
1043
1048
1052
1051
1048
1046
1046
1049
1049
1048
1046
1047
1045
1046
1048
1048
1046
1045
1046
1047
1050
1046
1046
1045
1042
1046
1048
1048
1047
1042
1044
1044
1045
1046
1043
1044
1043
1047
1050
1047
1045
1041
1044
1047
1051
1047
1044
1045
1045
1048
1048
1047
1045
1043
1045
1049
1050
1049
1047
1045
1047
1047
1053
1050
1048
1047
1045
1051
1053
1051
1049
1047
1047
1050
1053
1053
1052
1051
1054
1058
1060
1057
1058
1054
1057
1063
1066
1063
1060
1057
1058
1061
1063
1058
1054
1053
1053
1054
1055
1058
1056
1054
1054
1059
1063
1061
1058
1054
1054
1057
1058
1054
1050
1045
1045
1049
1053
1050
1048
1047
1047
1048
1051
1048
1044
1044
1048
1049
1049
1049
1046
1043
1046
1047
1049
1050
1047
1043
1047
1047
1051
1052
1048
1048
1054
1059
1065
1070
1076
1084
1097
1111
1129
1145
1168
1197
1231
1265
1298
1328
1357
1393
1431
1458
1455
1416
1340
1249
1165
1106
1070
1054
1045
1045
1048
1050
1051
1049
1040
1036
1034
1035
1037
1035
1031
1027
1027
1030
1032
1030
1029
1029
1027
1030
1031
1030
1026
1026
1025
1029
1031
1029
1025
1024
1024
1026
1027
1027
1024
1023
1024
1023
1027
1026
1024
1019
1023
1026
1027
1026
1026
1023
1023
1026
1029
1026
1023
1024
1025
1029
1030
1028
1027
1027
1028
1030
1033
1034
1033
1033
1033
1037
1042
1041
1041
1041
1047
1050
1055
1056
1059
1058
1064
1070
1074
1077
1077
1079
1087
1092
1097
1101
1101
1101
1103
1106
1110
1107
1105
1101
1102
1102
1103
1096
1093
1088
1086
1088
1086
1080
1076
1071
1071
1072
1071
1070
1066
1062
1063
1064
1066
1064
1063
1062
1061
1065
1065
1061
1060
1056
1060
1062
1064
1062
1060
1056
1058
1060
1062
1061
1058
1053
1056
1056
1058
1057
1052
1051
1053
1058
1056
1055
1051
1048
1048
1055
1054
1054
1050
1050
1050
1049
1054
1051
1048
1049
1049
1050
1053
1050
1050
1050
1051
1054
1056
1055
1054
1052
1051
1055
1058
1056
1055
1053
1055
1056
1057
1057
1053
1051
1054
1056
1055
1056
1055
1053
1054
1054
1055
1058
1056
1057
1062
1073
1084
1099
1117
1140
1167
1185
1187
1179
1155
1117
1062
991
909
814
725
677
663
663
662
661
661
676
704
740
774
800
826
848
868
888
905
920
933
942
959
965
975
983
990
1001
1012
1027
1039
1047
1056
1061
1069
1077
1083
1086
1086
1085
1091
1093
1099
1100
1099
1100
1100
1102
1108
1108
1107
1106
1110
1112
1118
1120
1120
1122
1126
1130
1132
1134
1137
1136
1139
1146
1151
1152
1153
1152
1158
1167
1172
1176
1179
1183
1188
1195
1207
1210
1214
1219
1226
1237
1245
1252
1257
1261
1270
1279
1290
1295
1296
1300
1305
1308
1315
1315
1311
1311
1310
1308
1308
1302
1295
1287
1281
1279
1273
1264
1255
1244
1236
1228
1223
1215
1199
1188
1183
1176
1173
1162
1151
1141
1136
1131
1126
1119
1111
1104
1102
1098
1096
1091
1081
1079
1075
1076
1076
1071
1070
1062
1061
1063
1061
1061
1057
1056
1055
1058
1060
1055
1052
1048
1051
1050
1054
1054
1047
1044
1049
1048
1047
1049
1045
1044
1043
1047
1048
1045
1043
1041
1042
1043
1044
1042
1038
1036
1039
1039
1040
1037
1037
1035
1034
1034
1036
1034
1035
1031
1032
1033
1034
1031
1030
1030
1032
1033
1034
1030
1029
1026
1028
1028
1031
1030
1027
1027
1026
1027
1028
1027
1025
1022
1025
1027
1027
1026
1024
1020
1025
1029
1030
1029
1025
1023
1024
1026
1029
1027
1025
1025
1023
1027
1026
1023
1021
1021
1024
1027
1029
1025
1025
1022
1023
1028
1028
1026
1024
1021
1022
1026
1029
1028
1023
1023
1025
1027
1030
1029
1026
1024
1024
1027
1030
1028
1025
1024
1024
1028
1030
1030
1027
1024
1025
1027
1029
1030
1026
1026
1027
1030
1030
1030
1026
1027
1026
1029
1030
1028
1025
1023
1028
1030
1030
1028
1026
1025
1027
1031
1032
1030
1029
1027
1029
1032
1035
1032
1029
1027
1029
1031
1034
1032
1033
1029
1031
1033
1035
1032
1030
1029
1032
1034
1035
1033
1031
1030
1031
1034
1036
1035
1033
1030
1031
1032
1035
1035
1034
1034
1031
1031
1036
1033
1034
1033
1033
1037
1036
1036
1033
1031
1034
1034
1036
1036
1033
1030
1031
1034
1037
1035
1033
1031
1034
1037
1037
1033
1031
1033
1035
1038
1042
1038
1037
1033
1036
1039
1040
1037
1036
1034
1034
1036
1042
1042
1035
1034
1037
1040
1040
1041
1036
1035
1036
1039
1040
1037
1038
1035
1038
1041
1041
1041
1040
1037
1038
1042
1043
1042
1038
1037
1038
1041
1046
1043
1038
1038
1039
1043
1045
1042
1042
1040
1041
1045
1048
1047
1045
1044
1047
1050
1053
1050
1051
1050
1050
1055
1056
1055
1054
1054
1054
1055
1059
1053
1052
1049
1046
1050
1050
1052
1050
1045
1048
1053
1055
1052
1050
1050
1051
1053
1055
1052
1050
1047
1048
1048
1048
1047
1043
1041
1046
1047
1049
1046
1045
1042
1044
1044
1047
1048
1047
1042
1042
1046
1046
1046
1044
1043
1044
1045
1048
1046
1043
1044
1046
1049
1051
1052
1049
1047
1051
1057
1062
1067
1072
1078
1090
1101
1111
1120
1136
1160
1191
1224
1254
1286
1314
1344
1386
1427
1463
1480
1468
1421
1345
1253
1176
1118
1077
1061
1059
1063
1062
1057
1052
1049
1046
1046
1044
1037
1032
1030
1027
1029
1028
1029
1025
1022
1023
1027
1029
1024
1021
1021
1022
1024
1025
1023
1020
1018
1019
1022
1022
1020
1018
1019
1019
1018
1022
1018
1014
1016
1016
1017
1019
1020
1014
1014
1014
1017
1020
1017
1015
1013
1017
1018
1021
1021
1016
1015
1019
1020
1021
1023
1019
1018
1020
1021
1026
1025
1023
1023
1023
1028
1029
1030
1027
1028
1031
1033
1038
1034
1036
1034
1039
1042
1045
1046
1044
1047
1048
1055
1057
1061
1061
1063
1067
1072
1077
1079
1080
1079
1084
1091
1093
1095
1092
1095
1097
1099
1100
1098
1096
1097
1097
1095
1097
1092
1088
1085
1087
1088
1088
1083
1082
1074
1076
1078
1078
1074
1069
1069
1069
1071
1072
1071
1067
1063
1066
1068
1069
1066
1065
1063
1064
1062
1067
1062
1061
1058
1059
1062
1066
1063
1061
1061
1062
1064
1063
1061
1062
1059
1061
1058
1062
1059
1056
1056
1061
1060
1060
1060
1056
1057
1059
1060
1063
1062
1059
1058
1057
1061
1065
1064
1059
1058
1061
1066
1064
1064
1063
1059
1060
1062
1064
1065
1061
1061
1062
1062
1063
1061
1059
1058
1061
1061
1063
1060
1057
1056
1057
1059
1060
1057
1055
1053
1053
1055
1057
1055
1053
1052
1053
1058
1056
1055
1052
1050
1053
1052
1053
1054
1051
1049
1051
1052
1053
1053
1049
1048
1049
1053
1054
1053
1048
1047
1047
1051
1052
1052
1048
1047
1049
1050
1051
1052
1048
1046
1047
1051
1052
1049
1050
1047
1046
1050
1052
1051
1047
1047
1048
1051
1051
1048
1048
1045
1046
1050
1053
1052
1046
1048
1049
1049
1052
1050
1048
1047
1051
1051
1052
1053
1049
1048
1051
1052
1054
1053
1052
1050
1051
1052
1056
1056
1054
1052
1054
1057
1060
1058
1057
1054
1058
1060
1064
1063
1061
1058
1061
1064
1064
1060
1056
1052
1052
1055
1056
1055
1055
1054
1052
1057
1057
1057
1057
1056
1058
1059
1058
1058
1050
1046
1048
1049
1050
1048
1046
1047
1048
1052
1053
1047
1046
1045
1046
1048
1050
1049
1048
1045
1048
1050
1052
1050
1047
1047
1049
1051
1051
1050
1047
1046
1052
1055
1058
1058
1057
1059
1065
1076
1087
1095
1100
1111
1128
1153
1178
1206
1233
1259
1289
1318
1348
1386
1422
1444
1441
1414
1352
1267
1182
1122
1081
1058
1050
1050
1048
1050
1051
1051
1050
1045
1040
1037
1039
1042
1040
1039
1035
1034
1036
1036
1038
1035
1034
1031
1032
1034
1035
1036
1030
1030
1033
1037
1034
1032
1030
1027
1030
1032
1033
1033
1030
1028
1028
1029
1031
1031
1027
1027
1027
1031
1033
1031
1028
1027
1027
1029
1032
1030
1029
1026
1030
1032
1033
1033
1031
1031
1034
1035
1036
1035
1031
1033
1034
1038
1039
1038
1036
1034
1037
1037
1042
1039
1038
1041
1045
1050
1049
1048
1048
1049
1054
1060
1063
1063
1062
1062
1068
1071
1075
1079
1077
1081
1084
1091
1096
1095
1093
1094
1098
1100
1104
1099
1097
1096
1096
1099
1097
1095
1090
1088
1089
1089
1088
1084
1079
1078
1074
1080
1077
1074
1071
1068
1069
1069
1071
1068
1065
1065
1067
1072
1070
1068
1062
1062
1064
1066
1067
1063
1059
1058
1062
1064
1063
1061
1057
1054
1060
1061
1062
1060
1058
1055
1058
1062
1056
1055
1055
1052
1055
1056
1058
1056
1054
1052
1055
1057
1058
1057
1054
1051
1054
1054
1057
1056
1054
1054
1055
1058
1058
1059
1055
1054
1055
1060
1060
1058
1055
1054
1060
1058
1060
1058
1055
1054
1055
1059
1060
1055
1054
1053
1056
1056
1057
1058
1054
1052
1054
1055
1055
1055
1051
1051
1052
1057
1058
1053
1049
1049
1052
1054
1057
1051
1050
1049
1052
1054
1056
1052
1049
1047
1052
1053
1054
1052
1049
1049
1049
1052
1053
1050
1046
1047
1048
1049
1053
1050
1046
1044
1048
1051
1051
1048
1045
1047
1048
1055
1051
1049
1046
1045
1049
1050
1051
1048
1046
1048
1049
1051
1052
1049
1047
1047
1049
1051
1052
1051
1045
1045
1049
1054
1054
1053
1051
1051
1054
1057
1060
1059
1054
1056
1059
1062
1060
1061
1059
1058
1059
1060
1059
1057
1049
1052
1057
1058
1059
1059
1055
1055
1057
1059
1060
1057
1056
1051
1051
1052
1048
1048
1048
1046
1047
1050
1053
1048
1045
1045
1048
1050
1050
1051
1047
1044
1048
1050
1051
1050
1047
1046
1048
1053
1050
1048
1048
1047
1051
1051
1055
1054
1053
1058
1062
1072
1078
1086
1092
1101
1111
1130
1152
1177
1204
1229
1258
1287
1317
1351
1388
1419
1429
1411
1356
1268
1177
1110
1070
1051
1044
1046
1044
1047
1048
1050
1047
1041
1036
1033
1031
1033
1031
1031
1029
1026
1027
1031
1031
1028
1025
1024
1023
1025
1025
1025
1022
1022
1023
1023
1023
1018
1017
1014
1018
1022
1021
1020
1015
1016
1017
1021
1019
1017
1013
1014
1016
1018
1018
1017
1014
1016
1016
1018
1018
1016
1013
1013
1015
1017
1019
1018
1016
1017
1017
1023
1023
1021
1020
1019
1022
1026
1028
1027
1026
1026
1028
1034
1033
1033
1030
1034
1039
1046
1048
1047
1047
1049
1055
1059
1063
1067
1065
1067
1072
1079
1082
1079
1080
1080
1081
1081
1081
1077
1073
1071
1069
1070
1066
1061
1059
1055
1058
1057
1054
1053
1051
1052
1051
1054
1051
1054
1051
1050
1049
1052
1051
1050
1048
1049
1047
1050
1050
1045
1043
1043
1045
1047
1047
1044
1042
1040
1041
1045
1044
1044
1041
1039
1040
1043
1043
1042
1039
1039
1040
1045
1043
1042
1041
1040
1043
1044
1047
1044
1040
1041
1043
1047
1049
1048
1045
1044
1046
1048
1049
1046
1042
1045
1047
1051
1051
1047
1044
1045
1046
1047
1049
1046
1043
1045
1047
1050
1048
1045
1044
1044
1046
1046
1048
1045
1043
1042
1043
1046
1045
1043
1042
1042
1043
1045
1045
1042
1039
1040
1043
1045
1044
1042
1040
1041
1041
1043
1045
1042
1040
1039
1041
1042
1044
1039
1038
1039
1040
1044
1044
1042
1038
1037
1042
1042
1046
1043
1040
1041
1041
1044
1043
1041
1037
1039
1042
1045
1046
1044
1042
1041
1041
1044
1043
1044
1041
1040
1043
1043
1044
1042
1039
1040
1044
1048
1048
1041
1041
1041
1044
1048
1048
1045
1041
1043
1044
1049
1049
1050
1047
1049
1053
1055
1055
1054
1052
1053
1055
1060
1059
1060
1056
1055
1057
1058
1057
1055
1050
1050
1052
1055
1053
1050
1050
1052
1055
1060
1059
1057
1056
1054
1054
1058
1054
1049
1046
1046
1048
1050
1050
1048
1048
1047
1049
1049
1051
1047
1046
1044
1047
1050
1049
1050
1045
1046
1044
1048
1048
1050
1044
1046
1047
1051
1050
1050
1047
1049
1051
1054
1054
1054
1056
1060
1068
1074
1085
1094
1102
1113
1127
1149
1170
1194
1218
1247
1275
1304
1333
1362
1400
1434
1454
1449
1406
1331
1242
1161
1106
1074
1059
1047
1040
1043
1049
1052
1053
1049
1044
1041
1039
1037
1035
1033
1030
1031
1031
1033
1034
1031
1029
1027
1030
1033
1032
1032
1028
1029
1029
1032
1031
1026
1025
1023
1028
1029
1028
1023
1022
1022
1025
1026
1024
1025
1023
1019
1023
1027
1027
1024
1022
1022
1023
1025
1025
1025
1022
1023
1026
1030
1026
1027
1023
1025
1030
1032
1033
1029
1026
1026
1030
1032
1032
1032
1031
1033
1034
1037
1038
1037
1037
1040
1044
1050
1049
1050
1052
1054
1061
1064
1068
1069
1069
1075
1079
1085
1090
1090
1091
1092
1096
1103
1101
1101
1098
1098
1098
1102
1100
1096
1088
1091
1088
1087
1084
1084
1077
1075
1074
1075
1075
1072
1069
1068
1067
1070
1067
1066
1064
1064
1068
1067
1066
1066
1060
1062
1061
1064
1064
1064
1061
1060
1061
1064
1063
1062
1058
1058
1059
1060
1063
1059
1056
1055
1059
1059
1060
1055
1053
1054
1057
1058
1062
1059
1056
1056
1059
1059
1058
1057
1055
1054
1059
1061
1061
1059
1054
1056
1060
1063
1061
1060
1057
1057
1060
1062
1064
1060
1061
1059
1061
1063
1063
1061
1058
1058
1059
1062
1062
1060
1056
1055
1058
1060
1061
1058
1056
1055
1058
1059
1060
1056
1055
1055
1056
1060
1060
1055
1052
1054
1055
1059
1058
1055
1054
1051
1054
1054
1055
1054
1053
1051
1056
1054
1055
1054
1051
1050
1054
1056
1055
1054
1051
1050
1052
1054
1054
1054
1051
1050
1052
1054
1053
1053
1050
1052
1052
1056
1055
1052
1051
1051
1051
1054
1053
1051
1049
1048
1051
1054
1051
1053
1051
1051
1053
1055
1055
1052
1051
1051
1054
1056
1054
1054
1052
1055
1057
1063
1061
1062
1059
1060
1061
1065
1064
1063
1061
1062
1062
1062
1060
1058
1052
1054
1056
1059
1060
1057
1053
1056
1060
1064
1060
1061
1058
1056
1055
1056
1053
1052
1048
1050
1053
1055
1054
1051
1048
1050
1054
1053
1054
1051
1048
1047
1049
1054
1053
1051
1047
1050
1050
1050
1050
1049
1047
1048
1051
1056
1053
1051
1052
1056
1064
1072
1079
1087
1093
1103
1119
1139
1162
1188
1214
1243
1271
1299
1329
1366
1402
1426
1426
1396
1322
1223
1134
1078
1053
1046
1045
1049
1050
1050
1051
1053
1049
1045
1039
1039
1039
1040
1039
1037
1034
1035
1041
1041
1039
1037
1036
1034
1034
1038
1036
1033
1031
1032
1033
1036
1033
1028
1027
1028
1030
1033
1032
1029
1024
1027
1031
1034
1031
1027
1024
1026
1029
1031
1030
1028
1026
1026
1029
1031
1032
1031
1026
1028
1031
1035
1033
1031
1029
1031
1033
1037
1038
1037
1036
1037
1043
1045
1046
1044
1044
1049
1054
1059
1060
1060
1060
1062
1070
1075
1078
1077
1078
1084
1089
1092
1094
1095
1091
1094
1098
1101
1100
1097
1091
1091
1092
1092
1090
1083
1078
1075
1078
1077
1074
1068
1065
1064
1063
1065
1063
1060
1058
1059
1059
1061
1061
1056
1055
1054
1058
1061
1059
1053
1051
1054
1055
1058
1057
1056
1051
1050
1052
1054
1053
1052
1050
1049
1050
1051
1051
1048
1045
1045
1048
1050
1048
1047
1045
1044
1044
1045
1042
1044
1042
1042
1044
1047
1045
1044
1041
1041
1045
1048
1045
1042
1041
1041
1044
1048
1049
1046
1044
1043
1044
1047
1045
1044
1042
1044
1046
1047
1046
1043
1040
1038
1041
1045
1045
1046
1042
1042
1043
1046
1044
1041
1039
1040
1041
1044
1043
1040
1038
1040
1041
1044
1040
1039
1037
1039
1041
1042
1042
1038
1037
1037
1038
1041
1043
1038
1038
1035
1038
1042
1041
1036
1033
1034
1035
1037
1036
1034
1034
1033
1037
1041
1037
1033
1033
1033
1038
1037
1039
1033
1030
1030
1033
1037
1035
1035
1032
1031
1035
1035
1034
1033
1032
1033
1035
1036
1035
1037
1033
1037
1041
1042
1043
1042
1043
1042
1044
1048
1045
1048
1046
1045
1045
1046
1043
1043
1039
1038
1043
1046
1043
1042
1039
1041
1045
1046
1046
1043
1040
1037
1037
1038
1034
1036
1033
1034
1039
1039
1037
1035
1033
1034
1034
1038
1037
1032
1030
1030
1033
1034
1034
1033
1029
1030
1034
1037
1036
1035
1033
1034
1040
1042
1047
1046
1053
1065
1081
1092
1106
1124
1153
1187
1222
1255
1287
1324
1369
1408
1422
1392
1303
1185
1095
1047
1036
1037
1041
1038
1034
1034
1034
1035
1033
1025
1021
1020
1023
1023
1022
1020
1017
1017
1020
1020
1019
1018
1016
1016
1019
1021
1018
1014
1012
1014
1016
1018
1016
1012
1011
1011
1011
1015
1012
1011
1007
1008
1009
1009
1010
1007
1005
1009
1013
1013
1010
1009
1010
1007
1009
1011
1011
1009
1007
1010
1011
1014
1014
1013
1010
1012
1015
1016
1016
1014
1013
1016
1018
1021
1021
1021
1018
1021
1025
1028
1029
1031
1029
1030
1035
1041
1044
1043
1044
1046
1054
1057
1061
1060
1061
1066
1070
1075
1076
1076
1074
1075
1077
1080
1078
1072
1072
1072
1071
1071
1070
1063
1062
1059
1058
1061
1058
1051
1048
1048
1049
1051
1049
1046
1044
1045
1046
1047
1047
1043
1043
1044
1045
1047
1047
1043
1039
1041
1044
1046
1045
1040
1037
1038
1041
1044
1043
1039
1036
1036
1038
1039
1037
1035
1033
1036
1036
1040
1039
1036
1033
1033
1037
1040
1039
1036
1037
1036
1038
1039
1039
1036
1036
1036
1040
1041
1040
1038
1034
1037
1039
1042
1040
1039
1034
1037
1041
1042
1044
1039
1036
1038
1040
1042
1041
1036
1035
1038
1039
1041
1042
1035
1037
1037
1038
1041
1042
1040
1036
1037
1037
1040
1038
1039
1035
1036
1040
1041
1040
1035
1035
1035
1037
1041
1038
1037
1034
1032
1036
1040
1039
1035
1033
1035
1037
1040
1036
1033
1030
1032
1037
1040
1039
1035
1032
1034
1036
1038
1038
1035
1034
1035
1035
1040
1038
1035
1032
1034
1036
1039
1037
1034
1030
1032
1035
1039
1039
1037
1035
1034
1037
1040
1038
1037
1033
1034
1037
1042
1039
1035
1035
1036
1038
1040
1039
1036
1037
1036
1038
1041
1040
1039
1038
1041
1046
1049
1048
1045
1044
1046
1049
1052
1051
1049
1047
1049
1052
1052
1050
1046
1042
1044
1044
1047
1044
1043
1045
1045
1046
1049
1048
1046
1046
1048
1049
1051
1048
1044
1040
1038
1040
1043
1040
1038
1037
1038
1039
1040
1039
1039
1036
1036
1040
1042
1042
1036
1035
1037
1039
1041
1038
1037
1037
1034
1038
1039
1040
1037
1037
1036
1042
1041
1040
1039
1041
1042
1046
1051
1053
1056
1060
1069
1083
1096
1105
1113
1131
1155
1186
1214
1239
1262
1290
1317
1354
1397
1427
1441
1436
1400
1336
1254
1175
1110
1071
1047
1035
1037
1038
1037
1032
1034
1035
1036
1032
1025
1020
1019
1019
1021
1019
1017
