1011
1008
1004
1006
1007
1011
1008
1007
1004
1002
1006
1010
1007
1004
1002
1002
1002
1005
1008
1003
1001
999
1002
1001
1002
1000
999
995
998
999
1002
999
999
1000
1001
1003
1002
1001
1001
999
1002
1005
1005
1003
999
1001
1005
1008
1009
1008
1006
1008
1009
1014
1012
1013
1012
1015
1020
1023
1022
1021
1019
1024
1030
1035
1034
1034
1035
1035
1044
1048
1050
1052
1053
1056
1061
1066
1069
1070
1067
1073
1076
1080
1076
1076
1071
1072
1075
1072
1074
1070
1064
1063
1060
1062
1057
1055
1048
1046
1046
1047
1045
1040
1037
1040
1038
1041
1037
1036
1035
1034
1034
1038
1037
1032
1033
1035
1037
1040
1039
1035
1031
1029
1034
1034
1036
1033
1028
1030
1029
1032
1033
1031
1030
1027
1031
1034
1031
1031
1028
1027
1030
1032
1031
1030
1027
1026
1028
1031
1030
1029
1027
1028
1029
1033
1033
1030
1027
1030
1032
1034
1034
1031
1027
1031
1032
1035
1034
1032
1031
1030
1032
1033
1033
1030
1028
1031
1032
1034
1033
1031
1028
1030
1031
1035
1034
1030
1028
1027
1030
1033
1031
1029
1026
1029
1029
1031
1030
1027
1024
1023
1029
1029
1027
1027
1023
1025
1027
1028
1029
1025
1023
1023
1026
1026
1026
1023
1022
1023
1025
1029
1028
1024
1023
1023
1025
1026
1028
1025
1023
1022
1025
1029
1028
1025
1023
1023
1025
1029
1029
1023
1023
1024
1026
1026
1026
1026
1023
1024
1028
1030
1026
1028
1026
1024
1027
1031
1028
1026
1022
1023
1028
1027
1027
1026
1023
1024
1025
1031
1029
1028
1024
1024
1026
1029
1028
1028
1024
1027
1025
1028
1029
1027
1026
1029
1030
1031
1034
1035
1031
1034
1038
1039
1040
1038
1037
1039
1040
1044
1043
1042
1038
1037
1037
1038
1036
1034
1033
1034
1037
1041
1038
1038
1036
1037
1037
1044
1043
1039
1035
1033
1030
1033
1032
1030
1029
1028
1031
1034
1034
1032
1028
1028
1031
1034
1033
1030
1030
1027
1028
1033
1030
1028
1028
1030
1030
1032
1032
1029
1027
1029
1032
1036
1033
1033
1031
1034
1038
1050
1054
1058
1068
1080
1092
1105
1119
1140
1167
1197
1226
1255
1281
1309
1341
1379
1418
1436
1430
1385
1316
1228
1145
1085
1049
1026
1020
1019
1026
1031
1030
1028
1023
1022
1020
1019
1016
1013
1012
1009
1012
1015
1014
1012
1010
1008
1010
1013
1012
1009
1007
1008
1012
1011
1009
1006
1005
1006
1007
1008
1007
1005
1001
1001
1005
1008
1005
1003
1003
1000
1004
1005
1004
1001
1003
1003
1009
1006
1006
1003
1002
1000
1006
1009
1008
1005
1003
1002
1006
1009
1010
1008
1005
1006
1007
1011
1011
1010
1008
1008
1015
1018
1019
1021
1016
1019
1024
1029
1031
1031
1033
1036
1041
1044
1048
1048
1050
1054
1059
1065
1064
1065
1065
1069
1071
1075
1072
1070
1064
1065
1067
1070
1067
1062
1056
1052
1052
1051
1049
1046
1044
1042
1042
1040
1039
1034
1032
1032
1034
1037
1035
1031
1027
1032
1033
1040
1036
1032
1029
1029
1029
1032
1031
1030
1024
1027
1027
1031
1028
1026
1025
1025
1028
1030
1028
1024
1021
1022
1021
1023
1024
1022
1019
1020
1021
1022
1024
1020
1020
1020
1020
1025
1024
1022
1021
1020
1024
1028
1025
1021
1020
1021
1025
1026
1024
1021
1018
1019
1022
1024
1024
1020
1018
1021
1024
1025
1024
1023
1020
1019
1021
1026
1024
1022
1017
1019
1018
1023
1022
1020
1016
1015
1018
1021
1017
1017
1015
1014
1019
1023
1019
1016
1015
1015
1017
1019
1019
1020
1017
1016
1017
1020
1017
1017
1015
1016
1019
1018
1018
1016
1012
1013
1017
1018
1019
1018
1014
1013
1015
1019
1018
1016
1012
1013
1016
1017
1016
1015
1011
1013
1017
1021
1016
1011
1011
1013
1018
1019
1017
1014
1010
1013
1016
1019
1017
1015
1013
1010
1016
1014
1016
1015
1014
1014
1013
1016
1014
1011
1011
1015
1017
1020
1022
1021
1020
1020
1022
1027
1029
1025
1024
1026
1027
1030
1025
1021
1019
1021
1021
1024
1022
1020
1019
1022
1028
1028
1027
1024
1021
1021
1019
1021
1020
1015
1013
1016
1015
1019
1016
1015
1009
1011
1015
1017
1014
1012
1011
1013
1016
1016
1016
1014
1011
1014
1014
1020
1018
1015
1013
1015
1019
1023
1024
1024
1027
1034
1045
1060
1073
1080
1094
1113
1142
1174
1202
1228
1255
1288
1324
1368
1409
1428
1415
1364
1278
1179
1100
1043
1017
1009
1012
1017
1013
1013
1006
1005
1006
1003
998
994
991
992
996
997
996
993
990
989
993
992
990
988
987
987
990
990
990
987
985
987
987
992
988
986
983
982
986
988
988
984
981
982
983
988
986
983
983
983
983
986
987
985
983
983
986
988
987
983
983
983
986
990
989
987
985
986
992
992
991
989
987
989
994
996
996
992
991
995
999
1002
1004
1003
1002
1005
1009
1013
1014
1013
1014
1018
1022
1028
1029
1029
1032
1035
1039
1044
1048
1046
1047
1047
1051
1054
1054
1051
1047
1048
1048
1050
1045
1041
1039
1036
1035
1036
1035
1027
1025
1026
1026
1029
1026
1021
1019
1019
1021
1024
1021
1018
1018
1019
1018
1020
1019
1019
1015
1016
1019
1021
1016
1013
1013
1013
1018
1018
1017
1015
1012
1011
1011
1016
1016
1013
1009
1010
1012
1015
1012
1011
1009
1010
1014
1015
1011
1011
1011
1010
1013
1016
1016
1015
1009
1012
1013
1018
1017
1013
1011
1012
1011
1016
1014
1012
1011
1012
1012
1014
1012
1009
1008
1011
1014
1013
1013
1008
1004
1010
1012
1016
1011
1008
1006
1007
1008
1010
1010
1007
1005
1008
1010
1010
1008
1006
1003
1004
1008
1009
1007
1005
1005
1008
1010
1011
1009
1006
1004
1004
1009
1010
1009
1006
1007
1006
1007
1013
1007
1006
1006
1006
1007
1010
1010
1007
1005
1005
1010
1011
1010
1007
1005
1005
1010
1010
1009
1008
1005
1004
1007
1011
1009
1008
1008
1005
1009
1010
1012
1009
1007
1009
1011
1013
1011
1012
1011
1010
1015
1018
1020
1017
1017
1019
1023
1023
1023
1023
1021
1022
1025
1028
1023
1019
1015
1014
1017
1022
1020
1018
1017
1018
1019
1026
1024
1023
1018
1017
1016
1016
1014
1013
1010
1009
1014
1016
1014
1011
1009
1010
1012
1013
1014
1008
1007
1010
1013
1014
1012
1010
1010
1010
1011
1014
1015
1012
1009
1009
1010
1016
1014
1013
1011
1012
1016
1020
1023
1027
1032
1040
1053
1067
1075
1082
1094
1120
1151
1183
1214
1239
1268
1301
1336
1379
1419
1440
1436
1398
1328
1240
1150
1079
1033
1013
1008
1013
1013
1011
1010
1007
1006
1009
1004
998
994
995
994
996
994
990
988
987
991
993
994
990
989
990
994
996
992
988
985
985
988
991
991
989
986
988
990
991
990
988
989
987
992
994
993
993
989
990
993
995
997
993
991
992
994
997
996
997
995
995
997
1000
998
996
996
999
1002
1005
1004
1002
1000
1001
1007
1010
1012
1007
1005
1008
1011
1017
1018
1017
1019
1022
1027
1032
1033
1035
1038
1040
1045
1052
1054
1054
1055
1059
1064
1071
1070
1071
1069
1068
1072
1074
1071
1069
1067
1067
1065
1066
1059
1055
1049
1052
1049
1050
1046
1041
1036
1035
1034
1037
1035
1032
1030
1029
1031
1033
1033
1029
1029
1029
1032
1033
1032
1030
1027
1028
1033
1035
1031
1028
1028
1030
1030
1030
1028
1027
1023
1022
1027
1029
1027
1023
1022
1024
1026
1033
1038
1042
1054
1076
1103
1126
1136
1137
1128
1115
1091
1048
977
891
796
709
655
632
621
616
612
628
648
671
695
726
751
781
804
823
839
852
867
881
897
912
920
925
929
938
948
956
966
978
982
996
1008
1020
1029
1035
1038
1046
1053
1059
1057
1056
1053
1055
1061
1062
1065
1065
1068
1072
1075
1079
1077
1080
1076
1080
1082
1085
1083
1080
1082
1085
1089
1095
1097
1098
1097
1100
1104
1109
1112
1111
1112
1114
1120
1125
1127
1129
1132
1139
1146
1150
1152
1152
1156
1162
1172
1180
1186
1187
1187
1193
1202
1211
1214
1217
1223
1229
1235
1244
1246
1248
1251
1253
1257
1262
1264
1262
1260
1258
1255
1258
1250
1247
1241
1238
1233
1229
1221
1210
1200
1194
1189
1183
1173
1165
1157
1153
1147
1138
1129
1120
1110
1107
1103
1098
1092
1083
1076
1073
1069
1067
1061
1057
1051
1050
1052
1049
1047
1041
1038
1039
1040
1043
1038
1035
1031
1033
1035
1035
1032
1029
1028
1030
1032
1034
1032
1028
1025
1024
1027
1030
1026
1023
1024
1023
1024
1025
1025
1021
1019
1020
1021
1022
1017
1014
1012
1015
1018
1017
1015
1010
1005
1007
1011
1011
1007
1003
1002
1005
1006
1006
1005
1001
1001
999
1003
1004
1003
999
997
998
1000
1002
1001
997
997
999
999
1001
1002
997
994
994
999
999
999
995
994
996
997
999
997
996
993
994
995
998
997
997
995
992
996
1000
999
996
994
994
996
995
997
995
993
994
996
997
998
995
994
994
995
998
997
995
992
993
996
997
995
994
992
995
998
998
998
995
991
994
997
1000
998
994
994
994
998
998
997
993
990
995
998
999
995
996
993
995
997
998
999
994
993
994
997
999
996
996
993
994
998
998
999
995
992
993
997
996
996
993
991
994
996
996
998
993
991
993
998
999
995
995
992
995
997
1000
999
994
992
991
994
998
997
995
994
994
997
997
996
995
990
992
994
999
999
996
995
996
999
999
997
994
994
995
999
998
998
993
994
994
998
1003
998
996
994
996
999
1002
999
997
997
998
999
1001
1002
997
996
999
1001
1004
1002
999
998
999
1001
1002
1001
1000
998
1002
1002
1005
1001
998
997
998
1003
1006
1003
1001
999
999
1000
1003
1003
1001
1001
1001
1002
1005
1004
1000
1001
1001
1004
1005
1002
1000
998
1002
1001
1005
1004
1002
1000
1002
1003
1006
1003
1003
1000
1002
1006
1007
1005
1003
1002
1003
1005
1008
1008
1004
1003
1003
1007
1008
1007
1004
1004
1005
1008
1011
1010
1004
1006
1005
1009
1008
1009
1008
1005
1004
1003
1009
1007
1004
1001
1006
1007
1008
1006
1007
1004
1003
1007
1008
1009
1005
1003
1004
1006
1010
1008
1008
1005
1005
1006
1010
1006
1005
1005
1005
1008
1010
1007
1004
1004
1005
1009
1011
1010
1007
1005
1006
1010
1014
1011
1009
1009
1011
1013
1014
1013
1010
1011
1012
1018
1021
1022
1019
1019
1021
1024
1025
1027
1024
1021
1025
1025
1026
1026
1020
1018
1020
1023
1023
1022
1018
1016
1018
1022
1024
1025
1021
1019
1018
1020
1021
1019
1015
1012
1012
1012
1013
1013
1011
1009
1013
1014
1016
1014
1012
1010
1013
1014
1016
1013
1012
1011
1011
1014
1015
1013
1010
1012
1015
1017
1019
1018
1015
1015
1017
1021
1028
1029
1033
1036
1048
1060
1065
1072
1083
1104
1133
1161
1194
1226
1257
1292
1333
1375
1416
1431
1419
1371
1298
1212
1135
1075
1034
1019
1019
1023
1023
1020
1015
1012
1014
1011
1009
1003
998
997
997
1000
998
996
995
991
992
994
995
994
990
987
989
994
992
991
989
986
989
991
992
991
989
988
989
991
994
992
987
984
990
991
997
994
991
989
992
992
995
994
992
991
994
995
997
996
994
995
995
1000
1000
1000
996
995
997
1000
1002
1003
1002
1000
1003
1007
1008
1007
1002
1003
1007
1010
1013
1012
1005
1009
1010
1014
1018
1017
1014
1015
1016
1018
1021
1022
1021
1024
1027
1032
1033
1034
1031
1032
1035
1043
1050
1048
1051
1054
1052
1059
1063
1064
1064
1062
1065
1070
1073
1070
1070
1068
1069
1073
1073
1070
1064
1061
1062
1064
1063
1060
1057
1053
1052
1054
1055
1049
1046
1046
1045
1049
1048
1045
1043
1040
1040
1042
1042
1041
1039
1039
1040
1041
1040
1040
1037
1034
1035
1038
1036
1036
1033
1032
1035
1037
1037
1037
1034
1032
1032
1035
1037
1036
1034
1032
1034
1035
1035
1035
1029
1030
1032
1035
1036
1031
1029
1028
1030
1034
1035
1031
1027
1024
1027
1029
1032
1031
1026
1024
1025
1026
1027
1023
1021
1021
1023
1024
1024
1021
1020
1019
1021
1025
1024
1021
1019
1020
1019
1021
1021
1019
1015
1017
1018
1022
1021
1016
1014
1013
1018
1018
1018
1017
1016
1015
1015
1018
1022
1019
1015
1016
1012
1014
1016
1018
1016
1016
1015
1015
1017
1013
1010
1013
1013
1014
1016
1014
1011
1011
1014
1018
1017
1017
1013
1010
1013
1017
1019
1016
1015
1009
1014
1016
1016
1015
1015
1015
1014
1014
1017
1014
1013
1015
1016
1018
1022
1023
1021
1023
1024
1026
1026
1028
1023
1022
1024
1029
1029
1025
1020
1015
1019
1022
1022
1022
1019
1020
1020
1022
1025
1024
1024
1020
1023
1026
1026
1022
1015
1010
1011
1017
1019
1018
1016
1015
1011
1014
1015
1013
1013
1011
1013
1014
1016
1013
1011
1011
1011
1017
1016
1018
1014
1011
1013
1015
1016
1013
1014
1011
1016
1019
1022
1021
1018
1021
1028
1037
1046
1053
1063
1069
1079
1092
1110
1133
1159
1185
1215
1247
1276
1307
1342
1380
1409
1417
1388
1318
1223
1134
1072
1036
1017
1012
1013
1012
1013
1015
1016
1012
1007
1004
1002
1003
1003
999
992
989
992
994
995
994
994
989
992
993
995
992
990
987
991
991
991
991
984
984
985
987
990
989
984
982
986
987
989
988
986
981
984
984
986
986
984
984
984
990
988
989
984
984
984
987
988
987
987
985
988
989
989
987
984
983
985
987
989
987
986
987
989
989
992
989
988
990
992
993
996
997
993
995
997
1002
1002
1003
1001
1004
1008
1011
1014
1013
1012
1013
1019
1024
1026
1025
1026
1027
1033
1036
1038
1036
1036
1037
1038
1040
1042
1041
1035
1032
1034
1033
1036
1034
1028
1027
1026
1028
1027
1022
1020
1018
1019
1023
1023
1020
1017
1017
1019
1020
1020
1016
1015
1014
1015
1014
1015
1013
1012
1010
1013
1015
1017
1014
1011
1012
1012
1013
1014
1014
1010
1009
1011
1014
1014
1015
1013
1010
1015
1015
1020
1016
1014
1013
1015
1016
1018
1014
1014
1011
1011
1017
1016
1017
1014
1011
1014
1014
1016
1014
1012
1012
1014
1018
1018
1013
1011
1010
1012
1013
1014
1012
1010
1010
1010
1013
1015
1012
1010
1008
1010
1012
1014
1014
1008
1007
1008
1010
1009
1008
1006
1004
1004
1007
1010
1010
1007
1007
1009
1011
1011
1008
1005
1003
1008
1007
1009
1008
1007
1004
1005
1008
1010
1008
1007
1006
1007
1012
1010
1006
1006
1005
1007
1011
1013
1010
1007
1004
1007
1010
1015
1010
1008
1006
1007
1010
1012
1009
1007
1005
1010
1012
1011
1010
1009
1006
1011
1015
1017
1013
1011
1012
1013
1015
1015
1015
1014
1013
1016
1020
1020
1019
1017
1018
1020
1021
1026
1023
1023
1019
1025
1029
1030
1029
1023
1022
1026
1028
1027
1023
1019
1017
1021
1023
1023
1021
1021
1021
1024
1028
1031
1028
1024
1022
1021
1026
1024
1023
1016
1015
1017
1020
1021
1020
1017
1014
1021
1022
1023
1020
1016
1015
1019
1022
1023
1020
1018
1015
1019
1020
1022
1018
1017
1015
1017
1018
1019
1018
1019
1021
1030
1037
1046
1049
1055
1067
1077
1098
1117
1146
1176
1203
1240
1272
1303
1339
1381
1417
1443
1436
1392
1307
1208
1123
1068
1035
1022
1018
1018
1017
1020
1019
1019
1016
1011
1005
1003
1003
999
996
993
993
996
1001
1000
1000
994
993
992
994
993
993
990
990
991
995
994
990
988
987
988
990
991
988
986
984
989
990
989
990
986
985
989
992
992
991
988
988
992
993
994
992
987
985
987
991
991
993
990
991
989
994
998
995
993
993
997
997
1002
998
995
996
1001
1005
1007
1006
1007
1005
1010
1015
1015
1018
1018
1021
1024
1029
1032
1035
1035
1036
1043
1044
1048
1050
1048
1049
1056
1060
1062
1063
1061
1059
1059
1061
1060
1056
1050
1051
1052
1054
1050
1049
1044
1042
1039
1042
1041
1040
1035
1033
1035
1035
1037
1036
1033
1030
1033
1034
1033
1032
1028
1027
1030
1034
1032
1030
1027
1027
1029
1031
1030
1030
1027
1027
1027
1030
1030
1025
1025
1027
1029
1033
1032
1029
1025
1023
1025
1029
1031
1030
1026
1026
1031
1033
1034
1033
1029
1028
1032
1034
1036
1035
1033
1034
1034
1036
1033
1033
1028
1029
1031
1031
1033
1031
1028
1028
1030
1032
1032
1030
1027
1027
1028
1033
1032
1028
1025
1023
1024
1025
1027
1026
1025
1027
1028
1026
1027
1024
1024
1022
1023
1025
1027
1025
1023
1022
1024
1026
1026
1026
1020
1021
1020
1025
1026
1022
1021
1018
1021
1024
1023
1022
1020
1018
1017
1020
1023
1021
1018
1018
1024
1025
1025
1024
1020
1018
1022
1025
1024
1024
1022
1021
1023
1025
1027
1024
1020
1022
1023
1025
1025
1025
1024
1022
1023
1027
1026
1021
1020
1021
1025
1029
1030
1028
1027
1028
1029
1033
1036
1036
1032
1030
1033
1036
1034
1031
1026
1025
1024
1029
1031
1028
1025
1024
1028
1032
1031
1032
1028
1027
1026
1026
1025
1022
1018
1019
1023
1024
1023
1020
1020
1019
1021
1022
1021
1019
1017
1016
1018
1022
1022
1020
1018
1018
1020
1023
1024
1022
1022
1023
1025
1026
1027
1026
1030
1029
1039
1046
1055
1062
1069
1085
1098
1122
1150
1178
1205
1236
1267
1300
1330
1366
1400
1435
1445
1431
1379
1284
1186
1107
1063
1044
1033
1025
1021
1022
1023
1024
1020
1018
1012
1008
1005
1007
1004
1002
1001
998
999
1001
998
999
997
997
997
999
1000
997
993
992
994
996
998
995
992
993
993
993
995
993
990
989
993
992
994
992
988
988
992
991
992
991
990
988
992
992
992
992
990
990
992
996
994
994
993
993
995
997
997
993
990
990
993
995
998
996
995
995
998
1000
1002
1002
1002
1003
1007
1009
1010
1011
1012
1014
1019
1024
1024
1026
1026
1029
1036
1043
1046
1044
1044
1048
1049
1054
1055
1056
1057
1054
1056
1057
1055
1053
1050
1047
1050
1048
1045
1043
1038
1038
1037
1038
1037
1035
1030
1029
1030
1031
1030
1028
1025
1025
1027
1029
1031
1028
1024
1025
1026
1028
1027
1024
1021
1021
1023
1026
1027
1028
1024
1023
1027
1030
1034
1032
1028
1026
1027
1032
1033
1031
1026
1029
1028
1032
1030
1029
1026
1025
1028
1030
1031
1028
1026
1026
1028
1033
1030
1025
1025
1022
1025
1027
1025
1023
1021
1020
1024
1026
1027
1025
1023
1023
1024
1026
1024
1025
1021
1021
1023
1026
1026
1023
1020
1018
1021
1022
1025
1022
1021
1018
1021
1024
1023
1024
1020
1020
1021
1026
1024
1020
1019
1019
1021
1024
1024
1022
1019
1017
1018
1024
1024
1023
1020
1020
1022
1024
1021
1022
1017
1020
1022
1026
1025
1022
1020
1017
1019
1023
1023
1023
1023
1021
1020
1025
1024
1019
1017
1018
1021
1024
1024
1023
1019
1019
1022
1026
1025
1025
1020
1022
1024
1029
1032
1031
1026
1028
1031
1036
1037
1034
1031
1031
1033
1036
1037
1034
1031
1032
1032
1034
1034
1030
1027
1028
1031
1034
1035
1034
1033
1030
1033
1035
1035
1035
1027
1025
1026
1030
1030
1025
1023
1023
1025
1027
1027
1024
1020
1022
1023
1027
1026
1025
1021
1022
1025
1027
1023
1024
1022
1023
1025
1025
1025
1021
1020
1022
1025
1029
1030
1031
1029
1035
1041
1051
1064
1075
1085
1097
1119
1151
1183
1219
1249
1286
1319
1355
1393
1431
1456
1457
1423
1352
1248
1150
1080
1044
1031
1027
1030
1026
1024
1023
1022
1021
1018
1010
1003
1001
1001
1006
1004
1003
999
997
1000
1001
1004
1003
998
997
999
999
998
995
992
991
995
997
998
994
991
988
991
994
997
992
994
989
991
990
990
990
988
987
990
990
991
990
986
988
990
992
991
989
990
987
991
992
992
988
989
989
990
991
989
987
983
984
991
994
994
993
990
992
991
997
997
999
995
996
996
1002
1005
1006
1007
1011
1013
1018
1020
1020
1020
1020
1029
1034
1038
1035
1036
1039
1044
1050
1051
1050
1044
1046
1052
1056
1058
1054
1052
1053
1053
1051
1049
1046
1042
1041
1042
1045
1042
1037
1032
1032
1035
1033
1029
1026
1022
1019
1023
1027
1026
1025
1022
1022
1026
1026
1025
1022
1017
1019
1022
1022
1021
1019
1016
1018
1018
1017
1013
1015
1013
1013
1014
1013
1014
1015
1013
1016
1019
1022
1021
1016
1011
1011
1015
1018
1021
1019
1016
1016
1019
1021
1022
1018
1016
1019
1022
1023
1024
