1034
1033
1036
1028
1027
1022
1021
1020
1019
1019
1018
1013
1016
1017
1018
1016
1013
1011
1009
1009
1011
1014
1010
1009
1012
1012
1011
1009
1005
1006
1008
1009
1010
1009
1006
1007
1008
1012
1011
1010
1007
1005
1008
1010
1009
1008
1007
1005
1005
1008
1008
1008
1003
1002
1008
1011
1012
1010
1007
1009
1010
1012
1013
1011
1010
1008
1012
1014
1013
1012
1010
1011
1014
1016
1015
1013
1012
1011
1015
1019
1018
1015
1012
1013
1012
1011
1012
1010
1010
1009
1011
1013
1013
1012
1007
1008
1011
1010
1013
1008
1007
1007
1009
1010
1010
1011
1007
1007
1009
1009
1011
1009
1009
1008
1006
1008
1011
1010
1006
1004
1008
1011
1011
1008
1008
1005
1007
1010
1013
1010
1009
1004
1005
1009
1012
1011
1007
1005
1012
1009
1011
1010
1007
1007
1009
1011
1010
1011
1007
1007
1010
1012
1013
1010
1008
1008
1010
1013
1013
1012
1009
1011
1011
1015
1012
1014
1012
1009
1011
1014
1015
1013
1011
1013
1017
1017
1020
1020
1018
1017
1022
1027
1032
1033
1037
1045
1061
1079
1109
1133
1149
1157
1155
1145
1117
1071
1002
919
822
727
665
640
625
618
616
624
643
667
696
728
759
790
813
832
843
860
875
892
906
915
923
931
942
956
967
976
983
992
1001
1011
1018
1026
1026
1032
1037
1044
1050
1050
1048
1049
1055
1060
1061
1061
1062
1062
1066
1069
1071
1073
1071
1071
1075
1080
1084
1081
1082
1080
1084
1091
1093
1094
1092
1094
1096
1101
1104
1104
1103
1107
1112
1118
1121
1123
1122
1127
1134
1141
1146
1147
1149
1154
1162
1171
1179
1184
1188
1192
1202
1208
1214
1219
1219
1221
1223
1227
1225
1222
1218
1212
1210
1205
1202
1193
1185
1175
1172
1166
1162
1152
1143
1136
1133
1125
1119
1109
1101
1093
1089
1084
1079
1075
1067
1063
1061
1058
1055
1051
1047
1042
1040
1044
1040
1040
1035
1033
1032
1033
1034
1031
1029
1029
1030
1031
1030
1027
1022
1024
1024
1028
1028
1025
1022
1019
1020
1023
1025
1020
1022
1018
1019
1020
1022
1017
1016
1015
1016
1016
1018
1016
1014
1015
1013
1015
1013
1014
1009
1006
1010
1012
1012
1008
1006
1006
1009
1009
1007
1006
1003
1001
1004
1006
1006
1004
998
996
998
1002
1002
997
998
997
999
1001
999
998
997
996
999
1001
1003
999
998
997
999
1002
1001
998
996
995
998
1000
998
996
993
994
995
996
999
999
997
996
997
998
998
997
992
992
998
1000
1000
997
998
996
995
998
1000
995
992
994
995
998
998
998
995
996
1001
1001
1000
997
995
998
1000
1003
1001
997
993
993
998
1005
1002
999
996
997
998
1000
1004
1001
999
998
998
1000
999
999
998
998
998
1003
1001
1000
997
998
999
1004
1002
1000
998
998
999
1004
1003
1003
998
998
999
1005
1004
1002
1001
996
1001
1003
1003
1000
999
997
1000
1001
1001
999
997
997
1000
1003
1003
1000
1000
1000
1004
1005
1001
1000
998
999
1000
1004
1003
1003
999
1000
1001
1005
1007
1004
999
1004
1003
1005
1001
1004
998
1001
1001
1007
1006
1003
1000
1000
1005
1006
1008
1008
1009
1008
1013
1015
1015
1015
1011
1010
1015
1016
1017
1014
1009
1008
1010
1010
1011
1010
1007
1007
1011
1014
1012
1010
1010
1009
1015
1015
1016
1015
1011
1008
1008
1011
1007
1007
1004
1004
1006
1006
1007
1005
1002
1004
1006
1007
1008
1006
1005
1001
1005
1008
1009
1008
1007
1006
1007
1008
1008
1009
1008
1008
1012
1014
1015
1014
1014
1016
1026
1034
1043
1052
1061
1070
1083
1103
1128
1157
1184
1215
1246
1280
1312
1350
1389
1417
1428
1400
1328
1229
1133
1066
1032
1021
1025
1020
1016
1013
1014
1014
1010
1004
998
997
997
996
996
996
989
993
992
994
995
993
989
986
988
993
990
988
983
984
987
987
987
984
981
981
983
987
986
984
981
980
981
986
983
983
979
981
978
982
984
979
977
979
982
982
982
981
977
979
984
984
984
981
978
979
982
986
985
983
980
982
985
988
988
986
983
985
990
991
995
993
992
991
994
1000
1001
1001
1000
1003
1007
1012
1015
1011
1014
1016
1024
1027
1031
1032
1034
1038
1040
1047
1047
1048
1050
1049
1055
1057
1057
1055
1052
1050
1052
1052
1051
1047
1043
1042
1042
1043
1041
1038
1035
1033
1032
1034
1028
1028
1023
1023
1024
1027
1027
1023
1019
1019
1022
1023
1021
1022
1018
1017
1021
1024
1020
1019
1017
1017
1020
1022
1023
1019
1015
1017
1019
1022
1020
1019
1014
1016
1018
1019
1018
1017
1012
1013
1015
1019
1019
1016
1015
1014
1014
1017
1020
1016
1014
1014
1015
1017
1019
1016
1013
1013
1017
1018
1020
1017
1016
1016
1019
1021
1021
1019
1018
1019
1020
1024
1023
1022
1019
1020
1023
1025
1023
1022
1019
1020
1020
1024
1024
1024
1019
1019
1021
1022
1023
1020
1016
1018
1024
1022
1022
1017
1014
1015
1019
1022
1020
1018
1015
1014
1019
1021
1020
1017
1015
1014
1019
1021
1020
1017
1016
1016
1016
1020
1020
1016
1013
1015
1016
1018
1018
1017
1017
1015
1019
1021
1019
1016
1015
1014
1017
1020
1018
1017
1014
1014
1015
1019
1021
1019
1016
1015
1019
1022
1020
1018
1014
1015
1019
1023
1018
1019
1018
1017
1017
1021
1022
1018
1016
1017
1018
1021
1019
1019
1016
1018
1020
1021
1020
1019
1018
1015
1021
1022
1022
1020
1016
1020
1022
1026
1027
1025
1026
1027
1029
1031
1033
1028
1028
1030
1031
1031
1031
1027
1023
1024
1026
1028
1027
1026
1021
1026
1027
1031
1030
1030
1027
1027
1027
1031
1031
1023
1019
1019
1019
1022
1021
1020
1020
1021
1022
1024
1024
1022
1020
1021
1022
1024
1025
1020
1020
1019
1022
1021
1023
1019
1020
1020
1023
1026
1023
1019
1018
1020
1023
1028
1028
1028
1026
1030
1037
1045
1052
1062
1071
1080
1091
1107
1126
1150
1173
1201
1230
1260
1288
1320
1357
1395
1426
1441
1429
1386
1323
1244
1170
1112
1070
1042
1025
1022
1023
1027
1024
1021
1017
1018
1016
1017
1010
1007
1004
1004
1005
1006
1003
1003
998
1000
1002
1004
1003
1000
997
995
997
999
1000
999
998
995
996
998
996
995
994
994
997
998
998
994
990
992
994
995
996
995
996
995
996
998
998
994
992
993
999
1001
1002
998
998
996
998
1001
1002
1001
998
1000
1001
1005
1005
1001
998
1002
1005
1007
1007
1007
1003
1005
1009
1014
1013
1011
1013
1017
1021
1024
1024
1022
1025
1027
1029
1037
1039
1044
1041
1046
1051
1059
1060
1063
1061
1067
1072
1076
1078
1077
1075
1075
1080
1081
1078
1075
1072
1070
1071
1071
1069
1065
1063
1060
1058
1057
1056
1052
1051
1050
1050
1051
1047
1042
1039
1037
1040
1042
1040
1040
1037
1038
1041
1045
1043
1038
1036
1037
1040
1041
1039
1038
1039
1039
1040
1047
1040
1040
1037
1036
1038
1042
1037
1037
1035
1035
1033
1034
1031
1031
1029
1031
1032
1032
1031
1029
1024
1028
1029
1036
1033
1031
1031
1028
1031
1035
1035
1031
1029
1032
1035
1036
1035
1034
1032
1032
1037
1037
1038
1035
1035
1036
1037
1040
1038
1032
1032
1032
1035
1035
1037
1035
1034
1034
1035
1037
1036
1032
1030
1030
1031
1035
1035
1031
1027
1029
1034
1037
1034
1031
1029
1029
1030
1030
1031
1027
1025
1027
1028
1031
1031
1028
1028
1026
1031
1034
1032
1028
1027
1028
1030
1031
1031
1028
1025
1025
1030
1031
1033
1029
1029
1025
1031
1034
1032
1030
1024
1026
1029
1031
1031
1031
1026
1027
1030
1031
1028
1027
1029
1028
1028
1033
1029
1028
1027
1029
1030
1031
1029
1029
1027
1029
1032
1034
1031
1026
1027
1028
1033
1037
1037
1036
1033
1033
1033
1036
1038
1038
1038
1040
1040
1043
1041
1037
1034
1038
1038
1037
1037
1034
1034
1035
1039
1040
1039
1037
1037
1036
1038
1039
1038
1033
1032
1031
1029
1032
1030
1028
1029
1029
1032
1034
1033
1030
1026
1026
1029
1034
1032
1029
1027
1027
1031
1033
1034
1032
1033
1032
1035
1035
1036
1034
1031
1034
1038
1040
1042
1046
1051
1059
1069
1083
1092
1096
1110
1129
1159
1193
1218
1243
1267
1295
1325
1363
1398
1419
1415
1376
1299
1212
1130
1075
1043
1032
1033
1040
1037
1032
1032
1030
1030
1026
1020
1019
1015
1018
1020
1019
1018
1014
1015
1014
1017
1017
1016
1013
1010
1010
1014
1016
1015
1012
1008
1011
1013
1012
1010
1011
1010
1010
1011
1014
1012
1010
1008
1010
1010
1013
1012
1011
1008
1009
1009
1012
1011
1007
1007
1011
1010
1013
1011
1011
1010
1011
1016
1017
1016
1013
1012
1012
1018
1020
1021
1018
1015
1020
1022
1027
1027
1024
1024
1030
1033
1037
1037
1037
1039
1039
1046
1050
1053
1052
1052
1056
1061
1067
1070
1071
1071
1076
1079
1082
1082
1079
1079
1079
1082
1081
1078
1074
1071
1070
1069
1068
1065
1058
1055
1053
1055
1054
1053
1049
1045
1046
1048
1049
1046
1044
1040
1042
1044
1046
1041
1041
1040
1041
1042
1043
1044
1041
1039
1038
1040
1043
1040
1038
1039
1038
1038
1042
1040
1039
1035
1033
1037
1041
1037
1036
1031
1034
1035
1039
1036
1035
1034
1035
1036
1039
1039
1035
1037
1037
1039
1040
1041
1038
1037
1039
1045
1043
1043
1039
1036
1039
1043
1046
1044
1041
1037
1039
1042
1044
1043
1038
1040
1039
1041
1044
1042
1037
1035
1036
1038
1042
1041
1040
1036
1036
1039
1037
1038
1037
1034
1035
1039
1039
1039
1035
1034
1034
1037
1040
1036
1036
1034
1034
1036
1039
1038
1034
1032
1035
1036
1038
1034
1033
1033
1032
1035
1037
1037
1032
1029
1030
1035
1036
1033
1032
1028
1031
1035
1034
1035
1032
1032
1031
1035
1036
1035
1031
1029
1030
1034
1034
1035
1035
1030
1031
1033
1035
1037
1036
1031
1031
1036
1037
1033
1032
1028
1032
1036
1038
1037
1036
1031
1035
1039
1043
1042
1042
1041
1042
1043
1049
1048
1047
1045
1047
1049
1052
1052
1048
1046
1046
1048
1047
1047
1044
1041
1042
1044
1046
1045
1045
1047
1048
1048
1052
1050
1048
1042
1040
1041
1043
1040
1035
1037
1037
1039
1042
1042
1038
1039
1038
1040
1041
1038
1035
1034
1036
1040
1043
1040
1037
1035
1037
1041
1044
1040
1038
1037
1035
1041
1043
1045
1044
1044
1049
1057
1064
1071
1081
1086
1095
1107
1127
1150
1176
1198
1227
1259
1289
1320
1352
1393
1421
1434
1411
1359
1279
1191
1126
1082
1058
1040
1033
1034
1036
1039
1042
1040
1036
1033
1029
1027
1029
1025
1022
1020
1021
1024
1025
1024
1020
1016
1017
1020
1023
1018
1017
1014
1018
1023
1021
1023
1020
1016
1017
1016
1018
1017
1015
1015
1014
1015
1018
1016
1013
1011
1015
1018
1020
1018
1015
1015
1015
1019
1019
1017
1017
1014
1016
1018
1021
1020
1017
1015
1019
1023
1022
1023
1021
1020
1022
1023
1028
1030
1027
1025
1025
1030
1035
1035
1033
1037
1036
1042
1044
1045
1045
1047
1053
1056
1061
1063
1062
1064
1071
1074
1081
1080
1080
1085
1086
1091
1092
1091
1089
1089
1090
1088
1089
1088
1083
1075
1076
1075
1074
1071
1066
1061
1060
1058
1059
1054
1053
1050
1052
1051
1053
1051
1047
1044
1045
1048
1048
1046
1044
1044
1047
1046
1047
1048
1045
1043
1045
1046
1048
1047
1045
1043
1042
1046
1043
1043
1041
1039
1041
1042
1044
1042
1041
1042
1040
1044
1044
1040
1041
1037
1042
1041
1044
1041
1038
1037
1038
1041
1043
1041
1040
1040
1041
1044
1044
1043
1042
1041
1044
1046
1046
1046
1041
1039
1039
1043
1047
1048
1043
1040
1040
1044
1044
1046
1045
1041
1043
1046
1047
1044
1042
1039
1042
1043
1046
1042
1039
1038
1041
1043
1044
1042
1042
1039
1040
1043
1044
1043
1041
1040
1041
1045
1046
1044
1038
1040
1041
1042
1045
1041
1039
1038
1042
1041
1041
1043
1038
1039
1042
1042
1043
1040
1038
1039
1041
1045
1044
1042
1039
1040
1041
1042
1043
1043
1038
1036
1039
1041
1044
1042
1039
1038
1038
1042
1043
1043
1041
1038
1040
1042
1045
1042
1038
1037
1042
1047
1049
1044
1038
1039
1041
1044
1046
1049
1050
1048
1050
1052
1053
1053
1052
1055
1055
1057
1059
1057
1054
1050
1050
1053
1052
1051
1048
1047
1047
1050
1054
1050
1051
1049
1051
1053
1054
1053
1047
1044
1045
1043
1047
1045
1044
1040
1042
1046
1046
1044
1039
1038
1041
1044
1046
1042
1041
1041
1041
1042
1045
1041
1041
1040
1042
1045
1045
1044
1041
1042
1046
1046
1049
1051
1050
1053
1062
1073
1080
1090
1097
1103
1118
1139
1162
1187
1209
1230
1259
1286
1315
1348
1383
1415
1421
1399
1346
1260
1171
1106
1069
1045
1036
1035
1034
1037
1037
1041
1038
1033
1029
1025
1024
1025
1026
1025
1021
1018
1020
1023
1023
1022
1019
1020
1021
1022
1023
1023
1018
1018
1018
1020
1022
1019
1016
1013
1014
1017
1016
1015
1012
1012
1013
1015
1015
1014
1011
1009
1009
1012
1013
1011
1011
1008
1013
1012
1013
1012
1009
1010
1013
1015
1015
1013
1011
1011
1013
1017
1016
1016
1014
1015
1015
1021
1021
1020
1019
1018
1020
1023
1025
1026
1024
1024
1030
1035
1037
1036
1036
1040
1043
1047
1051
1052
1054
1056
1062
1070
1074
1075
1076
1075
1078
1081
1084
1081
1081
1081
1081
1080
1080
1077
1073
1069
1065
1067
1063
1062
1055
1053
1052
1054
1055
1049
1047
1046
1045
1047
1047
1046
1043
1042
1042
1044
1045
1041
1039
1039
1039
1041
1046
1042
1039
1036
1038
1040
1040
1037
1035
1033
1033
1039
1038
1036
1034
1032
1032
1031
1033
1034
1030
1028
1030
1031
1031
1031
1027
1026
1028
1033
1032
1033
1028
1029
1027
1032
1035
1032
1029
1030
1032
1033
1034
1032
1030
1030
1033
1037
1038
1032
1031
1029
1031
1033
1034
1033
1031
1027
1029
1031
1033
1029
1029
1028
1029
1033
1031
1030
1028
1025
1029
1030
1029
1029
1024
1025
1027
1028
1029
1025
1024
1023
1025
1026
1026
1027
1023
1022
1024
1025
1024
1024
1020
1017
1023
1025
1022
1021
1020
1019
1021
1025
1026
1023
1021
1020
1022
1025
1024
1024
1021
1019
1020
1021
1025
1022
1017
1016
1022
1021
1023
1022
1019
1018
1019
1025
1024
1024
1025
1025
1026
1031
1032
1030
1026
1028
1030
1034
1035
1032
1030
1029
1027
1030
1030
1027
1023
1024
1025
1030
1028
1028
1024
1024
1026
1032
1031
1029
1025
1025
1026
1026
1023
1021
1018
1018
1019
1023
1021
1020
1019
1018
1017
1021
1022
1020
1016
1016
1016
1018
1021
1019
1019
1019
1018
1020
1021
1021
1020
1018
1019
1023
1024
1022
1021
1023
1023
1025
1031
1034
1034
1040
1047
1062
1073
1081
1086
1103
1126
1157
1188
1213
1237
1266
1295
1333
1375
1411
1435
1433
1405
1347
1266
1182
1115
1070
1037
1024
1019
1019
1016
1015
1017
1020
1018
1013
1009
1004
1005
1006
1004
1001
998
1000
1000
1003
1001
1000
1000
999
1004
1003
1003
1001
996
996
996
998
1000
998
995
994
995
996
998
996
993
991
995
995
997
991
989
991
994
995
996
995
993
993
994
998
1000
997
995
995
996
1000
1001
999
1000
1001
1003
1005
1008
1005
1002
1003
1007
1012
1012
1011
1012
1010
1013
1018
1021
1023
1021
1023
1027
1031
1033
1035
1036
1038
1042
1048
1051
1051
1052
1056
1062
1069
1071
1073
1069
1073
1076
1080
1078
1079
1075
1071
1072
1072
1071
1067
1064
1060
1060
1059
1057
1054
1050
1046
1044
1047
1044
1044
1038
1037
1039
1040
1040
1036
1034
1035
1037
1039
1039
1035
1034
1033
1036
1038
1036
1035
1032
1033
1034
1036
1036
1033
1032
1030
1031
1035
1037
1032
1030
1032
1034
1035
1032
1033
1028
1030
1031
1033
1032
1033
1027
1026
1031
1031
1032
1029
1028
1029
1030
1031
1032
1034
1030
1030
1033
1035
1035
1035
1032
1032
1035
1038
1038
1037
1034
1034
1037
1037
1040
1038
1039
1034
1036
1039
1039
1036
1032
1033
1038
1039
1041
1040
1036
1034
1034
1038
1039
1038
1035
1034
1039
1040
1038
1035
1034
1033
1035
1037
1038
1037
1034
1035
1035
1038
1037
1034
1034
1036
1036
1039
1038
1038
1035
1036
1037
1041
1039
1038
1033
1036
1037
1039
1041
1039
1039
1039
1040
1043
1038
1038
1035
1036
1039
1043
1041
1039
1037
1036
1041
1043
1044
1042
1041
1039
1041
1041
1044
1041
1041
1040
1042
1045
1046
1045
1040
1040
1043
1044
1045
1044
1042
1040
1042
1045
1045
1043
1041
1045
1046
1048
1047
1044
1044
1043
1048
1049
1051
1049
1049
1050
1053
1057
1059
1059
1054
1054
1057
1061
1063
1060
1055
1052
1054
1057
1055
1053
1052
1051
1055
1058
1059
1055
1054
1056
1055
1059
1058
1058
1051
1051
1049
1050
1052
1049
1049
1047
1049
1052
1052
1049
1047
1048
1049
1052
1051
1048
1046
1048
1048
1052
1050
1048
1046
1047
1048
1051
1051
1051
1047
1051
1050
1052
1051
1052
1052
1055
1059
1070
1073
1082
1085
1098
1109
1120
1133
1153
1174
1200
1231
1259
1282
1308
1332
1368
1406
1438
1445
1424
1379
1308
1227
1163
1108
1072
1048
1042
1042
1051
1050
1050
1045
1045
1046
1045
1040
1037
1032
1032
1033
1038
1035
1033
1033
1032
1033
1034
1034
1033
1030
1028
1030
1032
1031
1029
1028
1029
1032
1033
1032
1028
1025
1024
1028
1029
1029
1026
1022
1019
1023
1024
1026
1024
1023
1023
1025
1025
1025
1023
1020
1020
1022
1026
1025
1025
1024
1024
1025
1030
1028
1027
1025
1024
1027
1028
1031
1028
1028
1029
1029
1031
1031
1030
1029
1028
1032
1038
1040
1040
1039
1037
1043
1045
1046
1047
1048
1051
1054
1060
1059
1062
1063
1066
1071
1074
1079
1080
1079
1082
1086
1092
1094
1095
1093
1095
1095
1102
1098
1097
1093
1092
1092
1092
1089
1086
1083
1081
1080
1081
1078
1074
1070
1067
1068
1069
1068
1064
1060
1060
1058
1063
1059
1058
1053
1055
1056
1059
1059
1058
1053
1054
1055
1057
1056
1054
1051
1052
1053
1056
1055
1052
1049
1048
1055
1055
1052
1048
1047
1048
1048
1049
1050
1048
1044
1045
1047
1049
1048
1044
1043
1043
1045
1047
1046
1045
1041
1042
1042
1046
1048
1046
1041
1043
1045
1047
1048
1046
1044
1043
1047
1049
1045
1044
1045
1044
1048
1050
1048
1047
1043
1044
1044
1047
1046
1044
1042
1045
1044
1046
1044
1042
1042
1041
1045
1048
1046
1041
1041
1037
1042
1044
1044
1042
1039
1039
1042
1042
1042
1040
1036
1038
1040
1041
1038
1037
1035
1037
1038
1040
1037
1037
1036
1035
1036
1037
1037
1037
1033
1035
1037
1038
1038
1036
1031
1031
1035
1037
1039
1035
1033
1033
1034
1037
1035
1033
1032
1031
1034
1033
1036
1032
1032
1033
1036
1036
1037
1034
1032
1034
1033
1035
1035
1035
1033
1033
1036
1037
1035
1035
1030
1033
1034
1036
1035
1037
1031
1033
1033
1037
1036
1038
1037
1039
1043
1046
1044
1044
1041
1043
1045
1049
1048
1045
1045
1045
1047
1047
1045
1043
1041
1040
1042
1042
1040
1040
1039
1038
1043
1045
1046
1043
1039
1038
1042
1043
1040
1037
1031
1032
1032
1037
1036
1031
1031
1027
1032
1035
1035
1033
1029
1029
1031
1034
1032
1031
1030
1028
1031
1033
1032
1029
1028
1027
1032
1035
1033
1034
1029
1030
1034
1037
1039
1038
1038
1041
1046
1053
1058
1062
1073
1081
1095
1104
1119
1137
1157
1185
1214
1244
1271
1297
1326
1365
1409
1438
1445
1423
1368
1291
1210
1146
1096
1057
1033
1024
1026
1030
1032
1029
1025
1028
1027
1025
1022
1017
1012
1012
1015
1015
1014
1010
1009
1008
1013
1014
1012
1010
1005
1008
1011
1012
1011
1007
1005
1006
1008
1009
1006
1006
1001
1002
1004
1006
1005
1003
1001
1002
1003
1005
1005
1002
1001
1001
1003
1006
1005
1003
1002
1001
1005
1007
1007
1005
1002
1003
1006
1008
1010
1007
1005
1007
1011
1012
1011
1010
1010
1010
1014
1017
1019
1015
1017
1019
1022
1027
1030
1029
1029
1031
1036
1039
1043
1044
1044
1049
1056
1060
1063
1064
1064
1072
1076
1083
1084
1083
1081
1083
1086
1088
1086
1082
1079
1075
1076
1075
1070
1067
1065
1061
1062
1062
1056
1054
1048
1049
1050
1053
1047
1046
1043
1044
1045
1048
1045
1041
1040
1042
1045
1046
1045
1041
1041
1040
1044
1045
1045
1042
1037
1040
1042
1044
1043
1040
1035
1037
1040
1040
1040
1036
1033
1036
1038
1039
1036
1037
1035
1036
1038
1039
1039
1036
1034
1035
1038
1042
1040
1038
1038
1037
1038
1044
1043
1041
1040
1039
1043
1046
1046
1041
1040
1044
1043
1048
1044
1043
1040
1042
1045
1049
1048
1045
1041
1041
1043
1045
1046
1043
1042
1041
1042
