1013
1010
1010
1009
1006
1011
1013
1012
1011
1005
1004
1010
1012
1012
1010
1005
1008
1010
1010
1011
1012
1006
1008
1007
1012
1010
1010
1007
1008
1010
1012
1011
1011
1007
1008
1013
1015
1013
1010
1008
1008
1011
1014
1011
1008
1008
1009
1010
1012
1014
1015
1013
1010
1014
1019
1019
1017
1015
1017
1021
1025
1023
1020
1019
1023
1027
1029
1024
1025
1024
1025
1023
1024
1023
1021
1017
1020
1023
1026
1024
1021
1019
1021
1022
1027
1027
1025
1022
1023
1023
1022
1024
1016
1014
1015
1015
1019
1016
1016
1016
1017
1019
1022
1020
1019
1018
1016
1016
1020
1020
1021
1016
1019
1020
1021
1019
1018
1016
1019
1021
1025
1022
1019
1018
1020
1023
1026
1029
1030
1030
1038
1047
1058
1069
1076
1083
1095
1115
1137
1164
1187
1208
1234
1263
1298
1333
1372
1400
1411
1392
1338
1257
1171
1104
1060
1036
1026
1022
1023
1020
1020
1023
1023
1021
1018
1009
1011
1008
1007
1008
1006
1004
1003
1007
1008
1009
1007
1004
1004
1003
1008
1004
1002
1001
1001
1003
1005
1004
1000
999
999
1003
1005
1006
1005
1001
1001
1005
1007
1008
1005
1005
1005
1008
1010
1010
1007
1004
1004
1007
1011
1008
1006
1002
1005
1005
1009
1009
1008
1007
1010
1009
1013
1014
1010
1010
1010
1011
1014
1015
1014
1014
1015
1018
1019
1019
1016
1016
1018
1023
1026
1030
1028
1029
1032
1036
1040
1044
1042
1042
1047
1053
1058
1061
1060
1059
1065
1069
1075
1076
1080
1079
1078
1083
1085
1087
1083
1079
1078
1077
1076
1073
1069
1066
1064
1066
1066
1061
1057
1051
1048
1049
1049
1049
1047
1044
1043
1042
1044
1039
1039
1038
1037
1041
1044
1043
1040
1037
1036
1038
1040
1039
1038
1038
1039
1042
1044
1043
1040
1038
1037
1040
1041
1042
1040
1036
1036
1041
1042
1041
1039
1036
1036
1037
1035
1031
1030
1032
1033
1034
1037
1037
1037
1036
1037
1038
1037
1034
1033
1029
1033
1036
1038
1039
1036
1034
1031
1036
1038
1036
1033
1033
1032
1032
1036
1036
1034
1031
1031
1031
1033
1033
1032
1029
1029
1032
1032
1032
1029
1028
1027
1030
1031
1035
1032
1027
1027
1028
1032
1032
1031
1030
1027
1030
1030
1030
1031
1030
1028
1031
1031
1029
1028
1026
1027
1031
1034
1032
1031
1028
1027
1030
1029
1029
1024
1023
1025
1028
1030
1027
1029
1027
1030
1031
1032
1031
1029
1026
1030
1028
1032
1029
1027
1026
1027
1031
1030
1029
1031
1031
1029
1031
1031
1032
1030
1027
1028
1030
1034
1032
1029
1028
1030
1031
1035
1032
1030
1028
1029
1036
1037
1039
1039
1036
1035
1041
1044
1044
1043
1043
1044
1048
1048
1047
1042
1038
1037
1038
1042
1043
1040
1036
1034
1036
1038
1039
1040
1036
1039
1043
1045
1041
1039
1032
1032
1033
1037
1034
1035
1033
1033
1034
1036
1035
1033
1031
1032
1035
1035
1036
1033
1032
1030
1032
1036
1036
1033
1030
1030
1033
1034
1036
1034
1034
1035
1038
1042
1043
1046
1048
1054
1065
1080
1086
1093
1100
1117
1142
1171
1195
1220
1243
1273
1306
1348
1385
1413
1419
1393
1336
1257
1172
1102
1059
1034
1029
1031
1033
1031
1026
1025
1025
1026
1023
1019
1015
1012
1012
1015
1014
1012
1009
1010
1009
1013
1009
1006
1005
1005
1009
1012
1011
1008
1003
1006
1007
1008
1010
1006
1004
1004
1006
1006
1006
1003
1000
1003
1005
1008
1009
1006
1005
1005
1008
1010
1009
1006
1004
1004
1010
1010
1011
1010
1009
1008
1011
1014
1016
1016
1012
1014
1017
1019
1020
1017
1016
1020
1024
1028
1030
1030
1029
1033
1041
1044
1047
1046
1046
1050
1055
1061
1063
1067
1068
1071
1075
1081
1084
1085
1085
1087
1088
1090
1088
1087
1081
1082
1082
1082
1079
1072
1067
1064
1064
1064
1061
1056
1054
1055
1052
1053
1051
1048
1047
1047
1048
1049
1047
1045
1044
1043
1045
1048
1048
1044
1041
1041
1043
1047
1047
1045
1041
1042
1044
1047
1046
1043
1039
1041
1040
1046
1043
1041
1039
1040
1044
1045
1045
1043
1037
1039
1042
1043
1043
1041
1038
1039
1043
1044
1043
1040
1041
1042
1045
1046
1044
1042
1038
1042
1045
1046
1045
1043
1041
1041
1043
1045
1044
1043
1041
1042
1043
1045
1044
1041
1041
1040
1047
1046
1043
1042
1039
1038
1043
1045
1044
1043
1038
1041
1041
1044
1043
1040
1040
1039
1043
1043
1043
1039
1038
1037
1043
1044
1042
1040
1038
1040
1042
1044
1043
1040
1038
1039
1040
1043
1043
1042
1039
1042
1044
1042
1043
1042
1041
1043
1044
1046
1048
1045
1041
1044
1047
1048
1049
1046
1045
1045
1044
1048
1044
1040
1041
1042
1045
1048
1044
1045
1042
1043
1046
1046
1047
1044
1042
1043
1044
1047
1045
1044
1043
1045
1048
1048
1045
1044
1040
1043
1047
1050
1050
1047
1044
1047
1050
1055
1055
1054
1053
1054
1057
1059
1058
1058
1056
1060
1062
1062
1059
1058
1057
1054
1055
1056
1055
1054
1051
1052
1054
1056
1056
1056
1055
1059
1058
1060
1061
1057
1052
1050
1051
1052
1052
1051
1048
1048
1051
1053
1054
1051
1051
1051
1052
1054
1052
1049
1048
1051
1052
1052
1049
1046
1044
1047
1049
1052
1050
1047
1047
1049
1050
1053
1054
1057
1055
1058
1067
1075
1083
1091
1099
1109
1124
1141
1165
1191
1215
1242
1272
1301
1336
1373
1412
1434
1435
1397
1322
1229
1151
1100
1067
1056
1048
1047
1050
1051
1050
1055
1050
1042
1038
1037
1036
1037
1034
1031
1030
1030
1032
1035
1034
1032
1031
1030
1031
1036
1034
1029
1028
1026
1029
1032
1031
1027
1025
1027
1030
1032
1030
1028
1025
1027
1027
1029
1029
1027
1025
1027
1031
1033
1032
1029
1025
1025
1030
1034
1032
1031
1029
1030
1033
1033
1032
1029
1029
1029
1035
1038
1035
1033
1028
1031
1034
1039
1042
1037
1037
1037
1041
1046
1048
1047
1046
1046
1055
1060
1064
1065
1067
1071
1077
1082
1087
1090
1091
1095
1100
1105
1107
1100
1101
1099
1102
1101
1100
1095
1092
1086
1087
1087
1082
1076
1074
1073
1070
1071
1068
1066
1062
1061
1061
1061
1059
1059
1054
1056
1058
1060
1059
1055
1056
1054
1057
1060
1057
1055
1051
1050
1053
1054
1055
1051
1052
1050
1054
1057
1058
1051
1048
1048
1053
1052
1052
1048
1043
1044
1046
1045
1046
1042
1042
1044
1050
1052
1050
1047
1046
1047
1046
1047
1047
1045
1046
1043
1047
1050
1050
1046
1044
1045
1049
1052
1051
1046
1047
1045
1049
1049
1045
1046
1043
1044
1046
1048
1045
1043
1041
1041
1043
1046
1043
1045
1044
1045
1047
1048
1045
1043
1041
1043
1040
1045
1045
1041
1039
1040
1044
1043
1044
1041
1037
1037
1041
1042
1045
1039
1038
1039
1041
1042
1043
1039
1037
1036
1041
1043
1041
1039
1035
1034
1039
1041
1039
1039
1037
1034
1037
1042
1039
1038
1035
1038
1042
1041
1040
1040
1034
1038
1039
1043
1044
1039
1036
1036
1040
1043
1038
1039
1037
1037
1038
1041
1041
1038
1036
1037
1039
1041
1042
1039
1036
1038
1038
1043
1043
1042
1039
1040
1041
1044
1046
1046
1043
1045
1047
1051
1051
1047
1046
1049
1051
1056
1054
1056
1049
1051
1052
1053
1051
1047
1045
1045
1047
1049
1051
1047
1044
1049
1053
1055
1054
1051
1049
1048
1049
1049
1046
1043
1044
1043
1043
1047
1045
1041
1041
1041
1043
1047
1045
1042
1040
1042
1045
1045
1043
1042
1039
1040
1047
1049
1046
1044
1040
1043
1045
1048
1046
1046
1044
1045
1049
1053
1054
1056
1059
1064
1074
1087
1093
1100
1104
1117
1137
1165
1190
1211
1235
1261
1293
1325
1357
1394
1419
1437
1429
1393
1326
1239
1161
1107
1071
1052
1041
1035
1037
1038
1041
1046
1041
1038
1032
1031
1029
1033
1027
1023
1021
1022
1025
1026
1025
1021
1018
1019
1023
1023
1022
1021
1019
1019
1020
1020
1020
1016
1014
1015
1019
1019
1018
1017
1012
1013
1016
1016
1014
1016
1012
1013
1015
1019
1015
1014
1012
1015
1016
1019
1017
1016
1014
1014
1014
1021
1020
1017
1013
1017
1018
1018
1018
1016
1017
1017
1019
1025
1025
1022
1021
1022
1027
1030
1029
1031
1031
1031
1034
1038
1040
1040
1038
1045
1048
1053
1054
1051
1053
1059
1063
1067
1067
1069
1072
1075
1079
1084
1086
1086
1086
1089
1093
1097
1096
1091
1088
1090
1092
1093
1090
1087
1082
1080
1080
1080
1077
1073
1069
1067
1066
1067
1063
1061
1058
1057
1060
1059
1060
1054
1053
1052
1056
1058
1054
1053
1050
1052
1053
1055
1052
1052
1049
1051
1053
1054
1052
1048
1047
1048
1050
1052
1051
1049
1047
1047
1050
1051
1049
1048
1045
1048
1050
1050
1047
1044
1042
1045
1047
1050
1048
1047
1042
1043
1047
1049
1048
1046
1043
1044
1048
1050
1047
1047
1043
1045
1047
1047
1047
1043
1043
1045
1047
1048
1048
1044
1041
1043
1046
1047
1044
1043
1041
1041
1043
1045
1045
1038
1039
1040
1044
1045
1042
1040
1039
1039
1041
1043
1041
1039
1039
1038
1042
1042
1040
1039
1038
1037
1042
1042
1041
1037
1037
1037
1040
1045
1043
1040
1036
1036
1040
1042
1040
1036
1036
1039
1041
1042
1040
1039
1038
1037
1041
1043
1043
1042
1039
1039
1040
1042
1041
1040
1038
1038
1041
1043
1042
1041
1037
1039
1043
1043
1042
1041
1038
1038
1041
1043
1043
1040
1039
1040
1041
1043
1040
1039
1038
1038
1041
1045
1043
1040
1036
1038
1042
1043
1041
1040
1037
1039
1040
1045
1043
1041
1039
1041
1044
1049
1049
1046
1045
1046
1050
1051
1053
1051
1050
1051
1052
1054
1053
1052
1048
1045
1047
1050
1047
1044
1043
1043
1049
1051
1050
1048
1047
1048
1050
1052
1051
1048
1044
1045
1043
1046
1043
1042
1039
1041
1042
1045
1043
1043
1038
1037
1043
1042
1043
1039
1037
1037
1038
1042
1042
1035
1037
1038
1042
1043
1044
1040
1039
1039
1042
1043
1043
1043
1041
1042
1048
1052
1055
1059
1066
1076
1088
1098
1108
1118
1137
1163
1193
1225
1253
1279
1304
1342
1388
1421
1435
1419
1373
1299
1218
1149
1095
1058
1037
1031
1037
1043
1042
1037
1035
1033
1035
1035
1031
1028
1021
1024
1026
1026
1024
1022
1021
1022
1024
1025
1023
1022
1020
1019
1020
1023
1023
1020
1016
1016
1020
1020
1017
1015
1015
1016
1017
1021
1017
1016
1012
1013
1018
1017
1017
1016
1013
1013
1016
1020
1018
1015
1014
1015
1017
1017
1022
1018
1015
1017
1020
1021
1023
1021
1021
1021
1023
1027
1025
1024
1023
1026
1029
1033
1030
1030
1028
1032
1036
1040
1038
1038
1036
1039
1044
1049
1050
1049
1052
1055
1061
1065
1068
1067
1068
1073
1079
1085
1086
1087
1085
1089
1092
1098
1097
1094
1095
1095
1097
1096
1093
1090
1083
1084
1082
1084
1079
1073
1070
1069
1070
1066
1064
1061
1058
1060
1059
1059
1059
1053
1053
1053
1054
1056
1054
1052
1048
1050
1050
1054
1053
1053
1046
1049
1050
1051
1051
1051
1047
1051
1051
1051
1050
1045
1046
1046
1048
1052
1050
1048
1046
1045
1046
1048
1047
1045
1044
1044
1045
1047
1044
1040
1040
1041
1043
1046
1047
1045
1041
1043
1046
1048
1047
1046
1045
1046
1049
1048
1051
1047
1046
1045
1045
1049
1049
1046
1043
1045
1046
1049
1048
1045
1043
1043
1047
1048
1047
1043
1040
1043
1045
1050
1049
1048
1041
1043
1047
1047
1049
1044
1042
1042
1045
1047
1043
1041
1037
1042
1044
1047
1047
1044
1042
1041
1043
1043
1044
1041
1038
1042
1046
1044
1046
1042
1040
1043
1046
1046
1046
1044
1042
1041
1041
1044
1042
1041
1039
1040
1042
1045
1045
1041
1038
1042
1042
1046
1045
1043
1041
1044
1046
1045
1045
1040
1040
1041
1044
1046
1047
1045
1042
1044
1046
1046
1044
1043
1043
1042
1047
1045
1046
1044
1042
1044
1048
1049
1047
1044
1042
1041
1044
1045
1044
1042
1043
1042
1046
1047
1048
1045
1047
1048
1052
1055
1053
1051
1050
1050
1051
1055
1052
1053
1051
1050
1049
1050
1049
1045
1043
1045
1046
1049
1049
1047
1046
1050
1052
1053
1052
1044
1044
1041
1043
1043
1038
1039
1036
1037
1041
1041
1041
1037
1035
1038
1037
1041
1040
1037
1035
1037
1039
1039
1040
1038
1035
1034
1035
1038
1038
1037
1036
1036
1040
1039
1039
1036
1038
1047
1056
1066
1075
1080
1091
1102
1117
1144
1171
1195
1218
1245
1271
1306
1343
1380
1399
1394
1359
1294
1212
1135
1083
1054
1041
1038
1037
1036
1034
1033
1035
1031
1028
1024
1018
1018
1019
1019
1015
1013
1010
1010
1013
1014
1011
1008
1006
1010
1011
1014
1012
1009
1008
1008
1010
1010
1012
1008
1006
1007
1009
1010
1006
1002
1001
1001
1007
1006
1005
1004
1004
1010
1009
1010
1010
1008
1004
1008
1011
1016
1015
1015
1017
1018
1021
1023
1020
1016
1013
1017
1016
1022
1023
1023
1023
1023
1026
1029
1026
1024
1022
1026
1031
1034
1035
1035
1031
1034
1037
1040
1043
1043
1043
1049
1054
1055
1055
1051
1052
1058
1064
1068
1067
1065
1063
1066
1070
1074
1071
1070
1066
1062
1068
1068
1064
1061
1057
1057
1057
1058
1054
1046
1043
1043
1044
1044
1045
1040
1037
1038
1040
1039
1040
1039
1036
1032
1038
1038
1039
1035
1033
1033
1036
1039
1038
1034
1032
1033
1033
1033
1034
1032
1030
1031
1033
1032
1032
1033
1029
1033
1032
1033
1032
1031
1031
1032
1032
1034
1032
1029
1025
1027
1028
1029
1026
1022
1020
1018
1019
1023
1021
1021
1019
1017
1019
1017
1014
1012
1011
1015
1016
1018
1016
1014
1013
1011
1016
1020
1019
1019
1015
1017
1021
1021
1018
1016
1013
1015
1014
1017
1020
1016
1013
1015
1017
1017
1017
1015
1012
1014
1017
1022
1018
1014
1009
1011
1011
1010
1011
1008
1007
1010
1013
1014
1013
1011
1010
1013
1014
1012
1010
1007
1007
1007
1012
1011
1014
1012
1008
1010
1012
1013
1009
1011
1009
1013
1014
1015
1015
1012
1010
1013
1015
1019
1020
1019
1018
1019
1020
1023
1020
1015
1015
1018
1022
1023
1021
1019
1017
1019
1022
1021
1022
1017
1017
1017
1019
1020
1019
1018
1016
1018
1020
1023
1021
1019
1019
1022
1023
1024
1023
1022
1022
1019
1023
1025
1024
1026
1022
1024
1029
1032
1028
1027
1028
1032
1033
1033
1030
1032
1028
1029
1031
1032
1030
1028
1024
1026
1030
1030
1030
1028
1027
1030
1032
1037
1035
1028
1027
1026
1028
1027
1025
1020
1022
1023
1024
1027
1026
1023
1023
1024
1026
1028
1024
1021
1022
1024
1026
1030
1026
1027
1026
1025
1026
1027
1026
1024
1024
1028
1030
1031
1029
1026
1024
1027
1032
1037
1037
1039
1044
1051
1058
1070
1078
1085
1094
1109
1130
1155
1178
1198
1221
1249
1280
1312
1346
1374
1392
1384
1353
1288
1206
1132
1081
1047
1027
1022
1023
1024
1020
1023
1023
1021
1018
1013
1008
1008
1009
1008
1005
1005
1004
1004
1007
1009
1009
1008
1005
1005
1008
1010
1008
1005
1002
1004
1007
1011
1007
1001
1001
999
1004
1005
1003
1002
1001
1001
1006
1005
1003
1003
1001
1006
1008
1009
1009
1006
1008
1010
1011
1013
1011
1007
1002
1003
1007
1012
1014
1009
1010
1010
1016
1016
1014
1013
1014
1014
1021
1025
1021
1021
1022
1024
1029
1033
1033
1033
1033
1035
1043
1048
1052
1051
1054
1060
1063
1070
1071
1070
1071
1078
1083
1086
1086
1084
1080
1079
1082
1082
1079
1073
1065
1066
1064
1067
1060
1058
1053
1052
1055
1050
1048
1045
1041
1040
1041
1043
1040
1039
1034
1035
1037
1036
1038
1034
1034
1035
1035
1035
1033
1032
1030
1033
1029
1032
1028
1028
1025
1028
1029
1031
1031
1027
1025
1027
1028
1032
1030
1026
1024
1025
1028
1030
1028
1027
1025
1025
1027
1027
1027
1027
1023
1025
1028
1030
1031
1027
1023
1024
1031
1035
1033
1029
1027
1030
1030
1034
1034
1030
1027
1028
1029
1032
1031
1027
1026
1028
1028
1028
1026
1026
1028
1025
1030
1035
1031
1028
1025
1027
1027
1027
1027
1026
1023
1026
1028
1030
1026
1022
1017
1017
1020
1021
1021
1018
1017
1020
1022
1023
1021
1019
1016
1016
1018
1018
1020
1016
1015
1016
1018
1022
1019
1015
1012
1016
1020
1022
1021
1019
1015
1019
1019
1022
1021
1018
1021
1024
1022
1025
1024
1021
1022
1023
1023
1023
1024
1023
1022
1025
1031
1032
1027
1024
1020
1019
1025
1026
1025
1023
1023
1026
1029
1031
1030
1025
1025
1025
1028
1032
1029
1028
1026
1028
1028
1032
1031
1031
1028
1031
1036
1043
1044
1042
1040
1043
1040
1041
1040
1040
1038
1039
1043
1045
1040
1038
1036
1043
1055
1070
1090
1117
1143
1167
1185
1185
1172
1146
1101
1036
959
865
761
684
649
636
633
633
642
656
681
714
748
779
806
827
846
863
877
894
906
918
927
939
949
961
971
979
992
999
1010
1019
1028
1037
1041
1052
1061
1067
1068
1067
1069
1070
1074
1080
1082
1080
1081
1085
1089
1092
1090
1088
1087
1090
1093
1096
1093
1093
1093
1096
1099
1097
1098
1099
1099
1104
1104
1108
1110
1109
1110
1115
1117
1117
1119
1120
1123
1128
1133
1139
1138
1138
1136
1146
1150
1158
1161
1160
1163
1170
1176
1185
1189
1189
1190
1195
1202
1207
1208
1209
1208
1211
1214
1215
1213
1206
1204
1205
1206
1202
1196
1187
1183
1178
1176
1172
1164
1161
1154
1150
1146
1142
1133
1121
1115
1112
1110
1109
1103
1095
1089
1085
1086
1082
1079
1074
1069
1068
1065
1065
1059
1055
1050
1051
1049
1051
1050
1048
1047
1045
1045
1044
1039
1035
1035
1039
1041
1042
1042
1038
1036
1036
1036
1038
1037
1032
1033
1034
1033
1031
1031
1028
1027
1027
1031
1033
1031
1024
1021
1023
1026
1029
1028
1022
1020
1020
1021
1026
1022
1020
1016
1017
1020
1020
1017
1014
1011
1013
1013
1010
1008
1002
1001
1001
1007
1007
1006
1004
1003
1000
1004
1004
1004
1002
1001
1003
1005
1007
1004
1003
1002
1003
1007
1008
1007
1002
1000
1000
1002
1007
1005
1003
1002
1002
1005
1005
1006
1003
1004
1008
1010
1010
1009
1005
1004
1004
1008
1010
1010
1008
1004
1006
1006
1010
1007
1008
1005
1006
1007
1009
1008
1005
1006
1004
1009
1008
1009
1005
1005
1004
1007
1007
1008
1003
1001
1002
1002
1005
1004
1002
1001
1001
1006
1006
1004
1000
1000
1002
1002
1004
1005
1002
1001
1005
1007
1011
1012
1006
1004
1007
1011
1009
1007
1003
1002
999
1004
1008
1007
1006
1002
1008
1008
1010
1008
1002
1003
1007
1011
1011
1007
1000
999
1004
1007
1009
1008
1003
1005
1007
1008
1011
1010
1007
1012
1011
1016
1021
1020
1016
1012
1014
1018
1019
1015
1012
1011
1013
1014
1013
1010
1006
1006
1009
1012
1012
1007
1005
1005
1008
1006
1005
1003
1001
1000
1003
1004
1005
1005
1004
999
1003
1004
1006
1001
1002
1002
1004
1006
1009
1010
1011
1015
1024
1033
1043
1050
1054
1056
1065
1084
1106
1130
1152
1176
1204
1237
1269
1307
1341
1370
1384
1370
1321
1239
1153
1086
1043
1022
1011
1012
1010
1011
1009
1010
1011
1010
1006
1002
1000
1003
1000
999
996
994
996
995
996
994
992
991
995
992
994
993
988
988
989
989
989
988
987
988
989
989
991
983
979
977
982
982
984
983
980
982
983
987
988
987
984
983
985
986
987
988
985
985
988
991
994
992
988
985
989
991
992
995
990
990
991
994
995
993
992
992
996
1000
999
1001
998
997
998
1000
1005
1005
1002
1003
1006
1008
1014
1012
1010
1011
1015
1016
1019
1019
1022
1025
1029
1036
1041
1040
1041
1040
1045
1048
1051
1049
1045
1049
1055
1058
1061
1064
1060
1061
1063
1063
1063
1058
1052
1052
1052
1054
1053
1048
1046
1042
1039
1043
1042
1039
1034
1031
1032
1034
1033
1033
1030
1027
1026
1028
1026
1023
1024
1023
1026
1029
1030
1028
1023
1025
1025
1027
1027
1025
1023
1023
1022
1028
1027
1024
1023
1022
1023
1025
1025
1024
1022
1020
1023
1028
1028
1026
1024
1024
1025
1024
1025
1019
1018
1016
1018
1021
1024
1025
1023
1023
1024
1028
1031
1029
1027
1027
1029
1030
1030
1026
1020
1022
1022
1027
1028
1029
1024
1027
1026
1025
1028
1025
1024
1024
1025
1026
1027
1025
1023
1022
1024
1027
1030
1026
1024
1022
1020
1020
1022
1022
1018
1015
1016
1017
1018
1013
1012
1013
1018
1019
1022
1020
1015
1011
1014
1017
1015
1017
1012
1011
1013
1016
1016
1012
1009
1007
1009
1014
1017
1016
1014
1013
1014
1014
1013
1012
1013
1013
1015
1015
1017
1016
1013
1013
1015
1017
1017
1014
1010
1009
1011
1014
1018
1015
1015
1015
1016
1020
1020
1019
1013
1013
1013
1014
1014
1015
1014
1010
1015
1016
1015
1017
1014
1013
1014
1015
1015
1014
1012
1013
1014
1019
1020
1018
1016
1012
1014
1015
1017
1018
1018
1015
1013
1015
1015
1017
1014
1012
1014
1016
