1029
1027
1027
1026
1023
1028
1029
1028
1028
1024
1024
1028
1030
1031
1028
1026
1024
1029
1031
1033
1028
1028
1027
1027
1031
1029
1030
1027
1027
1030
1033
1030
1029
1028
1028
1030
1032
1035
1031
1027
1027
1028
1033
1032
1031
1029
1029
1031
1034
1032
1031
1028
1029
1032
1035
1033
1032
1030
1030
1031
1034
1035
1034
1032
1035
1038
1041
1045
1043
1038
1041
1040
1044
1046
1046
1045
1043
1048
1052
1051
1050
1046
1045
1044
1047
1045
1041
1041
1044
1046
1049
1050
1046
1045
1048
1051
1050
1051
1047
1043
1040
1039
1041
1040
1038
1037
1035
1039
1039
1041
1038
1036
1034
1038
1041
1042
1041
1037
1037
1038
1040
1038
1038
1036
1035
1039
1041
1040
1041
1037
1038
1043
1043
1045
1045
1045
1049
1058
1067
1077
1091
1099
1110
1127
1153
1182
1214
1238
1267
1297
1323
1355
1392
1423
1441
1436
1403
1327
1229
1141
1083
1053
1041
1036
1037
1037
1036
1037
1037
1034
1032
1026
1024
1024
1025
1025
1020
1018
1021
1020
1024
1023
1022
1019
1017
1019
1020
1018
1019
1015
1016
1018
1018
1019
1012
1009
1011
1012
1014
1012
1010
1006
1007
1009
1011
1010
1009
1008
1008
1009
1010
1007
1007
1003
1003
1008
1011
1012
1010
1005
1002
1006
1009
1010
1009
1003
1005
1007
1011
1010
1009
1008
1008
1012
1014
1015
1013
1010
1010
1013
1018
1020
1019
1019
1017
1024
1026
1028
1028
1029
1031
1038
1039
1041
1040
1043
1047
1052
1058
1060
1062
1065
1065
1070
1074
1076
1077
1079
1079
1082
1081
1081
1080
1076
1077
1076
1076
1075
1071
1068
1065
1060
1058
1057
1055
1048
1049
1051
1049
1049
1048
1046
1043
1047
1045
1048
1043
1040
1040
1043
1046
1047
1046
1041
1041
1041
1042
1042
1040
1038
1038
1039
1039
1039
1039
1038
1035
1039
1039
1036
1033
1033
1034
1036
1036
1035
1035
1030
1031
1032
1034
1033
1028
1027
1026
1026
1029
1028
1030
1026
1028
1029
1031
1030
1028
1027
1025
1026
1029
1031
1032
1028
1027
1031
1033
1036
1033
1031
1029
1032
1035
1034
1030
1028
1026
1030
1035
1033
1031
1027
1025
1029
1031
1032
1028
1027
1032
1032
1035
1033
1030
1026
1025
1029
1029
1030
1029
1026
1024
1028
1031
1032
1030
1027
1027
1029
1030
1030
1026
1023
1024
1025
1028
1027
1024
1023
1023
1026
1030
1030
1025
1024
1023
1024
1026
1027
1024
1022
1022
1025
1027
1028
1025
1025
1024
1027
1030
1030
1026
1025
1025
1025
1028
1028
1027
1025
1025
1025
1026
1026
1026
1024
1023
1028
1030
1029
1026
1023
1023
1028
1030
1033
1026
1025
1024
1026
1029
1029
1029
1026
1030
1030
1032
1035
1035
1033
1033
1038
1041
1039
1038
1036
1036
1039
1042
1037
1034
1031
1032
1033
1036
1036
1035
1031
1032
1035
1038
1038
1037
1035
1034
1036
1039
1038
1033
1028
1027
1026
1029
1030
1028
1023
1026
1028
1031
1030
1026
1024
1025
1027
1029
1027
1024
1024
1024
1026
1027
1028
1024
1023
1022
1024
1027
1026
1025
1027
1026
1026
1031
1031
1029
1031
1031
1034
1042
1049
1052
1061
1075
1085
1099
1115
1134
1156
1185
1218
1245
1272
1296
1325
1359
1400
1436
1453
1443
1400
1318
1224
1146
1089
1049
1022
1016
1020
1026
1026
1023
1019
1019
1019
1017
1011
1006
1002
1002
1003
1004
1003
1002
1000
999
1001
1004
1002
1001
997
996
995
998
997
995
991
993
995
1000
996
993
990
991
992
995
992
992
989
988
988
990
992
987
985
985
988
990
989
987
985
984
987
990
989
988
987
985
986
990
988
987
984
986
988
991
989
988
985
986
988
989
993
992
989
991
992
999
1001
1000
997
1001
1007
1009
1010
1009
1010
1015
1019
1026
1026
1028
1029
1034
1039
1045
1049
1050
1053
1056
1060
1063
1063
1063
1061
1061
1062
1065
1063
1060
1056
1052
1053
1052
1050
1045
1039
1038
1040
1039
1036
1034
1030
1029
1030
1033
1030
1030
1028
1029
1030
1033
1031
1030
1028
1027
1028
1031
1034
1027
1027
1024
1030
1029
1029
1028
1025
1023
1024
1026
1028
1024
1023
1023
1023
1023
1024
1022
1021
1021
1026
1026
1022
1023
1023
1023
1024
1027
1023
1020
1021
1024
1024
1027
1028
1024
1023
1023
1026
1029
1027
1026
1023
1023
1023
1028
1027
1027
1024
1025
1029
1030
1026
1025
1023
1025
1025
1029
1027
1024
1024
1022
1026
1027
1026
1025
1020
1022
1023
1026
1024
1021
1018
1019
1021
1022
1025
1022
1019
1019
1020
1024
1026
1023
1022
1020
1022
1023
1022
1021
1019
1021
1023
1026
1024
1023
1020
1018
1018
1025
1026
1021
1022
1020
1021
1025
1025
1021
1020
1020
1021
1025
1024
1024
1020
1022
1023
1027
1026
1023
1021
1024
1024
1027
1028
1024
1024
1023
1024
1025
1028
1024
1022
1023
1024
1027
1026
1025
1022
1022
1025
1025
1028
1026
1025
1026
1029
1033
1034
1034
1034
1035
1037
1041
1040
1040
1036
1037
1041
1041
1042
1041
1036
1035
1035
1038
1035
1033
1032
1033
1038
1040
1040
1037
1037
1038
1039
1044
1043
1037
1031
1031
1030
1032
1034
1030
1029
1029
1033
1034
1033
1031
1028
1030
1032
1034
1034
1030
1027
1026
1029
1033
1031
1033
1028
1025
1030
1033
1033
1031
1029
1030
1032
1035
1037
1037
1040
1045
1054
1067
1076
1082
1091
1104
1126
1155
1182
1212
1236
1270
1302
1340
1378
1424
1453
1464
1447
1394
1305
1204
1125
1074
1043
1031
1030
1030
1028
1029
1029
1030
1026
1021
1013
1014
1016
1015
1011
1011
1008
1008
1010
1012
1012
1009
1008
1009
1009
1010
1010
1007
1003
1004
1002
1007
1004
1003
999
1000
1003
1003
1002
999
996
998
1001
1005
1005
1000
1000
1002
999
1005
1006
1000
1001
1002
1003
1003
1005
1002
999
1004
1004
1006
1003
1002
998
1002
1006
1008
1010
1008
1007
1008
1012
1012
1013
1012
1013
1016
1019
1023
1020
1024
1025
1025
1032
1037
1038
1039
1039
1041
1049
1055
1057
1060
1059
1064
1072
1077
1079
1079
1078
1077
1083
1084
1080
1078
1074
1074
1073
1072
1070
1063
1059
1056
1056
1057
1055
1051
1044
1044
1044
1043
1043
1042
1044
1039
1042
1042
1039
1035
1033
1036
1039
1040
1040
1038
1033
1035
1038
1041
1037
1036
1031
1034
1036
1038
1037
1035
1027
1031
1031
1034
1034
1030
1027
1028
1032
1035
1031
1028
1024
1025
1027
1032
1030
1028
1024
1027
1028
1031
1029
1024
1028
1028
1032
1031
1031
1030
1029
1029
1033
1035
1035
1031
1030
1030
1034
1039
1036
1035
1032
1033
1032
1035
1035
1032
1033
1031
1037
1036
1033
1031
1032
1032
1033
1035
1034
1030
1027
1030
1034
1034
1035
1031
1029
1030
1030
1031
1028
1029
1028
1027
1033
1033
1031
1031
1027
1028
1032
1033
1032
1029
1029
1027
1027
1032
1031
1030
1027
1026
1029
1030
1028
1028
1029
1027
1030
1032
1031
1027
1025
1025
1027
1031
1030
1029
1027
1027
1030
1032
1029
1025
1026
1027
1030
1029
1030
1028
1028
1029
1029
1033
1030
1027
1026
1027
1029
1032
1031
1029
1028
1031
1032
1036
1038
1036
1035
1035
1042
1041
1041
1041
1039
1042
1044
1045
1041
1036
1035
1037
1039
1039
1039
1037
1035
1037
1037
1041
1039
1037
1038
1039
1041
1042
1041
1033
1029
1027
1030
1033
1035
1032
1030
1030
1030
1033
1033
1031
1032
1031
1033
1034
1030
1029
1028
1028
1030
1032
1031
1031
1027
1027
1030
1033
1034
1033
1030
1033
1037
1042
1042
1045
1049
1060
1072
1086
1094
1105
1117
1140
1171
1204
1232
1260
1285
1316
1354
1396
1432
1443
1428
1372
1283
1191
1115
1064
1035
1024
1024
1031
1032
1030
1025
1023
1025
1025
1019
1015
1012
1009
1012
1011
1010
1008
1006
1004
1009
1013
1008
1010
1004
1005
1005
1008
1007
1005
1003
1001
1004
1005
1002
1000
998
998
1000
1002
1001
996
992
997
998
1000
1000
998
995
993
995
996
998
995
994
993
995
996
995
993
992
994
995
999
998
996
993
992
995
1001
999
996
995
997
1000
1001
1003
1000
998
1002
1005
1008
1009
1008
1007
1008
1012
1018
1019
1020
1019
1023
1029
1033
1036
1039
1038
1042
1046
1056
1054
1055
1056
1060
1065
1069
1069
1066
1061
1063
1065
1069
1064
1062
1058
1057
1058
1059
1052
1049
1046
1045
1045
1047
1045
1040
1038
1038
1037
1040
1040
1038
1034
1033
1035
1038
1038
1034
1034
1032
1035
1036
1034
1030
1030
1030
1032
1036
1033
1030
1026
1028
1030
1030
1030
1029
1028
1027
1029
1033
1031
1025
1023
1023
1028
1032
1029
1025
1023
1022
1026
1032
1029
1026
1024
1025
1026
1032
1033
1034
1038
1049
1064
1085
1109
1129
1141
1139
1129
1109
1075
1019
945
868
786
700
630
597
577
577
581
596
617
636
663
706
748
779
805
826
842
860
882
901
915
924
932
940
950
965
973
984
995
1008
1021
1034
1039
1047
1050
1058
1064
1069
1070
1067
1071
1072
1080
1084
1086
1086
1087
1089
1090
1093
1094
1096
1096
1101
1104
1108
1110
1111
1109
1113
1116
1121
1123
1123
1125
1127
1133
1138
1139
1139
1144
1148
1155
1162
1164
1167
1172
1177
1185
1192
1199
1201
1207
1212
1223
1233
1236
1243
1244
1255
1261
1271
1277
1277
1282
1283
1287
1289
1288
1284
1281
1279
1278
1275
1269
1260
1253
1245
1242
1234
1226
1212
1202
1192
1186
1181
1170
1161
1151
1142
1139
1131
1124
1116
1107
1102
1097
1096
1091
1084
1077
1072
1072
1071
1069
1063
1060
1061
1061
1061
1057
1054
1051
1051
1053
1054
1051
1050
1048
1048
1052
1053
1049
1045
1041
1046
1044
1048
1045
1044
1040
1041
1042
1043
1041
1039
1036
1037
1038
1040
1038
1034
1031
1032
1034
1036
1035
1032
1027
1027
1032
1032
1031
1027
1025
1025
1025
1028
1027
1024
1022
1021
1025
1024
1026
1023
1018
1022
1022
1024
1023
1020
1020
1019
1022
1024
1022
1017
1017
1019
1022
1024
1022
1018
1017
1018
1021
1021
1019
1019
1017
1015
1021
1020
1022
1020
1017
1018
1019
1023
1023
1017
1019
1017
1021
1023
1018
1016
1015
1018
1020
1024
1022
1018
1015
1018
1019
1021
1021
1021
1018
1020
1021
1024
1023
1018
1015
1018
1021
1024
1023
1019
1017
1017
1020
1025
1023
1023
1018
1019
1022
1023
1022
1019
1020
1021
1022
1025
1024
1020
1019
1019
1022
1029
1023
1022
1020
1019
1023
1025
1025
1020
1018
1020
1021
1024
1023
1020
1019
1020
1022
1027
1025
1022
1021
1021
1025
1025
1025
1022
1020
1022
1024
1026
1025
1023
1022
1026
1028
1029
1028
1024
1023
1025
1025
1030
1027
1024
1022
1025
1024
1028
1029
1025
1022
1024
1030
1028
1026
1024
1024
1025
1029
1031
1028
1026
1025
1023
1029
1031
1029
1027
1026
1025
1029
1030
1030
1025
1024
1027
1030
1032
1031
1028
1026
1027
1031
1032
1032
1029
1027
1027
1031
1034
1032
1033
1031
1031
1032
1031
1032
1030
1031
1033
1036
1035
1036
1033
1032
1032
1035
1037
1037
1034
1032
1033
1036
1037
1037
1034
1034
1033
1037
1037
1037
1035
1035
1038
1041
1042
1039
1038
1035
1034
1037
1041
1040
1036
1037
1038
1042
1043
1041
1038
1038
1041
1043
1042
1043
1041
1036
1038
1045
1043
1043
1039
1038
1039
1043
1046
1044
1040
1041
1044
1047
1047
1046
1043
1040
1040
1044
1048
1047
1044
1043
1043
1047
1050
1049
1045
1042
1043
1047
1045
1049
1048
1047
1054
1055
1058
1057
1053
1053
1051
1059
1060
1061
1059
1057
1056
1058
1059
1055
1054
1051
1053
1055
1056
1055
1051
1049
1052
1054
1059
1057
1055
1054
1055
1058
1058
1055
1050
1048
1048
1051
1052
1049
1049
1045
1047
1049
1050
1048
1049
1048
1046
1049
1052
1049
1045
1045
1046
1048
1050
1054
1049
1046
1048
1053
1052
1052
1047
1050
1053
1056
1061
1062
1063
1067
1076
1087
1100
1107
1111
1122
1146
1178
1210
1240
1270
1298
1335
1368
1411
1451
1469
1452
1397
1307
1212
1141
1093
1068
1064
1066
1068
1064
1058
1050
1050
1049
1046
1041
1034
1031
1030
1030
1033
1029
1027
1023
1023
1026
1027
1028
1022
1018
1023
1024
1026
1023
1019
1020
1018
1019
1022
1019
1017
1018
1020
1022
1022
1018
1013
1013
1017
1020
1022
1017
1012
1011
1011
1012
1014
1014
1013
1008
1014
1014
1014
1013
1011
1009
1013
1016
1021
1021
1016
1014
1013
1017
1022
1022
1018
1016
1017
1023
1025
1023
1019
1016
1017
1022
1025
1023
1021
1023
1027
1030
1030
1030
1025
1028
1029
1037
1043
1042
1042
1043
1043
1043
1046
1047
1049
1051
1059
1064
1071
1072
1073
1072
1076
1078
1083
1083
1081
1085
1084
1088
1087
1086
1086
1081
1082
1085
1087
1085
1078
1074
1072
1075
1076
1073
1071
1067
1067
1064
1068
1069
1064
1062
1063
1065
1066
1063
1062
1058
1051
1051
1055
1057
1055
1052
1051
1055
1056
1056
1052
1048
1050
1051
1050
1052
1049
1046
1049
1047
1051
1047
1049
1047
1048
1049
1051
1048
1047
1044
1044
1045
1047
1047
1043
1040
1043
1046
1049
1047
1042
1041
1043
1044
1047
1046
1043
1042
1045
1047
1049
1047
1043
1039
1038
1042
1044
1043
1043
1042
1043
1045
1044
1042
1038
1038
1034
1032
1035
1034
1030
1029
1030
1033
1037
1034
1032
1027
1027
1030
1033
1032
1031
1028
1029
1029
1025
1023
1023
1023
1024
1025
1025
1026
1020
1021
1022
1027
1027
1024
1020
1018
1020
1023
1027
1026
1022
1017
1019
1024
1027
1026
1024
1017
1019
1021
1022
1022
1019
1018
1019
1023
1025
1024
1021
1019
1020
1021
1023
1023
1022
1022
1023
1027
1027
1024
1020
1020
1022
1023
1025
1022
1019
1021
1020
1023
1025
1026
1020
1016
1015
1019
1027
1025
1021
1018
1019
1021
1024
1024
1021
1020
1022
1027
1028
1023
1019
1018
1021
1025
1030
1033
1031
1028
1029
1030
1032
1030
1030
1032
1037
1039
1039
1037
1034
1030
1030
1030
1033
1032
1028
1029
1032
1034
1035
1030
1030
1028
1031
1035
1037
1037
1034
1029
1026
1025
1025
1025
1026
1025
1023
1025
1027
1028
1030
1024
1023
1026
1028
1030
1026
1024
1022
1025
1026
1024
1022
1020
1022
1026
1032
1029
1025
1023
1027
1033
1032
1031
1029
1029
1037
1041
1044
1049
1054
1059
1069
1085
1097
1109
1127
1150
1181
1215
1243
1272
1296
1324
1361
1400
1440
1473
1492
1487
1457
1396
1316
1228
1159
1105
1069
1052
1044
1043
1039
1041
1038
1037
1035
1031
1025
1019
1018
1018
1016
1015
1010
1005
1002
1005
1007
1010
1008
1004
1007
1007
1011
1008
1006
1006
1005
1011
1010
1006
1004
1002
1002
1007
1010
1007
1000
998
999
1002
1004
1001
997
995
999
1002
1003
998
994
990
998
1002
1006
1004
1001
996
997
1001
1002
1002
999
997
999
1005
1006
1004
1004
1000
1001
1008
1008
1008
1005
1004
1004
1009
1009
1010
1007
1007
1006
1011
1012
1014
1014
1016
1016
1022
1026
1029
1032
1033
1032
1038
1045
1047
1047
1049
1051
1060
1065
1066
1064
1067
1072
1078
1083
1082
1080
1080
1077
1081
1081
1082
1076
1075
1076
1075
1072
1070
1065
1062
1060
1063
1066
1061
1053
1051
1050
1053
1055
1053
1053
1049
1054
1055
1055
1049
1046
1047
1050
1055
1057
1055
1052
1051
1054
1054
1054
1052
1052
1052
1050
1052
1056
1052
1049
1047
1048
1050
1051
1052
1048
1044
1043
1048
1050
1048
1045
1044
1046
1051
1050
1050
1045
1044
1048
1050
1050
1049
1049
1050
1050
1053
1057
1053
1051
1051
1053
1055
1059
1055
1055
1052
1053
1050
1052
1049
1052
1057
1055
1062
1064
1058
1056
1052
1055
1058
1060
1058
1054
1048
1049
1054
1056
1053
1049
1045
1052
1057
1058
1058
1053
1053
1055
1059
1060
1060
1055
1052
1052
1054
1056
1057
1055
1056
1054
1057
1059
1056
1053
1053
1056
1062
1064
1062
1059
1060
1060
1057
1061
1057
1053
1056
1061
1063
1064
1060
1056
1054
1057
1063
1064
1058
1055
1054
1059
1058
1059
1052
1055
1057
1061
1059
1059
1055
1053
1052
1054
1058
1060
1059
1053
1050
1051
1056
1060
1055
1052
1052
1056
1060
1064
1058
1056
1056
1058
1060
1063
1065
1064
1067
1067
1066
1065
1067
1069
1070
1068
1069
1076
1074
1071
1065
1063
1061
1061
1061
1061
1058
1060
1066
1074
1074
1066
1066
1072
1073
1073
1068
1063
1064
1062
1060
1058
1054
1055
1056
1061
1062
1064
1064
1062
1061
1060
1062
1059
1061
1059
1058
1060
1059
1056
1056
1055
1057
1063
1064
1065
1061
1057
1057
1058
1058
1061
1061
1059
1063
1070
1082
1092
1098
1106
1114
1132
1160
1198
1236
1270
1308
1347
1393
1446
1496
1523
1515
1467
1374
1270
1182
1116
1079
1067
1072
1074
1069
1063
1059
1055
1052
1050
1044
1037
1037
1037
1041
1040
1034
1029
1030
1029
1032
1035
1034
1033
1029
1027
1026
1029
1030
1031
1025
1024
1026
1031
1028
1021
1017
1018
1021
1026
1021
1022
1021
1021
1024
1030
1029
1025
1021
1020
1022
1024
1023
1019
1014
1014
1019
1025
1027
1023
1023
1021
1022
1024
1019
1017
1015
1019
1024
1025
1023
1020
1017
1022
1027
1030
1028
1025
1024
1029
1033
1040
1037
1034
1035
1038
1044
1047
1049
1044
1046
1056
1062
1072
1073
1069
1069
1076
1085
1088
1092
1094
1095
1094
1093
1093
1094
1092
1088
1087
1088
1090
1085
1080
1075
1073
1078
1079
1076
1071
1067
1065
1067
1068
1066
1063
1064
1068
1070
1069
1067
1062
1060
1058
1064
1067
1066
1063
1064
1063
1066
1064
1059
1058
1057
1059
1061
1063
1060
1058
1054
1054
1056
1058
1054
1057
1058
1061
1061
1061
1057
1058
1053
1051
1056
1060
1061
1059
1061
1065
1072
1073
1066
1062
1058
1063
1064
1066
1064
1061
1063
1067
1072
1072
1070
1066
1061
1058
1060
1063
1062
1061
1062
1065
1072
1072
1067
1057
1057
1060
1061
1064
1065
1062
1062
1060
1063
1065
1061
1059
1060
1061
1061
1060
1057
1055
1055
1058
1059
1063
1061
1056
1050
1055
1061
1063
1061
1052
1046
1050
1056
1062
1063
1055
1050
1050
1051
1053
1055
1051
1052
1054
1056
1059
1059
1056
1054
1054
1053
1053
1051
1054
1055
1057
1062
1064
1060
1056
1052
1052
1057
1063
1061
1057
1056
1054
1055
1055
1053
1054
1053
1057
1060
1061
1056
1050
1051
1053
1057
1060
1058
1058
1056
1054
1055
1059
1059
1057
1053
1056
1060
1063
1062
1061
1064
1066
1069
1068
1064
1060
1062
1066
1069
1071
1070
1067
1070
1070
1072
1072
1074
1070
1068
1068
1068
1068
1062
1057
1060
1067
1074
1074
1070
1068
1067
1065
1059
1057
1059
1063
1065
1063
1061
1060
1060
1062
1061
1063
1064
1064
1059
1061
1059
1061
1064
1060
1059
1061
1060
1067
1065
1064
1062
1059
1056
1059
1062
1063
1064
1063
1068
1076
1088
1092
1094
1098
1105
1124
1149
1176
1209
1240
1274
1313
1350
1388
1432
1470
1500
1508
1483
1417
1320
1225
1153
1102
1075
1062
1061
1066
1066
1065
1059
1051
1048
1047
1048
1047
1048
1042
1038
1031
1030
1036
1034
1037
1036
1035
1034
1032
1031
1035
1035
1028
1025
1027
1027
1028
1023
1023
1022
1025
1024
1026
1026
1024
1025
1023
1025
1023
1020
1015
1018
1022
1026
1024
1023
1024
1019
1020
1021
1024
1026
1022
1021
1019
1017
1020
1019
1020
1024
1026
1029
1023
1015
1011
1018
1026
1028
1034
1035
1029
1022
1019
1023
1031
1038
1042
1039
1038
1037
1041
1042
1045
1049
1057
1065
1067
1069
1068
1069
1079
1082
1085
1085
1082
1085
1086
1089
1091
1086
1080
1081
1086
1089
1084
1075
1068
1073
1075
1077
1078
1073
1071
1069
1069
1062
1061
1056
1059
1058
1063
1064
1063
1059
1056
1058
1060
1059
1060
1062
1057
1056
1053
1053
1054
1053
1052
1054
1068
1081
1094
1106
1124
1140
1150
1145
1127
1097
1044
958
852
740
653
596
579
581
593
619
644
674
712
759
797
835
856
874
888
910
932
949
960
964
965
973
988
1003
1017
1031
1036
1049
1065
1078
1079
1077
1074
1079
1086
1092
1092
1092
1092
1095
1097
1099
1103
1103
1102
1100
1104
1105
1106
1105
1111
1121
1120
1113
1106
1110
1121
1122
1120
1124
1131
1135
1133
1131
1134
1140
1150
1159
1163
1165
1171
1178
1176
1171
1170
1174
1185
1197
1205
1212
1210
1212
1217
1227
1230
1232
1238
1245
1254
1259
1263
1261
1256
1260
1268
1270
1270
1272
1276
1275
1271
1270
1265
1259
1248
1236
1225
1223
1227
1224
1215
1206
1196
1191
1185
1173
1166
1158
1148
1142
1131
1122
1115
1116
1115
1111
1108
1107
1096
1083
1074
1077
1083
1082
1072
1067
1068
1075
1071
1060
1047
1044
1055
1061
1065
1070
1075
1064
1045
1040
1048
1061
1060
1057
1059
1065
1062
1057
1053
1050
1048
1045
1048
1049
1041
1039
1043
1056
