1019
1017
1017
1014
1016
1018
1017
1018
1017
1015
1018
1020
1022
1020
1019
1018
1018
1017
1016
1015
1014
1013
1015
1022
1024
1023
1020
1019
1021
1024
1025
1027
1027
1032
1032
1037
1037
1034
1029
1027
1030
1036
1039
1041
1037
1039
1035
1035
1033
1032
1028
1025
1027
1030
1031
1032
1028
1029
1031
1035
1038
1037
1038
1036
1038
1036
1032
1026
1024
1023
1027
1030
1031
1033
1029
1027
1025
1026
1027
1026
1023
1020
1022
1025
1025
1026
1024
1024
1022
1027
1025
1020
1019
1014
1019
1023
1024
1023
1020
1019
1022
1027
1029
1029
1033
1037
1041
1051
1063
1070
1075
1085
1100
1121
1145
1166
1187
1208
1236
1265
1294
1331
1366
1390
1395
1366
1308
1220
1134
1073
1037
1024
1021
1024
1025
1023
1022
1023
1023
1019
1016
1014
1016
1017
1016
1013
1011
1008
1011
1012
1012
1011
1006
1002
1003
1006
1011
1008
1005
1005
1007
1010
1008
1007
1003
1003
1005
1008
1008
1006
1006
1008
1008
1010
1012
1006
1003
1001
1002
1007
1004
1003
1005
1005
1006
1011
1010
1009
1005
1006
1008
1011
1013
1011
1007
1007
1008
1012
1014
1012
1009
1008
1010
1017
1014
1016
1014
1017
1022
1024
1024
1022
1022
1026
1031
1035
1037
1033
1031
1033
1042
1045
1049
1051
1054
1053
1059
1064
1067
1070
1070
1072
1076
1075
1077
1073
1067
1061
1064
1067
1068
1064
1059
1055
1054
1051
1051
1048
1043
1043
1041
1042
1040
1039
1036
1035
1039
1038
1037
1031
1027
1029
1031
1036
1035
1033
1028
1029
1028
1033
1032
1032
1029
1027
1030
1033
1034
1028
1025
1020
1023
1025
1026
1024
1019
1019
1020
1022
1023
1021
1020
1017
1020
1019
1022
1020
1020
1018
1019
1021
1024
1024
1020
1018
1023
1025
1023
1022
1020
1018
1020
1023
1028
1022
1021
1019
1019
1026
1025
1023
1018
1021
1023
1027
1027
1028
1027
1024
1027
1029
1028
1027
1028
1028
1031
1032
1034
1033
1027
1028
1034
1035
1035
1034
1029
1028
1031
1034
1035
1035
1031
1031
1029
1031
1032
1028
1028
1027
1028
1031
1030
1026
1021
1018
1019
1025
1028
1026
1025
1025
1025
1027
1029
1028
1026
1025
1029
1029
1031
1029
1026
1027
1028
1028
1030
1030
1026
1027
1027
1031
1033
1028
1027
1027
1027
1027
1027
1024
1021
1023
1027
1030
1029
1026
1023
1021
1021
1027
1027
1028
1026
1025
1027
1030
1028
1026
1019
1019
1017
1022
1022
1024
1023
1023
1028
1032
1033
1034
1028
1026
1029
1032
1031
1027
1027
1030
1033
1037
1033
1030
1030
1031
1036
1039
1038
1036
1031
1033
1035
1038
1039
1038
1034
1033
1035
1037
1036
1032
1031
1033
1031
1035
1035
1036
1033
1032
1035
1039
1038
1038
1032
1026
1028
1031
1033
1029
1028
1030
1030
1032
1034
1030
1029
1027
1029
1029
1031
1028
1023
1019
1025
1027
1026
1030
1026
1026
1027
1028
1029
1028
1027
1027
1030
1032
1029
1029
1030
1029
1034
1041
1052
1063
1066
1074
1086
1101
1117
1137
1157
1176
1200
1225
1250
1276
1308
1342
1366
1373
1342
1286
1209
1135
1079
1044
1027
1016
1010
1015
1022
1024
1026
1022
1018
1017
1018
1016
1013
1009
1009
1012
1010
1008
1011
1008
1007
1006
1009
1012
1012
1010
1008
1006
1009
1010
1010
1007
1005
1005
1006
1005
1005
1007
1001
1002
1003
1005
1002
998
999
1000
1005
1011
1010
1011
1003
1000
999
1005
1009
1007
1004
1002
1004
1006
1006
1007
1005
1004
1006
1008
1006
1007
1006
1005
1007
1006
1008
1010
1006
1005
1007
1011
1014
1010
1010
1011
1011
1014
1012
1013
1012
1014
1017
1021
1023
1027
1027
1028
1033
1037
1038
1038
1038
1035
1040
1048
1052
1055
1057
1059
1059
1061
1061
1061
1060
1063
1067
1069
1066
1062
1060
1055
1056
1056
1056
1053
1049
1045
1045
1046
1046
1039
1033
1031
1034
1034
1035
1032
1029
1030
1031
1034
1033
1028
1024
1025
1025
1027
1027
1025
1021
1021
1022
1026
1026
1026
1023
1023
1022
1025
1024
1024
1018
1019
1022
1024
1022
1018
1016
1018
1022
1025
1025
1022
1017
1018
1023
1024
1025
1023
1019
1019
1019
1021
1022
1021
1019
1021
1023
1024
1023
1020
1017
1018
1021
1022
1024
1022
1019
1019
1024
1024
1022
1016
1011
1015
1017
1020
1022
1021
1019
1019
1019
1017
1017
1016
1012
1013
1015
1018
1018
1018
1014
1012
1015
1018
1019
1016
1013
1011
1015
1015
1013
1015
1010
1013
1016
1018
1018
1017
1014
1011
1016
1017
1016
1016
1012
1014
1013
1015
1015
1017
1015
1014
1013
1017
1020
1013
1010
1010
1012
1018
1018
1018
1014
1013
1013
1018
1018
1015
1013
1013
1015
1018
1018
1016
1016
1017
1018
1021
1023
1021
1020
1019
1019
1023
1024
1024
1023
1023
1023
1024
1023
1023
1023
1025
1028
1029
1031
1030
1030
1033
1040
1041
1041
1040
1034
1033
1032
1031
1032
1031
1028
1030
1028
1030
1028
1024
1018
1017
1020
1020
1019
1016
1016
1012
1014
1015
1018
1018
1020
1018
1020
1022
1017
1016
1012
1012
1012
1014
1013
1012
1011
1013
1017
1019
1017
1016
1011
1010
1014
1017
1018
1015
1012
1013
1012
1014
1013
1014
1013
1013
1016
1016
1016
1015
1013
1011
1015
1020
1021
1022
1020
1022
1027
1033
1038
1044
1051
1061
1068
1082
1100
1121
1142
1165
1190
1217
1244
1272
1309
1345
1377
1384
1358
1302
1225
1147
1084
1044
1016
1004
1000
1002
1006
1009
1009
1010
1004
1004
1000
1005
1003
1000
994
994
995
997
997
998
994
995
996
999
1000
998
996
996
996
1000
996
993
993
993
996
995
995
994
989
991
994
996
997
995
993
990
994
997
999
998
991
989
992
998
1000
996
992
991
993
996
1001
1001
999
1001
1001
1002
1000
1000
996
999
1002
1006
1008
1007
1005
1004
1009
1016
1015
1014
1013
1015
1016
1020
1025
1024
1024
1026
1030
1034
1037
1038
1036
1042
1047
1052
1055
1054
1054
1055
1058
1065
1067
1066
1065
1066
1067
1068
1068
1064
1058
1054
1054
1054
1050
1045
1040
1036
1038
1038
1039
1035
1032
1031
1032
1033
1032
1029
1025
1023
1025
1028
1026
1025
1026
1025
1028
1031
1030
1026
1023
1023
1025
1027
1027
1025
1025
1026
1028
1028
1029
1026
1024
1024
1028
1029
1027
1025
1025
1026
1028
1031
1034
1033
1035
1039
1051
1070
1094
1114
1128
1141
1138
1127
1102
1056
987
907
819
738
679
649
638
634
642
661
679
705
730
759
792
817
837
854
869
883
901
919
930
939
940
947
959
971
981
990
998
1006
1017
1029
1035
1043
1044
1051
1059
1063
1068
1064
1065
1064
1069
1069
1072
1074
1074
1077
1080
1083
1083
1083
1082
1085
1089
1092
1093
1093
1090
1095
1096
1102
1105
1106
1106
1108
1111
1114
1119
1121
1123
1128
1128
1129
1132
1134
1137
1139
1146
1152
1155
1158
1161
1166
1172
1179
1185
1187
1190
1196
1202
1210
1215
1222
1222
1226
1231
1235
1239
1235
1234
1235
1239
1236
1232
1228
1221
1219
1219
1217
1211
1206
1197
1191
1185
1177
1169
1162
1152
1146
1139
1135
1126
1117
1111
1103
1104
1099
1091
1086
1080
1073
1076
1074
1073
1066
1058
1057
1055
1055
1053
1050
1047
1045
1044
1045
1044
1043
1041
1041
1043
1044
1044
1039
1039
1037
1041
1045
1044
1043
1039
1039
1040
1039
1038
1034
1032
1035
1036
1035
1037
1032
1032
1031
1034
1036
1034
1032
1027
1027
1027
1031
1030
1028
1025
1024
1025
1026
1028
1022
1018
1017
1019
1024
1024
1023
1020
1018
1021
1021
1023
1021
1018
1017
1021
1026
1023
1019
1015
1012
1017
1020
1019
1022
1017
1016
1020
1022
1020
1018
1013
1016
1017
1021
1021
1017
1016
1017
1020
1021
1021
1018
1016
1018
1020
1021
1021
1022
1020
1017
1020
1022
1023
1023
1018
1016
1018
1018
1021
1018
1016
1016
1018
1021
1022
1020
1019
1019
1021
1025
1024
1022
1018
1018
1019
1020
1022
1018
1016
1017
1020
1024
1023
1023
1018
1019
1022
1020
1023
1023
1018
1017
1019
1023
1022
1022
1021
1020
1022
1023
1023
1021
1020
1018
1019
1023
1022
1021
1017
1019
1018
1021
1023
1022
1021
1021
1023
1026
1025
1022
1019
1021
1023
1027
1025
1023
1022
1020
1024
1026
1027
1023
1023
1025
1027
1028
1030
1026
1026
1024
1027
1028
1029
1026
1022
1022
1028
1030
1029
1028
1023
1023
1026
1027
1029
1026
1023
1024
1026
1028
1029
1027
1024
1026
1028
1030
1031
1029
1028
1029
1028
1030
1032
1028
1025
1025
1026
1030
1032
1030
1026
1028
1029
1028
1026
1025
1025
1024
1031
1031
1030
1029
1025
1026
1030
1032
1031
1031
1027
1026
1031
1030
1027
1026
1027
1025
1029
1030
1031
1029
1025
1025
1028
1029
1030
1027
1024
1027
1030
1029
1030
1028
1026
1027
1029
1031
1029
1028
1026
1028
1030
1032
1030
1028
1023
1026
1031
1033
1035
1032
1028
1025
1026
1032
1032
1029
1029
1026
1029
1030
1032
1026
1025
1026
1030
1032
1029
1029
1024
1024
1027
1033
1032
1029
1025
1026
1027
1031
1028
1028
1027
1026
1029
1031
1030
1030
1026
1026
1028
1029
1030
1029
1024
1024
1028
1029
1029
1029
1026
1028
1030
1030
1033
1029
1027
1027
1032
1034
1036
1038
1034
1037
1039
1040
1039
1037
1035
1034
1038
1040
1039
1038
1034
1030
1032
1035
1036
1035
1032
1032
1036
1039
1040
1039
1035
1035
1037
1038
1031
1029
1024
1024
1027
1031
1031
1028
1025
1026
1028
1032
1031
1025
1027
1027
1030
1030
1031
1027
1026
1027
1031
1034
1032
1032
1030
1028
1031
1036
1036
1036
1040
1046
1050
1059
1068
1075
1080
1091
1112
1139
1170
1201
1228
1266
1304
1346
1387
1424
1436
1421
1366
1285
1193
1113
1055
1032
1034
1039
1040
1036
1031
1029
1027
1024
1018
1014
1010
1008
1010
1010
1010
1007
1005
1002
1005
1005
1003
1001
999
996
997
1002
1000
998
999
995
1001
997
995
992
991
993
994
996
998
995
992
990
998
1001
999
996
992
994
998
999
998
998
994
995
997
1001
1001
1001
1000
1000
1003
1004
1003
1000
1000
1003
1005
1003
1005
1005
1005
1005
1008
1012
1012
1009
1011
1017
1020
1024
1023
1026
1028
1030
1035
1040
1044
1047
1050
1054
1059
1062
1066
1065
1065
1063
1066
1071
1070
1068
1066
1067
1068
1069
1066
1064
1059
1061
1061
1062
1061
1055
1053
1052
1054
1055
1053
1052
1048
1050
1050
1049
1050
1048
1046
1044
1045
1046
1045
1046
1041
1039
1043
1047
1047
1043
1037
1037
1040
1042
1042
1038
1035
1036
1040
1041
1042
1039
1037
1037
1041
1041
1041
1037
1035
1038
1038
1041
1039
1040
1036
1038
1041
1042
1042
1039
1037
1038
1038
1041
1043
1039
1038
1035
1038
1038
1037
1033
1034
1036
1036
1037
1035
1035
1033
1031
1034
1034
1032
1032
1030
1029
1032
1034
1031
1032
1028
1027
1030
1031
1029
1027
1029
1028
1028
1032
1031
1031
1029
1030
1031
1030
1031
1029
1025
1025
1027
1030
1030
1031
1028
1028
1028
1031
1030
1027
1022
1026
1027
1030
1029
1025
1026
1030
1030
1031
1029
1029
1025
1028
1028
1032
1031
1028
1026
1027
1029
1030
1034
1035
1030
1026
1026
1029
1027
1027
1026
1028
1030
1031
1030
1027
1026
1027
1028
1032
1034
1033
1029
1027
1030
1030
1028
1029
1026
1027
1029
1032
1030
1030
1028
1028
1032
1036
1037
1030
1031
1028
1029
1031
1031
1031
1033
1031
1031
1034
1033
1030
1028
1029
1032
1032
1034
1033
1030
1031
1034
1039
1038
1038
1036
1037
1038
1042
1047
1043
1043
1043
1044
1044
1048
1046
1042
1038
1039
1040
1038
1036
1033
1036
1039
1039
1040
1039
1038
1039
1042
1043
1042
1043
1041
1041
1039
1039
1035
1033
1029
1031
1030
1034
1032
1033
1030
1031
1034
1034
1031
1034
1029
1030
1032
1035
1036
1035
1031
1030
1032
1037
1034
1034
1031
1030
1031
1036
1036
1034
1030
1034
1040
1047
1046
1043
1048
1050
1061
1075
1085
1092
1103
1117
1143
1175
1202
1232
1256
1285
1316
1351
1386
1417
1435
1434
1412
1370
1302
1223
1156
1101
1063
1041
1032
1031
1028
1033
1035
1035
1033
1031
1024
1021
1021
1020
1017
1014
1012
1011
1011
1014
1013
1014
1008
1009
1011
1012
1010
1007
1005
1003
1003
1006
1004
1002
1001
999
1003
1006
1007
1005
1004
1000
1004
1004
1005
1007
1003
1001
1003
1008
1004
1006
1000
1004
1007
1007
1007
1006
1005
1005
1008
1012
1008
1008
1005
1010
1011
1011
1010
1010
1008
1010
1011
1010
1012
1012
1013
1014
1014
1017
1015
1013
1012
1013
1019
1024
1022
1021
1018
1022
1027
1030
1029
1028
1028
1031
1039
1044
1042
1043
1044
1049
1055
1055
1059
1058
1060
1061
1065
1067
1066
1065
1063
1063
1066
1065
1065
1063
1060
1058
1058
1060
1057
1052
1048
1044
1045
1047
1044
1042
1039
1037
1038
1041
1039
1036
1036
1039
1038
1040
1037
1035
1031
1029
1033
1034
1034
1032
1029
1030
1030
1031
1032
1029
1027
1027
1030
1031
1030
1030
1026
1024
1027
1029
1027
1027
1021
1020
1023
1024
1024
1023
1023
1023
1025
1027
1026
1025
1025
1027
1028
1033
1032
1031
1025
1025
1028
1029
1029
1028
1026
1025
1027
1033
1032
1032
1029
1029
1031
1033
1032
1032
1027
1027
1031
1033
1035
1033
1031
1029
1029
1033
1034
1031
1029
1027
1030
1032
1031
1030
1027
1028
1031
1034
1034
1032
1029
1030
1030
1028
1027
1024
1023
1026
1029
1031
1029
1027
1025
1025
1027
1029
1029
1029
1026
1029
1030
1029
1027
1024
1024
1024
1029
1030
1032
1030
1029
1027
1030
1033
1030
1030
1030
1029
1032
1034
1035
1031
1027
1027
1031
1033
1035
1035
1032
1034
1036
1035
1033
1030
1025
1025
1030
1032
1030
1029
1026
1028
1034
1036
1035
1032
1028
1033
1034
1037
1035
1034
1027
1028
1030
1036
1035
1036
1032
1035
1036
1038
1037
1036
1034
1032
1033
1037
1040
1042
1045
1046
1047
1047
1045
1041
1041
1045
1049
1052
1050
1048
1044
1046
1043
1047
1044
1043
1040
1042
1041
1043
1044
1043
1041
1041
1043
1046
1048
1045
1042
1045
1044
1041
1037
1034
1032
1031
1037
1038
1036
1034
1038
1034
1037
1039
1036
1032
1030
1036
1036
1039
1041
1036
1036
1036
1039
1042
1038
1036
1032
1034
1035
1038
1040
1039
1038
1044
1047
1055
1059
1062
1068
1077
1092
1107
1126
1149
1177
1207
1239
1271
1300
1330
1367
1402
1425
1417
1369
1288
1190
1114
1063
1040
1028
1027
1030
1032
1035
1034
1034
1031
1022
1016
1014
1016
1018
1015
1013
1012
1013
1012
1014
1010
1012
1012
1014
1015
1015
1012
1009
1009
1013
1015
1014
1011
1007
1007
1009
1013
1013
1009
1008
1010
1008
1009
1006
1003
1001
1003
1008
1009
1006
1004
1003
1002
1006
1013
1012
1008
1006
1004
1008
1010
1011
1009
1010
1009
1011
1013
1012
1014
1010
1007
1010
1013
1016
1013
1012
1016
1018
1020
1020
1020
1019
1019
1025
1028
1029
1029
1032
1030
1037
1043
1043
1044
1042
1045
1049
1052
1054
1056
1056
1061
1066
1068
1066
1066
1065
1066
1071
1074
1073
1069
1066
1068
1069
1071
1066
1063
1056
1054
1052
1053
1051
1047
1041
1040
1045
1047
1046
1045
1040
1039
1039
1040
1036
1033
1034
1035
1035
1037
1037
1035
1030
1029
1033
1033
1035
1031
1029
1027
1031
1035
1034
1034
1031
1030
1030
1034
1030
1027
1025
1027
1029
1031
1026
1025
1024
1023
1026
1031
1029
1028
1027
1028
1028
1032
1030
1025
1025
1026
1029
1034
1033
1031
1027
1027
1028
1029
1031
1026
1025
1025
1028
1030
1031
1028
1025
1022
1028
1027
1026
1026
1022
1023
1023
1027
1025
1023
1019
1017
1018
1023
1021
1021
1018
1018
1020
1019
1022
1020
1017
1016
1018
1021
1019
1019
1015
1019
1018
1023
1018
1017
1013
1017
1020
1024
1023
1020
1015
1016
1018
1019
1019
1016
1015
1018
1019
1023
1019
1016
1014
1014
1016
1021
1018
1016
1016
1017
1019
1023
1022
1018
1019
1018
1019
1022
1021
1018
1015
1018
1018
1022
1021
1020
1017
1019
1022
1024
1024
1022
1017
1018
1020
1020
1019
1017
1016
1015
1017
1021
1019
1017
1015
1015
1020
1023
1024
1022
1021
1021
1022
1027
1029
1030
1028
1030
1030
1033
1033
1028
1030
1030
1031
1031
1029
1027
1023
1025
1028
1030
1028
1027
1025
1028
1030
1033
1033
1031
1026
1026
1026
1028
1026
1025
1019
1021
1025
1027
1025
1025
1024
1023
1025
1027
1027
1026
1021
1021
1025
1025
1025
1025
1020
1022
1025
1026
1022
1018
1017
1020
1027
1029
1029
1029
1028
1031
1035
1040
1043
1049
1062
1073
1084
1094
1109
1130
1155
1183
1215
1248
1276
1312
1347
1388
1414
1410
1363
1277
1179
1103
1054
1037
1026
1023
1022
1021
1023
1022
1022
1018
1013
1009
1011
1009
1009
1004
999
1000
1003
1004
1005
1002
999
1000
999
1002
1002
1000
996
999
1000
1001
997
994
993
992
993
997
995
990
985
987
991
995
995
993
991
988
992
997
998
995
992
993
994
998
997
993
990
991
996
999
999
997
995
996
1000
1002
1001
997
997
1000
1002
1006
1003
1003
1001
1004
1007
1013
1012
1010
1012
1019
1024
1027
1023
1020
1020
1025
1032
1040
1041
1045
1042
1043
1046
1052
1051
1051
1052
1054
1057
1062
1059
1057
1055
1053
1054
1055
1051
1048
1041
1041
1042
1043
1040
1037
1038
1035
1035
1034
1035
1031
1032
1031
1033
1034
1034
1030
1027
1026
1025
1028
1027
1024
1022
1022
1026
1028
1030
1026
1025
1023
1026
1026
1027
1024
1024
1026
1027
1032
1029
1027
1023
1025
1028
1032
1035
1031
1026
1026
1026
1028
1027
1023
1021
1019
1026
1032
1031
1027
1023
1025
1029
1032
1030
1028
1026
1029
1030
1031
1027
1025
1025
1025
1027
1031
1029
1028
1027
1028
1034
1048
1056
1068
1090
1115
1141
1158
1161
1149
1124
1093
1037
969
880
785
694
634
612
608
599
595
583
595
619
649
683
716
744
772
799
823
839
854
867
883
905
917
925
931
937
947
959
973
983
995
1002
1013
1027
1038
1042
1047
1049
1056
1061
1065
1068
1067
1071
1074
1078
1084
1082
1082
1081
1081
1086
1090
1089
1088
1089
1093
1097
1101
1102
1099
1102
1106
1109
1115
1115
1118
1118
1122
1129
1133
1135
1134
1138
1142
1148
1154
1156
1161
1163
1171
1172
1184
1189
1190
1195
1199
1211
1218
1225
1232
1235
1243
1250
1260
1267
1271
1277
1282
1288
1295
1299
1298
1298
1300
1302
1304
1304
1297
1292
1287
1284
1281
1271
1264
1256
1249
1245
1237
1228
1218
1203
1199
1192
1186
1177
1164
1155
1143
1134
1131
1122
1115
1106
1099
1096
1093
1088
1076
1067
1062
1063
1065
1060
1058
1057
1056
1053
1051
1039
1032
1033
1045
1053
1052
1048
1036
1020
1014
1015
1024
1019
1016
1014
1011
1012
1016
1012
1011
1009
1014
1012
1014
1014
1018
1018
1021
1016
1015
1015
1015
1019
1027
1035
1035
1030
1021
1013
1005
997
996
990
984
982
985
991
991
990
988
985
982
978
979
980
984
986
993
1003
1011
1014
1015
1021
1026
1030
1033
1029
1024
1018
1016
1016
1014
1007
1000
995
997
995
995
994
992
994
998
1001
1006
1004
1002
997
999
1003
1008
1008
1006
1004
1003
1003
1003
1002
1002
1001
1001
1008
1010
1009
1006
1006
1005
1007
1008
1005
1000
997
999
1005
1007
1008
1004
1003
1005
1006
1006
1001
1000
999
1003
1005
1008
1006
1006
1000
1001
1001
1004
1006
1005
1004
1008
1009
1011
1008
1006
1001
1000
1005
1009
1008
1005
1000
1001
1002
1007
1007
1006
1008
1009
1011
1017
1012
1008
1007
1008
1010
1014
1015
1010
1010
1013
1010
1012
1009
1006
1008
1009
1013
1016
1013
1013
1013
1012
1017
1019
1013
1014
1013
1012
1014
1016
1012
1009
1007
1007
1014
1016
1016
1012
1010
1011
1011
1015
1014
1015
1015
1016
1017
1014
1009
1006
1007
1010
1014
1020
1018
1017
1011
1010
1013
1019
1018
1019
1016
1015
1013
1015
1012
1014
1014
1016
1017
1020
1019
1018
1016
1016
1018
1019
1016
1012
1009
1011
1013
1016
1015
1015
1013
1014
1016
1017
1015
1014
1012
1014
1015
1019
1020
1014
1009
1011
1014
1017
1018
1014
1010
1012
1016
1022
1022
1020
1017
1015
1016
1017
1016
1011
1012
1013
1018
1021
1020
1018
1016
1016
1022
1023
1021
1020
1019
1018
1018
1021
1020
1021
1022
1022
1024
1025
1024
1025
1024
1022
1019
1022
1023
1021
1016
1018
1022
1029
1028
1024
1023
1024
1027
1028
1026
1023
1022
1022
1026
1031
1027
1025
1022
1027
1031
1035
1037
1038
1031
1029
1033
1039
1044
1043
1039
1037
1030
1028
1027
1025
1025
1027
1030
1034
1032
1032
1034
1034
1041
1042
1038
1036
1031
1033
1037
1040
