1027
1024
1021
1019
1021
1024
1027
1025
1022
1020
1023
1022
1027
1024
1021
1019
1021
1022
1027
1024
1019
1019
1020
1023
1026
1024
1022
1019
1022
1024
1025
1027
1025
1026
1029
1033
1039
1045
1044
1054
1065
1079
1090
1099
1114
1138
1170
1202
1236
1267
1294
1323
1362
1408
1446
1468
1461
1420
1344
1254
1169
1104
1057
1031
1026
1029
1033
1033
1028
1024
1024
1021
1018
1014
1011
1009
1008
1008
1011
1009
1004
1003
1002
1008
1010
1005
1004
999
1001
1005
1005
1004
1001
999
1001
1001
1002
1002
999
996
999
1001
1003
1004
998
997
997
998
1002
1002
997
998
997
1000
1001
999
997
997
999
1003
1004
1000
998
998
1001
1004
1005
1003
999
999
1001
1003
1004
1003
1003
1001
1004
1005
1005
1005
1004
1002
1007
1011
1013
1010
1010
1011
1014
1018
1021
1023
1024
1024
1028
1032
1037
1034
1037
1038
1043
1049
1056
1058
1056
1056
1062
1065
1069
1069
1070
1067
1067
1069
1068
1068
1065
1061
1062
1062
1061
1059
1053
1050
1051
1049
1051
1047
1043
1041
1041
1042
1042
1042
1038
1035
1037
1041
1042
1040
1036
1035
1038
1039
1043
1041
1038
1035
1036
1037
1041
1040
1036
1034
1035
1035
1038
1038
1036
1035
1035
1039
1039
1036
1036
1034
1033
1034
1038
1035
1034
1035
1032
1035
1036
1037
1033
1033
1035
1036
1039
1037
1035
1032
1034
1038
1040
1039
1034
1035
1038
1041
1040
1041
1036
1035
1036
1041
1042
1038
1037
1035
1036
1038
1042
1040
1036
1034
1034
1036
1039
1036
1035
1034
1033
1036
1037
1035
1032
1030
1035
1037
1038
1036
1033
1031
1033
1035
1035
1032
1030
1031
1031
1034
1037
1032
1027
1028
1029
1032
1034
1031
1027
1026
1028
1032
1033
1032
1031
1029
1031
1031
1033
1031
1028
1025
1028
1028
1032
1030
1027
1026
1024
1029
1031
1028
1027
1028
1030
1034
1037
1038
1037
1033
1037
1038
1040
1038
1033
1033
1035
1036
1039
1038
1033
1032
1033
1034
1036
1032
1033
1030
1033
1035
1036
1033
1032
1032
1033
1034
1036
1035
1033
1033
1032
1034
1037
1035
1033
1036
1039
1042
1044
1043
1040
1039
1040
1043
1046
1047
1042
1041
1044
1045
1045
1046
1041
1038
1040
1039
1040
1039
1036
1035
1039
1044
1047
1045
1045
1041
1043
1044
1046
1044
1041
1039
1040
1039
1040
1036
1034
1031
1033
1035
1040
1037
1033
1031
1032
1034
1035
1034
1033
1032
1033
1036
1036
1036
1032
1030
1032
1036
1037
1033
1031
1033
1032
1037
1042
1039
1038
1038
1044
1051
1059
1063
1070
1081
1092
1104
1120
1138
1159
1186
1215
1244
1274
1299
1323
1349
1387
1420
1444
1442
1413
1355
1272
1188
1120
1075
1049
1034
1033
1034
1036
1036
1030
1029
1028
1029
1026
1023
1018
1013
1015
1016
1017
1013
1012
1009
1009
1012
1012
1010
1004
1006
1009
1009
1009
1007
1005
1003
1005
1008
1008
1004
1001
1000
1002
1005
1005
1004
1003
1001
1002
1003
1003
1000
999
996
996
999
1001
1001
997
998
998
998
1002
1002
998
997
996
1002
1004
999
996
997
998
1002
1002
1000
1000
999
999
999
1003
1003
998
1001
1004
1006
1009
1006
1005
1007
1010
1012
1013
1015
1015
1015
1018
1024
1028
1028
1025
1026
1033
1041
1044
1043
1041
1045
1046
1055
1062
1063
1062
1063
1062
1066
1072
1070
1068
1064
1065
1067
1067
1061
1057
1055
1054
1055
1053
1048
1044
1042
1044
1045
1044
1040
1037
1035
1034
1038
1039
1037
1032
1028
1027
1031
1030
1031
1030
1028
1032
1034
1034
1032
1031
1028
1028
1031
1032
1030
1025
1026
1024
1028
1028
1029
1026
1024
1025
1026
1024
1022
1021
1018
1020
1022
1026
1025
1021
1016
1018
1020
1023
1022
1019
1016
1019
1022
1024
1022
1022
1019
1019
1022
1023
1020
1020
1019
1019
1022
1026
1025
1022
1020
1018
1021
1023
1023
1023
1019
1023
1021
1022
1021
1019
1018
1021
1022
1022
1018
1018
1016
1019
1018
1020
1015
1016
1015
1013
1017
1018
1017
1013
1014
1014
1014
1018
1013
1010
1009
1010
1014
1015
1015
1014
1012
1012
1017
1017
1015
1012
1009
1010
1012
1014
1015
1011
1008
1011
1014
1015
1013
1011
1010
1014
1014
1014
1013
1011
1011
1011
1015
1015
1014
1013
1010
1011
1017
1018
1018
1013
1011
1015
1019
1021
1023
1021
1023
1024
1029
1032
1031
1030
1027
1027
1029
1029
1028
1025
1024
1026
1026
1026
1023
1017
1015
1015
1016
1019
1017
1014
1014
1016
1019
1017
1015
1013
1012
1013
1016
1017
1016
1013
1013
1013
1013
1015
1014
1013
1014
1013
1016
1017
1015
1013
1011
1015
1018
1021
1017
1015
1013
1016
1018
1018
1018
1019
1016
1019
1024
1026
1030
1031
1035
1043
1058
1070
1079
1083
1094
1118
1146
1178
1203
1231
1255
1284
1319
1360
1396
1425
1429
1404
1345
1264
1178
1107
1060
1031
1017
1015
1016
1017
1018
1016
1015
1015
1012
1005
1001
1004
1004
1002
999
999
994
996
997
996
998
996
992
993
996
997
992
991
990
991
993
993
990
987
985
985
991
990
989
985
984
987
988
989
987
984
985
986
986
987
988
984
981
983
988
990
986
984
982
986
987
988
988
987
986
988
988
991
991
987
988
990
994
995
993
992
993
995
998
1003
1004
1004
1004
1008
1014
1017
1020
1019
1021
1027
1032
1036
1038
1041
1044
1047
1055
1057
1060
1060
1058
1062
1065
1067
1064
1059
1059
1062
1061
1063
1057
1053
1049
1047
1047
1046
1041
1038
1035
1036
1037
1037
1032
1030
1029
1032
1033
1035
1032
1029
1026
1028
1030
1032
1030
1026
1027
1027
1030
1031
1029
1026
1026
1026
1030
1031
1026
1024
1023
1026
1029
1026
1026
1023
1020
1024
1024
1027
1024
1020
1020
1022
1026
1026
1023
1023
1022
1022
1026
1025
1023
1023
1022
1025
1030
1031
1031
1024
1025
1027
1030
1033
1030
1026
1025
1030
1030
1033
1028
1026
1026
1028
1032
1033
1032
1028
1028
1028
1030
1031
1025
1026
1024
1025
1027
1030
1025
1024
1023
1026
1027
1027
1025
1020
1022
1020
1027
1026
1025
1022
1020
1024
1024
1025
1024
1019
1019
1023
1025
1026
1027
1022
1019
1022
1024
1025
1026
1024
1023
1023
1026
1027
1026
1022
1024
1025
1025
1026
1025
1023
1021
1021
1026
1029
1026
1021
1022
1021
1025
1026
1029
1024
1024
1023
1026
1027
1026
1024
1023
1023
1027
1027
1025
1022
1021
1025
1029
1028
1027
1023
1023
1025
1028
1030
1028
1025
1026
1027
1029
1029
1027
1026
1024
1027
1029
1030
1029
1029
1026
1031
1034
1033
1036
1032
1034
1038
1039
1041
1041
1038
1038
1043
1041
1043
1043
1041
1036
1037
1037
1036
1035
1033
1037
1035
1038
1041
1040
1037
1038
1038
1042
1043
1037
1034
1029
1027
1030
1032
1029
1029
1028
1030
1033
1031
1031
1027
1027
1029
1030
1032
1031
1026
1025
1027
1030
1033
1031
1029
1027
1029
1031
1034
1033
1029
1030
1035
1037
1041
1047
1052
1061
1073
1088
1096
1109
1128
1154
1188
1221
1254
1285
1311
1344
1387
1434
1464
1474
1452
1394
1309
1216
1138
1080
1046
1032
1030
1039
1039
1038
1032
1029
1027
1026
1022
1016
1014
1011
1012
1015
1017
1013
1010
1008
1010
1016
1014
1011
1010
1005
1009
1012
1014
1011
1007
1005
1007
1010
1009
1006
1004
1004
1006
1007
1010
1007
1005
1004
1008
1008
1010
1006
1005
1002
1003
1006
1008
1007
1005
1004
1004
1008
1008
1006
1005
1006
1007
1008
1009
1007
1004
1004
1009
1010
1011
1010
1008
1009
1014
1014
1017
1014
1016
1015
1020
1026
1026
1028
1028
1029
1034
1040
1044
1042
1044
1046
1055
1060
1064
1066
1066
1069
1075
1079
1079
1081
1081
1081
1082
1085
1084
1081
1077
1073
1071
1069
1070
1065
1059
1057
1057
1060
1058
1054
1049
1045
1043
1045
1047
1044
1041
1041
1042
1043
1042
1040
1037
1035
1038
1039
1035
1036
1033
1030
1033
1034
1037
1035
1031
1030
1034
1035
1033
1034
1028
1027
1028
1033
1035
1029
1026
1025
1029
1029
1027
1023
1021
1022
1024
1026
1027
1025
1024
1021
1023
1024
1025
1025
1021
1022
1025
1027
1030
1028
1025
1024
1025
1029
1031
1032
1028
1025
1028
1031
1031
1030
1026
1027
1027
1027
1027
1027
1024
1024
1026
1029
1028
1027
1023
1021
1024
1028
1028
1027
1024
1022
1026
1029
1027
1026
1022
1019
1019
1020
1022
1024
1021
1022
1021
1020
1021
1017
1017
1016
1021
1023
1026
1021
1017
1016
1020
1024
1025
1020
1016
1015
1017
1019
1018
1019
1018
1018
1022
1023
1025
1020
1018
1015
1017
1020
1021
1019
1018
1017
1020
1023
1026
1021
1016
1017
1019
1023
1024
1023
1020
1022
1023
1025
1025
1021
1019
1018
1021
1025
1028
1027
1024
1023
1025
1030
1034
1032
1030
1028
1033
1034
1036
1033
1029
1025
1027
1029
1031
1028
1027
1025
1028
1031
1030
1029
1028
1026
1030
1033
1030
1028
1026
1022
1024
1025
1024
1022
1020
1020
1023
1025
1026
1022
1020
1015
1019
1017
1021
1021
1018
1017
1018
1020
1019
1018
1018
1021
1022
1026
1022
1024
1021
1020
1025
1028
1030
1031
1030
1035
1043
1054
1065
1076
1083
1093
1113
1140
1171
1201
1229
1256
1287
1318
1352
1392
1424
1446
1444
1409
1336
1235
1146
1085
1047
1028
1023
1023
1021
1019
1021
1019
1017
1015
1009
1005
1002
1007
1004
1002
997
996
998
999
998
998
994
994
995
997
999
994
990
992
993
997
996
994
988
988
988
993
991
990
990
990
989
992
990
987
986
986
990
990
990
988
985
986
987
990
990
988
984
985
986
989
990
986
984
986
989
993
991
990
986
988
990
995
997
995
994
993
1000
1003
1006
1005
1008
1009
1013
1017
1022
1022
1022
1026
1033
1041
1043
1047
1049
1052
1059
1063
1065
1063
1061
1062
1062
1062
1057
1054
1048
1046
1045
1045
1042
1037
1032
1031
1029
1031
1029
1025
1024
1024
1025
1027
1027
1023
1019
1019
1021
1023
1025
1023
1018
1019
1016
1022
1023
1018
1020
1016
1016
1018
1018
1016
1015
1014
1016
1015
1017
1014
1010
1012
1013
1013
1015
1014
1011
1009
1012
1013
1011
1010
1010
1012
1010
1013
1014
1013
1010
1011
1013
1016
1016
1016
1014
1011
1014
1016
1017
1017
1013
1014
1016
1019
1018
1017
1013
1015
1016
1019
1020
1016
1015
1014
1014
1016
1017
1016
1014
1013
1016
1018
1017
1013
1012
1012
1016
1016
1017
1015
1012
1010
1012
1015
1014
1013
1010
1008
1013
1016
1017
1011
1010
1008
1011
1015
1015
1014
1012
1010
1013
1015
1015
1013
1008
1010
1010
1012
1014
1009
1008
1008
1011
1014
1015
1013
1009
1010
1011
1013
1015
1012
1010
1010
1014
1016
1017
1015
1010
1011
1013
1015
1015
1013
1013
1012
1014
1017
1017
1016
1013
1015
1015
1015
1016
1015
1013
1012
1013
1017
1017
1016
1014
1015
1015
1018
1019
1015
1012
1012
1016
1019
1020
1019
1021
1020
1022
1026
1025
1026
1025
1023
1024
1031
1031
1027
1027
1025
1026
1027
1027
1023
1022
1021
1023
1027
1027
1025
1024
1023
1027
1030
1032
1030
1028
1025
1023
1022
1022
1019
1016
1017
1020
1023
1023
1021
1019
1018
1019
1023
1021
1019
1015
1016
1019
1022
1022
1019
1016
1014
1018
1022
1021
1018
1019
1019
1019
1021
1023
1023
1020
1023
1026
1031
1034
1036
1042
1048
1064
1079
1089
1099
1116
1143
1179
1214
1245
1274
1304
1335
1373
1416
1454
1469
1458
1412
1335
1245
1162
1100
1053
1027
1021
1025
1027
1024
1017
1017
1016
1016
1009
1004
1001
1001
1000
1001
1002
999
996
994
998
1000
1000
998
992
993
995
997
998
999
992
994
994
995
996
994
988
990
991
996
994
991
990
987
991
992
993
990
990
990
992
993
994
990
988
991
993
995
995
993
992
988
995
997
1000
995
993
990
997
997
996
997
995
996
998
1003
1002
999
999
1002
1003
1009
1010
1010
1010
1010
1014
1019
1022
1021
1024
1027
1029
1036
1039
1039
1041
1045
1051
1056
1061
1065
1064
1065
1071
1075
1078
1078
1075
1076
1078
1081
1076
1071
1068
1064
1064
1065
1061
1060
1054
1050
1050
1048
1049
1046
1041
1039
1041
1041
1038
1038
1036
1035
1035
1037
1035
1034
1030
1028
1031
1036
1035
1036
1033
1032
1036
1037
1035
1033
1031
1031
1034
1035
1036
1033
1031
1031
1027
1032
1032
1028
1027
1030
1032
1034
1032
1026
1025
1025
1028
1032
1030
1028
1023
1023
1025
1027
1027
1025
1024
1023
1027
1028
1028
1026
1022
1022
1025
1029
1027
1026
1023
1027
1029
1030
1030
1029
1027
1027
1029
1033
1034
1034
1030
1031
1030
1032
1032
1029
1028
1028
1030
1031
1029
1027
1023
1027
1029
1031
1028
1026
1024
1026
1027
1029
1029
1028
1026
1023
1024
1025
1027
1025
1023
1025
1028
1030
1028
1028
1024
1028
1030
1031
1031
1029
1025
1022
1026
1029
1030
1029
1026
1023
1026
1027
1027
1027
1024
1024
1027
1027
1026
1022
1022
1026
1028
1029
1028
1027
1022
1022
1023
1025
1024
1022
1020
1023
1022
1023
1021
1021
1017
1021
1022
1024
1024
1025
1021
1024
1026
1027
1028
1026
1023
1021
1024
1027
1026
1026
1025
1025
1029
1034
1033
1032
1028
1028
1035
1036
1037
1035
1032
1033
1034
1038
1037
1036
1029
1030
1029
1030
1031
1029
1030
1032
1034
1038
1038
1035
1032
1032
1033
1035
1032
1028
1025
1026
1027
1029
1031
1026
1025
1027
1031
1029
1027
1027
1025
1027
1026
1029
1028
1027
1025
1023
1027
1029
1028
1028
1028
1028
1029
1030
1030
1031
1030
1036
1037
1043
1047
1050
1059
1070
1085
1099
1111
1128
1146
1174
1207
1239
1270
1298
1325
1363
1406
1438
1453
1434
1385
1302
1214
1142
1089
1054
1032
1026
1028
1030
1030
1028
1025
1023
1021
1016
1012
1012
1006
1006
1007
1008
1005
1004
1004
1000
1003
1007
1007
1003
1001
999
1001
1004
1002
999
999
999
1000
1000
1002
999
995
994
996
996
998
999
992
994
996
999
1000
999
998
998
998
997
996
992
992
994
999
998
997
996
992
993
996
998
1000
997
996
995
999
1003
1001
999
997
999
999
1002
1004
1000
997
998
1004
1007
1007
1008
1008
1008
1011
1015
1017
1018
1019
1022
1025
1033
1035
1036
1035
1038
1045
1051
1054
1057
1057
1058
1062
1071
1070
1072
1068
1070
1073
1076
1072
1067
1064
1062
1062
1065
1059
1055
1051
1052
1051
1050
1048
1047
1040
1040
1041
1043
1041
1039
1035
1036
1038
1037
1038
1039
1034
1035
1037
1040
1039
1038
1033
1035
1034
1037
1036
1036
1032
1032
1035
1036
1036
1034
1031
1031
1034
1034
1033
1032
1030
1029
1032
1031
1030
1026
1022
1023
1027
1030
1025
1023
1020
1023
1024
1026
1027
1024
1021
1024
1024
1029
1029
1023
1023
1027
1026
1029
1028
1026
1024
1024
1028
1029
1030
1025
1024
1026
1025
1028
1027
1025
1023
1024
1026
1028
1027
1025
1022
1023
1024
1028
1028
1023
1021
1021
1025
1025
1024
1023
1021
1024
1024
1028
1025
1022
1020
1021
1024
1025
1024
1023
1019
1020
1022
1024
1023
1020
1019
1019
1021
1024
1025
1021
1018
1018
1020
1024
1027
1024
1019
1021
1021
1023
1023
1021
1019
1021
1023
1026
1025
1024
1023
1020
1023
1024
1026
1024
1022
1021
1025
1026
1027
1024
1022
1023
1027
1026
1028
1025
1024
1025
1026
1027
1028
1026
1023
1025
1026
1027
1026
1025
1024
1024
1027
1031
1027
1029
1023
1025
1028
1031
1034
1032
1031
1031
1033
1036
1038
1038
1035
1036
1041
1041
1041
1039
1035
1032
1037
1037
1035
1033
1031
1029
1031
1032
1030
1031
1029
1032
1034
1039
1037
1035
1034
1034
1036
1035
1032
1029
1023
1026
1026
1032
1031
1031
1025
1027
1029
1032
1030
1029
1024
1026
1027
1028
1029
1028
1025
1026
1028
1029
1028
1027
1023
1024
1028
1029
1030
1027
1027
1027
1032
1033
1036
1040
1040
1046
1053
1067
1077
1086
1094
1103
1127
1153
1185
1213
1241
1274
1307
1339
1377
1416
1455
1478
1479
1445
1374
1277
1187
1126
1084
1054
1038
1031
1030
1030
1031
1033
1030
1026
1017
1014
1012
1014
1012
1011
1007
1007
1009
1012
1011
1008
1005
1006
1006
1010
1008
1007
1004
1002
1003
1007
1005
1005
1002
1000
1002
1005
1004
1002
999
1001
1000
1001
1000
998
999
995
1000
1006
1000
999
997
997
1002
1005
1004
1003
1001
1001
1004
1004
1005
1004
1002
1006
1006
1009
1008
1006
1003
1009
1011
1012
1013
1012
1013
1014
1019
1025
1026
1028
1025
1031
1039
1043
1047
1052
1054
1060
1066
1073
1079
1080
1083
1082
1089
1092
1092
1090
1087
1087
1088
1086
1083
1076
1073
1070
1070
1071
1066
1062
1057
1057
1052
1055
1051
1050
1048
1044
1048
1049
1047
1044
1042
1043
1046
1046
1047
1041
1039
1036
1041
1045
1045
1041
1040
1041
1040
1044
1042
1041
1041
1039
1040
1042
1040
1038
1035
1036
1036
1039
1038
1037
1035
1035
1037
1040
1038
1035
1033
1033
1036
1037
1036
1035
1033
1034
1036
1038
1038
1039
1035
1036
1037
1041
1038
1037
1036
1037
1039
1044
1043
1041
1040
1038
1039
1043
1043
1043
1039
1037
1041
1043
1043
1041
1038
1041
1044
1046
1046
1046
1043
1042
1045
1048
1046
1044
1042
1041
1043
1046
1047
1042
1042
1044
1043
1047
1048
1048
1048
1044
1043
1044
1044
1038
1038
1039
1043
1044
1041
1045
1045
1045
1045
1046
1045
1039
1036
1038
1044
1050
1047
1043
1041
1040
1045
1046
1047
1044
1043
1043
1045
1048
1045
1043
1044
1043
1046
1047
1046
1044
1039
1040
1044
1046
1048
1045
1046
1045
1045
1047
1046
1045
1042
1046
1046
1047
1045
1044
1041
1045
1046
1051
1050
1046
1044
1046
1048
1052
1052
1049
1050
1050
1056
1059
1057
1055
1055
1055
1055
1056
1051
1048
1045
1045
1050
1051
1052
1051
1048
1050
1051
1054
1054
1051
1050
1053
1053
1053
1048
1045
1040
1041
1042
1045
1047
1045
1042
1041
1042
1043
1043
1043
1042
1041
1045
1044
1046
1044
1041
1042
1047
1047
1048
1042
1042
1045
1049
1051
1048
1046
1048
1051
1058
1067
1071
1080
1092
1103
1117
1135
1156
1192
1224
1258
1290
1320
1351
1392
1431
1460
1459
1423
1336
1230
1144
1089
1062
1053
1051
1048
1044
1042
1044
1047
1041
1036
1030
1027
1030
1030
1027
1025
1022
1023
1024
1026
1023
1020
1017
1019
1023
1023
1021
1018
1016
1018
1020
1019
1021
1018
1013
1012
1016
1017
1015
1016
1011
1011
1014
1016
1014
1013
1010
1010
1012
1013
1013
1013
1009
1009
1010
1012
1011
1010
1009
1013
1014
1017
1014
1012
1011
1015
1015
1017
1013
1012
1011
1014
1018
1023
1023
1024
1020
1023
1028
1032
1034
1033
1033
1035
1042
1046
1051
1051
1054
1058
1064
1069
1070
1074
1074
1080
1081
1090
1093
1089
1086
1088
1091
1088
1086
1084
1079
1079
1078
1080
1074
1070
1064
1061
1063
1063
1061
1056
1052
1052
1050
1051
1052
1048
1044
1045
1044
1048
1047
1044
1042
1044
1046
1048
1047
1043
1042
1039
1044
1045
1045
1039
1038
1038
1042
1043
1040
1038
1035
1035
1037
1038
1037
1033
1032
1032
1033
1034
1033
1031
1027
1028
1033
1033
1031
1030
1026
1029
1031
1031
1033
1029
1030
1029
1033
1034
1035
1031
1031
1033
1035
1039
1039
1034
1032
1033
1035
1036
1036
1035
1031
1031
1034
1036
1034
1033
1033
1032
1033
1036
1032
1030
1030
1027
1029
1031
1032
1029
1026
1027
1030
1032
1029
1028
1022
1026
1028
1030
1032
1027
1026
1025
1027
1029
1030
1028
1024
1025
1028
1030
1025
1025
1023
1024
1029
1030
1031
1026
1023
1026
1026
1030
1029
1026
1025
1026
1027
1031
1027
1026
1024
1024
1030
1030
1029
1026
1023
1024
1029
1030
1029
1029
1031
1035
1044
1055
1070
1088
1112
1138
1164
1177
1173
1158
1133
1091
1027
955
871
769
667
613
593
587
567
559
562
583
615
659
712
748
776
802
828
847
862
877
893
910
927
941
949
957
964
975
988
999
1008
1016
1025
1032
1046
1054
1057
1060
1063
1067
1071
1076
1076
1078
1077
1079
1082
1088
1087
1087
1085
1087
1092
1096
1096
1097
1099
1100
1104
1109
1111
1112
1111
1115
1120
1128
1129
1130
1131
1137
1144
1148
1153
1156
1158
1161
1168
1177
1181
1186
1188
1194
1204
1214
1219
1221
1225
1232
1242
1251
1258
1261
1262
1268
1276
1282
1286
1287
1288
1292
1295
1299
1297
1295
1293
1291
1292
1290
1284
1274
1266
1262
1257
1252
1244
1234
1224
1217
1210
1205
1194
1183
1176
1170
1160
1154
1146
1136
1128
1120
1117
1113
1105
1097
1088
1085
1081
1081
1073
1067
1064
1059
1060
1058
