1050
1050
1043
1035
1032
1033
1038
1041
1040
1038
1037
1038
1034
1033
1033
1034
1031
1034
1038
1041
1034
1026
1026
1029
1032
1036
1034
1032
1030
1029
1030
1035
1031
1035
1033
1037
1036
1033
1027
1021
1023
1029
1032
1031
1026
1021
1021
1023
1025
1026
1022
1021
1024
1028
1025
1022
1022
1017
1017
1023
1028
1030
1029
1022
1016
1017
1021
1026
1027
1024
1022
1023
1026
1021
1017
1015
1022
1024
1028
1027
1023
1022
1018
1016
1017
1017
1019
1020
1017
1020
1025
1028
1028
1024
1022
1023
1022
1021
1022
1023
1022
1018
1018
1016
1017
1019
1018
1021
1026
1029
1027
1022
1016
1019
1021
1023
1023
1022
1022
1023
1024
1025
1020
1021
1024
1028
1023
1017
1015
1017
1020
1023
1027
1029
1026
1021
1022
1025
1024
1024
1020
1013
1015
1019
1023
1027
1025
1022
1023
1027
1024
1019
1014
1015
1019
1025
1027
1025
1023
1020
1022
1025
1032
1030
1031
1030
1032
1036
1034
1034
1030
1025
1024
1024
1030
1035
1036
1032
1029
1036
1040
1041
1034
1025
1023
1030
1034
1038
1031
1026
1021
1024
1024
1022
1020
1022
1021
1021
1021
1024
1022
1018
1017
1022
1023
1024
1024
1021
1018
1019
1024
1023
1020
1014
1013
1017
1024
1021
1017
1016
1015
1021
1027
1030
1035
1036
1038
1045
1055
1072
1090
1107
1128
1160
1198
1239
1280
1320
1359
1393
1423
1453
1486
1513
1527
1523
1497
1442
1360
1271
1201
1149
1107
1073
1055
1040
1031
1029
1028
1020
1011
1004
998
994
993
994
991
988
984
982
977
977
978
978
978
979
981
981
977
977
974
974
973
971
970
968
966
966
971
971
970
967
965
965
966
966
964
963
963
966
964
961
953
953
953
961
962
957
952
953
955
958
961
960
956
952
952
956
958
959
958
954
952
955
956
954
952
951
951
955
957
957
955
956
959
965
967
965
966
967
972
976
984
987
990
990
994
1003
1010
1015
1013
1018
1023
1026
1028
1036
1039
1039
1040
1043
1048
1052
1049
1045
1041
1041
1047
1043
1035
1030
1030
1036
1038
1036
1031
1028
1027
1030
1037
1039
1035
1028
1022
1021
1029
1031
1032
1030
1030
1029
1028
1024
1019
1016
1019
1021
1022
1023
1025
1023
1025
1026
1028
1027
1024
1022
1024
1023
1023
1021
1020
1021
1022
1025
1024
1021
1020
1018
1019
1022
1023
1020
1018
1019
1021
1023
1024
1024
1028
1024
1021
1022
1020
1021
1023
1019
1019
1023
1026
1026
1023
1019
1019
1022
1025
1027
1021
1021
1022
1024
1026
1025
1027
1023
1023
1022
1026
1030
1023
1015
1016
1019
1020
1018
1017
1014
1016
1018
1021
1021
1019
1017
1017
1019
1022
1023
1023
1018
1021
1022
1027
1026
1021
1020
1021
1023
1024
1021
1017
1014
1011
1017
1022
1023
1020
1019
1017
1018
1023
1020
1020
1017
1019
1019
1025
1027
1024
1019
1016
1022
1024
1022
1021
1017
1018
1021
1024
1026
1025
1025
1027
1023
1018
1017
1018
1017
1019
1019
1025
1027
1028
1031
1034
1034
1032
1031
1030
1035
1039
1041
1044
1039
1036
1031
1028
1033
1038
1039
1033
1028
1028
1032
1038
1040
1037
1038
1037
1034
1037
1034
1029
1025
1026
1027
1029
1030
1029
1023
1022
1026
1026
1030
1029
1025
1023
1021
1025
1024
1023
1021
1024
1026
1029
1030
1028
1025
1024
1026
1031
1029
1031
1031
1032
1034
1040
1043
1048
1059
1073
1088
1100
1116
1140
1178
1223
1270
1309
1346
1374
1402
1434
1476
1502
1503
1469
1397
1303
1210
1145
1102
1071
1055
1046
1041
1041
1039
1034
1022
1015
1009
1011
1009
1007
1002
996
999
1000
1003
997
990
988
991
994
995
992
990
992
989
991
992
992
988
986
985
983
985
985
983
980
983
985
986
981
976
977
981
981
979
976
972
975
978
979
977
974
972
969
968
975
973
971
971
973
973
977
975
974
971
971
973
974
972
974
974
979
982
984
990
987
986
987
993
999
1001
1004
1006
1011
1019
1025
1030
1029
1030
1036
1041
1047
1050
1051
1048
1048
1049
1052
1051
1049
1047
1049
1049
1050
1046
1042
1038
1036
1038
1039
1038
1038
1032
1031
1032
1033
1035
1033
1030
1029
1031
1032
1031
1029
1023
1025
1024
1028
1027
1025
1023
1025
1026
1027
1028
1023
1022
1022
1020
1021
1022
1022
1019
1023
1025
1026
1022
1018
1016
1016
1020
1024
1024
1022
1021
1020
1017
1022
1023
1018
1019
1018
1018
1023
1023
1020
1018
1017
1020
1023
1023
1017
1019
1018
1021
1023
1020
1020
1021
1019
1020
1022
1022
1020
1018
1017
1015
1017
1018
1018
1016
1016
1020
1022
1023
1018
1016
1015
1018
1019
1020
1016
1015
1013
1015
1017
1016
1013
1009
1009
1014
1019
1017
1018
1014
1016
1014
1017
1017
1017
1013
1011
1015
1019
1020
1018
1013
1013
1015
1018
1017
1017
1012
1011
1013
1014
1016
1016
1012
1009
1012
1013
1016
1012
1014
1013
1016
1016
1013
1013
1011
1012
1014
1017
1016
1013
1012
1013
1015
1017
1014
1015
1011
1013
1012
1016
1014
1008
1009
1010
1013
1019
1018
1019
1017
1019
1020
1026
1025
1023
1022
1023
1025
1029
1026
1022
1019
1016
1020
1021
1023
1023
1019
1020
1023
1028
1031
1027
1024
1024
1026
1028
1024
1018
1015
1015
1017
1018
1016
1012
1012
1014
1013
1017
1019
1018
1016
1015
1017
1016
1016
1016
1013
1012
1015
1017
1015
1013
1012
1013
1017
1017
1016
1014
1016
1017
1021
1028
1032
1038
1047
1062
1080
1098
1118
1145
1180
1224
1271
1315
1353
1388
1419
1454
1496
1523
1529
1509
1458
1373
1274
1191
1129
1083
1055
1040
1031
1026
1019
1015
1008
1002
997
993
987
984
979
979
981
983
982
978
972
973
975
972
970
966
965
967
969
969
968
963
961
962
965
965
965
962
958
957
958
961
960
958
958
957
956
960
956
950
950
950
953
953
953
952
947
949
952
954
952
951
950
950
949
951
948
948
944
946
950
954
952
948
945
945
947
953
952
949
947
952
955
959
960
963
963
965
971
979
983
987
990
996
1003
1011
1013
1018
1019
1023
1027
1031
1034
1032
1030
1031
1036
1039
1036
1036
1030
1030
1028
1024
1023
1022
1019
1022
1024
1028
1026
1021
1018
1015
1017
1020
1020
1019
1021
1022
1021
1020
1017
1018
1018
1017
1018
1021
1016
1018
1015
1017
1018
1019
1016
1015
1013
1013
1016
1018
1015
1009
1007
1009
1008
1011
1012
1007
1007
1005
1010
1010
1010
1008
1003
1007
1007
1011
1011
1011
1010
1009
1011
1013
1011
1009
1005
1007
1007
1012
1010
1010
1007
1011
1009
1013
1012
1011
1009
1006
1009
1012
1012
1010
1010
1011
1012
1012
1011
1011
1008
1007
1011
1016
1013
1011
1006
1010
1012
1017
1016
1013
1009
1010
1012
1014
1013
1013
1011
1011
1013
1013
1010
1007
1006
1006
1009
1009
1008
1007
1005
1007
1009
1012
1012
1011
1012
1013
1010
1011
1008
1008
1007
1008
1011
1013
1010
1012
1008
1007
1010
1015
1012
1010
1009
1009
1012
1016
1017
1015
1010
1010
1010
1014
1013
1012
1012
1012
1016
1016
1016
1017
1017
1023
1026
1030
1027
1023
1023
1026
1025
1025
1023
1021
1021
1023
1024
1025
1026
1024
1023
1027
1031
1035
1035
1030
1026
1023
1019
1018
1016
1019
1017
1015
1017
1020
1017
1015
1013
1012
1016
1021
1020
1015
1012
1012
1015
1019
1018
1018
1016
1018
1016
1018
1018
1017
1018
1023
1028
1035
1040
1051
1060
1082
1105
1134
1167
1208
1256
1309
1358
1399
1433
1465
1503
1532
1546
1542
1500
1419
1320
1239
1173
1129
1091
1068
1052
1038
1034
1028
1020
1009
998
992
992
994
989
985
981
981
981
979
974
969
968
970
970
972
970
969
967
967
967
967
967
963
959
960
965
967
970
964
960
959
961
962
962
957
956
956
959
963
960
955
952
953
955
956
953
953
951
952
957
959
957
953
951
949
953
954
951
948
945
946
947
950
951
952
949
949
952
957
959
960
960
961
967
972
974
977
980
988
995
1004
1006
1008
1013
1017
1027
1035
1040
1044
1044
1047
1050
1052
1052
1047
1046
1047
1051
1047
1041
1039
1035
1038
1038
1041
1040
1040
1032
1030
1028
1035
1032
1030
1027
1026
1027
1031
1032
1031
1027
1029
1032
1035
1032
1030
1025
1027
1031
1035
1031
1022
1020
1020
1020
1026
1025
1027
1022
1021
1021
1023
1024
1023
1020
1019
1022
1023
1022
1020
1018
1020
1019
1023
1023
1020
1018
1020
1020
1021
1020
1020
1019
1016
1021
1021
1023
1022
1021
1021
1021
1025
1024
1023
1025
1023
1024
1027
1025
1021
1021
1021
1024
1030
1029
1027
1024
1023
1026
1027
1031
1033
1031
1029
1027
1025
1022
1018
1017
1021
1027
1030
1025
1022
1017
1017
1022
1024
1025
1023
1021
1021
1024
1027
1027
1023
1019
1022
1021
1027
1025
1022
1018
1020
1023
1026
1026
1024
1022
1024
1024
1028
1025
1024
1025
1025
1030
1034
1030
1025
1022
1020
1023
1024
1022
1022
1018
1016
1022
1025
1025
1019
1021
1024
1028
1028
1028
1026
1026
1027
1031
1034
1034
1032
1033
1037
1042
1051
1044
1037
1024
1021
1026
1032
1037
1033
1031
1031
1034
1035
1036
1036
1035
1033
1037
1044
1041
1037
1028
1025
1023
1026
1026
1025
1024
1023
1023
1026
1024
1028
1024
1026
1025
1027
1023
1019
1020
1022
1026
1026
1023
1021
1018
1018
1021
1027
1027
1026
1022
1024
1029
1035
1042
1047
1058
1081
1110
1147
1195
1253
1319
1382
1435
1479
1521
1552
1562
1538
1479
1383
1272
1185
1129
1094
1068
1054
1044
1035
1026
1020
1014
1007
1001
995
990
991
995
995
988
980
976
981
986
982
976
973
970
969
969
974
971
970
964
964
966
970
967
968
968
966
968
967
965
962
959
959
959
965
963
967
962
962
959
960
961
959
955
955
958
961
961
959
957
958
962
962
960
953
952
957
960
961
962
961
964
968
973
979
981
976
974
977
992
1003
1006
1009
1018
1028
1037
1038
1033
1030
1035
1041
1053
1059
1061
1060
1055
1051
1049
1054
1052
1051
1048
1047
1050
1049
1041
1035
1034
1036
1038
1042
1041
1040
1039
1042
1042
1046
1047
1045
1038
1036
1038
1038
1035
1030
1032
1035
1037
1038
1034
1032
1035
1037
1039
1038
1034
1033
1027
1030
1036
1040
1041
1037
1033
1032
1034
1030
1029
1026
1031
1036
1037
1037
1029
1024
1019
1022
1028
1034
1033
1034
1029
1030
1034
1038
1036
1036
1031
1030
1027
1031
1033
1035
1032
1033
1039
1040
1039
1033
1029
1031
1035
1035
1030
1028
1031
1038
1043
1044
1038
1031
1028
1026
1029
1031
1033
1034
1036
1038
1037
1036
1033
1028
1030
1038
1042
1047
1042
1040
1038
1036
1037
1036
1032
1027
1028
1033
1040
1046
1048
1045
1040
1038
1035
1037
1037
1035
1036
1036
1038
1041
1040
1034
1035
1036
1041
1041
1041
1039
1036
1038
1039
1037
1037
1039
1035
1035
1034
1035
1034
1035
1034
1037
1042
1041
1039
1034
1031
1031
1036
1038
1036
1032
1032
1037
1041
1047
1044
1040
1035
1038
1038
1041
1036
1038
1036
1039
1041
1043
1042
1044
1044
1046
1047
1048
1046
1047
1045
1050
1055
1059
1059
1053
1046
1039
1039
1043
1043
1042
1043
1045
1046
1049
1051
1052
1051
1055
1051
1055
1050
1047
1041
1040
1043
1044
1043
1042
1038
1038
1039
1041
1042
1038
1033
1038
1041
1044
1041
1039
1034
1033
1039
1042
1039
1035
1032
1032
1037
1039
1042
1038
1035
1039
1046
1050
1046
1043
1046
1050
1060
1074
1087
1103
1117
1142
1173
1215
1256
1295
1330
1366
1401
1435
1470
1500
1516
1519
1503
1457
1377
1280
1202
1148
1114
1095
1074
1059
1050
1044
1040
1038
1034
1031
1023
1025
1022
1022
1018
1014
1013
1014
1012
1008
1005
1004
1003
1004
1005
1004
1006
1002
1002
1003
1002
1002
999
997
995
996
996
994
990
990
991
993
993
991
989
986
984
986
988
988
987
982
980
982
984
988
987
983
981
983
986
986
984
979
975
976
979
984
986
981
976
976
980
980
980
977
978
980
980
979
977
973
973
973
979
984
984
983
981
984
987
991
990
987
989
994
999
1004
1004
1008
1008
1009
1014
1020
1025
1030
1034
1041
1045
1050
1051
1051
1051
1053
1058
1062
1062
1059
1057
1060
1063
1062
1057
1054
1052
1054
1054
1055
1053
1047
1044
1045
1046
1053
1053
1048
1041
1033
1035
1041
1041
1043
1042
1043
1045
1044
1040
1037
1035
1036
1037
1040
1040
1036
1034
1034
1037
1038
1035
1034
1030
1032
1036
1037
1035
1031
1030
1029
1031
1034
1032
1032
1033
1034
1033
1031
1028
1025
1022
1026
1030
1034
1034
1027
1026
1028
1031
1035
1033
1033
1031
1032
1034
1032
1030
1030
1029
1030
1031
1033
1034
1029
1030
1032
1033
1034
1032
1031
1029
1030
1032
1033
1031
1028
1026
1025
1032
1037
1037
1030
1030
1031
1035
1038
1032
1028
1024
1026
1031
1032
1028
1029
1030
1027
1030
1030
1031
1030
1026
1027
1031
1031
1031
1027
1024
1022
1026
1032
1032
1031
1026
1025
1026
1027
1027
1024
1025
1026
1031
1029
1027
1025
1024
1027
1027
1030
1028
1022
1022
1027
1034
1035
1032
1023
1021
1022
1027
1030
1028
1026
1025
1027
1028
1030
1028
1028
1031
1031
1029
1025
1022
1016
1016
1021
1025
1027
1027
1026
1026
1026
1034
1042
1041
1039
1037
1040
1043
1044
1043
1040
1034
1036
1037
1038
1039
1036
1032
1029
1032
1040
1045
1043
1038
1037
1039
1041
1038
1036
1032
1033
1036
1035
1030
1030
1028
1033
1033
1037
1033
1031
1024
1025
1029
1034
1030
1026
1022
1025
1028
1032
1033
1032
1029
1030
1032
1032
1033
1032
1033
1037
1038
1045
1045
1043
1041
1050
1066
1081
1090
1098
1116
1143
1180
1218
1256
1292
1330
1366
1400
1439
1474
1501
1512
1498
1456
1377
1277
1191
1134
1098
1077
1068
1059
1049
1039
1034
1033
1031
1025
1014
1007
1004
1005
1004
999
994
987
990
993
992
990
986
984
981
987
986
985
979
979
980
981
979
976
972
972
975
977
977
977
972
969
969
967
969
969
968
964
965
965
962
959
957
956
959
965
964
961
957
955
957
961
963
961
958
955
958
960
959
952
948
950
952
955
955
952
949
947
952
954
958
955
957
953
958
960
965
965
965
966
967
972
979
980
981
981
988
995
999
1005
1009
1016
1019
1029
1034
1035
1034
1034
1032
1035
1041
1041
1039
1038
1033
1032
1036
1034
1034
1030
1031
1031
1031
1031
1028
1028
1027
1028
1025
1021
1015
1013
1021
1022
1021
1020
1016
1015
1015
1021
1022
1018
1016
1016
1018
1019
1020
1018
1016
1013
1018
1019
1020
1016
1016
1014
1019
1023
1022
1019
1017
1015
1016
1022
1023
1022
1019
1017
1017
1021
1018
1016
1020
1020
1015
1016
1020
1020
1019
1015
1020
1022
1028
1026
1022
1021
1019
1018
1019
1020
1016
1017
1017
1017
1019
1019
1015
1015
1014
1019
1021
1016
1016
1013
1018
1023
1025
1020
1015
1015
1016
1020
1021
1017
1018
1013
1019
1020
1019
1015
1010
1011
1015
1018
1019
1018
1013
1012
1013
1018
1022
1019
1018
1015
1014
1016
1019
1018
1016
1016
1019
1023
1023
1017
1015
1012
1014
1019
1016
1016
1018
1016
1019
1020
1020
1016
1013
1013
1015
1019
1020
1020
1019
1019
1027
1034
1036
1041
1045
1063
1084
1107
1122
1125
1113
1094
1061
1015
951
867
775
684
618
578
561
552
554
566
590
617
651
686
726
769
803
826
845
856
865
879
895
905
917
925
936
945
959
970
987
1002
1010
1023
1033
1046
1054
1054
1058
1059
1062
1069
1077
1077
1074
1075
1081
1088
1093
1089
1086
1085
1092
1098
1100
1103
1101
1101
1105
1110
1112
1111
1113
1117
1119
1123
1127
1129
1130
1134
1138
1144
1152
1153
1155
1158
1163
1173
1181
1186
1191
1196
1204
1211
1220
1225
1230
1239
1249
1257
1260
1265
1269
1272
1283
1290
1294
1292
1294
1295
1294
1294
1291
1289
1281
1278
1274
1269
1259
1250
1236
1225
1217
1213
1201
1185
1171
1161
1153
1140
1127
1114
1107
1098
1092
1084
1077
1069
1061
1054
1057
1057
1057
1050
1045
1039
1036
1036
1037
1036
1037
1034
1032
1029
1030
1030
1027
1022
1022
1025
1029
1027
1024
1025
1023
1026
1025
1021
1017
1017
1021
1024
1022
1018
1015
1018
1021
1020
1019
1016
1014
1013
1017
1020
1020
1015
1012
1009
1013
1015
1017
1017
1010
1010
1011
1013
1010
1009
1008
1006
1010
1012
1014
1013
1007
1002
1004
1009
1010
1007
1005
1004
1004
1005
1006
1005
1002
1002
1006
1008
1006
1005
1003
999
1003
1003
1006
1004
1000
1002
1001
1004
1006
1005
999
1001
1003
1006
1004
1003
1001
1000
1002
1002
1005
1006
1005
1005
1003
1003
1001
1000
1000
999
1000
1005
1005
1006
1004
1002
1001
1003
1006
1006
1003
1001
1003
1004
1005
1004
1002
1001
1001
1006
1006
1004
1006
1004
1007
1004
1005
1006
1005
1005
1009
1010
1005
1003
1002
1004
1006
1011
1011
1008
1005
1004
1005
1008
1015
1011
1009
1006
1007
1008
1010
1011
1009
1011
1012
1011
1014
1010
1009
1010
1012
1012
1011
1010
1007
1011
1012
1013
1011
1012
1008
1010
1013
1015
1017
1014
1011
1007
1006
1009
1012
1010
1009
1008
1011
1015
1015
1013
1013
1013
1013
1015
1013
1011
1013
1011
1015
1016
1017
1016
1013
1011
1012
1016
1016
1016
1015
1014
1014
1016
1014
1010
1008
1004
1010
1013
1015
1012
1010
1006
1010
1011
1013
1010
1008
1007
1009
1013
1010
1008
1003
1005
1013
1016
1018
1015
1014
1012
1016
1019
1018
1019
1017
1019
1021
1023
1023
1022
1020
1017
1017
1018
1018
1017
1017
1022
1022
1024
1023
1021
1020
1019
1023
1022
1019
1019
1018
1013
1011
1009
1010
1012
1008
1009
1009
1010
1011
1009
1008
1005
1008
1008
1009
1006
1003
1003
1005
1005
1009
1005
1005
1000
1004
1006
1009
1008
1007
1008
1009
1018
1024
1026
1030
1039
1053
1072
1089
1109
1139
1180
1227
1273
1317
1355
1394
1437
1479
1511
1516
1486
1415
1316
1215
1142
1095
1064
1046
1034
1027
1021
1017
1010
1007
1000
996
994
987
980
976
975
977
979
976
970
966
967
967
970
972
969
967
962
962
965
966
966
965
965
961
965
963
963
960
958
959
961
963
964
960
959
960
962
961
957
953
951
955
958
961
959
961
958
959
963
962
960
957
958
957
959
959
959
958
957
961
962
963
964
963
963
965
967
969
968
967
974
978
982
983
982
982
990
997
1005
1008
1012
1011
1013
1022
1027
1034
1036
1035
1033
1038
1042
1044
1043
1039
1036
1040
1045
1042
1041
1038
1034
1033
1033
1032
1031
1026
1024
1026
1029
1027
1023
1018
1017
1020
1023
1023
1020
1021
1020
1022
1022
1021
1019
1021
1020
1017
1018
1017
1017
1015
1017
1020
1021
1017
1013
1013
1009
1012
1014
1014
1014
1011
1011
1017
1020
1018
1014
1009
1008
1009
1014
1015
1012
1007
1008
1006
1010
1011
1009
1004
1003
1007
1015
1012
1010
1005
1008
1012
1012
1010
1007
1001
1003
1006
1010
1010
1009
1007
1007
1007
1010
1011
1008
1004
1005
1009
1010
1011
1009
1006
1004
1007
1009
1005
1005
999
997
1000
1005
1005
1004
1002
1002
1003
1004
1000
1002
1001
1002
1003
1004
1004
1003
1003
1000
1003
1004
1009
1008
1003
1003
1005
1005
1004
1003
1004
1003
1006
1007
1005
999
999
1001
1003
1008
1009
1007
1002
997
998
1006
1008
1005
1004
1005
1007
1007
1008
1004
1003
1001
1004
1007
1006
1004
1000
1002
1004
1007
1008
1004
1004
1007
1013
1017
1016
1014
1013
1014
1018
1019
1019
1017
1013
1013
1016
1018
1015
1015
1012
1015
1017
1018
1018
1018
1020
1023
1023
1024
1024
1022
1016
1011
1015
1018
1016
1013
1009
1006
1006
1011
1011
1012
1011
1010
1011
1013
1014
1011
1008
1007
1010
1011
1011
1011
1008
1006
1011
1016
1015
1014
1014
1019
1027
1036
1046
1054
1071
1086
1111
1145
1183
1228
1271
1314
1351
1394
1433
1475
1503
1506
1479
1404
1296
1192
1120
1074
1053
1039
1031
1021
1016
1015
1013
1007
1001
993
987
986
986
988
987
983
979
977
980
983
984
981
976
974
975
976
978
976
972
973
975
973
974
972
969
968
967
970
969
968
965
967
971
969
