1003
1001
1003
1007
1007
999
996
997
1002
1006
1009
1002
998
1000
1003
1006
1008
1005
1004
1002
1004
1005
1006
1005
1001
1004
1006
1007
1007
1003
1003
1001
1002
1006
1010
1007
1003
1001
1003
1005
1006
1006
1001
1002
1006
1007
1004
1001
1003
1006
1007
1008
1011
1012
1007
1007
1012
1013
1017
1014
1015
1017
1021
1023
1023
1019
1015
1010
1014
1015
1015
1015
1013
1012
1015
1020
1018
1020
1016
1018
1021
1019
1017
1009
1007
1006
1007
1011
1013
1012
1008
1008
1005
1010
1007
1006
1006
1004
1007
1010
1011
1006
1005
1004
1007
1006
1008
1007
1006
1003
1006
1010
1010
1009
1007
1012
1012
1019
1025
1033
1039
1053
1067
1083
1102
1129
1164
1203
1246
1284
1319
1351
1390
1435
1468
1470
1434
1353
1244
1149
1087
1050
1034
1018
1015
1013
1013
1010
1007
1004
997
992
991
990
988
986
982
981
981
984
982
983
978
976
977
978
977
975
972
972
975
977
974
972
968
969
970
973
974
973
966
965
966
970
972
971
969
966
966
966
968
967
964
965
968
970
970
968
964
966
968
969
969
970
966
967
969
971
969
967
964
964
970
971
973
973
971
972
975
978
981
981
981
982
986
990
992
994
994
1000
1005
1010
1016
1017
1021
1021
1031
1035
1037
1038
1038
1035
1032
1033
1030
1027
1025
1022
1021
1019
1017
1014
1012
1011
1016
1014
1015
1012
1008
1006
1009
1012
1012
1010
1008
1006
1008
1013
1015
1011
1006
1006
1005
1008
1009
1008
1008
1004
1002
1003
1003
1002
1004
1002
1001
1006
1006
1004
999
1000
1005
1003
1007
1003
998
1001
1002
1004
1007
1002
1001
998
1000
1005
1006
1005
1003
1004
1006
1008
1009
1003
1002
1003
999
1005
1007
1005
1004
1001
1003
1007
1006
1004
1002
1001
1001
1002
1004
1004
1001
1002
1000
1002
1006
1003
1004
1002
1006
1007
1007
1007
1002
1002
1003
1007
1005
1003
1000
1000
1003
1003
1003
1003
997
998
1001
1006
1007
1004
1000
1001
1004
1010
1005
1004
1001
1001
1004
1006
1004
1001
1000
999
1002
1004
1002
1001
1000
997
1000
1003
1004
1003
999
1000
1001
1005
1007
1009
1006
1003
1005
1008
1007
1007
1003
1003
1003
1005
1007
1004
1002
1002
1003
1007
1007
1005
1001
1002
1003
1007
1010
1009
1004
1005
1010
1007
1004
1006
1004
1007
1010
1016
1014
1013
1012
1011
1014
1018
1021
1020
1014
1013
1021
1024
1025
1019
1017
1015
1019
1021
1019
1016
1013
1015
1015
1019
1020
1020
1017
1018
1021
1024
1024
1018
1012
1014
1015
1016
1013
1013
1009
1008
1011
1014
1017
1015
1014
1014
1014
1012
1013
1011
1009
1009
1013
1013
1015
1014
1013
1012
1014
1016
1017
1014
1009
1012
1012
1015
1015
1014
1013
1015
1016
1023
1022
1022
1021
1028
1035
1042
1049
1058
1064
1076
1091
1116
1142
1175
1210
1246
1282
1315
1346
1379
1419
1454
1477
1474
1437
1372
1279
1194
1125
1083
1047
1030
1017
1018
1022
1024
1021
1015
1010
1005
1004
1005
1003
1001
997
992
990
992
993
991
989
987
989
988
985
986
984
986
989
987
985
984
982
981
983
981
983
987
984
984
984
986
987
984
981
979
978
977
983
982
980
979
977
980
978
979
980
981
982
986
982
978
975
975
978
978
979
977
975
977
977
978
977
976
977
979
981
985
984
986
985
984
989
992
994
993
994
993
1000
1007
1009
1009
1007
1012
1016
1023
1024
1027
1027
1031
1036
1041
1046
1046
1047
1048
1054
1052
1051
1050
1046
1047
1051
1050
1048
1047
1044
1044
1048
1043
1038
1030
1023
1026
1032
1033
1033
1030
1023
1026
1027
1030
1029
1028
1024
1022
1026
1030
1025
1023
1019
1023
1026
1031
1030
1026
1024
1022
1026
1028
1029
1027
1021
1018
1016
1018
1016
1020
1019
1023
1024
1027
1025
1021
1018
1020
1023
1023
1022
1024
1019
1021
1022
1026
1023
1019
1016
1016
1018
1018
1018
1017
1017
1022
1024
1025
1020
1018
1017
1021
1024
1029
1027
1024
1019
1022
1023
1027
1029
1030
1025
1025
1024
1025
1024
1024
1026
1025
1028
1027
1025
1023
1023
1024
1026
1028
1025
1021
1021
1022
1025
1030
1029
1026
1023
1018
1020
1023
1027
1026
1023
1022
1021
1024
1024
1022
1019
1022
1025
1025
1021
1014
1012
1017
1023
1023
1021
1021
1021
1024
1025
1028
1024
1021
1020
1015
1020
1021
1021
1021
1018
1021
1025
1026
1021
1015
1015
1016
1019
1025
1024
1019
1013
1012
1019
1028
1028
1025
1024
1021
1017
1018
1020
1023
1021
1018
1022
1024
1027
1027
1023
1023
1023
1024
1025
1023
1023
1020
1019
1024
1025
1026
1027
1026
1027
1028
1030
1030
1031
1031
1033
1035
1035
1036
1035
1035
1039
1041
1039
1038
1032
1032
1036
1040
1037
1035
1031
1035
1034
1039
1038
1033
1024
1016
1015
1029
1041
1043
1037
1027
1021
1027
1034
1037
1035
1030
1032
1035
1038
1038
1032
1028
1027
1029
1034
1033
1028
1028
1029
1036
1037
1037
1032
1030
1032
1032
1030
1032
1033
1034
1033
1035
1037
1036
1042
1047
1061
1073
1084
1095
1110
1135
1168
1209
1245
1280
1317
1354
1396
1438
1477
1496
1493
1453
1382
1288
1195
1128
1077
1051
1039
1038
1038
1036
1032
1030
1030
1025
1021
1016
1012
1013
1015
1019
1012
1012
1006
1004
1007
1008
1003
1004
1001
1005
1007
1008
1004
1002
1003
1004
1006
1003
1000
994
992
996
999
1001
1001
997
995
994
997
996
997
995
995
998
1002
1003
999
991
988
988
995
999
996
994
992
992
993
995
995
993
992
996
997
1000
995
995
992
994
995
999
999
1001
1000
1003
1004
1009
1010
1009
1007
1010
1014
1020
1023
1022
1025
1027
1033
1037
1039
1044
1045
1046
1049
1052
1057
1058
1059
1063
1062
1063
1062
1058
1055
1060
1061
1062
1062
1058
1053
1051
1054
1050
1044
1042
1042
1039
1042
1042
1039
1037
1036
1035
1041
1041
1037
1033
1029
1031
1036
1039
1040
1035
1030
1029
1032
1034
1033
1033
1027
1029
1029
1034
1032
1030
1031
1029
1031
1031
1029
1025
1026
1031
1032
1029
1022
1023
1022
1023
1027
1030
1032
1028
1028
1028
1027
1029
1029
1028
1028
1024
1024
1027
1030
1032
1030
1030
1031
1033
1033
1033
1029
1027
1027
1030
1029
1027
1022
1024
1031
1037
1035
1033
1033
1033
1035
1042
1049
1054
1066
1088
1114
1135
1143
1140
1123
1101
1067
1013
931
836
747
679
653
651
640
635
641
656
676
701
732
759
786
811
835
860
873
883
892
911
927
938
943
945
947
960
974
992
1002
1008
1014
1024
1037
1048
1052
1054
1054
1059
1068
1073
1072
1068
1065
1070
1079
1089
1087
1082
1076
1081
1094
1098
1104
1102
1097
1101
1104
1108
1107
1107
1109
1117
1123
1123
1123
1125
1127
1133
1138
1144
1147
1155
1156
1159
1163
1169
1174
1178
1177
1183
1194
1204
1209
1211
1217
1227
1236
1243
1247
1252
1258
1269
1282
1289
1289
1288
1292
1297
1303
1305
1307
1305
1300
1299
1296
1298
1292
1284
1273
1268
1264
1261
1253
1240
1227
1217
1214
1207
1196
1180
1167
1166
1166
1162
1149
1136
1126
1119
1112
1110
1098
1093
1083
1079
1075
1079
1076
1068
1060
1057
1055
1057
1055
1053
1048
1049
1046
1046
1048
1045
1039
1034
1032
1032
1030
1028
1030
1037
1045
1042
1036
1031
1028
1030
1034
1033
1031
1026
1026
1030
1036
1040
1032
1026
1025
1028
1033
1033
1034
1032
1028
1028
1035
1040
1036
1029
1021
1020
1018
1027
1027
1023
1017
1016
1021
1028
1031
1028
1020
1014
1019
1024
1027
1023
1016
1019
1028
1033
1026
1018
1011
1009
1015
1018
1025
1023
1021
1025
1027
1027
1023
1018
1013
1019
1025
1026
1023
1022
1023
1020
1017
1018
1020
1025
1023
1018
1017
1018
1018
1021
1017
1016
1020
1027
1030
1028
1024
1016
1011
1014
1017
1019
1018
1023
1026
1025
1022
1021
1019
1017
1015
1020
1026
1026
1020
1018
1020
1022
1017
1015
1015
1022
1021
1016
1019
1017
1018
1018
1024
1036
1032
1024
1012
1012
1018
1026
1028
1029
1024
1017
1013
1018
1027
1024
1016
1015
1016
1023
1027
1029
1025
1027
1026
1027
1026
1022
1023
1018
1022
1024
1024
1019
1016
1018
1025
1032
1033
1030
1028
1025
1025
1028
1028
1024
1017
1020
1026
1032
1033
1031
1027
1025
1022
1019
1016
1018
1025
1027
1026
1025
1029
1035
1037
1036
1032
1030
1021
1015
1017
1023
1027
1030
1025
1019
1017
1028
1043
1047
1038
1025
1022
1025
1025
1023
1025
1026
1028
1028
1033
1035
1038
1037
1031
1027
1031
1036
1036
1031
1028
1026
1021
1019
1021
1027
1031
1033
1034
1035
1037
1034
1032
1031
1034
1037
1044
1048
1043
1034
1027
1028
1026
1020
1020
1026
1035
1035
1031
1029
1034
1042
1048
1053
1043
1027
1024
1027
1031
1035
1029
1023
1020
1026
1032
1036
1037
1038
1038
1034
1040
1042
1037
1035
1034
1032
1032
1035
1038
1040
1044
1041
1037
1029
1023
1026
1027
1030
1037
1043
1042
1044
1038
1036
1037
1041
1038
1035
1031
1033
1038
1050
1054
1047
1041
1046
1059
1064
1056
1043
1034
1033
1047
1059
1064
1063
1058
1044
1032
1029
1033
1041
1051
1056
1060
1057
1055
1051
1049
1043
1048
1050
1048
1041
1042
1044
1043
1038
1040
1050
1059
1056
1051
1054
1052
1044
1044
1041
1038
1039
1039
1039
1040
1040
1040
1043
1044
1044
1040
1043
1041
1044
1044
1046
1043
1039
1042
1058
1073
1075
1074
1078
1098
1123
1141
1159
1183
1229
1284
1325
1349
1373
1405
1445
1475
1482
1458
1402
1318
1222
1149
1111
1100
1097
1083
1061
1043
1037
1043
1045
1039
1038
1035
1035
1029
1019
1016
1023
1034
1040
1028
1008
992
996
1010
1020
1018
1009
1006
1011
1008
1005
1000
1005
1009
1011
1012
1010
1003
1001
1001
1002
1002
1003
1012
1018
1017
1009
1005
998
996
1001
1007
1011
1008
1006
1004
1003
1005
1002
1002
1001
1006
1008
1005
1008
1016
1019
1017
1009
1004
1006
1008
1012
1015
1011
1004
1002
1010
1018
1020
1022
1023
1023
1015
1006
1000
1004
1012
1019
1019
1019
1023
1028
1028
1029
1032
1039
1040
1041
1044
1045
1051
1060
1062
1059
1054
1062
1072
1078
1072
1071
1068
1070
1082
1083
1082
1079
1081
1078
1066
1064
1063
1063
1062
1062
1061
1058
1048
1047
1058
1061
1059
1050
1048
1060
1065
1059
1047
1044
1051
1055
1051
1050
1052
1051
1050
1046
1040
1039
1047
1061
1065
1053
1044
1044
1046
1048
1041
1044
1050
1056
1061
1062
1054
1044
1035
1042
1047
1051
1050
1044
1042
1048
1053
1053
1047
1047
1049
1051
1048
1046
1048
1045
1040
1036
1037
1046
1053
1049
1044
1047
1051
1050
1045
1043
1041
1040
1043
1054
1053
1042
1029
1023
1035
1046
1046
1039
1030
1027
1033
1036
1043
1047
1043
1039
1030
1033
1032
1030
1030
1038
1044
1042
1038
1033
1034
1039
1042
1037
1033
1034
1037
1039
1036
1032
1031
1035
1036
1037
1038
1038
1039
1041
1034
1025
1026
1041
1049
1041
1028
1026
1036
1047
1044
1034
1027
1030
1035
1036
1035
1036
1036
1035
1034
1032
1034
1041
1039
1040
1039
1042
1041
1037
1035
1036
1030
1034
1039
1039
1043
1043
1039
1035
1035
1042
1047
1044
1045
1051
1055
1049
1046
1046
1046
1046
1042
1045
1046
1050
1048
1045
1040
1041
1040
1043
1047
1050
1050
1046
1041
1042
1042
1045
1045
1042
1045
1048
1048
1042
1035
1030
1034
1042
1044
1041
1039
1032
1020
1017
1028
1041
1041
1036
1035
1041
1044
1043
1038
1037
1035
1037
1044
1043
1030
1024
1033
1044
1050
1047
1041
1045
1055
1068
1078
1091
1102
1115
1136
1171
1215
1253
1278
1300
1333
1377
1417
1447
1465
1458
1413
1331
1238
1167
1127
1100
1078
1066
1060
1053
1043
1036
1034
1039
1041
1028
1012
1007
1012
1007
1006
1016
1025
1018
1012
1008
1015
1021
1017
1008
1000
995
1001
1004
1003
1004
1009
1011
1009
1011
1006
1000
992
993
1001
1004
999
991
989
1003
1008
1008
1003
996
993
996
992
995
995
1002
1004
1005
996
988
989
998
1005
1000
996
994
1000
998
994
995
1001
1006
1008
999
990
986
989
996
995
990
989
996
1007
1003
998
998
1001
1008
1010
1014
1016
1020
1020
1024
1032
1038
1033
1034
1035
1039
1040
1048
1054
1053
1051
1054
1058
1052
1044
1037
1041
1048
1053
1056
1049
1040
1040
1046
1041
1032
1033
1043
1050
1047
1040
1033
1033
1034
1035
1040
1044
1047
1039
1025
1019
1026
1039
1050
1042
1030
1028
1031
1037
1033
1024
1022
1031
1038
1031
1020
1020
1028
1040
1046
1041
1026
1018
1025
1038
1041
1025
1013
1019
1034
1037
1029
1026
1033
1037
1041
1038
1035
1031
1032
1029
1027
1019
1025
1035
1039
1039
1037
1038
1038
1039
1043
1041
1035
1030
1031
1035
1029
1022
1020
1025
1025
1027
1035
1038
1030
1021
1017
1024
1035
1039
1035
1022
1019
1037
1049
1038
1019
1013
1024
1030
1031
1029
1027
1027
1020
1017
1023
1027
1026
1023
1022
1019
1025
1032
1032
1025
1023
1023
1029
1035
1032
1021
1016
1018
1023
1026
1027
1023
1020
1020
1026
1032
1038
1044
1042
1032
1016
1011
1016
1024
1028
1029
1033
1030
1023
1018
1015
1018
1026
1029
1027
1018
1023
1031
1027
1022
1023
1027
1026
1022
1027
1035
1032
1026
1021
1023
1027
1031
1037
1045
1041
1037
1037
1037
1031
1029
1030
1035
1037
1037
1037
1038
1035
1030
1031
1032
1032
1037
1042
1040
1039
1033
1030
1029
1027
1028
1029
1027
1025
1028
1031
1036
1035
1022
1012
1013
1025
1039
1040
1029
1012
1006
1018
1032
1039
1035
1016
1011
1023
1039
1045
1034
1029
1039
1059
1081
1098
1117
1149
1196
1252
1299
1336
1367
1404
1443
1458
1434
1362
1255
1160
1103
1072
1055
1045
1042
1039
1023
1019
1023
1022
1010
995
994
1000
1007
1009
1002
995
992
997
1005
1006
998
992
987
987
991
993
993
991
995
993
990
986
984
985
988
988
991
990
989
990
990
995
996
990
977
971
976
984
990
994
995
996
990
984
980
984
982
983
981
988
994
993
990
984
984
986
993
992
993
983
974
976
983
988
987
989
990
995
996
999
995
996
999
1002
1005
1006
1006
1004
1002
1010
1021
1026
1028
1027
1030
1038
1035
1034
1034
1033
1030
1038
1047
1055
1061
1055
1043
1034
1035
1036
1034
1031
1033
1037
1042
1041
1032
1030
1030
1034
1035
1034
1036
1033
1036
1038
1035
1030
1027
1025
1024
1021
1022
1024
1026
1027
1025
1028
1030
1032
1033
1026
1020
1018
1021
1025
1035
1035
1029
1021
1016
1024
1031
1029
1021
1017
1019
1024
1025
1021
1019
1022
1021
1022
1022
1022
1026
1032
1034
1032
1030
1029
1030
1028
1027
1024
1020
1022
1028
1034
1038
1036
1029
1029
1026
1024
1027
1028
1027
1022
1020
1021
1028
1034
1038
1037
1035
1030
1025
1020
1017
1016
1019
1019
1021
1023
1026
1026
1028
1027
1026
1027
1028
1025
1024
1024
1024
1026
1026
1020
1020
1022
1025
1026
1028
1027
1023
1014
1008
1011
1015
1017
1020
1027
1035
1038
1032
1023
1012
1012
1015
1020
1022
1023
1019
1019
1019
1021
1022
1022
1024
1027
1027
1022
1019
1018
1020
1025
1028
1025
1023
1020
1016
1017
1023
1030
1030
1025
1022
1020
1020
1023
1024
1023
1019
1020
1022
1028
1026
1022
1014
1010
1015
1021
1021
1014
1012
1015
1023
1028
1029
1026
1022
1019
1020
1018
1020
1020
1025
1027
1033
1037
1029
1026
1031
1040
1043
1038
1030
1023
1026
1029
1030
1031
1031
1031
1028
1028
1031
1038
1038
1039
1038
1043
1047
1043
1035
1027
1021
1023
1033
1039
1037
1026
1016
1018
1022
1026
1025
1021
1022
1026
1032
1033
1031
1030
1030
1028
1028
1021
1022
1022
1031
1035
1030
1024
1017
1023
1025
1029
1032
1027
1030
1030
1034
1035
1036
1041
1048
1060
1072
1085
1102
1127
1151
1178
1212
1254
1293
1322
1350
1381
1415
1441
1455
1444
1399
1322
1229
1158
1117
1091
1069
1051
1045
1036
1032
1026
1022
1022
1022
1021
1019
1014
1008
1004
1006
1011
1014
1012
1003
994
990
996
1006
1012
1008
1003
997
995
995
992
993
990
987
987
990
994
999
1000
998
996
989
989
986
985
984
986
992
993
991
986
989
996
997
992
985
979
976
981
987
992
995
989
989
989
990
991
990
985
987
990
994
993
991
991
987
987
988
986
986
986
989
990
993
994
993
993
996
998
997
1000
999
998
999
1002
1007
1012
1013
1009
1011
1021
1037
1039
1034
1027
1024
1033
1044
1051
1053
1054
1052
1052
1051
1048
1046
1043
1040
1044
1049
1054
1050
1040
1037
1035
1042
1043
1041
1037
1035
1032
1033
1035
1040
1041
1041
1037
1034
1032
1031
1029
1027
1029
1032
1037
1039
1035
1036
1035
1037
1041
1039
1035
1031
1030
1032
1036
1034
1030
1028
1031
1035
1036
1034
1028
1028
1029
1035
1041
1042
1035
1027
1023
1027
1034
1034
1027
1024
1031
1038
1043
1040
1036
1035
1033
1038
1038
1032
1022
1020
1024
1030
1034
1036
1035
1040
1037
1034
1027
1030
1034
1039
1039
1038
1035
1031
1026
1026
1030
1035
1034
1033
1034
1035
1041
1044
1042
1033
1030
1029
1030
1030
1030
1030
1027
1029
1028
1034
1035
1036
1031
1029
1032
1032
1030
1027
1024
1024
1026
1031
1035
1034
1032
1032
1028
1030
1025
1025
1023
1026
1029
1033
1031
1027
1023
1028
1035
1038
1040
1034
1027
1019
1022
1032
1040
1039
1025
1020
1028
1038
1039
1031
1025
1022
1026
1031
1036
1038
1035
1024
1024
1025
1032
1031
1023
1025
1030
1037
1038
1034
1029
1032
1039
1044
1045
1040
1034
1035
1040
1042
1040
1040
1043
1045
1042
1041
1038
1035
1035
1037
1041
1046
1047
1043
1041
1040
1039
1044
1047
1049
1049
1046
1043
1034
1026
1025
1027
1033
1033
1034
1032
1036
1037
1041
1043
1036
1029
1026
1030
1036
1039
1034
1027
1022
1024
1030
1037
1039
1040
1036
1030
1024
1026
1033
1038
1035
1033
1035
1041
1053
1058
1061
1064
1070
1083
1101
1127
1152
1181
1209
1242
1277
1307
1334
1360
1392
1428
1454
1457
1433
1375
1294
1209
1147
1109
1081
1056
1039
1037
1041
1040
1038
1029
1024
1023
1022
1021
1018
1013
1014
1017
1019
1017
1012
1006
1008
1010
1011
1004
1000
1001
1008
1015
1015
1011
1001
996
997
1000
999
999
1001
999
1005
1006
1009
1003
1001
994
991
989
995
996
997
996
996
1000
1004
1006
1006
1002
995
992
994
997
1003
1001
999
1003
1002
1002
999
992
989
991
998
998
994
990
992
995
1000
999
999
995
996
1003
1006
1008
1007
1003
1009
1011
1014
1013
1010
1009
1010
1018
1025
1026
1023
1023
1029
1037
1040
1039
1040
1045
1050
1057
1062
1059
1055
1054
1059
1065
1068
1060
1053
1050
1048
1051
1052
1052
1052
1049
1048
1048
1048
1046
1044
1038
1041
1044
1049
1054
1050
1044
1039
1039
1045
1050
1047
1045
1038
1039
1044
1045
1043
1040
1043
1040
1045
1043
1039
1038
1036
1037
1038
1042
1044
1039
1038
1040
1046
1046
1042
1030
1030
1033
1039
1042
1042
1039
1038
1039
1044
1042
1040
1036
1038
1039
1038
1038
1044
1047
1046
1045
1044
1042
1043
1039
1042
1042
1044
1041
1039
1043
1042
1049
1049
1042
1034
1033
1038
1043
1044
1045
1042
1043
1045
1045
1045
1044
1042
1038
1037
1038
1041
1046
1045
1038
1033
1033
1039
1040
1044
1042
1041
1047
1044
1039
1032
1027
1029
1037
1045
1047
1043
1038
1034
1033
1038
1041
1040
1038
1036
1038
1044
1037
1034
1030
1033
1040
1040
1040
1037
1034
1033
1038
1043
1046
1046
1042
1039
1038
1038
1034
1035
1037
1039
1043
1046
1042
1034
1027
1028
1031
1039
1046
1044
1043
1039
1036
1038
1041
1038
1032
1030
1031
1036
1042
1042
1040
1040
1044
1053
1049
1047
1043
1042
1045
1048
1050
1051
1050
1052
1053
1049
1043
1039
1034
1033
1039
1048
1049
1049
1047
1047
1049
1051
1050
1047
1042
1040
1040
1043
1042
1036
1034
1038
1043
1046
1044
1043
1043
1044
1044
1040
1040
1036
1027
1027
1032
1036
1036
1034
1036
1039
1041
1041
1040
1037
1037
1039
1042
1046
1052
1052
1056
1063
1071
1086
1093
1107
1128
1164
1209
1253
1292
1327
1360
1399
1446
1463
1433
1345
1229
1140
1087
1058
1042
1042
1041
1031
1020
1020
1020
1016
1009
1009
1012
1013
1011
1008
1003
1006
1005
1007
1006
1007
1009
1009
1009
1010
1003
1005
1003
