1036
1030
1025
1024
1027
1028
1026
1025
1024
1027
1028
1030
1028
1025
1022
1027
1032
1035
1031
1029
1024
1026
1029
1034
1032
1029
1030
1032
1034
1039
1041
1044
1049
1061
1074
1087
1096
1108
1132
1160
1195
1230
1257
1292
1325
1364
1406
1445
1471
1471
1447
1392
1306
1216
1139
1084
1053
1046
1046
1044
1044
1038
1034
1030
1028
1025
1022
1018
1014
1010
1009
1008
1006
1006
1006
1005
1006
1005
1009
1005
1001
1006
1005
1007
1005
1005
1003
1003
1003
1001
1001
997
996
995
1000
1005
1003
1000
999
999
1001
1004
1005
1003
1000
998
1000
1003
1001
1000
1003
1007
1006
1007
1001
1000
1002
1000
1001
1005
1002
1004
1007
1006
1011
1011
1008
1004
1003
1009
1015
1016
1012
1009
1012
1016
1019
1017
1015
1010
1014
1018
1022
1027
1028
1028
1027
1031
1034
1038
1038
1039
1044
1052
1060
1065
1063
1055
1055
1060
1070
1076
1079
1080
1083
1082
1081
1084
1084
1083
1082
1082
1078
1080
1072
1069
1066
1067
1067
1066
1060
1058
1056
1058
1058
1055
1053
1047
1047
1049
1051
1048
1047
1047
1046
1048
1047
1051
1045
1037
1032
1038
1043
1046
1043
1037
1034
1037
1040
1045
1044
1037
1035
1036
1043
1042
1042
1036
1035
1033
1038
1043
1042
1040
1037
1037
1041
1040
1037
1034
1033
1037
1043
1046
1043
1038
1037
1040
1041
1040
1035
1033
1031
1035
1037
1038
1038
1037
1039
1033
1034
1037
1037
1032
1030
1029
1031
1034
1035
1034
1030
1031
1033
1035
1035
1033
1030
1029
1032
1032
1029
1029
1030
1038
1041
1040
1035
1029
1026
1030
1034
1035
1031
1029
1029
1032
1036
1037
1035
1035
1030
1032
1044
1044
1039
1027
1021
1028
1033
1040
1039
1031
1028
1031
1036
1038
1037
1034
1029
1031
1033
1036
1033
1034
1036
1035
1033
1032
1034
1034
1033
1033
1034
1037
1038
1034
1034
1036
1041
1045
1042
1035
1032
1035
1048
1053
1050
1045
1042
1045
1047
1050
1049
1047
1041
1042
1044
1048
1043
1037
1035
1038
1043
1046
1048
1044
1046
1047
1047
1045
1044
1043
1043
1040
1040
1037
1036
1032
1031
1034
1037
1036
1035
1031
1031
1032
1035
1037
1040
1036
1032
1032
1034
1036
1038
1038
1033
1032
1035
1040
1040
1033
1028
1030
1035
1040
1043
1038
1035
1042
1059
1074
1084
1092
1095
1106
1122
1146
1177
1205
1232
1258
1288
1317
1348
1380
1417
1449
1470
1465
1420
1344
1251
1166
1106
1068
1048
1037
1035
1040
1044
1042
1039
1031
1025
1024
1022
1024
1020
1016
1014
1018
1022
1020
1018
1015
1010
1008
1008
1012
1016
1016
1015
1014
1016
1018
1011
1000
997
997
1007
1010
1009
1005
1007
1011
1014
1016
1016
1011
1004
1006
1005
1006
1008
1006
1004
1000
1000
1008
1007
1007
1005
1004
1006
1008
1006
1005
1006
1012
1014
1015
1010
1004
1001
1005
1010
1017
1015
1012
1013
1016
1019
1018
1014
1010
1008
1008
1015
1022
1023
1022
1019
1024
1022
1018
1018
1022
1026
1029
1033
1038
1039
1042
1042
1045
1048
1050
1051
1054
1057
1061
1066
1067
1063
1063
1061
1064
1071
1074
1077
1077
1079
1078
1080
1083
1079
1075
1072
1070
1070
1069
1068
1063
1059
1057
1059
1059
1058
1054
1051
1055
1056
1054
1052
1052
1049
1049
1047
1048
1049
1047
1049
1048
1053
1054
1050
1044
1039
1043
1045
1050
1051
1048
1045
1043
1044
1043
1039
1038
1036
1041
1042
1046
1045
1042
1040
1037
1042
1043
1041
1032
1028
1030
1038
1041
1041
1038
1036
1039
1038
1037
1037
1040
1041
1040
1037
1042
1042
1037
1036
1034
1035
1040
1041
1040
1038
1039
1041
1041
1042
1040
1041
1040
1040
1041
1035
1032
1033
1036
1039
1043
1046
1041
1038
1034
1033
1031
1034
1034
1036
1037
1040
1041
1035
1033
1030
1033
1040
1041
1042
1038
1038
1032
1031
1030
1027
1025
1029
1031
1035
1038
1039
1037
1037
1036
1036
1039
1039
1033
1028
1032
1033
1034
1031
1032
1031
1034
1036
1041
1037
1037
1037
1036
1035
1035
1038
1038
1038
1035
1033
1035
1036
1036
1035
1037
1040
1044
1040
1033
1029
1026
1029
1034
1041
1040
1040
1040
1037
1034
1032
1029
1030
1030
1033
1038
1040
1039
1035
1033
1032
1035
1036
1037
1037
1041
1044
1047
1043
1038
1033
1036
1040
1050
1053
1045
1040
1037
1040
1047
1049
1046
1049
1051
1052
1054
1048
1041
1040
1041
1046
1045
1046
1045
1047
1046
1049
1052
1051
1044
1039
1039
1041
1045
1051
1045
1042
1041
1037
1038
1035
1036
1034
1032
1032
1036
1038
1038
1036
1035
1031
1029
1026
1031
1033
1032
1035
1035
1037
1037
1034
1029
1028
1030
1031
1031
1032
1033
1037
1041
1039
1034
1033
1038
1045
1057
1067
1076
1087
1094
1101
1114
1137
1168
1194
1225
1249
1276
1298
1326
1364
1404
1433
1443
1428
1375
1291
1196
1118
1071
1043
1034
1031
1033
1032
1031
1028
1027
1022
1020
1021
1025
1018
1009
1002
1005
1014
1017
1013
1010
1009
1015
1017
1016
1012
1003
998
997
1002
1012
1014
1009
1004
1001
1002
1002
1001
1002
1006
1005
1007
1005
999
996
996
1003
1004
1005
998
996
995
1003
1007
1008
1001
997
992
995
1001
1006
1007
1007
1001
1004
1003
1007
1006
1004
1003
1003
1011
1014
1010
1005
1002
1007
1013
1017
1014
1006
1008
1013
1018
1020
1023
1023
1022
1022
1027
1028
1030
1028
1033
1039
1045
1045
1049
1050
1049
1053
1055
1059
1061
1065
1070
1070
1075
1074
1070
1066
1065
1064
1068
1067
1064
1059
1057
1059
1057
1056
1051
1047
1047
1045
1045
1045
1041
1039
1039
1041
1040
1039
1034
1031
1029
1028
1032
1032
1030
1029
1026
1026
1029
1031
1028
1023
1022
1025
1027
1028
1023
1018
1018
1019
1020
1020
1018
1015
1012
1013
1017
1020
1020
1015
1013
1014
1017
1021
1022
1018
1017
1018
1024
1027
1025
1020
1019
1024
1025
1025
1018
1017
1014
1019
1024
1027
1025
1023
1020
1020
1025
1024
1029
1028
1026
1026
1029
1033
1034
1031
1027
1026
1030
1033
1032
1033
1031
1030
1026
1025
1020
1022
1023
1026
1021
1019
1015
1016
1018
1020
1020
1022
1023
1018
1017
1019
1021
1022
1025
1022
1018
1020
1024
1028
1026
1025
1020
1021
1022
1024
1023
1021
1019
1021
1027
1030
1027
1023
1020
1021
1023
1020
1018
1017
1022
1025
1028
1023
1020
1020
1022
1026
1028
1029
1027
1024
1024
1029
1036
1034
1031
1026
1021
1018
1024
1027
1029
1027
1025
1028
1029
1026
1017
1007
1001
996
995
998
996
999
1010
1022
1029
1029
1023
1022
1024
1027
1034
1035
1035
1032
1032
1035
1034
1033
1029
1022
1022
1021
1022
1023
1020
1017
1015
1013
1017
1016
1018
1019
1021
1025
1027
1031
1031
1029
1023
1018
1018
1020
1021
1023
1023
1025
1025
1021
1017
1017
1016
1019
1019
1020
1018
1013
1010
1008
1010
1015
1017
1016
1014
1014
1016
1016
1017
1016
1016
1018
1019
1021
1019
1018
1021
1030
1042
1054
1065
1076
1086
1097
1110
1132
1157
1181
1204
1234
1264
1296
1330
1366
1404
1436
1443
1425
1375
1295
1203
1124
1072
1041
1027
1021
1021
1027
1032
1033
1026
1019
1017
1015
1013
1016
1017
1013
1008
1003
1003
1002
1002
1000
998
1000
1002
1004
1001
999
999
1001
1003
1006
1006
1006
1008
1007
1005
1001
993
988
992
999
1004
1002
1000
996
994
995
996
997
996
996
995
996
999
1000
999
994
996
995
998
998
998
994
995
994
997
1000
1004
1004
1005
1002
1002
997
1000
1001
1001
1002
1001
1006
1006
1005
1006
1003
1009
1008
1007
1007
1008
1007
1011
1016
1020
1019
1019
1023
1029
1034
1033
1031
1027
1030
1037
1046
1048
1046
1050
1053
1058
1062
1062
1063
1063
1063
1067
1066
1063
1064
1063
1066
1069
1070
1066
1065
1058
1054
1053
1051
1047
1046
1045
1045
1053
1049
1047
1044
1039
1041
1044
1046
1041
1035
1035
1041
1045
1046
1042
1033
1030
1029
1035
1044
1044
1041
1036
1033
1036
1035
1039
1042
1051
1068
1088
1109
1123
1127
1122
1107
1079
1019
931
829
724
647
609
602
588
592
611
638
668
708
744
776
804
824
849
864
876
887
904
921
934
947
955
965
978
991
1005
1015
1023
1034
1045
1056
1063
1067
1068
1068
1069
1076
1083
1084
1081
1079
1083
1088
1091
1092
1092
1089
1089
1093
1097
1100
1099
1098
1100
1103
1114
1119
1121
1122
1122
1130
1137
1134
1132
1131
1141
1151
1157
1160
1164
1167
1178
1188
1192
1199
1200
1203
1208
1212
1219
1229
1234
1237
1243
1247
1251
1255
1250
1252
1252
1261
1262
1263
1261
1252
1248
1246
1246
1244
1239
1231
1223
1218
1215
1213
1202
1192
1181
1177
1173
1168
1161
1150
1143
1137
1135
1130
1119
1108
1100
1096
1092
1087
1084
1078
1075
1071
1070
1069
1064
1060
1058
1053
1054
1055
1054
1049
1049
1051
1050
1048
1042
1040
1040
1038
1040
1041
1038
1036
1036
1036
1040
1041
1040
1034
1034
1033
1036
1037
1036
1032
1030
1035
1032
1033
1030
1025
1021
1024
1028
1031
1030
1028
1026
1027
1026
1023
1020
1018
1019
1017
1019
1021
1020
1017
1016
1017
1018
1018
1013
1010
1009
1010
1014
1016
1013
1009
1008
1011
1015
1016
1012
1008
1009
1008
1009
1007
1005
1004
1005
1008
1010
1013
1012
1004
1001
1002
1008
1013
1012
1009
1005
1004
1002
1001
1003
1003
1003
1002
1004
1004
1001
1001
1003
1005
1009
1008
1005
998
999
1003
1007
1011
1011
1006
1002
998
997
1001
1004
1007
1003
1003
1005
1003
999
996
997
1002
1005
1006
1004
1000
1002
1002
1005
1007
999
994
993
999
1004
1005
1001
998
999
1003
1003
1003
998
996
999
1000
1004
1007
1006
1000
1001
1002
1007
1005
1004
1002
999
1000
1004
998
996
994
997
1003
1005
1007
1003
999
1000
1005
1009
1014
1009
1005
999
1001
1001
1005
1003
1002
1003
1005
1010
1010
1007
1002
999
998
1002
1006
1007
1004
1005
1005
1003
1003
1004
1001
1004
1006
1009
1009
1009
1005
1001
1001
1006
1008
1006
1003
1001
1001
1009
1013
1011
1003
1001
1003
1008
1009
1006
1003
1000
1003
1006
1009
1005
998
999
1001
1005
1006
1007
1007
1002
1004
1006
1007
1005
1006
1002
1003
1006
1006
1005
1001
1000
1002
1007
1009
1008
1004
1002
1003
1006
1005
1005
1005
1008
1010
1008
1007
1007
1005
1001
1006
1008
1007
1003
1001
999
1005
1008
1010
1008
1002
1006
1009
1013
1012
1009
1006
1004
1005
1010
1011
1009
1009
1008
1008
1010
1008
1005
1003
1006
1010
1013
1013
1015
1009
1010
1011
1014
1011
1010
1006
1008
1011
1014
1015
1015
1009
1007
1010
1012
1013
1012
1008
1008
1011
1010
1012
1012
1011
1010
1008
1010
1010
1010
1008
1009
1011
1013
1012
1013
1013
1011
1013
1012
1014
1020
1017
1017
1020
1023
1025
1023
1020
1019
1023
1025
1024
1026
1024
1021
1022
1023
1022
1022
1021
1021
1025
1026
1024
1025
1023
1023
1023
1024
1022
1021
1019
1017
1017
1019
1021
1020
1016
1016
1019
1019
1021
1015
1013
1013
1017
1019
1019
1015
1014
1018
1022
1021
1022
1017
1013
1014
1017
1022
1021
1018
1017
1020
1028
1037
1045
1053
1057
1066
1079
1090
1110
1133
1159
1186
1212
1247
1280
1317
1359
1389
1398
1374
1308
1212
1119
1060
1033
1023
1024
1024
1020
1018
1020
1023
1022
1016
1011
1008
1009
1007
1005
999
996
994
996
1000
1001
998
996
993
994
995
999
997
996
994
992
995
995
995
990
989
993
996
997
995
988
988
992
997
996
995
991
989
993
997
998
998
991
990
990
993
996
997
998
999
1001
1004
1004
999
996
997
998
1004
1007
1005
998
994
996
1000
1001
999
997
997
1000
1001
1004
1003
1001
1002
1003
1004
1007
1006
1005
1004
1007
1013
1015
1016
1016
1017
1023
1028
1032
1034
1032
1035
1037
1045
1047
1050
1054
1057
1060
1064
1069
1068
1071
1069
1068
1072
1076
1081
1078
1077
1076
1072
1073
1069
1069
1066
1065
1062
1061
1063
1063
1060
1061
1064
1061
1056
1051
1049
1049
1053
1053
1049
1047
1043
1043
1045
1047
1043
1039
1037
1037
1037
1037
1035
1038
1038
1038
1039
1037
1034
1029
1030
1031
1034
1034
1032
1027
1026
1028
1029
1027
1029
1029
1029
1027
1029
1028
1025
1023
1020
1023
1026
1028
1028
1022
1020
1023
1023
1022
1017
1012
1012
1015
1022
1023
1021
1012
1011
1013
1018
1017
1014
1010
1014
1016
1018
1016
1015
1011
1010
1010
1012
1013
1015
1013
1011
1011
1013
1011
1010
1010
1012
1013
1016
1015
1012
1009
1007
1012
1014
1014
1012
1005
1007
1009
1013
1014
1014
1011
1012
1011
1015
1012
1010
1009
1009
1011
1014
1013
1009
1008
1010
1012
1012
1012
1012
1013
1013
1015
1014
1015
1013
1010
1009
1013
1015
1016
1011
1008
1008
1012
1017
1018
1015
1014
1013
1015
1016
1013
1012
1012
1012
1014
1018
1020
1021
1020
1018
1022
1022
1024
1024
1024
1026
1025
1030
1031
1030
1024
1020
1020
1025
1024
1023
1020
1021
1023
1026
1027
1024
1022
1021
1024
1025
1026
1023
1022
1018
1019
1021
1019
1021
1019
1016
1016
1018
1020
1019
1016
1015
1016
1018
1022
1019
1015
1017
1017
1021
1021
1016
1014
1015
1018
1022
1024
1021
1014
1012
1014
1020
1023
1022
1023
1028
1036
1043
1054
1062
1067
1076
1092
1120
1149
1176
1200
1226
1256
1288
1326
1366
1396
1404
1380
1322
1230
1132
1060
1025
1011
1010
1012
1016
1016
1010
1012
1012
1012
1007
1003
1001
999
1002
998
997
998
993
994
995
995
996
992
992
994
995
995
992
989
988
989
993
993
990
986
985
988
994
993
992
989
989
992
993
990
988
987
988
988
993
992
989
991
992
994
997
995
994
993
993
994
997
996
995
996
994
998
1001
999
1000
998
998
1005
1008
1006
1003
998
1000
1004
1010
1008
1007
1003
1002
1006
1012
1014
1015
1015
1017
1019
1023
1025
1024
1025
1026
1030
1034
1039
1044
1042
1043
1050
1051
1051
1049
1046
1047
1048
1049
1046
1043
1038
1036
1036
1038
1039
1037
1033
1031
1029
1033
1032
1028
1028
1026
1029
1033
1036
1033
1029
1026
1024
1028
1030
1032
1026
1026
1027
1029
1028
1028
1027
1027
1030
1032
1034
1037
1032
1028
1029
1031
1031
1031
1028
1026
1029
1032
1034
1032
1030
1031
1034
1035
1032
1030
1026
1027
1030
1031
1030
1027
1026
1027
1028
1031
1027
1027
1025
1023
1027
1028
1030
1029
1026
1026
1028
1032
1031
1028
1021
1018
1020
1026
1028
1030
1025
1024
1028
1029
1027
1026
1025
1025
1024
1027
1026
1022
1022
1024
1026
1028
1025
1028
1023
1024
1026
1030
1032
1024
1020
1021
1025
1026
1028
1028
1027
1031
1031
1030
1029
1023
1022
1026
1027
1031
1031
1029
1028
1025
1027
1032
1032
1031
1031
1031
1033
1034
1035
1029
1027
1030
1031
1033
1034
1032
1029
1030
1029
1033
1037
1038
1034
1033
1034
1040
1041
1043
1039
1037
1041
1047
1044
1041
1037
1036
1038
1042
1040
1037
1036
1037
1040
1039
1040
1043
1040
1040
1039
1038
1035
1034
1033
1035
1033
1033
1031
1030
1025
1026
1029
1031
1033
1031
1028
1029
1035
1038
1037
1029
1029
1028
1031
1033
1033
1031
1028
1026
1026
1034
1034
1035
1030
1030
1030
1034
1034
1034
1034
1037
1043
1048
1052
1056
1064
1074
1084
1099
1118
1137
1162
1185
1209
1235
1259
1285
1315
1354
1393
1413
1408
1369
1297
1209
1131
1077
1046
1026
1014
1014
1021
1026
1027
1027
1021
1020
1019
1020
1017
1011
1010
1008
1011
1015
1017
1012
1009
1009
1009
1010
1011
1010
1008
1013
1011
1013
1011
1007
1004
1007
1009
1011
1011
1008
1006
1005
1008
1009
1010
1008
1004
1005
1008
1009
1012
1008
1006
1008
1012
1016
1016
1012
1013
1011
1013
1014
1016
1015
1016
1015
1016
1019
1018
1017
1017
1018
1021
1024
1021
1019
1016
1018
1020
1023
1028
1027
1026
1023
1030
1032
1033
1034
1035
1036
1038
1041
1043
1042
1040
1040
1042
1047
1049
1047
1047
1051
1059
1061
1065
1062
1062
1063
1072
1076
1079
1079
1079
1079
1082
1086
1088
1085
1084
1086
1083
1084
1081
1078
1078
1077
1078
1077
1074
1068
1065
1063
1062
1061
1059
1058
1054
1053
1051
1051
1052
1048
1048
1049
1051
1053
1050
1047
1044
1043
1044
1050
1048
1046
1042
1043
1046
1049
1046
1044
1039
1039
1040
1040
1038
1036
1035
1036
1042
1046
1045
1043
1040
1039
1038
1039
1040
1037
1033
1032
1033
1037
1037
1041
1042
1039
1039
1042
1042
1039
1036
1035
1037
1040
1041
1037
1034
1033
1033
1036
1033
1033
1031
1031
1036
1043
1039
1034
1031
1027
1028
1033
1033
1033
1033
1039
1041
1044
1040
1037
1033
1031
1031
1036
1035
1032
1032
1034
1036
1037
1036
1032
1030
1033
1035
1038
1035
1032
1029
1028
1031
1032
1031
1027
1025
1031
1031
1032
1030
1027
1025
1024
1027
1032
1035
1028
1026
1026
1025
1024
1022
1020
1023
1024
1026
1024
1028
1031
1027
1031
1027
1025
1024
1022
1020
1020
1018
1023
1025
1024
1021
1021
1025
1029
1027
1027
1021
1022
1024
1025
1018
1014
1012
1017
1025
1032
1029
1023
1017
1014
1018
1024
1022
1023
1021
1023
1026
1030
1029
1025
1024
1026
1028
1032
1035
1031
1025
1025
1032
1032
1038
1032
1029
1026
1026
1028
1029
1028
1030
1030
1029
1030
1029
1029
1029
1034
1033
1034
1031
1024
1018
1013
1013
1014
1018
1019
1022
1023
1022
1020
1019
1016
1014
1013
1015
1020
1026
1027
1023
1019
1020
1025
1026
1027
1023
1021
1023
1021
1019
1020
1025
1028
1031
1035
1033
1039
1041
1050
1062
1075
1083
1092
1107
1124
1151
1179
1204
1231
1257
1287
1322
1366
1401
1415
1402
1365
1300
1222
1141
1083
1049
1035
1033
1034
1039
1042
1035
1037
1038
1037
1033
1026
1018
1015
1023
1031
1027
1026
1019
1019
1025
1028
1029
1023
1024
1024
1025
1028
1024
1022
1016
1018
1015
1018
1022
1021
1017
1012
1009
1012
1017
1015
1014
1013
1013
1016
1015
1012
1008
1012
1012
1012
1013
1010
1010
1012
1011
1013
1012
1010
1007
1008
1011
1016
1013
1012
1011
1007
1013
1018
1015
1012
1010
1013
1019
1019
1019
1013
1009
1012
1018
1028
1028
1024
1019
1016
1016
1020
1022
1025
1025
1025
1028
1030
1035
1036
1035
1035
1036
1043
1047
1047
1048
1051
1055
1059
1061
1058
1053
1055
1064
1072
1076
1072
1069
1069
1075
1072
1070
1066
1066
1066
1064
1063
1056
1049
1046
1048
1053
1052
1048
1045
1046
1048
1051
1051
1047
1043
1042
1045
1050
1049
1046
1044
1041
1042
1043
1047
1046
1043
1040
1039
1043
1046
1043
1039
1039
1038
1042
1043
1039
1034
1032
1033
1036
1040
1042
1044
1041
1043
1046
1047
1043
1041
1039
1040
1039
1042
1041
1038
1035
1041
1047
1050
1047
1046
1045
1043
1041
1040
1043
1041
1043
1043
1045
1043
1040
1037
1041
1046
1047
1046
1037
1027
1022
1029
1041
1050
1043
1037
1034
1035
1037
1036
1035
1031
1034
1035
1038
1037
1033
1030
1026
1027
1029
1036
1038
1036
1029
1029
1033
1042
1043
1037
1028
1025
1026
1024
1024
1027
1032
1033
1032
1034
1031
1030
1029
1033
1034
1030
1024
1022
1028
1036
1042
1037
1031
1028
1025
1021
1022
1031
1032
1031
1029
1033
1039
1041
1040
1033
1029
1035
1040
1042
1034
1022
1021
1027
1033
1038
1036
1034
1032
1034
1029
1031
1030
1036
1043
1050
1051
1046
1034
1029
1033
1042
1049
1053
1051
1045
1045
1048
1044
1040
1038
1039
1038
1042
1043
1046
1045
1039
1034
1034
1044
1046
1042
1038
1034
1036
1037
1035
1030
1033
1035
1034
1031
1033
1036
1037
1036
1031
1029
1029
1026
1025
1022
1023
1032
1042
1040
1035
1031
1033
1034
1034
1029
1021
1016
1021
1028
1038
1043
1037
1033
1036
1040
1052
1061
1072
1082
1086
1095
1112
1137
1170
1197
1225
1256
1282
1308
1341
1378
1420
1449
1456
1431
1373
1284
1188
1117
1075
1049
1038
1033
1035
1036
1036
1031
1020
1014
1011
1016
1018
1018
1010
1003
1002
1012
1015
1016
1010
1006
1006
1011
1014
1011
1006
1003
1003
1003
1001
998
996
996
999
1003
1008
1004
1003
1004
1000
994
997
1000
1001
998
994
995
1003
1004
1003
993
989
992
999
1003
1001
997
994
999
1003
1004
1000
997
998
1004
1009
1004
1002
1006
1007
1011
1019
1021
1017
1013
1008
1004
1006
1009
1012
1010
1014
1020
1026
1029
1027
1020
1017
1020
1032
1039
1044
1043
1045
1047
1052
1058
1060
1064
1065
1073
1080
1079
1076
1072
1070
1075
1084
1083
1078
1071
1069
1069
1070
1068
1057
1051
1051
1054
1054
1049
