965
966
967
965
964
967
968
970
969
966
963
967
969
970
969
969
968
967
968
970
971
968
968
968
968
969
969
967
966
966
968
969
969
970
966
967
967
969
969
968
966
966
965
967
968
967
966
965
966
970
970
967
965
966
966
968
968
966
966
964
967
967
966
964
963
961
965
965
965
964
964
963
964
966
965
963
960
964
964
966
964
963
962
961
962
966
965
964
961
962
964
965
963
962
961
962
962
964
965
963
960
961
963
962
963
960
959
961
962
963
963
961
960
960
962
965
963
961
960
960
959
962
963
962
961
961
963
965
964
963
961
961
961
964
963
962
962
963
965
966
965
964
963
962
964
964
964
965
961
963
965
966
965
964
962
965
966
965
966
966
962
963
967
968
969
968
964
966
965
969
969
969
965
965
967
971
970
969
968
964
966
969
969
967
967
968
967
968
967
967
967
969
969
971
972
969
969
970
970
971
973
970
969
969
973
973
972
971
970
971
973
974
973
971
971
971
973
975
975
972
972
972
974
975
975
974
972
973
974
977
974
973
973
972
975
976
972
973
972
973
975
977
976
976
975
975
977
978
977
977
975
977
977
977
976
976
975
975
979
981
980
983
980
978
980
984
984
984
983
983
986
989
991
990
988
988
990
992
992
990
988
985
986
992
995
995
991
987
988
988
990
986
987
988
988
990
988
985
982
979
982
982
981
978
976
975
976
977
978
977
974
975
976
979
977
977
975
976
977
980
978
978
976
977
979
980
981
982
981
986
992
997
999
1002
1007
1019
1038
1059
1078
1099
1118
1137
1151
1172
1189
1202
1193
1172
1145
1115
1079
1044
1017
1000
989
984
986
987
988
987
985
982
979
973
971
972
974
974
975
974
970
971
972
973
974
973
968
971
973
975
975
973
970
972
973
975
976
973
974
975
976
979
980
979
980
983
984
988
988
990
992
993
997
998
1000
1001
1000
1000
1003
1005
1002
997
995
995
993
994
999
1001
1001
1003
1009
1012
1010
1011
1010
1012
1014
1017
1016
1017
1015
1016
1016
1017
1014
1011
1010
1007
1008
1009
1008
1002
998
996
994
993
989
985
983
981
982
982
978
976
973
974
974
974
971
971
968
970
970
974
972
971
969
970
970
971
972
970
969
971
972
975
972
974
972
972
975
976
977
974
974
975
975
978
979
978
978
981
990
998
1009
1020
1025
1033
1038
1049
1056
1052
1042
1026
1016
1018
1023
1034
1036
1044
1051
1058
1056
1050
1042
1037
1034
1030
1023
1011
1001
993
987
984
980
977
972
970
967
968
965
968
965
969
966
967
964
963
960
960
962
963
962
961
957
960
961
961
961
959
958
960
961
963
962
963
960
961
961
964
966
963
962
964
966
966
967
965
964
965
966
969
971
970
967
970
972
974
975
977
975
976
981
983
986
985
984
986
990
994
995
997
996
1002
1006
1008
1011
1009
1010
1012
1014
1017
1018
1018
1015
1016
1018
1018
1018
1015
1010
1010
1010
1010
1006
1004
1000
996
995
994
992
988
983
982
981
979
978
975
973
972
973
974
973
972
969
970
970
970
970
969
965
967
968
973
969
967
966
966
968
965
966
966
962
964
965
966
965
965
961
965
965
967
967
963
964
965
966
968
967
965
962
963
966
966
966
965
963
962
965
966
964
963
962
962
965
966
964
963
960
963
965
966
965
964
961
962
963
965
963
962
960
960
963
963
962
960
958
958
961
962
963
962
961
961
962
963
961
960
960
962
962
962
962
961
959
959
961
964
962
960
958
961
959
961
960
960
959
961
961
963
962
960
958
960
962
963
962
961
959
960
961
964
963
962
960
962
962
964
962
962
959
961
963
963
963
960
960
960
962
964
964
962
960
961
964
965
964
964
963
964
964
966
966
963
960
963
965
967
965
964
962
964
964
965
966
965
962
962
964
964
965
963
962
963
964
964
965
964
963
963
964
965
964
964
962
964
966
965
965
964
963
964
964
968
966
966
963
963
963
968
969
966
965
966
967
969
968
968
965
967
967
967
967
965
964
966
966
969
969
968
964
967
968
969
970
968
965
967
968
969
968
970
967
966
969
970
970
969
967
968
969
970
970
967
968
966
968
968
971
969
967
968
972
972
970
969
969
970
970
970
971
971
967
968
970
971
971
970
968
970
972
973
972
971
968
970
973
972
972
972
970
971
974
974
975
971
970
971
974
974
975
973
969
971
972
974
974
972
971
973
972
974
975
971
971
973
975
977
975
976
973
971
974
974
977
975
970
974
975
977
976
976
972
975
977
977
976
975
973
972
976
978
977
974
971
973
975
976
977
977
973
974
975
976
976
976
976
978
979
981
982
982
979
982
981
984
984
983
985
986
988
988
989
988
984
987
988
989
987
987
984
988
990
991
988
985
984
985
985
987
986
986
984
984
984
984
983
982
979
980
981
983
982
982
981
986
990
996
1001
1005
1013
1027
1046
1062
1077
1092
1110
1132
1153
1167
1180
1194
1200
1195
1180
1156
1125
1092
1057
1031
1009
994
983
975
972
976
979
980
979
978
975
970
969
969
969
966
963
964
963
965
963
963
961
963
962
963
965
964
959
962
963
963
964
963
962
962
962
965
966
962
961
962
964
965
965
964
963
963
967
968
967
964
965
965
967
969
969
969
965
968
972
975
975
975
974
977
979
982
980
981
981
984
987
988
992
989
989
990
992
995
997
999
998
999
1001
1005
1004
1002
1001
1004
1007
1009
1010
1010
1008
1008
1008
1009
1010
1009
1007
1005
1006
1006
1003
1001
998
995
995
997
993
990
986
985
987
986
986
984
981
981
981
981
982
980
978
978
979
980
981
978
976
977
978
978
980
979
976
974
977
978
979
976
976
977
978
980
981
980
977
976
978
980
979
978
976
977
977
978
978
978
976
976
977
977
978
974
974
973
976
976
977
977
975
977
978
978
978
977
975
974
977
978
978
978
973
975
976
977
976
974
974
974
974
977
975
973
971
973
972
975
974
974
972
972
974
975
973
973
970
971
971
972
975
973
970
971
971
972
972
970
968
970
971
971
970
970
970
970
971
974
972
968
969
970
971
971
971
970
968
967
970
969
971
969
967
969
970
969
969
970
967
969
968
971
969
969
968
968
968
971
970
969
967
967
968
970
969
967
966
968
968
969
970
968
967
966
969
970
969
969
967
968
967
969
967
967
965
967
967
970
969
966
966
965
965
967
968
965
964
966
966
969
968
965
963
964
963
964
967
968
967
965
967
968
968
966
964
965
967
967
968
966
965
967
969
970
969
970
964
967
968
970
967
967
964
968
968
970
968
969
969
969
969
968
970
968
967
970
970
969
969
968
966
968
969
969
969
968
965
966
969
970
970
973
970
970
971
972
971
971
969
970
972
971
969
969
969
969
972
971
972
970
968
969
971
971
972
970
967
969
972
969
970
970
967
970
973
974
974
972
969
971
971
972
974
972
967
971
971
972
973
971
970
969
969
974
973
971
969
970
973
973
975
975
971
974
973
977
977
975
973
975
976
979
980
979
978
980
983
985
986
983
981
986
986
987
987
986
984
984
988
990
991
986
983
984
983
983
984
983
981
981
981
979
980
979
974
976
977
977
974
974
971
970
972
975
973
971
970
970
971
973
973
971
969
969
970
971
973
971
970
972
973
976
975
974
973
978
986
988
992
994
1004
1017
1041
1064
1090
1115
1136
1156
1179
1202
1219
1222
1205
1172
1133
1090
1048
1016
990
967
956
959
967
973
974
974
974
975
972
972
968
968
968
969
966
967
965
968
967
968
969
967
965
965
968
970
969
969
967
967
969
970
971
970
969
971
972
973
973
973
970
971
974
975
975
976
974
977
978
981
979
980
977
979
980
984
984
985
984
986
989
992
992
991
992
994
998
1000
1000
1001
999
1002
1004
1007
1007
1007
1006
1007
1009
1011
1009
1008
1009
1011
1010
1013
1013
1011
1008
1009
1010
1011
1010
1007
1003
1000
1001
1001
998
996
993
991
991
991
989
985
984
985
984
986
985
982
981
982
983
984
983
983
979
980
981
983
983
979
979
980
982
982
982
980
978
980
981
981
984
982
980
980
981
983
982
982
980
981
981
983
983
981
978
979
983
982
982
982
980
981
981
983
982
982
980
982
981
981
982
980
979
981
982
981
980
981
977
979
982
982
983
981
978
979
981
981
980
979
978
980
981
983
982
979
976
978
978
982
980
978
977
977
976
977
977
974
976
976
975
977
977
976
973
975
977
977
976
975
975
976
976
976
976
973
972
972
974
976
976
974
975
975
975
974
974
973
972
973
975
976
976
976
973
974
977
975
975
976
973
973
974
977
977
975
973
973
975
977
977
977
973
976
976
976
977
977
975
976
978
978
978
977
976
976
976
979
977
978
975
974
977
975
976
974
973
978
979
979
980
979
977
979
978
980
978
979
976
976
980
979
980
977
976
979
980
981
981
980
977
978
980
983
981
979
978
979
980
981
980
980
978
980
979
983
984
981
979
980
982
984
983
981
980
980
980
983
983
982
978
980
980
982
981
982
982
982
982
984
983
982
981
981
983
982
983
982
980
981
983
984
984
982
979
980
982
982
983
982
980
982
982
983
982
983
981
981
984
987
985
985
983
983
987
987
985
987
987
988
990
991
993
992
992
994
996
999
997
996
996
994
997
996
992
996
995
995
997
996
993
992
988
990
990
993
992
991
984
988
986
986
987
984
981
982
981
983
982
980
978
979
981
981
981
979
979
978
981
981
980
979
977
978
980
982
981
980
976
981
981
985
986
985
988
992
997
1001
1002
1008
1019
1039
1061
1083
1106
1125
1143
1162
1182
1201
1202
1186
1155
1120
1082
1050
1022
1000
985
980
983
989
991
991
985
983
981
982
979
976
973
974
975
974
975
975
972
974
975
975
975
975
975
975
977
977
976
974
974
976
978
979
979
979
976
975
977
978
980
978
976
979
981
982
983
983
981
983
984
984
987
987
986
987
989
992
992
991
993
993
996
999
1000
1000
998
1001
1005
1008
1008
1009
1007
1010
1010
1015
1016
1016
1016
1015
1019
1021
1021
1019
1018
1020
1019
1019
1018
1014
1012
1011
1010
1009
1007
1005
1002
999
998
999
997
994
991
991
989
989
988
987
984
985
986
986
985
985
984
984
984
986
985
984
982
984
982
984
985
982
981
982
984
984
985
982
984
983
984
986
985
983
980
979
981
984
982
981
982
982
983
985
984
983
980
979
981
981
983
981
979
980
984
985
983
981
980
980
982
982
982
981
980
981
983
984
983
983
980
981
981
983
980
981
978
980
980
981
980
977
977
978
979
980
980
981
978
980
980
983
984
981
979
979
982
983
982
979
978
979
980
982
982
981
977
979
979
981
979
979
978
979
978
982
980
978
976
978
980
982
979
978
977
977
979
981
979
977
976
977
981
981
980
977
975
978
978
978
979
978
975
977
977
979
978
978
977
977
978
979
979
979
976
977
978
979
978
977
976
976
979
981
980
979
976
979
979
980
982
979
978
979
979
982
979
978
977
980
981
981
979
978
975
979
980
980
980
980
979
979
977
980
980
979
977
980
980
983
983
981
975
979
982
982
983
980
979
979
980
983
982
982
979
981
982
982
983
981
980
979
982
984
985
983
981
984
984
985
985
983
982
982
984
986
985
984
982
982
983
985
983
983
982
981
982
984
985
983
982
982
982
985
984
984
983
985
986
987
987
986
985
985
988
991
991
991
992
994
995
998
997
997
997
996
997
998
997
996
996
997
1000
1000
999
995
993
994
993
995
994
994
991
991
990
990
990
988
985
983
984
984
984
981
980
980
982
985
981
980
979
982
982
984
982
983
980
980
980
982
983
982
980
982
984
985
988
989
990
997
1002
1008
1019
1036
1057
1082
1107
1130
1148
1167
1187
1210
1222
1211
1177
1133
1089
1051
1021
1001
980
971
973
982
989
990
987
984
982
980
980
979
980
976
973
976
977
978
976
976
974
976
977
980
976
975
974
975
978
979
978
978
976
977
978
980
978
979
979
979
982
983
982
981
980
979
983
985
985
985
984
986
987
991
992
991
991
990
994
997
999
998
996
999
999
1002
1003
1004
1005
1007
1011
1013
1013
1013
1012
1012
1014
1018
1017
1017
1016
1017
1018
1022
1021
1019
1018
1019
1020
1018
1017
1015
1013
1009
1009
1009
1009
1004
1002
1002
1001
1000
997
996
990
991
989
990
988
988
985
986
987
986
986
983
980
984
982
986
983
986
982
984
983
985
985
985
983
984
985
986
986
984
982
985
984
985
985
983
982
983
983
986
986
983
983
984
984
986
985
984
983
983
984
986
986
985
981
982
984
986
985
984
984
982
984
985
986
984
982
983
983
984
986
984
982
982
984
986
985
982
981
982
982
983
983
980
979
979
980
981
981
977
978
980
981
980
981
979
978
978
978
982
980
977
978
978
979
981
978
977
976
977
980
980
980
979
979
981
985
989
992
995
1000
1007
1015
1021
1028
1033
1036
1038
1034
1024
1011
992
966
935
897
867
851
856
867
877
882
887
890
889
886
889
892
896
897
900
901
900
897
896
892
888
887
889
895
905
920
934
946
963
975
983
986
987
987
991
994
996
998
997
997
998
1001
1004
1003
1000
1001
1004
1006
1009
1012
1013
1011
1016
1020
1022
1023
1023
1023
1028
1031
1032
1035
1037
1039
1042
1048
1051
1055
1058
1059
1064
1070
1075
1078
1079
1084
1088
1093
1097
1100
1102
1104
1108
1110
1114
1115
1115
1111
1114
1114
1112
1108
1101
1098
1096
1091
1087
1082
1075
1068
1062
1058
1053
1044
1036
1028
1025
1020
1016
1012
1004
1000
998
995
992
989
986
983
982
982
982
979
977
976
975
975
975
973
973
973
974
976
975
976
976
974
977
979
982
981
980
980
982
982
982
980
979
977
979
980
982
982
980
977
978
977
978
976
976
974
976
978
978
975
972
971
970
970
969
967
964
961
960
962
961
960
958
957
958
959
961
959
957
955
955
955
955
955
954
953
952
953
953
954
953
952
951
952
954
952
952
949
951
950
951
951
952
951
953
954
956
956
954
954
955
959
958
959
959
959
961
964
968
971
974
976
981
989
1002
1023
1040
1063
1088
1117
1142
1161
1176
1190
1191
1181
1153
1116
1073
1027
990
968
957
949
950
956
962
963
960
959
956
952
953
952
952
951
948
948
948
951
950
950
947
946
946
949
949
948
947
947
947
948
950
950
949
947
950
951
952
951
949
948
950
953
955
953
953
951
953
954
956
954
955
954
957
958
959
958
956
959
959
959
961
963
963
961
964
967
968
966
968
965
970
971
973
974
973
973
974
977
979
978
977
976
979
980
981
979
978
980
980
981
983
982
979
978
978
980
979
978
974
970
971
972
972
968
965
961
961
961
962
961
958
959
958
957
959
958
956
955
955
957
958
956
953
953
954
954
954
953
954
953
955
957
957
955
954
954
954
956
957
956
955
953
954
957
957
956
956
954
957
957
959
957
955
954
955
956
958
958
956
955
957
956
958
958
955
953
956
957
955
957
955
956
954
958
958
957
954
953
954
958
958
958
956
955
957
956
957
957
955
955
956
956
958
958
956
953
956
956
958
957
955
952
957
957
957
958
957
956
955
957
958
958
956
955
958
958
960
957
956
956
957
959
959
959
957
956
957
960
961
959
957
956
957
958
958
958
959
956
958
957
958
957
957
956
957
957
958
956
957
955
956
958
958
957
959
958
957
959
958
960
958
959
959
960
960
960
958
957
958
961
960
962
960
960
961
963
963
962
961
960
961
962
963
962
961
960
962
963
965
963
963
962
962
964
964
964
961
961
963
964
964
966
964
962
963
966
966
966
963
963
963
966
965
965
965
963
965
966
966
966
964
966
967
969
968
966
966
964
967
966
966
967
966
965
967
968
967
966
964
962
965
968
966
967
966
966
967
970
968
970
971
969
971
971
972
972
972
972
974
975
977
980
979
978
979
980
983
983
979
978
979
981
982
983
982
984
983
983
980
978
977
975
977
980
981
980
978
977
972
973
973
974
972
969
971
971
973
970
967
965
968
969
970
969
966
966
968
969
970
970
968
965
968
968
969
970
968
966
967
970
971
971
971
971
977
979
983
984
985
987
995
1007
1026
1044
1064
1088
1113
1132
1151
1173
1189
1197
1187
1163
1133
1092
1056
1025
1001
981
968
958
959
965
972
976
977
974
972
970
968
966
967
965
964
962
963
965
964
964
962
961
962
963
962
965
963
962
963
966
966
965
964
964
966
967
968
968
967
967
967
968
969
970
967
965
967
970
971
971
970
969
971
975
975
974
975
974
976
977
980
980
980
980
982
985
982
983
983
985
988
992
992
991
990
993
996
998
998
997
996
998
1001
1005
1006
1003
1002
1003
1005
1009
1009
1008
1008
1007
1008
1007
1008
1007
1006
1005
1005
1006
1005
1005
1002
998
999
998
998
995
992
990
989
990
986
985
982
981
983
983
982
979
980
978
979
981
982
982
980
977
978
980
981
979
979
978
979
981
981
979
979
979
981
980
981
979
978
977
979
979
981
981
979
978
979
980
980
980
976
978
976
982
982
981
979
977
980
