1019
1019
1018
1020
1021
1021
1020
1017
1015
1016
1016
1016
1012
1008
1004
1004
1003
1001
999
993
990
990
989
989
983
981
980
981
981
979
977
975
976
974
975
975
974
971
971
974
973
973
973
971
972
973
974
972
971
969
969
970
972
971
971
971
969
971
973
972
970
970
969
972
972
973
969
969
969
969
970
971
970
969
969
973
973
971
969
967
968
969
969
969
968
967
968
969
969
970
970
967
967
968
969
968
969
966
966
968
968
968
964
966
966
967
968
968
968
965
967
968
967
966
967
966
965
965
968
968
964
965
967
968
969
968
968
965
965
964
966
966
966
965
965
966
966
965
964
966
963
965
969
967
967
964
963
967
969
966
967
964
962
964
965
965
965
964
963
964
967
966
965
964
965
967
967
965
965
966
964
965
967
967
967
965
964
965
966
966
966
965
964
966
968
966
966
965
964
966
969
969
967
964
964
967
968
965
967
966
965
964
965
965
966
966
965
966
969
966
967
965
964
965
968
968
966
967
965
968
968
970
967
968
968
969
969
969
970
969
969
967
970
969
969
968
968
970
969
970
970
966
966
968
971
971
972
970
969
970
971
972
972
971
969
971
972
972
972
972
970
972
973
972
972
972
970
970
974
974
972
972
970
973
975
973
973
971
972
972
975
975
973
971
971
972
975
975
975
974
975
976
977
977
973
974
974
976
980
982
985
983
985
985
989
991
990
990
993
993
993
997
998
998
999
998
999
996
995
992
993
992
992
990
989
985
984
982
982
980
978
974
974
974
975
977
975
972
972
974
976
977
976
973
974
973
977
977
975
973
974
975
977
977
976
975
977
980
985
990
992
993
997
1011
1033
1056
1082
1107
1131
1153
1177
1201
1221
1224
1202
1169
1124
1079
1042
1014
989
971
964
968
976
980
980
979
976
973
971
970
969
969
970
969
969
966
963
965
970
969
967
967
967
970
971
969
967
969
968
970
971
971
972
971
969
971
974
973
972
973
972
974
975
977
978
977
977
980
982
981
984
982
980
983
985
986
983
982
985
987
991
991
991
990
991
994
995
996
994
996
997
999
1001
1003
1005
1005
1003
1008
1009
1012
1010
1010
1011
1013
1015
1015
1016
1016
1016
1019
1021
1022
1018
1017
1016
1017
1020
1020
1016
1011
1013
1013
1013
1008
1009
1006
1003
1001
1004
1001
999
996
996
996
998
996
993
992
991
992
993
994
993
992
990
991
994
993
992
990
991
991
991
991
992
991
989
989
995
994
994
991
989
992
993
993
994
990
990
992
994
992
991
990
990
990
991
990
988
988
989
991
993
993
991
990
989
990
993
990
988
989
988
991
992
991
991
988
988
989
990
988
988
985
984
988
989
988
987
986
984
988
988
987
986
983
981
983
984
986
987
983
982
986
988
987
985
983
982
986
986
987
984
983
982
984
987
985
983
984
982
983
985
984
985
983
981
984
985
983
984
981
983
985
985
984
985
983
980
983
985
983
984
983
984
984
986
984
983
981
983
983
984
983
983
983
982
984
985
984
983
984
983
984
986
985
985
982
981
984
985
985
984
983
980
982
984
983
984
983
982
983
985
987
986
985
984
984
988
986
985
983
984
985
988
988
986
984
983
985
987
986
984
984
983
985
988
987
985
985
985
988
990
988
985
986
985
985
988
987
986
984
986
988
988
988
988
986
986
986
987
989
986
986
984
988
991
989
985
985
987
990
991
991
989
989
988
992
994
995
997
997
1000
1003
1005
1006
1005
1005
1008
1010
1011
1008
1006
1010
1009
1013
1014
1011
1009
1005
1004
1004
1005
1003
1002
1002
999
999
998
998
993
990
988
987
988
987
985
984
983
984
986
987
984
985
983
984
985
984
985
982
982
985
985
984
984
983
982
983
984
985
985
985
986
991
997
999
1003
1001
1004
1020
1038
1054
1074
1093
1114
1138
1154
1174
1191
1200
1189
1166
1134
1096
1058
1029
1007
994
986
983
988
991
993
989
987
986
982
979
977
979
979
977
977
973
976
977
981
978
978
976
976
977
980
979
980
980
978
980
982
980
981
979
980
981
981
981
982
981
980
980
983
983
983
982
983
985
988
988
988
987
986
988
991
991
992
991
992
994
996
996
997
996
996
999
1003
1002
1005
1004
1005
1009
1011
1011
1011
1010
1012
1016
1019
1019
1020
1020
1021
1025
1027
1028
1028
1025
1026
1030
1030
1028
1028
1025
1027
1028
1028
1026
1025
1023
1021
1021
1022
1018
1017
1013
1010
1009
1008
1006
1003
1002
999
1000
1000
996
997
995
992
992
994
993
990
987
987
990
990
991
991
989
989
990
990
991
989
988
988
989
989
988
988
987
986
989
990
989
990
988
988
990
991
991
989
986
986
987
990
989
988
987
987
987
990
987
988
986
986
987
989
989
987
987
987
987
990
988
988
986
984
987
989
989
986
985
985
986
989
988
987
984
982
985
987
986
984
983
984
985
987
986
987
985
983
986
986
985
984
982
980
984
985
985
985
984
982
984
987
985
983
982
981
981
984
983
981
982
981
984
986
985
984
983
981
981
983
982
982
980
981
981
985
983
983
982
979
980
983
982
981
981
981
982
984
980
978
979
979
981
983
981
980
982
981
982
981
983
982
978
980
982
985
983
982
979
980
982
982
982
979
979
978
980
983
982
980
978
978
978
982
980
979
979
978
980
983
980
980
980
978
981
983
984
983
980
980
980
983
982
982
980
980
982
984
982
981
980
979
981
983
981
984
981
978
983
984
982
981
982
981
984
984
982
982
982
982
984
985
984
984
981
980
982
983
984
984
983
981
983
986
984
984
981
982
983
985
984
982
981
982
984
984
985
984
982
983
984
988
985
985
984
984
986
987
985
985
986
985
986
987
986
985
984
984
988
990
990
991
992
993
998
999
999
999
1001
1000
1002
1006
1006
1004
1004
1004
1007
1010
1010
1010
1008
1007
1006
1007
1006
1003
1001
1000
1001
1002
998
995
993
991
992
992
989
987
984
983
984
985
984
983
981
981
982
982
983
982
979
979
983
983
984
981
981
980
980
984
982
981
977
977
981
982
981
981
980
980
982
985
986
990
991
995
998
1002
1007
1019
1034
1054
1080
1104
1125
1144
1159
1176
1201
1219
1225
1216
1193
1158
1119
1083
1050
1021
997
977
967
968
973
982
984
985
984
984
981
978
977
972
974
976
976
973
973
971
972
973
975
973
974
972
974
976
975
974
972
974
974
976
978
978
975
977
977
978
978
980
978
978
982
982
984
983
981
981
984
987
986
985
984
981
984
988
988
987
986
987
989
992
993
993
992
992
994
997
998
999
997
1000
1002
1006
1006
1005
1006
1006
1010
1014
1015
1015
1015
1018
1018
1021
1020
1020
1020
1020
1022
1024
1025
1025
1023
1024
1024
1027
1029
1027
1024
1023
1023
1024
1024
1021
1019
1014
1018
1017
1015
1011
1008
1008
1008
1008
1005
1000
999
998
999
998
997
998
993
993
993
993
995
993
992
988
991
992
991
990
989
989
989
992
989
990
987
986
990
993
990
990
990
988
990
991
990
990
988
988
990
992
992
992
989
988
991
992
993
990
989
987
990
992
990
988
989
988
990
990
990
990
989
988
990
990
988
988
987
986
989
990
990
989
986
985
987
987
988
988
986
986
988
988
986
986
982
983
985
987
984
984
983
982
984
984
984
981
982
981
982
985
984
982
982
980
981
984
982
981
979
982
984
983
982
981
980
979
982
984
984
982
980
980
979
983
982
981
982
979
983
984
984
984
980
982
983
985
983
981
981
980
982
984
982
981
980
981
982
985
984
984
980
982
983
986
984
983
981
980
981
983
985
984
981
982
984
984
985
982
981
981
982
984
985
983
980
980
981
982
985
983
982
980
983
985
983
983
981
982
983
984
983
983
982
981
983
982
986
985
984
982
984
987
986
985
984
983
985
986
987
984
985
985
986
987
988
986
985
984
986
989
987
986
986
985
987
987
986
988
985
985
985
988
989
988
984
984
986
989
986
987
986
987
987
990
987
987
985
985
989
991
989
988
987
987
989
991
990
989
988
988
990
991
989
989
988
987
989
991
991
989
989
988
990
992
990
991
988
990
989
993
994
990
988
989
992
993
996
995
993
993
997
997
999
999
998
1000
1003
1004
1005
1001
1001
999
1001
999
1001
1003
1002
999
998
1000
1001
999
997
996
1000
1001
1001
996
994
992
993
992
991
989
987
985
985
986
988
984
981
982
985
987
987
986
985
983
984
986
985
984
983
984
983
987
987
986
985
984
987
989
988
993
996
1000
1003
1007
1018
1034
1054
1073
1099
1123
1143
1163
1184
1195
1193
1164
1124
1079
1042
1015
998
986
980
982
986
990
991
989
983
981
979
978
978
979
977
974
974
975
975
977
977
975
974
974
976
977
977
978
977
976
978
980
979
978
977
978
979
981
980
979
978
978
982
982
985
980
982
982
984
985
985
985
983
986
988
988
989
991
990
991
993
998
996
995
998
999
1001
1003
1004
1005
1006
1008
1009
1013
1015
1016
1015
1015
1018
1020
1022
1020
1018
1019
1023
1025
1027
1026
1025
1025
1026
1027
1026
1027
1023
1022
1022
1022
1021
1017
1013
1010
1013
1012
1008
1005
1002
1001
998
997
997
994
991
990
992
993
993
991
989
985
989
991
991
988
987
986
989
988
990
987
986
985
987
988
986
985
985
984
985
987
985
986
986
985
985
986
986
985
983
981
983
986
985
985
983
984
985
985
985
983
982
981
982
984
985
984
982
982
982
984
982
981
982
981
982
986
984
984
981
980
981
985
984
981
981
980
982
985
984
983
982
981
982
985
981
981
981
979
981
984
982
984
980
981
981
982
981
979
979
978
979
981
979
978
976
977
978
981
982
980
978
978
979
978
978
978
977
978
980
979
979
975
978
977
978
979
976
976
975
975
977
978
980
977
975
973
975
979
979
978
977
976
977
978
979
976
976
977
977
979
979
975
975
974
977
979
978
977
976
977
978
980
980
978
976
975
977
980
978
978
977
977
978
979
980
979
975
976
978
979
977
978
977
974
976
980
979
977
976
978
978
980
981
977
976
977
975
981
978
976
977
974
977
979
981
979
977
980
977
979
980
979
977
976
978
980
981
979
978
978
980
981
981
980
979
978
979
982
981
980
980
978
981
982
982
978
979
981
980
982
982
981
980
981
983
984
985
984
983
985
988
992
994
994
992
993
995
1001
1003
1003
1002
1001
1001
1006
1007
1006
1006
1002
1002
1004
1001
999
996
995
995
997
997
994
990
989
988
987
986
983
981
980
980
983
981
979
976
977
977
981
980
979
977
977
979
980
979
979
976
976
977
978
978
976
974
975
976
978
979
979
980
984
988
995
996
1001
1016
1032
1054
1083
1108
1128
1147
1167
1192
1211
1216
1200
1170
1129
1088
1054
1024
998
975
965
963
973
981
983
981
979
977
977
976
973
970
969
971
973
972
970
970
967
970
971
970
969
968
968
970
972
972
971
972
970
972
974
976
973
975
973
976
977
977
976
976
975
979
981
980
976
977
978
982
983
984
983
982
982
986
988
988
986
986
987
991
993
994
993
994
997
999
1002
1002
1002
1004
1004
1007
1010
1010
1010
1012
1012
1015
1017
1017
1018
1018
1019
1021
1025
1024
1023
1022
1022
1023
1023
1022
1020
1020
1016
1016
1016
1014
1009
1006
1002
1003
1003
1001
997
995
991
990
991
990
990
987
986
988
988
986
986
983
983
986
987
986
983
981
982
984
986
986
983
983
981
985
985
986
984
983
981
984
986
984
981
982
983
983
986
985
984
983
981
982
984
982
984
982
981
984
983
982
981
980
980
984
982
982
982
983
982
983
983
985
983
981
979
979
984
982
982
978
977
978
980
980
980
977
976
979
980
980
980
977
975
978
979
979
980
977
976
978
978
979
978
976
975
978
978
978
978
976
976
977
979
977
976
976
975
978
979
978
976
975
972
977
980
978
976
976
975
977
978
979
976
976
976
977
981
978
978
976
976
979
980
981
979
977
977
978
981
980
979
979
979
980
980
979
979
978
977
981
982
981
981
979
980
981
983
984
981
981
980
981
983
982
982
980
979
982
982
982
983
979
981
982
984
982
983
982
981
983
983
981
982
980
980
982
982
982
982
981
979
980
983
984
982
981
981
982
984
983
984
982
982
983
985
983
980
977
980
981
980
980
980
981
980
980
983
983
980
978
981
983
982
983
981
982
981
981
984
983
982
981
978
979
982
982
982
979
979
980
983
984
982
981
979
982
985
984
983
983
980
983
986
983
983
982
981
984
984
984
984
983
984
986
985
986
988
987
986
987
991
991
991
989
992
995
997
999
995
996
994
998
997
995
994
993
995
996
998
996
994
990
989
991
992
993
992
989
987
986
985
985
984
981
979
978
981
978
975
974
975
977
978
978
977
977
976
977
978
978
976
974
974
979
979
979
976
973
977
981
983
985
987
988
991
996
1000
1007
1018
1036
1058
1082
1109
1130
1147
1167
1187
1194
1182
1151
1113
1075
1039
1012
990
974
964
964
971
980
983
980
977
974
971
972
971
972
970
967
968
969
969
970
969
966
966
967
969
969
968
966
966
969
970
970
968
968
967
969
972
971
970
969
969
971
974
975
974
971
972
973
976
974
973
973
973
978
979
980
980
978
979
982
982
982
983
984
984
986
988
988
991
989
991
991
994
997
998
999
999
1002
1005
1005
1007
1007
1006
1009
1012
1012
1013
1014
1014
1018
1020
1019
1018
1016
1017
1018
1019
1020
1017
1014
1014
1015
1014
1013
1010
1008
1003
1004
1003
1001
999
995
993
995
995
993
991
989
987
987
989
986
985
984
982
983
984
984
983
981
979
982
984
983
982
979
980
981
982
981
981
981
980
980
983
982
982
980
978
981
985
983
982
980
980
982
983
982
982
981
981
982
983
981
981
979
980
980
982
980
980
979
979
982
981
980
979
979
980
981
983
982
980
977
977
981
982
980
981
978
980
979
982
980
978
978
977
979
981
978
976
976
977
979
981
979
979
974
975
975
978
979
977
976
977
978
979
978
976
975
976
977
979
979
977
977
975
977
979
978
978
976
976
976
979
978
978
975
975
975
978
977
975
972
974
978
981
979
979
974
975
975
978
978
977
974
975
977
977
977
975
974
972
976
977
978
975
975
975
975
978
977
977
975
974
976
979
979
977
973
973
976
978
978
976
975
974
978
979
979
977
975
976
977
980
977
978
976
974
977
979
977
979
977
975
978
980
978
978
977
977
979
981
980
980
976
978
979
983
980
981
979
979
981
984
982
979
977
978
979
981
982
981
980
979
982
984
981
982
979
978
980
983
981
982
981
980
983
984
984
982
981
981
982
985
984
981
983
981
985
987
985
985
982
986
991
994
995
996
996
996
998
1000
1002
1004
1004
1002
1006
1007
1007
1008
1009
1008
1009
1008
1006
1004
1001
999
1001
999
998
996
994
991
990
991
987
985
985
982
983
985
985
981
979
978
979
982
980
981
979
978
981
982
981
980
978
980
979
984
982
981
979
979
979
982
982
981
979
981
983
988
989
992
992
994
998
1008
1019
1039
1055
1076
1102
1128
1143
1166
1188
1207
1212
1196
1163
1122
1080
1048
1023
1002
982
970
967
972
982
990
988
985
981
977
978
978
976
975
976
974
975
976
976
975
973
975
976
976
976
975
975
975
978
980
979
978
977
977
978
981
979
979
980
979
981
983
981
982
981
982
984
985
985
988
990
991
993
997
999
1000
1002
1006
1009
1011
1010
1008
1008
1008
1008
1011
1009
1006
1003
1000
1003
1005
1004
1004
1004
1005
1010
1013
1016
1014
1014
1013
1016
1018
1019
1018
1019
1018
1022
1024
1020
1022
1017
1018
1020
1022
1019
1019
1016
1015
1016
1017
1014
1012
1012
1009
1009
1010
1007
1004
1001
998
1001
999
998
994
991
989
990
992
989
987
984
984
983
985
983
980
979
978
980
981
981
979
979
980
980
983
982
981
980
979
980
981
982
982
981
981
982
983
983
983
983
981
983
986
985
984
983
983
984
986
982
983
981
981
983
985
983
985
982
982
984
986
982
983
982
983
983
985
984
982
983
980
984
985
982
983
982
983
984
986
983
983
981
981
983
983
979
983
981
981
982
985
984
981
979
980
981
982
982
981
980
979
980
984
983
979
980
980
982
983
981
981
979
979
981
982
980
980
978
979
981
983
981
980
977
977
980
980
981
978
976
977
979
978
979
980
978
979
980
981
980
981
978
978
980
981
980
978
977
978
979
981
981
978
978
977
979
981
979
977
978
980
981
978
980
979
978
981
982
982
982
980
978
977
981
983
983
982
979
980
982
983
980
979
979
979
981
982
982
982
979
980
981
982
981
982
980
980
981
982
982
981
980
979
982
984
981
981
980
979
981
983
981
981
981
979
982
985
985
989
989
993
1001
1008
1014
1020
1025
1031
1039
1045
1043
1032
1018
1002
982
958
927
892
864
857
867
883
890
891
894
896
896
896
897
898
898
899
902
907
907
902
895
890
890
891
892
897
901
914
934
954
967
978
981
981
988
991
992
993
992
993
996
1001
1001
1001
1002
1002
1006
1007
1006
1008
1009
1009
1011
1014
1016
1016
1013
1017
1019
1020
1021
1018
1018
1023
1029
1032
1031
1031
1031
1034
1035
1039
1044
1045
1044
1048
1051
1058
1059
1062
1063
1068
1072
1076
1082
