972
969
968
971
970
974
971
971
968
969
972
973
971
973
968
969
971
972
972
972
971
971
972
974
973
973
970
971
972
975
975
973
971
972
973
973
973
972
971
973
975
975
976
975
974
973
974
977
975
975
974
974
974
977
974
974
972
973
974
975
975
976
972
975
974
979
977
978
978
978
980
984
987
987
986
989
990
994
993
993
993
993
995
996
996
997
994
995
997
998
994
993
990
990
990
990
989
987
985
983
985
982
982
977
975
974
975
973
973
970
969
970
970
971
971
969
969
969
971
972
971
969
968
968
971
971
972
969
968
969
971
971
970
972
968
971
973
977
980
981
984
987
991
996
1006
1020
1037
1057
1079
1103
1122
1139
1153
1173
1195
1205
1194
1170
1138
1101
1066
1037
1014
989
972
965
967
975
980
980
977
978
975
976
975
971
969
969
968
970
968
968
965
966
970
970
969
967
967
968
970
971
972
971
970
970
971
974
974
972
971
971
974
976
976
975
976
975
976
978
978
977
978
981
983
984
985
985
985
987
991
995
997
1001
1003
1003
1005
1007
1007
1006
1005
1006
1009
1010
1008
1004
999
1000
999
1000
1000
999
1000
1001
1003
1010
1009
1008
1008
1009
1011
1013
1016
1015
1014
1014
1017
1019
1019
1017
1015
1015
1017
1016
1018
1016
1014
1015
1014
1016
1014
1012
1010
1011
1010
1009
1009
1007
1003
1003
1001
1001
999
998
994
993
991
991
990
987
985
985
986
985
986
984
982
982
982
985
985
984
981
982
984
986
986
983
983
982
986
985
985
984
981
984
985
986
985
984
984
985
987
988
987
984
983
985
987
989
988
986
987
987
988
989
988
986
984
987
989
990
991
990
987
989
991
992
992
988
987
987
990
992
992
991
989
992
993
996
999
999
1002
1015
1029
1041
1049
1057
1066
1077
1087
1092
1092
1083
1073
1068
1067
1069
1071
1068
1071
1075
1082
1083
1084
1082
1082
1084
1085
1085
1081
1075
1062
1053
1041
1032
1025
1016
1009
1003
999
997
988
980
975
972
972
973
971
967
964
964
964
966
964
963
961
961
963
964
963
962
959
958
960
963
964
962
960
962
963
965
966
964
962
964
967
968
966
969
967
968
969
973
973
972
972
973
974
977
976
976
974
976
979
979
979
980
978
980
984
985
985
986
984
988
990
994
996
996
995
1000
1002
1006
1006
1008
1008
1010
1013
1016
1017
1017
1016
1018
1020
1022
1022
1020
1018
1017
1018
1018
1014
1011
1008
1008
1008
1008
1005
1000
998
998
996
995
990
987
984
983
981
981
981
980
976
977
975
976
974
974
972
973
975
975
975
973
972
971
972
973
972
971
969
972
970
973
973
971
970
970
971
972
972
972
969
971
970
972
973
970
968
969
970
973
971
971
968
968
971
974
971
971
970
967
969
971
971
970
967
969
969
971
971
970
967
966
968
973
972
970
967
968
970
971
970
970
966
968
968
970
969
968
965
967
967
970
969
967
966
966
968
970
968
965
963
964
968
969
966
967
967
967
968
970
968
966
966
967
969
969
968
968
965
966
968
969
969
968
965
967
969
970
965
967
965
966
969
970
968
967
964
967
970
971
969
969
968
969
971
972
971
969
967
969
970
973
972
970
967
968
971
968
970
969
967
969
971
971
973
969
969
970
970
970
969
968
968
971
970
972
971
971
969
969
972
975
972
972
968
973
971
972
971
969
969
971
973
973
973
971
971
971
973
974
973
972
972
974
974
975
975
975
972
973
976
977
975
975
972
971
974
976
974
975
975
975
976
977
975
976
974
975
974
977
976
975
974
975
976
978
978
977
974
977
977
979
979
975
974
976
977
979
978
978
975
978
977
981
981
980
979
981
982
984
985
986
985
987
989
992
991
992
992
995
996
997
999
998
998
1001
1001
1003
1001
996
992
994
993
993
993
989
986
985
983
983
981
977
975
977
976
975
974
974
971
973
972
973
974
973
972
972
973
973
975
975
972
973
973
976
976
974
972
975
977
981
983
987
989
992
998
1015
1034
1056
1078
1105
1131
1153
1177
1197
1210
1203
1175
1136
1085
1047
1015
990
970
963
967
976
981
980
981
979
976
974
970
969
971
970
968
968
967
968
968
970
972
970
969
970
972
973
974
972
969
969
972
973
974
974
971
973
976
979
980
979
978
980
983
986
987
987
988
991
997
1000
1002
1001
1001
1003
1004
1004
1005
1003
997
998
997
996
994
992
989
992
993
998
999
999
997
999
999
1001
1002
1001
998
1000
1000
1001
1003
1000
997
998
1000
1000
999
997
997
999
1000
1001
999
998
998
997
998
998
997
993
990
990
992
991
988
985
982
980
981
981
981
977
976
974
976
978
976
974
972
974
975
975
976
977
974
976
976
978
977
976
974
974
976
977
980
978
976
975
979
979
980
978
977
978
979
981
981
977
978
979
981
979
980
980
977
981
979
981
982
981
979
979
980
981
981
979
980
981
981
983
982
980
978
978
979
978
979
979
978
979
980
980
980
980
973
976
978
981
980
977
974
978
976
979
978
978
972
974
977
977
977
976
973
975
976
978
977
977
975
973
973
976
976
973
973
975
974
976
977
973
972
971
974
975
975
972
973
971
975
976
975
973
972
973
974
975
975
974
971
973
975
976
977
974
971
974
974
973
973
974
973
973
975
975
975
976
974
972
973
975
975
972
973
973
974
975
976
975
974
974
975
976
975
973
971
973
972
975
976
974
972
973
974
976
976
976
973
973
976
977
975
973
972
972
972
976
975
973
972
972
973
977
976
974
972
974
975
975
976
975
971
973
974
977
975
973
971
972
973
973
972
973
971
972
971
972
973
972
970
972
971
972
973
971
972
970
974
973
973
971
971
972
972
971
972
972
970
971
973
973
971
972
970
971
972
974
972
972
970
972
971
973
974
971
971
973
973
975
973
972
971
973
973
973
973
972
971
972
973
975
973
973
969
972
973
974
972
971
970
971
973
974
975
974
970
972
975
975
974
973
972
971
971
974
976
975
970
973
973
975
972
973
971
972
972
975
975
971
969
970
974
973
973
972
973
972
973
974
971
970
970
969
972
974
973
973
971
972
973
975
974
975
972
972
974
974
973
974
972
970
971
970
973
973
971
971
973
975
974
973
972
972
972
974
975
975
971
972
972
975
974
973
970
971
973
976
976
974
971
972
973
976
975
974
973
973
974
975
975
973
971
972
974
976
977
974
971
975
977
977
977
974
971
972
975
977
976
976
975
975
976
976
978
975
973
972
974
978
979
978
974
975
977
979
979
978
976
976
979
980
978
976
975
977
976
978
978
976
974
976
977
980
977
977
974
975
976
977
978
976
975
976
978
981
979
977
978
978
979
981
980
980
976
981
982
986
989
989
988
989
988
992
994
995
993
996
996
999
1000
1001
1001
1000
999
998
996
995
992
989
991
991
988
989
983
983
981
982
978
977
975
975
975
976
975
973
971
972
973
974
974
974
969
972
973
974
975
973
973
973
974
975
975
974
969
972
974
975
975
980
981
986
990
994
999
1014
1032
1056
1084
1108
1128
1146
1164
1190
1205
1208
1189
1154
1103
1061
1029
1006
982
961
952
960
971
979
979
976
970
971
970
970
968
966
963
964
964
967
966
964
961
964
965
966
968
965
963
965
966
969
968
967
965
966
968
970
971
970
968
970
974
975
974
973
972
973
973
975
975
975
973
977
976
980
980
980
978
982
983
984
983
984
982
984
986
988
990
990
989
989
994
994
995
994
994
995
995
998
1002
1001
998
1000
1001
1004
1004
1003
1003
1005
1008
1008
1010
1009
1010
1010
1011
1013
1012
1012
1012
1013
1013
1012
1013
1011
1008
1009
1009
1009
1006
1005
1002
1001
1001
1001
998
997
992
992
993
994
991
989
987
988
989
987
987
986
984
985
987
988
986
985
983
983
985
986
984
984
982
985
985
986
987
987
981
984
983
986
987
985
983
983
985
987
987
985
984
982
985
987
987
985
983
983
986
988
987
987
985
986
983
987
986
986
984
984
986
986
987
985
984
984
986
985
987
985
982
983
983
986
984
985
982
983
983
985
985
982
980
982
982
984
983
984
980
980
981
983
982
980
980
979
981
982
982
981
978
979
981
982
981
981
978
981
980
981
981
980
978
978
978
981
980
979
979
979
980
982
980
979
979
978
979
981
981
980
978
979
980
982
981
981
979
978
980
982
981
981
978
977
978
981
981
981
980
982
982
983
982
981
980
982
983
983
983
981
979
980
981
981
981
980
979
981
982
982
983
981
982
981
983
983
982
982
979
982
984
986
984
981
979
980
982
982
984
982
981
982
983
982
984
981
979
981
984
985
984
981
979
979
981
984
983
981
977
980
979
982
982
981
979
980
981
983
982
980
978
980
982
981
982
981
978
980
982
983
984
982
979
979
981
982
981
980
979
979
981
982
986
982
981
983
985
986
986
986
987
990
995
995
996
996
994
996
998
1001
1003
1001
1000
999
1001
1002
1004
1005
1003
1002
1001
1001
1000
997
995
995
995
996
995
992
991
990
989
987
987
984
981
978
982
982
981
979
977
977
978
979
978
976
974
976
976
979
978
977
974
974
977
977
978
976
973
976
977
977
980
977
975
977
980
982
984
989
989
994
994
997
1003
1017
1030
1048
1068
1088
1108
1127
1138
1154
1173
1191
1197
1185
1162
1133
1103
1074
1042
1019
998
983
972
970
974
982
984
983
982
979
977
975
971
973
974
974
973
970
970
970
971
971
972
970
970
972
972
973
973
971
971
972
974
977
974
975
972
976
976
977
978
977
976
977
978
980
981
980
977
981
983
984
985
983
984
986
988
992
992
995
993
999
1001
1004
1006
1006
1009
1011
1010
1011
1011
1007
1002
1000
1002
1005
1008
1009
1008
1014
1014
1016
1018
1018
1018
1019
1019
1020
1018
1017
1016
1016
1018
1018
1017
1015
1015
1016
1015
1015
1013
1011
1008
1009
1008
1010
1007
1003
1000
999
998
998
996
992
988
988
987
987
985
983
980
981
981
981
980
976
974
976
976
976
977
975
973
973
974
976
978
975
973
973
975
976
975
971
973
973
975
976
977
976
973
973
973
975
975
975
974
974
976
978
975
975
974
975
979
978
979
978
975
979
980
981
980
979
978
979
981
982
981
981
979
979
979
981
983
980
980
983
982
983
982
981
980
982
984
984
984
984
981
982
984
983
983
983
979
983
984
984
983
979
980
980
982
981
983
980
980
979
980
982
981
979
977
979
981
984
981
978
977
980
979
980
980
979
976
978
980
980
978
979
976
979
981
980
981
978
977
979
978
979
980
979
977
978
980
984
982
980
978
980
980
982
981
980
980
979
981
981
980
980
979
979
980
981
977
977
977
979
982
983
980
980
975
980
980
980
979
980
978
981
980
983
983
980
978
979
980
983
982
979
976
977
979
981
980
979
978
979
980
981
982
979
978
979
979
980
980
979
978
977
979
981
979
978
977
977
980
981
982
979
979
979
980
981
981
979
977
976
979
981
980
978
979
979
981
980
982
981
979
979
980
982
982
980
978
980
982
982
982
982
979
980
980
982
981
981
980
981
981
981
981
979
979
981
980
979
982
982
981
981
984
984
984
985
981
983
984
986
985
983
984
984
984
986
985
985
986
989
993
998
1003
1008
1014
1022
1031
1039
1048
1051
1055
1054
1050
1038
1024
1004
982
955
926
896
871
869
879
891
901
907
910
913
911
911
917
919
920
917
918
924
925
925
920
914
908
907
908
909
913
917
925
939
956
971
977
981
985
987
989
993
995
996
994
998
1002
1004
1006
1005
1004
1005
1009
1014
1014
1012
1011
1015
1017
1020
1022
1022
1022
1024
1027
1032
1031
1032
1030
1033
1037
1043
1044
1045
1048
1050
1055
1057
1061
1063
1065
1070
1076
1079
1084
1085
1088
1094
1099
1104
1108
1113
1114
1118
1121
1125
1129
1131
1130
1133
1135
1136
1137
1133
1129
1129
1126
1124
1119
1112
1108
1102
1096
1093
1086
1077
1070
1065
1059
1054
1047
1042
1035
1031
1029
1026
1022
1014
1011
1008
1006
1007
1005
1002
998
996
997
998
997
995
992
993
994
994
995
992
991
990
991
992
993
993
990
991
992
992
993
992
989
992
991
994
993
993
990
991
993
994
992
991
988
988
989
991
991
989
987
988
986
990
990
988
984
985
988
988
989
990
988
993
994
996
996
996
995
997
999
1003
1001
998
997
998
1000
1005
1004
1000
996
995
994
995
994
992
988
988
990
989
987
980
979
979
977
979
977
973
972
970
973
974
971
970
969
969
971
973
971
969
969
970
972
971
971
969
967
970
971
970
970
967
967
969
970
971
971
968
967
970
970
972
972
971
970
973
974
978
978
983
985
989
992
998
1010
1026
1046
1069
1092
1115
1140
1156
1176
1194
1204
1197
1169
1135
1095
1054
1023
1002
984
972
966
971
982
985
983
979
976
975
977
975
973
970
972
973
972
974
972
971
969
971
972
974
974
973
971
973
975
977
976
975
974
975
975
976
979
979
977
977
979
981
980
979
977
980
982
984
983
982
980
982
986
987
987
986
986
986
989
991
991
991
992
992
994
999
998
999
998
1001
1003
1007
1006
1007
1008
1008
1011
1013
1013
1013
1012
1014
1016
1017
1020
1017
1016
1016
1018
1018
1017
1014
1013
1014
1013
1013
1012
1008
1004
1003
1002
1000
999
998
994
995
994
993
991
988
986
986
988
989
987
985
985
985
988
989
988
986
985
985
987
985
985
984
983
983
985
985
987
984
983
985
985
985
984
983
984
985
984
986
985
984
981
984
986
986
984
982
979
983
983
983
984
984
983
984
985
985
984
983
980
982
981
983
983
982
980
982
983
985
982
982
979
981
980
983
983
981
980
981
982
984
983
981
978
981
981
981
981
981
979
978
979
981
982
981
981
981
980
981
980
979
978
979
981
978
979
977
978
979
980
981
980
979
979
980
980
980
981
980
980
979
980
981
979
981
979
980
981
981
982
981
978
980
980
982
981
979
981
981
980
983
979
979
979
981
982
982
981
980
979
979
983
983
982
982
979
979
981
982
982
978
979
979
980
981
980
979
978
978
981
982
981
978
979
980
980
981
980
980
979
981
982
983
982
981
979
980
980
979
979
981
979
979
981
983
981
979
977
979
979
981
981
979
980
981
981
982
980
979
978
980
980
981
982
982
978
981
981
984
984
983
982
983
984
986
986
984
984
985
987
990
990
992
993
996
996
999
1000
1000
1001
1001
1005
1006
1004
1004
1002
1006
1007
1010
1009
1004
1000
1001
1000
999
998
996
995
994
996
994
992
990
988
985
986
986
984
982
979
979
980
981
981
978
975
979
980
981
980
977
978
979
979
981
981
979
979
978
977
981
980
979
979
978
980
981
983
985
986
992
998
1000
1004
1011
1027
1045
1069
1093
1118
1136
1153
1173
1195
1211
1207
1186
1147
1104
1062
1029
1005
982
965
961
968
979
982
984
980
977
977
977
976
974
972
970
973
973
971
971
971
969
972
975
972
972
970
972
973
974
973
974
971
973
974
975
977
974
973
973
975
976
977
977
976
978
979
981
982
981
979
982
989
993
994
997
998
998
999
1006
1006
1008
1005
1005
1003
1002
999
1000
1001
1003
1008
1011
1013
1012
1012
1015
1018
1020
1018
1017
1016
1017
1019
1021
1019
1019
1019
1019
1021
1020
1017
1015
1013
1014
1013
1011
1008
1007
1004
1001
998
997
994
990
988
987
985
985
983
978
978
976
979
977
976
975
972
974
975
978
977
976
971
971
975
977
977
976
972
973
976
976
975
972
973
976
980
979
977
978
976
979
980
980
978
979
978
979
981
981
980
978
980
980
981
982
982
981
979
981
982
984
984
982
981
982
985
986
988
987
987
991
993
1000
1008
1019
1035
1046
1057
1069
1083
1093
1101
1106
1105
1096
1086
1081
1078
1077
1078
1080
1083
1087
1089
1090
1092
1094
1095
1097
1090
1083
1072
1059
1043
1031
1020
1009
1002
997
989
982
975
970
967
968
967
967
963
966
966
964
964
960
959
958
962
963
962
960
957
960
962
962
963
963
961
960
964
965
966
964
963
965
969
969
969
969
967
969
971
973
974
973
973
976
977
978
979
978
977
978
981
984
983
982
983
985
987
989
991
988
987
987
994
994
997
996
995
998
1001
1005
1005
1004
1005
1008
1012
1015
1017
1017
1017
1021
1022
1025
1026
1025
1025
1026
1026
1028
1026
1026
1025
1025
1026
1026
1024
1019
1015
1015
1015
1014
1011
1006
1004
1002
1001
999
997
994
992
991
990
991
987
986
984
985
985
985
985
981
983
983
982
983
984
982
979
979
979
981
981
977
978
979
980
981
981
979
975
976
977
982
981
979
975
975
977
979
980
980
977
977
978
980
979
977
975
978
979
979
978
976
976
978
978
980
979
978
977
979
978
980
980
977
975
978
979
981
980
977
974
976
978
979
977
977
975
976
979
978
976
976
972
976
976
977
976
975
973
976
977
977
975
974
974
975
976
977
976
976
974
977
976
978
978
976
976
976
978
980
979
978
975
976
978
979
979
979
976
978
980
983
980
977
979
977
980
981
981
980
977
979
981
981
980
979
979
978
980
982
981
980
979
978
978
982
980
979
978
979
982
981
982
980
977
979
980
981
981
977
976
979
980
982
979
978
980
981
982
982
982
982
980
982
984
982
982
982
980
983
984
982
982
981
981
983
984
983
982
981
980
980
981
980
