981
981
981
979
977
980
981
981
980
976
975
978
980
981
980
977
976
978
978
978
976
975
976
975
975
975
976
975
974
975
976
977
976
976
974
974
976
975
974
973
971
974
975
975
976
973
972
973
974
975
974
972
972
973
975
972
971
972
970
971
973
972
974
972
969
971
973
975
973
971
971
972
973
972
973
970
970
972
974
972
973
972
969
972
971
975
973
970
970
972
974
974
973
972
970
973
975
973
973
971
971
972
974
974
973
970
969
970
972
974
972
970
968
969
973
972
974
970
969
970
972
973
972
970
970
971
972
972
973
972
970
971
970
971
972
970
970
971
972
971
970
970
970
970
972
973
970
969
970
971
973
972
974
973
970
973
976
974
974
972
971
974
975
974
973
971
973
975
975
976
974
970
970
972
973
975
975
973
971
973
975
975
974
974
975
975
977
976
974
972
972
973
973
975
974
972
972
971
974
973
973
972
972
973
974
976
975
975
974
973
973
974
975
973
974
975
975
975
976
975
976
975
978
975
976
973
973
975
975
975
976
975
973
974
975
976
975
975
976
979
980
979
978
978
979
981
983
984
984
984
984
987
987
987
987
986
986
986
989
987
986
986
988
990
991
990
987
983
982
982
982
984
983
980
979
980
979
980
978
974
974
972
976
974
970
970
969
969
971
972
971
969
971
972
974
973
971
971
969
971
974
973
973
972
971
973
975
977
976
978
981
985
990
992
998
1010
1029
1053
1078
1105
1130
1150
1171
1199
1217
1223
1208
1176
1134
1083
1048
1016
990
968
952
954
962
971
976
974
972
971
970
967
965
965
963
965
964
965
963
964
963
963
965
966
965
963
963
963
964
965
964
964
964
965
967
968
967
965
963
967
968
965
969
967
966
968
973
973
973
972
972
973
976
977
978
975
975
977
983
981
982
983
981
984
989
989
989
989
991
992
996
999
997
994
996
999
1000
1002
1001
1000
998
1002
1006
1007
1003
1006
1005
1009
1010
1008
1006
1003
1002
1004
1006
1004
1002
999
998
998
998
996
994
991
990
989
991
990
987
983
981
982
984
984
983
982
982
983
981
984
982
977
978
980
981
980
980
978
979
979
981
981
980
980
979
980
982
982
979
978
980
981
983
982
982
978
978
982
984
981
982
979
979
980
981
981
980
978
979
980
980
980
979
977
980
980
981
981
982
978
976
978
980
980
979
978
978
979
979
979
979
976
976
977
977
976
976
976
975
977
977
977
974
972
972
975
975
975
974
973
973
975
977
976
976
973
973
974
975
974
974
971
973
974
976
975
975
972
970
974
975
974
974
972
972
973
976
975
974
973
973
973
976
975
974
973
974
975
976
976
975
972
973
975
976
977
977
973
974
976
977
977
976
975
975
976
977
976
975
975
974
976
976
976
975
975
974
979
980
979
978
975
978
977
978
978
979
975
976
977
978
979
977
976
975
977
978
977
976
975
976
976
979
979
977
975
974
976
977
976
977
976
976
977
976
978
976
976
974
977
978
978
979
976
973
976
979
979
979
977
975
976
980
980
980
976
975
979
980
979
977
976
978
979
981
981
979
980
980
984
988
987
991
991
991
992
994
996
998
997
999
1000
1001
999
999
1000
1002
1003
1003
999
997
994
992
994
993
994
991
992
988
987
986
983
979
979
977
976
977
975
975
971
971
974
976
975
974
972
973
975
977
976
974
973
970
974
976
975
975
974
972
975
981
984
986
989
989
996
1009
1025
1045
1066
1090
1120
1141
1160
1182
1197
1199
1179
1147
1107
1063
1026
1000
982
974
972
979
985
986
985
984
980
978
975
975
975
977
976
972
973
972
974
975
974
975
973
973
975
975
977
975
973
973
975
978
979
976
975
974
975
979
977
977
975
975
980
983
983
982
981
980
983
985
987
984
985
986
987
989
993
992
992
993
992
996
998
999
998
999
1002
1006
1005
1005
1004
1007
1009
1010
1012
1011
1011
1012
1014
1016
1017
1016
1016
1017
1016
1018
1016
1015
1013
1011
1013
1011
1011
1008
1001
1003
1003
1001
998
997
994
993
992
994
990
989
989
988
988
989
989
990
987
986
987
988
989
989
985
986
989
989
989
988
987
986
987
988
987
987
984
984
987
986
987
987
986
987
987
988
989
986
985
984
986
988
987
986
984
984
985
986
987
986
984
984
984
986
984
985
983
981
981
983
983
983
981
980
982
985
984
980
979
979
980
983
984
982
979
978
983
981
984
980
977
976
978
981
982
979
978
977
979
983
982
982
980
979
980
982
981
980
978
978
981
981
981
980
979
981
983
982
980
978
979
979
980
982
982
981
980
980
979
981
980
980
979
978
980
982
980
979
979
978
979
980
980
979
977
976
978
980
979
981
978
976
978
979
981
977
976
976
977
980
980
979
976
977
976
978
977
976
978
977
977
980
979
977
976
978
980
980
979
979
976
978
980
980
980
979
977
975
979
980
980
980
979
976
980
980
980
979
979
978
980
981
981
981
980
978
981
981
980
980
978
977
979
980
982
982
979
979
982
979
983
982
979
981
982
982
980
982
982
982
986
991
993
991
991
990
994
997
999
1001
998
1000
999
1002
1004
1007
1005
1003
1003
1002
1001
997
995
992
993
996
996
994
990
988
990
996
998
1002
1005
1011
1020
1027
1036
1042
1044
1038
1033
1021
1008
987
961
932
902
881
872
877
887
893
900
905
907
904
900
900
900
902
903
903
904
901
900
899
895
894
897
899
903
910
923
940
952
964
974
977
980
980
979
979
983
985
988
989
989
988
993
996
998
998
996
1000
1000
1003
1004
1006
1006
1006
1013
1016
1016
1018
1016
1019
1023
1025
1026
1027
1030
1031
1036
1041
1043
1044
1043
1047
1052
1057
1060
1063
1062
1066
1069
1076
1080
1082
1084
1086
1090
1098
1099
1101
1103
1105
1109
1110
1112
1113
1111
1110
1110
1108
1105
1102
1095
1093
1091
1087
1081
1071
1065
1059
1055
1052
1045
1037
1032
1024
1023
1019
1013
1007
1002
999
997
995
994
991
988
986
986
986
983
983
979
979
979
979
979
978
978
975
977
978
977
978
979
978
978
979
979
980
979
978
977
980
980
979
979
979
978
979
980
979
977
978
980
983
981
979
978
977
980
979
978
975
975
973
976
978
978
979
974
976
977
977
976
977
974
973
976
973
972
972
970
969
972
974
972
971
969
970
971
970
971
968
967
968
967
971
970
970
968
967
968
967
967
968
966
966
968
967
966
966
965
965
965
966
966
966
965
963
964
966
965
964
964
963
965
967
966
966
964
964
964
965
966
963
964
963
965
966
965
965
962
961
962
965
964
962
963
962
963
966
966
963
962
962
964
965
967
964
962
962
964
965
966
964
963
962
963
965
965
965
965
964
965
967
963
964
962
961
963
966
966
966
964
963
963
966
967
967
966
964
963
965
964
965
963
964
963
966
966
965
962
963
963
965
964
964
962
960
964
967
965
964
964
963
965
965
967
964
965
963
963
966
967
967
964
964
967
966
966
966
963
964
966
967
966
966
963
963
965
967
966
964
963
964
965
965
965
965
966
964
966
968
967
970
968
968
974
978
980
980
978
978
981
984
985
986
986
986
988
987
989
987
988
987
989
988
985
983
981
979
980
981
981
980
976
976
973
973
970
966
965
962
964
964
961
961
959
958
959
960
959
959
958
956
960
962
961
958
958
957
957
960
961
959
956
956
957
961
959
960
957
958
961
965
971
972
975
974
985
998
1015
1031
1048
1070
1092
1111
1127
1147
1166
1178
1180
1159
1127
1088
1050
1016
991
971
957
952
955
959
966
969
967
963
958
958
957
956
956
953
955
951
954
956
957
954
953
951
953
958
959
957
955
957
957
957
958
958
957
957
957
960
961
959
958
957
960
963
963
961
961
962
963
965
964
964
964
964
965
967
969
967
968
968
970
972
971
972
972
973
978
980
982
981
981
981
984
986
988
987
985
988
991
993
995
994
993
995
996
999
998
998
998
998
1000
1002
1002
1000
999
999
1000
1000
999
998
993
991
990
991
988
986
982
982
982
981
979
976
974
972
971
974
973
969
967
967
967
970
966
966
963
964
966
966
966
965
962
963
966
967
966
966
965
964
965
967
963
963
961
963
965
968
966
966
965
963
967
967
966
966
964
962
964
966
966
965
962
963
964
966
964
961
962
961
962
965
963
962
963
963
964
966
964
965
961
961
962
965
962
963
961
960
962
964
963
963
960
958
958
960
960
961
961
959
960
962
962
961
959
958
958
959
958
959
957
956
959
959
957
959
955
956
956
957
957
955
954
954
957
958
956
954
951
954
954
955
956
957
952
955
956
958
957
955
954
953
955
957
952
954
951
952
955
957
955
956
953
953
956
956
956
955
953
952
954
956
955
955
953
952
953
957
955
953
952
953
953
956
955
954
952
950
955
958
958
953
954
954
955
957
955
956
954
954
954
957
956
955
954
955
955
957
957
956
955
955
954
959
954
955
954
953
956
956
957
956
956
956
955
958
958
957
956
956
955
960
958
956
956
956
957
958
957
955
956
957
959
959
958
958
955
955
957
960
960
957
957
956
958
960
960
957
955
955
957
960
960
961
959
959
963
964
969
970
969
969
970
974
974
975
973
973
976
980
981
980
980
980
985
984
982
980
976
975
975
976
975
973
968
967
967
967
965
963
959
958
956
959
959
955
954
954
955
957
955
956
951
953
953
953
957
956
954
952
952
955
956
955
954
952
955
956
957
957
955
957
961
968
971
971
972
978
992
1014
1035
1058
1079
1101
1121
1143
1172
1192
1195
1180
1144
1099
1052
1013
984
959
940
937
944
951
959
959
959
959
956
952
951
950
951
951
951
949
948
949
952
954
951
951
949
949
950
954
953
951
951
950
952
956
957
956
954
955
956
957
957
958
955
956
959
960
961
960
959
960
960
964
963
964
963
963
965
967
969
968
969
969
972
975
975
976
975
976
978
982
983
985
985
985
989
993
992
993
992
993
994
997
998
998
998
998
999
1002
1002
1002
1000
999
1000
1002
1001
999
996
994
993
995
994
993
989
986
986
987
985
981
978
977
976
976
975
974
971
971
971
971
969
971
970
969
969
970
970
969
968
968
970
971
969
969
967
966
968
971
971
969
970
967
969
970
969
969
967
969
969
969
969
966
966
967
968
970
969
969
967
966
968
969
968
969
966
967
966
969
968
967
965
965
967
968
967
967
966
966
968
969
967
967
966
962
965
966
967
964
964
963
965
967
966
965
963
961
964
966
966
964
962
962
962
964
964
964
962
958
961
962
962
959
959
959
958
964
962
958
958
959
959
962
961
960
953
954
958
960
960
958
957
957
957
961
959
958
960
957
958
961
961
959
958
957
958
963
961
959
958
956
959
960
960
959
957
957
959
962
959
959
958
958
957
960
960
960
959
959
957
962
960
960
959
958
959
959
960
959
957
958
962
965
963
963
963
962
964
966
964
964
962
961
963
965
964
963
961
962
963
963
962
963
962
962
963
965
963
963
962
961
962
964
964
961
960
961
964
964
965
964
960
962
962
964
964
963
962
960
962
965
962
963
962
961
960
963
964
963
962
960
962
965
965
965
964
965
968
973
974
976
976
976
978
981
983
983
982
981
981
981
984
987
986
985
983
982
980
976
975
973
973
975
975
972
970
966
969
968
962
959
957
958
959
960
959
957
956
956
957
958
959
959
956
956
956
958
957
956
954
955
955
958
956
954
954
954
955
958
959
961
963
966
970
973
976
985
998
1017
1040
1062
1086
1107
1122
1142
1164
1178
1169
1140
1101
1057
1021
994
975
956
946
949
962
967
966
963
958
955
956
957
957
955
952
953
953
953
954
951
951
951
952
956
956
955
952
952
954
956
956
954
954
955
957
958
955
956
955
954
956
960
960
960
956
958
962
962
965
965
962
964
966
969
969
969
969
970
972
975
976
976
975
977
980
983
983
983
983
985
990
992
992
993
990
993
995
998
996
997
998
999
1000
1004
1002
1002
1000
1002
1004
1006
1004
1002
999
997
998
1000
996
994
990
987
988
986
984
981
977
975
976
976
974
970
969
970
969
971
967
967
964
964
966
967
965
965
964
965
965
968
964
962
961
962
965
967
964
963
962
964
964
967
965
965
963
963
965
966
965
964
964
962
964
965
963
963
963
963
965
965
964
962
962
961
963
965
965
962
961
960
962
966
963
963
961
960
962
964
963
964
963
962
964
965
965
963
961
961
963
963
962
962
961
961
961
963
962
960
960
960
961
963
963
960
959
960
962
964
961
962
959
960
960
962
961
961
957
959
962
962
961
960
961
960
960
963
960
959
959
960
960
961
960
960
958
959
959
960
961
960
958
957
961
962
959
960
958
959
958
961
959
960
959
958
958
960
958
958
958
958
958
961
959
959
958
960
960
962
960
959
959
959
960
962
960
961
958
960
959
964
962
961
959
960
959
960
961
960
958
958
959
961
960
961
960
960
960
963
963
960
960
960
962
963
963
960
959
959
959
963
963
961
961
960
961
963
962
961
959
960
961
964
963
962
962
962
962
964
965
962
962
963
965
968
972
973
970
970
974
978
978
980
980
979
981
982
983
984
984
985
984
986
984
980
976
973
975
979
977
974
971
972
970
971
969
965
962
960
961
960
960
958
955
954
957
958
958
956
955
955
957
960
958
956
958
956
957
959
960
958
956
956
958
959
960
961
962
967
972
976
978
980
986
1001
1022
1045
1067
1090
1112
1130
1155
1179
1196
1195
1175
1137
1093
1057
1019
989
963
945
938
943
953
962
963
962
963
963
961
956
954
954
957
959
958
954
953
954
954
956
956
955
954
953
955
959
956
954
953
953
956
957
958
958
957
955
960
962
963
963
960
960
961
967
965
965
964
964
966
969
968
967
968
968
971
974
973
972
973
972
975
980
980
979
980
981
983
987
988
987
989
991
995
997
997
996
995
997
998
1003
1005
1004
1003
1004
1006
1006
1009
1008
1004
1003
1006
1005
1004
1001
997
999
999
999
997
992
989
988
986
986
984
982
980
978
977
977
976
975
974
972
973
975
974
972
970
967
972
973
972
969
966
968
971
972
974
970
969
970
972
975
972
971
971
970
972
973
973
971
970
969
972
975
974
971
968
970
972
971
971
970
970
969
970
974
971
971
969
967
969
969
971
970
968
969
969
970
970
968
967
969
970
972
970
970
967
967
967
969
969
968
968
964
967
967
969
968
965
966
968
968
969
966
963
965
967
968
967
966
965
965
965
968
967
966
964
964
963
967
967
966
964
963
966
966
966
966
964
966
966
966
967
965
964
965
965
967
967
967
963
964
966
967
966
964
963
965
964
966
967
964
964
965
966
967
968
966
964
965
966
969
967
966
964
966
966
968
967
965
965
964
966
968
968
967
965
964
966
968
967
966
965
965
965
968
968
967
967
965
968
969
968
966
965
967
967
969
965
967
965
966
966
968
968
968
966
964
966
967
967
967
964
966
967
969
969
967
968
969
968
970
968
968
966
969
969
971
973
972
973
975
979
982
984
983
980
985
989
989
989
989
986
987
987
992
993
990
987
985
984
985
985
982
980
978
981
982
979
977
972
971
971
970
969
963
962
960
963
964
963
963
960
961
961
963
963
962
960
961
962
962
964
963
961
960
962
962
962
961
958
961
964
968
969
971
972
976
979
986
999
1014
1029
1051
1076
1099
1118
1135
1152
1173
1181
1168
1137
1100
1059
1024
1001
984
970
957
954
961
971
975
972
967
962
962
962
962
962
962
957
957
960
960
960
959
958
958
960
962
963
960
959
960
962
962
963
961
961
959
963
965
965
964
962
964
966
967
966
966
964
965
969
970
970
967
966
968
971
974
975
975
973
975
977
980
979
981
981
982
986
988
989
989
989
992
994
997
997
998
998
1000
1002
1005
1005
1006
1004
1006
1008
1010
1009
1009
1006
1008
1007
1008
1007
1004
1001
1002
999
999
997
994
991
990
986
985
985
983
979
977
977
978
976
974
973
972
973
973
975
975
970
971
970
972
971
971
968
968
969
973
971
970
965
966
969
972
969
967
965
967
969
970
970
968
966
967
968
970
970
968
966
969
968
969
967
967
966
968
968
970
969
967
966
968
968
969
969
968
965
968
968
968
967
965
964
967
966
968
968
965
964
964
967
968
967
966
964
965
965
965
966
965
962
964
963
966
965
964
963
962
963
963
965
962
961
963
965
963
964
962
961
961
963
965
964
964
962
962
963
965
964
962
959
959
961
963
963
959
957
961
961
964
963
963
958
959
961
963
962
961
961
960
961
962
963
961
958
960
961
963
963
962
958
960
961
962
962
960
960
961
961
963
963
960
957
960
961
963
962
960
959
960
961
963
963
960
959
962
962
963
962
961
958
960
962
964
964
962
959
959
964
964
962
960
959
960
960
963
962
960
959
960
961
963
963
962
959
960
960
961
961
960
957
958
960
963
962
960
960
958
963
