1083
1085
1090
1094
1100
1103
1106
1108
1112
1116
1121
1122
1123
1124
1125
1128
1132
1130
1128
1125
1124
1123
1121
1117
1113
1106
1103
1100
1095
1090
1081
1074
1068
1062
1058
1052
1045
1038
1033
1029
1027
1023
1017
1012
1008
1007
1006
1001
997
995
992
991
992
990
989
986
984
985
987
986
985
982
981
981
985
984
982
980
980
978
981
982
980
980
979
980
981
980
978
976
975
977
979
979
979
976
975
975
981
979
978
976
975
976
976
976
975
974
972
974
975
975
975
972
969
971
974
973
971
969
968
970
972
971
971
969
965
969
971
971
969
968
967
969
970
970
968
966
968
967
968
969
967
965
964
966
966
967
966
964
965
967
968
968
965
964
965
963
965
966
964
965
965
965
967
965
964
965
965
964
967
966
966
963
962
963
967
964
964
961
961
965
966
964
960
960
961
962
963
962
962
961
960
963
966
965
964
963
964
967
967
970
970
969
971
975
977
978
978
976
980
980
981
981
982
983
985
984
985
982
979
977
976
975
976
977
972
968
966
969
970
969
964
961
958
958
960
957
958
954
954
955
958
957
955
952
952
955
957
954
954
952
952
955
957
957
954
953
954
954
957
954
954
953
952
954
957
957
957
955
954
957
963
963
966
967
969
972
978
990
1007
1025
1050
1078
1104
1122
1140
1161
1188
1207
1207
1185
1150
1105
1060
1025
998
967
944
933
934
945
957
960
960
956
955
955
956
954
953
948
950
954
952
951
951
951
950
953
955
955
953
951
954
956
955
956
953
954
954
956
957
956
956
956
955
957
958
958
958
958
959
962
963
963
963
961
963
964
967
965
965
964
966
968
971
969
969
968
969
972
975
975
975
975
977
981
982
982
983
983
985
985
992
992
991
990
991
995
998
998
999
996
997
998
1001
1000
1003
1000
1001
1004
1005
1006
1004
1003
1002
1004
1004
1002
1002
999
997
998
997
995
993
990
989
988
988
988
984
981
980
979
980
980
978
975
976
977
978
975
973
973
974
975
977
975
973
973
971
973
978
978
977
974
975
976
978
977
977
974
974
975
976
975
975
974
972
976
977
977
975
973
973
975
977
975
974
973
973
974
975
974
973
971
973
974
975
974
973
972
970
973
975
974
973
971
970
971
974
972
970
971
970
970
974
972
969
968
969
970
971
972
970
969
967
969
971
969
969
967
968
968
970
969
969
967
968
970
969
969
969
967
967
972
968
969
970
967
967
968
970
969
968
968
967
968
969
969
969
969
966
969
969
969
967
967
967
968
970
970
970
968
968
968
969
970
967
966
966
968
970
972
969
967
966
968
972
971
969
967
967
971
973
972
968
968
967
971
974
972
971
970
970
970
972
972
970
968
971
972
971
971
972
970
971
973
975
973
971
968
969
972
972
973
969
970
971
972
973
974
972
971
972
973
975
973
973
971
971
972
973
973
972
970
971
973
975
974
973
973
972
973
975
974
973
972
970
971
975
974
973
972
973
974
975
975
975
972
973
975
980
978
977
978
980
983
988
989
988
988
992
995
996
995
993
989
991
997
998
996
994
990
988
990
990
989
986
985
985
985
985
983
980
976
974
975
973
972
971
968
967
967
969
968
968
963
965
967
969
968
966
965
965
967
970
969
968
967
967
968
968
970
969
966
966
968
973
976
978
977
981
986
995
1012
1029
1047
1070
1094
1118
1136
1156
1172
1181
1173
1150
1117
1075
1040
1012
990
977
966
964
967
974
978
976
972
967
964
963
964
966
963
963
961
961
961
964
961
963
960
961
963
966
966
965
961
962
964
966
966
965
964
966
967
969
969
968
965
968
968
969
971
973
972
973
976
980
980
981
982
986
990
994
991
992
991
992
993
994
996
993
991
986
985
987
987
987
985
988
993
996
996
998
998
998
997
1000
1002
1002
1001
1003
1004
1006
1003
1002
1002
1001
1003
1005
1005
1005
1001
1002
1001
1002
1000
999
995
993
993
992
991
988
986
984
984
984
981
974
973
972
973
974
974
971
969
969
971
972
970
970
966
969
969
972
972
969
968
968
970
970
971
971
970
970
972
975
972
971
969
969
972
975
973
972
970
970
971
972
972
971
971
972
973
973
974
974
971
972
974
975
975
974
972
972
973
976
974
972
968
969
972
974
974
973
969
971
972
975
974
971
971
970
971
973
972
970
971
971
973
973
971
970
967
968
970
971
970
968
966
968
969
970
970
967
967
967
970
971
970
967
966
964
967
967
967
967
965
966
969
968
967
966
964
966
966
968
968
967
964
966
966
968
968
965
965
965
967
970
967
966
964
967
970
970
970
969
967
967
967
970
969
968
967
968
968
970
969
966
966
967
968
969
969
968
969
969
969
971
970
969
965
970
969
970
971
968
968
970
972
972
971
970
969
971
971
974
973
972
971
972
972
973
972
972
971
972
972
975
974
973
972
971
973
975
975
975
973
972
975
974
973
975
973
974
974
977
975
973
973
972
974
974
978
975
974
973
974
976
976
976
973
973
975
975
974
975
975
974
974
976
977
974
973
973
974
975
976
973
973
973
976
977
977
977
975
975
975
977
975
976
974
974
976
978
975
975
974
975
976
979
978
977
975
974
975
978
978
977
975
975
976
978
978
976
974
973
976
976
977
975
976
975
979
977
979
975
974
975
977
979
979
975
975
977
979
979
978
978
976
977
979
979
977
977
975
978
979
981
979
978
974
977
977
981
979
979
977
977
979
980
980
980
978
980
980
981
980
979
979
979
982
983
983
979
980
978
982
982
983
983
981
980
982
984
983
982
982
982
984
985
984
983
981
979
982
985
986
984
981
982
984
987
985
983
982
982
984
985
983
985
981
982
985
986
984
983
982
982
984
985
987
986
985
982
983
985
986
985
983
983
985
986
987
984
983
983
984
986
985
984
982
985
986
987
988
983
982
984
986
986
987
986
985
985
985
989
989
986
985
988
989
990
990
988
986
987
987
989
990
989
987
988
989
991
989
987
988
988
989
990
990
989
987
987
988
989
988
989
988
989
990
993
992
991
990
992
995
997
999
1002
1000
1001
1001
1005
1008
1009
1007
1008
1008
1010
1010
1009
1009
1011
1008
1009
1005
1003
1000
1002
1002
1003
1002
1000
995
992
994
994
990
988
985
984
984
986
986
984
980
978
980
984
982
982
980
981
980
982
982
981
980
979
982
983
983
982
980
982
980
982
982
982
982
984
985
990
994
998
998
1002
1010
1026
1042
1061
1079
1102
1122
1139
1152
1168
1179
1186
1179
1159
1128
1093
1057
1033
1010
994
980
970
972
978
985
988
986
983
978
976
977
975
974
974
971
971
972
971
972
972
969
971
971
972
973
971
970
970
971
974
973
972
972
972
974
977
976
976
974
974
976
977
978
977
977
978
979
981
981
981
979
980
981
983
982
984
984
984
986
989
989
986
987
988
991
993
993
992
992
995
997
1001
1000
1002
1002
1004
1006
1008
1010
1010
1007
1010
1012
1015
1016
1015
1015
1017
1019
1022
1023
1021
1019
1022
1023
1024
1025
1023
1021
1022
1021
1021
1021
1018
1017
1015
1015
1015
1011
1008
1005
1004
1002
1002
999
997
992
992
995
996
994
992
990
990
990
990
993
990
987
988
990
989
988
986
985
988
989
990
988
987
984
985
988
988
985
986
983
985
987
988
986
985
984
985
984
986
986
986
982
982
984
986
985
984
981
980
983
984
983
982
981
981
981
984
985
983
980
981
982
982
982
980
978
980
980
981
980
977
976
977
978
978
979
976
977
976
978
980
977
975
975
973
976
976
977
976
972
972
975
978
976
974
973
973
974
975
976
973
971
970
971
972
973
971
969
970
970
973
973
971
968
969
969
972
968
969
969
965
970
972
968
969
968
969
970
971
970
968
964
965
970
971
970
968
967
967
969
970
970
967
965
967
969
969
968
967
966
965
969
969
967
968
965
965
968
970
970
969
966
966
968
970
972
967
965
965
966
968
970
968
966
966
967
968
968
969
967
966
967
970
969
968
966
968
968
970
966
967
965
967
967
969
969
968
967
965
968
968
970
967
966
966
967
968
969
967
966
967
967
968
969
968
967
967
968
970
968
968
967
965
966
968
968
967
965
966
969
969
968
968
966
968
969
969
970
970
972
973
977
979
980
980
979
980
985
985
987
986
986
986
987
991
991
991
990
992
991
993
990
983
984
980
981
984
982
980
978
976
973
973
974
972
967
965
967
967
966
963
961
959
962
963
963
964
961
963
962
963
963
961
960
959
960
963
963
961
959
959
960
962
962
962
962
961
965
967
969
973
974
976
979
986
1001
1019
1039
1061
1091
1116
1135
1157
1179
1196
1201
1186
1156
1115
1072
1032
1000
974
950
935
932
942
955
962
963
959
955
957
957
954
952
950
949
950
952
951
953
951
949
951
951
951
951
950
950
952
952
953
954
953
952
952
953
955
955
955
951
952
956
957
957
956
953
956
958
962
958
957
957
959
961
961
961
961
961
962
965
967
967
966
965
968
969
972
972
972
971
973
972
976
979
978
977
981
982
985
985
986
982
985
990
993
994
993
993
995
996
999
998
997
995
998
999
1002
1004
1003
1001
1003
1003
1004
1006
1003
998
999
999
1000
999
995
995
994
992
992
990
987
984
983
982
982
981
978
974
974
972
974
972
969
966
969
969
970
969
968
966
966
969
969
969
966
965
968
969
972
967
967
967
969
969
970
967
967
964
965
967
971
970
967
966
967
970
972
972
968
967
968
968
971
972
968
967
969
967
971
972
970
967
968
967
970
970
969
967
968
970
971
972
970
968
967
970
970
969
968
967
970
969
969
969
968
966
968
968
970
971
969
968
967
968
969
970
967
966
966
970
971
968
967
965
966
968
970
968
967
966
966
969
969
967
965
965
966
967
969
967
966
965
966
966
968
966
966
964
965
967
967
968
966
962
964
966
968
967
965
963
965
966
970
969
968
967
967
967
969
969
968
964
964
966
968
968
966
965
966
967
967
967
966
965
966
966
968
967
968
964
965
967
967
968
966
965
966
969
969
968
967
966
965
967
969
968
966
965
966
968
969
969
966
965
966
966
969
967
966
968
967
968
971
970
968
967
967
968
970
971
969
966
966
969
971
973
968
967
968
970
972
973
970
969
970
969
972
974
971
970
969
971
973
972
971
969
970
971
972
973
971
970
971
971
972
973
972
970
973
973
975
978
979
979
983
984
984
986
988
987
990
992
992
994
989
990
992
995
995
994
991
988
986
987
987
987
985
983
982
979
980
979
977
974
971
972
972
973
970
967
966
967
969
968
967
967
968
970
971
969
969
966
968
968
969
968
966
967
965
967
969
971
966
965
968
970
974
979
982
980
983
987
997
1012
1027
1042
1063
1087
1110
1128
1145
1165
1185
1188
1168
1135
1093
1054
1021
997
981
968
961
962
971
976
978
976
972
967
967
965
965
965
962
960
961
963
965
963
963
962
960
962
965
965
964
962
962
965
967
966
964
963
964
965
965
967
969
966
966
968
970
969
968
967
969
969
970
972
971
967
969
970
974
976
974
972
974
975
976
978
975
974
978
979
983
982
983
983
984
986
988
991
989
988
989
993
995
996
995
995
997
1000
1003
1002
1003
1003
1004
1006
1008
1011
1007
1008
1010
1011
1012
1012
1011
1008
1009
1010
1009
1008
1007
1005
1004
1002
1000
999
995
993
991
990
989
988
985
982
982
982
981
981
977
973
974
975
977
978
976
974
974
974
975
975
974
972
973
973
976
976
972
971
973
974
975
974
973
971
972
974
975
973
975
973
971
972
973
973
971
971
972
975
974
973
973
971
971
971
973
973
970
969
971
970
973
972
970
969
969
972
970
972
971
966
970
971
971
971
969
963
965
966
971
970
967
967
967
967
969
967
966
966
967
969
969
969
967
965
967
967
967
968
967
965
964
965
967
967
964
963
964
966
966
965
965
962
964
964
966
965
964
961
964
966
965
964
966
964
964
965
966
966
964
963
964
966
965
965
966
964
964
966
967
967
962
963
964
966
967
967
965
964
964
966
968
965
965
963
964
967
968
966
965
963
964
966
966
968
966
963
966
966
967
967
965
964
965
964
967
967
964
961
962
964
967
967
966
963
966
964
964
965
963
961
962
964
968
966
963
963
963
965
968
965
965
963
964
967
967
966
965
964
963
964
966
966
965
963
964
964
969
968
966
962
965
967
966
968
965
963
965
966
967
967
967
965
967
968
969
968
968
964
967
967
970
972
969
969
973
977
980
982
980
980
984
988
989
988
989
985
987
989
992
993
992
988
987
987
987
986
983
980
981
980
979
978
974
970
968
968
969
968
965
962
962
961
962
963
962
961
961
963
964
962
963
958
958
961
963
964
961
959
960
961
963
963
962
961
965
971
976
980
980
979
987
1004
1025
1047
1072
1092
1116
1136
1158
1175
1182
1167
1132
1088
1049
1015
988
965
951
946
952
962
968
967
966
961
962
959
955
956
956
957
959
957
955
954
957
958
959
957
959
957
958
959
960
960
959
955
959
959
962
962
959
958
960
961
961
964
963
961
962
964
968
969
968
967
969
972
974
975
978
977
982
987
992
991
988
987
987
989
987
987
985
985
983
982
985
985
985
986
988
992
996
999
999
998
1000
1000
1004
1004
1004
1002
1002
1004
1006
1007
1004
1002
1000
1001
1002
1002
999
997
996
996
995
993
990
987
985
985
984
981
979
975
975
973
976
973
970
967
969
966
968
967
965
962
962
963
965
963
964
961
964
964
965
966
964
961
962
966
967
966
966
963
965
965
967
968
968
968
968
969
971
970
969
966
968
973
975
976
975
975
976
982
992
1004
1014
1023
1032
1041
1054
1063
1071
1068
1061
1054
1049
1050
1053
1053
1059
1065
1068
1072
1071
1071
1071
1075
1077
1074
1066
1053
1041
1025
1017
1006
995
988
985
980
977
971
966
961
960
960
962
960
958
956
956
955
955
955
954
951
951
951
955
953
952
950
951
954
955
955
952
952
951
954
956
955
956
952
955
957
958
959
960
958
960
963
964
964
964
961
964
964
967
967
966
966
969
969
972
972
972
971
972
973
975
976
977
977
978
981
984
985
984
984
986
991
993
995
996
996
999
1002
1004
1008
1008
1008
1011
1012
1015
1018
1017
1016
1015
1016
1018
1018
1018
1014
1014
1012
1012
1011
1008
1003
1002
1000
998
996
992
988
986
987
987
983
981
976
977
973
976
976
972
970
970
971
973
974
971
970
971
971
971
970
970
969
968
969
970
969
969
966
968
970
970
971
969
967
966
969
971
970
969
966
967
969
971
971
969
967
967
969
970
970
968
967
967
969
969
970
969
967
968
967
970
970
968
967
969
969
972
968
968
967
968
967
970
970
967
966
968
968
969
969
968
965
967
966
968
968
967
965
966
968
969
967
968
966
967
969
970
970
968
967
967
968
971
968
967
967
968
969
971
970
966
965
966
969
972
969
970
968
968
968
970
970
968
969
968
969
971
971
971
968
971
972
973
973
970
970
970
971
971
972
970
969
971
970
973
974
972
970
971
973
974
975
971
969
967
970
974
973
970
968
968
971
972
972
972
969
970
971
974
973
971
971
973
973
976
974
972
970
971
973
976
973
974
971
971
974
975
975
974
970
970
972
974
973
972
971
973
975
975
975
972
970
974
974
976
973
973
972
973
972
977
973
973
971
973
975
976
974
973
974
975
976
976
975
973
972
973
973
972
975
974
972
972
974
976
974
974
974
974
976
976
976
974
975
976
976
976
978
974
973
975
977
978
978
975
974
974
978
979
978
977
975
974
976
981
979
977
976
979
981
982
981
980
976
979
980
982
984
983
984
987
991
994
995
993
993
995
997
1000
1002
999
998
999
1003
1004
1002
1002
998
995
998
999
995
994
991
993
993
991
989
986
982
981
980
981
980
977
976
976
975
976
977
975
973
974
976
976
978
975
974
974
975
976
974
975
974
975
975
977
978
975
976
980
985
989
992
993
995
1003
1019
1037
1059
1082
1106
1129
1149
1169
1188
1192
1173
1141
1109
1072
1039
1012
991
977
971
972
980
984
982
982
980
978
977
973
970
969
970
971
971
967
967
966
969
972
972
971
967
968
969
971
969
968
967
970
969
970
970
971
970
971
973
974
971
970
970
973
970
974
975
975
975
973
974
978
978
977
974
976
980
980
981
981
978
977
980
984
985
984
984
987
988
988
988
989
989
989
993
995
995
996
996
998
1001
1004
1004
1003
1000
1004
1005
1008
1010
1008
1010
1009
1012
1013
1014
1013
1013
1011
1013
1016
1015
1013
1012
1011
1012
1011
1012
1007
1005
1004
1004
1004
1001
998
995
994
993
995
994
991
988
988
989
988
989
986
982
983
985
984
986
983
982
984
984
985
985
983
981
980
982
984
984
981
980
982
983
984
983
981
978
979
979
980
982
981
979
979
981
982
980
979
979
981
982
982
981
981
980
981
982
982
982
978
978
979
981
981
981
979
976
977
976
982
982
978
975
975
977
977
977
975
973
974
975
974
974
974
972
972
973
975
974
