1012
1027
1044
1062
1082
1112
1139
1165
1182
1199
1224
1248
1252
1234
1200
1158
1114
1078
1048
1023
1004
987
980
984
987
988
987
981
975
976
978
982
976
972
970
972
974
977
974
972
968
970
974
976
977
972
971
972
974
976
975
974
970
976
976
980
981
975
971
971
978
980
982
978
979
979
982
987
987
981
981
984
986
990
991
990
988
987
993
994
998
995
994
996
1001
1006
1005
1005
1006
1007
1009
1014
1018
1018
1017
1021
1024
1027
1024
1024
1029
1028
1027
1031
1033
1031
1031
1031
1033
1035
1034
1031
1028
1027
1028
1027
1026
1022
1017
1016
1015
1015
1006
1001
996
998
995
994
989
983
980
980
981
983
981
974
974
974
974
979
980
976
975
978
978
982
979
974
973
971
974
977
975
972
964
964
963
964
963
960
954
953
956
962
960
958
955
954
957
958
954
950
944
946
947
952
949
946
946
949
950
952
949
948
947
947
954
955
956
951
950
947
948
949
950
949
945
946
950
954
950
944
944
947
948
950
948
947
944
946
947
950
952
949
947
948
950
951
953
951
950
950
952
954
954
953
950
952
959
960
960
957
954
957
959
962
961
956
954
956
959
965
963
959
960
958
959
963
961
960
956
959
961
964
964
963
956
957
958
963
964
963
959
958
962
965
963
964
963
965
968
974
976
975
974
975
980
984
982
979
977
980
984
988
987
985
984
983
984
985
987
983
980
980
979
983
977
977
972
973
975
976
973
968
964
965
967
968
964
962
959
960
961
968
965
963
961
963
965
967
967
964
964
966
967
970
969
967
965
963
969
970
973
974
973
981
990
999
1005
1008
1021
1039
1064
1087
1112
1133
1156
1178
1202
1230
1248
1248
1231
1204
1173
1134
1092
1057
1025
1001
983
974
972
973
971
972
971
968
970
965
960
958
958
962
960
955
953
952
956
960
959
957
954
958
962
965
960
960
962
961
962
967
969
964
963
966
970
974
973
971
970
971
974
975
975
973
975
978
982
986
987
985
987
988
992
997
997
999
1001
1002
1003
1008
1011
1008
1007
1008
1013
1021
1024
1021
1020
1026
1025
1033
1034
1034
1033
1032
1033
1038
1038
1033
1034
1033
1031
1035
1033
1033
1036
1034
1039
1040
1039
1036
1033
1035
1035
1034
1032
1029
1025
1024
1024
1019
1020
1016
1015
1011
1012
1013
1009
1005
1001
1001
1001
1006
1003
993
993
996
996
997
996
996
993
990
994
995
992
989
988
989
989
990
989
986
983
983
985
986
986
982
983
986
984
989
988
988
984
982
987
990
987
983
982
981
987
993
991
986
985
982
986
989
990
986
980
984
987
990
987
986
985
985
987
987
986
983
983
984
985
987
987
984
980
983
986
986
986
984
980
982
983
985
984
983
982
980
983
987
989
986
980
981
984
988
986
983
983
983
986
989
988
987
984
981
985
989
991
988
987
988
988
994
991
992
990
992
993
996
996
994
994
995
995
1003
999
998
992
992
995
998
996
993
990
989
993
994
996
992
990
990
994
995
997
998
997
995
1000
1003
1006
1003
1003
1007
1008
1010
1008
1005
1001
1004
1009
1015
1015
1010
1008
1007
1011
1010
1010
1007
1002
1003
1002
1003
1000
994
993
991
992
994
992
990
986
985
986
988
989
986
984
982
984
987
988
983
981
978
983
987
986
984
982
982
986
989
989
988
981
989
995
1003
1007
1010
1012
1028
1048
1073
1093
1114
1134
1155
1175
1198
1224
1235
1239
1224
1198
1169
1126
1087
1045
1020
1000
987
980
976
973
975
974
971
972
966
962
961
961
961
961
957
953
953
952
955
953
954
951
951
952
955
955
952
952
953
955
959
955
955
954
952
953
955
955
956
954
954
957
962
962
962
962
962
963
965
967
966
965
968
970
974
974
975
976
976
981
984
986
985
985
983
987
989
989
992
993
994
1000
1004
1003
1002
1002
1006
1010
1016
1019
1016
1015
1016
1021
1024
1024
1022
1023
1025
1027
1031
1032
1027
1026
1027
1030
1033
1028
1023
1019
1021
1020
1017
1013
1006
1001
998
997
994
990
985
983
983
983
984
981
977
972
970
970
971
969
965
964
962
966
966
967
963
960
959
961
966
964
964
961
962
964
966
965
964
963
965
966
971
967
965
961
962
965
967
966
963
961
960
964
966
967
964
964
964
968
968
970
970
968
967
971
974
977
975
971
969
973
977
978
975
974
969
974
975
976
976
971
974
977
980
979
980
979
979
981
985
986
983
981
980
985
986
987
984
980
981
986
989
985
985
984
986
986
990
988
987
984
982
988
991
989
986
983
984
984
984
985
982
978
978
983
981
979
978
977
978
979
982
981
980
979
978
982
985
986
984
980
982
984
984
988
986
986
987
990
995
997
997
994
999
1004
1008
1009
1007
1007
1008
1012
1018
1021
1019
1018
1014
1017
1018
1014
1009
1009
1010
1009
1010
1007
1004
999
999
999
1001
1000
995
992
990
990
997
998
993
988
988
991
992
996
991
991
993
996
997
998
1001
995
993
998
1000
1003
1002
1001
1001
1003
1005
1010
1012
1016
1023
1033
1043
1052
1065
1084
1105
1129
1156
1172
1188
1207
1231
1251
1264
1252
1226
1189
1154
1119
1092
1064
1039
1020
1015
1019
1020
1017
1012
1010
1008
1009
1007
1008
1002
998
1000
1002
1004
1004
997
995
995
997
1001
1000
999
998
1000
1000
1005
1000
1001
995
999
1004
1005
1009
1005
1003
1001
1005
1006
1006
1005
1001
1003
1006
1010
1009
1006
1005
1011
1013
1015
1016
1012
1013
1014
1016
1018
1021
1020
1020
1022
1023
1027
1028
1027
1028
1031
1034
1039
1039
1039
1036
1040
1044
1050
1048
1046
1047
1049
1052
1057
1057
1055
1055
1057
1058
1061
1064
1062
1060
1057
1058
1056
1056
1051
1048
1044
1041
1039
1039
1031
1029
1026
1022
1024
1018
1013
1009
1008
1010
1010
1008
1004
1001
1000
1003
1002
1001
1000
998
995
997
1000
1001
1001
998
996
997
998
997
995
993
991
996
998
995
993
990
993
997
999
1001
994
993
993
996
999
998
995
993
992
992
997
994
992
986
990
992
996
993
991
986
989
991
993
991
989
985
984
986
990
987
982
980
982
979
984
983
977
977
980
978
982
979
979
975
975
978
981
979
978
977
980
981
983
982
982
978
979
977
982
978
978
976
976
980
984
985
983
981
983
982
989
987
985
984
986
991
996
1000
1003
1008
1018
1026
1037
1046
1056
1064
1071
1072
1073
1068
1051
1027
1000
973
957
956
958
959
963
965
968
969
960
954
952
955
956
954
953
952
952
950
949
950
949
950
957
963
979
992
1001
1009
1014
1022
1027
1028
1027
1030
1028
1029
1031
1031
1031
1026
1028
1028
1032
1033
1029
1028
1030
1035
1039
1039
1039
1035
1039
1044
1047
1050
1050
1050
1053
1056
1063
1063
1062
1063
1067
1073
1077
1082
1082
1087
1090
1098
1100
1103
1107
1114
1120
1128
1136
1136
1140
1137
1146
1151
1155
1156
1157
1153
1158
1160
1161
1155
1147
1142
1136
1133
1128
1121
1112
1099
1093
1088
1083
1074
1065
1055
1050
1045
1046
1040
1034
1026
1021
1020
1020
1018
1013
1008
1006
1006
1008
1007
1003
998
998
999
1003
1001
1000
997
998
1002
1004
1003
1001
999
999
1000
1006
1003
1000
997
998
998
999
999
998
996
993
993
999
1000
998
999
997
997
998
995
992
988
988
992
992
991
989
989
991
994
997
997
996
996
996
1000
1002
1004
1002
999
1000
1000
1006
1001
1000
996
994
994
998
994
990
987
986
989
992
993
988
986
987
990
990
989
987
984
984
984
988
989
983
984
986
984
991
989
989
988
991
993
996
997
996
991
996
995
997
998
998
995
995
999
1000
1000
999
994
993
995
1000
1002
1000
994
996
997
1002
1001
997
994
993
996
998
998
992
989
990
991
992
990
986
985
984
984
988
987
983
983
985
984
986
988
987
983
986
987
991
990
987
986
985
987
989
992
988
987
989
991
993
992
991
990
986
991
993
993
990
989
989
989
997
996
994
992
994
994
999
1001
997
994
996
997
1000
1001
997
996
998
1000
1002
1002
1000
998
999
1002
1003
1006
1003
1002
1002
1003
1007
1005
1002
1003
1007
1008
1010
1012
1010
1010
1017
1020
1026
1024
1022
1021
1026
1028
1031
1031
1026
1027
1030
1034
1036
1032
1027
1023
1022
1023
1026
1025
1020
1015
1016
1013
1015
1010
1003
998
996
998
1001
998
996
994
994
997
998
996
993
988
989
991
997
997
996
995
997
1000
1001
1001
1001
1002
1004
1008
1017
1024
1029
1036
1046
1065
1086
1107
1136
1157
1182
1205
1230
1252
1277
1275
1259
1229
1190
1147
1107
1071
1038
1018
1010
1008
1005
1004
1004
1004
1003
996
993
987
988
989
995
991
986
985
984
988
992
988
986
981
983
982
987
986
986
989
988
991
996
996
992
994
995
1000
1000
1002
998
999
998
1002
1003
1005
1002
999
1000
1004
1007
1005
1002
998
1000
1003
1006
1005
1004
1003
1005
1007
1011
1010
1008
1007
1009
1013
1015
1014
1014
1015
1021
1023
1026
1026
1023
1024
1026
1030
1032
1034
1034
1032
1033
1037
1045
1044
1043
1040
1044
1047
1050
1049
1046
1042
1039
1038
1039
1035
1028
1023
1023
1020
1022
1019
1013
1008
1008
1004
1007
1005
1004
1001
998
998
1001
999
996
994
992
995
997
995
991
989
990
991
994
993
991
988
988
987
991
996
993
993
993
997
1001
1001
996
993
992
998
1001
1001
997
995
995
999
1002
1001
1000
1001
997
1003
1005
1002
998
996
997
999
998
1000
997
994
993
995
998
998
997
992
992
992
996
994
992
988
990
991
992
989
984
982
984
987
988
987
987
979
980
986
987
987
986
984
984
985
988
986
984
983
983
984
985
984
981
980
981
986
988
986
988
983
982
987
993
991
988
987
983
987
987
988
987
986
982
986
988
986
984
980
978
980
981
982
983
980
982
978
986
987
985
982
985
990
993
995
995
991
993
997
1001
1004
1003
998
1001
1002
1008
1009
1010
1005
1008
1010
1013
1013
1013
1009
1010
1012
1016
1014
1012
1010
1009
1008
1009
1009
1003
1002
1001
1002
1001
1001
997
996
997
1000
1001
998
996
994
993
998
1003
1004
1002
1002
1003
1005
1008
1007
1005
1001
1003
1004
1012
1008
1008
1009
1012
1016
1024
1025
1028
1032
1039
1054
1073
1092
1114
1135
1163
1189
1214
1233
1253
1275
1297
1298
1281
1242
1192
1144
1103
1071
1049
1027
1016
1011
1010
1013
1019
1020
1015
1010
1008
1009
1010
1006
1004
998
998
1001
1005
1002
1000
998
998
999
1001
1001
999
996
997
999
1000
1001
999
994
1000
999
1004
1006
1004
1000
1001
1000
1006
1005
1002
999
999
1002
1007
1007
1005
1004
1003
1006
1009
1012
1011
1010
1009
1010
1017
1020
1016
1015
1017
1023
1027
1030
1028
1025
1026
1031
1034
1038
1040
1036
1039
1045
1050
1049
1047
1046
1048
1051
1055
1056
1055
1053
1052
1053
1055
1055
1052
1044
1042
1043
1043
1039
1032
1026
1023
1023
1022
1020
1013
1011
1007
1010
1009
1006
1000
997
997
1000
1000
998
998
994
995
993
998
997
997
995
995
1000
1003
1004
997
995
993
997
1002
1000
1000
1000
1000
1004
1007
1008
1005
1004
1005
1013
1010
1011
1007
1007
1006
1007
1010
1012
1008
1008
1008
1009
1012
1011
1011
1009
1008
1010
1012
1014
1012
1009
1009
1007
1009
1008
1008
1008
1009
1010
1014
1014
1012
1011
1009
1012
1014
1013
1011
1005
1010
1012
1013
1012
1008
1005
1009
1012
1010
1012
1009
1005
1004
1007
1011
1010
1007
1007
1007
1009
1013
1010
1011
1006
1007
1010
1017
1016
1014
1011
1009
1012
1016
1015
1012
1011
1014
1015
1018
1016
1012
1012
1014
1017
1017
1018
1014
1015
1014
1016
1020
1017
1015
1014
1016
1018
1016
1016
1013
1013
1016
1017
1018
1021
1016
1015
1017
1022
1025
1023
1026
1023
1027
1030
1035
1038
1036
1034
1035
1039
1040
1039
1040
1039
1038
1038
1040
1041
1036
1034
1032
1034
1033
1031
1027
1021
1020
1022
1020
1019
1013
1010
1012
1011
1016
1017
1015
1009
1008
1013
1016
1015
1012
1009
1012
1013
1018
1016
1015
1011
1010
1014
1018
1019
1016
1014
1017
1019
1023
1028
1030
1030
1038
1044
1055
1065
1079
1102
1126
1151
1178
1204
1225
1247
1270
1299
1313
1311
1286
1256
1216
1180
1144
1108
1073
1046
1029
1027
1030
1032
1032
1030
1029
1028
1029
1023
1023
1018
1014
1015
1016
1017
1014
1014
1014
1019
1019
1020
1018
1017
1017
1018
1021
1019
1016
1016
1016
1017
1022
1022
1021
1018
1019
1020
1020
1023
1022
1019
1020
1021
1025
1026
1023
1023
1025
1030
1034
1030
1026
1031
1031
1035
1039
1039
1037
1032
1033
1038
1042
1045
1040
1043
1043
1049
1055
1050
1050
1053
1052
1056
1064
1065
1063
1059
1061
1066
1070
1070
1070
1069
1070
1072
1076
1076
1075
1075
1079
1081
1081
1085
1080
1074
1072
1072
1070
1064
1060
1054
1053
1053
1051
1047
1040
1033
1028
1028
1027
1025
1021
1013
1012
1014
1017
1014
1013
1009
1008
1008
1011
1010
1004
1003
1005
1008
1009
1008
1007
1005
1006
1008
1011
1009
1006
1004
1005
1006
1010
1009
1007
1003
1009
1013
1013
1012
1010
1007
1011
1013
1012
1012
1009
1005
1007
1008
1008
1005
1003
1005
1005
1009
1008
1007
1007
1004
1002
1005
1008
1008
1006
1001
1002
1005
1004
1005
1001
999
998
999
1002
1000
1000
997
996
996
999
997
1001
995
995
998
1001
1000
997
993
993
996
1000
1001
998
994
993
998
1001
999
996
992
991
993
996
998
998
995
995
994
998
996
994
989
991
997
999
996
997
997
997
1000
1005
1005
1002
998
1000
1001
1005
1004
1000
994
997
998
996
998
995
994
992
995
1001
997
994
993
997
1002
1005
1000
998
995
995
996
1007
1006
1009
1010
1010
1015
1017
1019
1019
1018
1018
1019
1023
1021
1020
1018
1020
1021
1020
1016
1015
1012
1011
1013
1013
1010
1006
1000
996
1001
1002
999
994
987
985
990
992
987
984
982
981
984
989
987
986
984
988
985
988
989
988
986
985
987
989
987
983
984
983
983
988
990
990
991
997
1002
1009
1012
1019
1034
1053
1078
1104
1131
1151
1171
1192
1215
1239
1254
1247
1221
1186
1142
1104
1066
1034
1004
987
978
978
981
979
979
979
977
977
971
968
965
963
966
966
965
962
961
958
961
963
964
960
956
958
964
969
968
963
960
960
965
968
969
968
969
971
976
982
983
985
985
983
983
987
992
993
993
993
996
998
999
996
996
997
1001
1003
1004
1004
1003
1007
1009
1013
1013
1013
1010
1013
1015
1020
1019
1017
1018
1018
1022
1026
1027
1027
1025
1026
1032
1033
1037
1038
1037
1038
1041
1046
1048
1049
1045
1045
1047
1050
1048
1044
1039
1039
1038
1038
1029
1023
1016
1009
1008
1008
1003
997
991
987
985
986
982
976
976
976
976
976
975
972
968
967
966
969
970
967
965
965
968
971
970
968
965
965
965
967
970
967
963
965
969
972
970
968
965
963
968
968
971
969
966
967
970
970
968
968
965
968
969
973
971
968
966
965
968
973
972
970
968
967
969
973
974
976
972
970
971
974
973
971
967
970
971
972
972
970
967
969
968
970
971
971
967
966
972
973
974
969
966
968
967
971
969
966
965
966
968
968
970
968
965
963
965
968
966
961
958
957
959
962
959
957
954
953
956
961
959
957
955
956
956
956
957
958
954
952
955
956
958
954
956
961
964
968
964
964
961
964
970
975
972
970
968
965
969
975
971
969
967
971
975
983
988
986
984
986
992
1002
1004
1002
1004
1002
1008
1012
1014
1014
1010
1012
1012
1014
1014
1005
1005
1006
1007
1010
1009
1003
1003
999
1003
1002
1001
997
991
988
989
992
991
990
988
983
984
988
984
982
980
979
982
987
986
983
982
979
979
984
984
981
979
978
980
984
986
981
983
987
997
1005
1011
1018
1029
1052
1077
1104
1129
1149
1170
1195
1223
1253
1278
1285
1270
1240
1201
1157
1114
1072
1038
1009
991
987
984
983
981
981
979
980
980
976
970
969
973
975
976
973
969
969
971
973
973
968
967
968
968
975
975
976
974
975
979
983
980
977
977
980
983
988
987
986
985
984
990
993
991
991
989
988
992
995
996
994
995
994
996
1000
1001
1001
998
999
1000
1008
1007
1008
1006
1007
1013
1018
1018
1017
1017
1017
1022
1030
1032
1033
1030
1033
1037
1041
1043
1044
1045
1047
1048
1053
1056
1055
1054
1056
1057
1059
1056
1054
1052
1052
1051
1054
1047
1044
1036
1037
1036
1038
1031
1023
1019
1018
1013
1014
1011
1006
1002
1001
1001
1003
1002
1000
998
995
991
994
993
993
987
990
989
991
987
984
982
982
982
987
985
986
986
989
990
994
990
991
991
991
994
997
999
996
992
990
992
994
996
994
988
989
994
996
1000
998
996
994
996
1000
997
995
992
993
991
992
990
990
986
986
986
993
988
984
980
976
978
981
982
980
977
976
975
981
978
974
973
971
973
975
974
973
969
970
970
975
973
971
967
967
969
971
973
968
970
972
977
980
978
980
979
979
977
980
979
977
976
976
979
980
977
976
972
975
976
980
978
981
979
985
994
1006
1014
1024
1030
1038
1053
1063
1062
1055
1052
1044
1030
1010
978
949
934
938
948
959
959
963
962
962
961
962
956
948
943
947
950
951
951
946
939
936
940
943
943
945
945
954
970
984
994
999
1004
1007
1010
1011
1012
1007
1003
1005
1007
1011
1005
1004
1005
1005
1009
1013
1011
1010
1010
1013
1015
1019
1017
1018
1016
1019
1022
1028
1031
1028
1029
1032
1036
1042
1043
1045
1049
1052
1059
1065
1067
1067
1065
1071
1080
1089
1091
1094
1096
1099
1105
1116
1117
1120
1120
1122
1129
1134
1137
1140
1140
1144
1145
1147
1148
1143
1138
1133
1128
1126
1116
1108
1099
1092
1087
1083
1076
1064
1054
1047
1042
1043
1039
1034
1028
1024
1026
1023
1022
1017
1014
1009
1013
1010
1008
1003
1003
1006
1009
1008
1009
1002
1001
1000
999
1002
1000
997
988
989
992
993
991
989
983
984
986
988
985
982
978
975
977
979
977
978
972
972
976
978
979
973
971
970
973
977
975
974
971
969
973
973
972
969
964
963
967
968
971
969
967
970
970
975
974
972
971
968
973
975
975
974
969
967
966
969
968
963
961
963
963
965
965
963
962
962
963
966
966
964
963
964
969
971
970
971
967
968
971
976
972
971
965
964
969
973
973
970
971
972
972
978
982
979
977
975
980
984
983
980
977
976
978
983
981
976
974
974
978
982
980
979
977
978
978
979
981
976
975
975
978
983
982
979
978
981
981
986
981
981
978
977
978
981
979
978
975
973
980
980
980
979
974
974
