976
981
978
974
972
976
979
983
981
980
975
979
982
984
985
980
980
979
980
982
981
978
978
979
981
984
983
980
978
978
978
984
983
982
980
979
983
985
987
983
979
977
980
984
983
983
979
980
980
985
983
983
982
983
988
994
998
997
1000
1002
1007
1010
1011
1012
1012
1012
1015
1018
1023
1023
1021
1021
1019
1023
1020
1018
1015
1011
1011
1012
1006
1001
994
992
991
991
988
981
977
977
979
981
981
979
971
970
975
977
979
975
977
975
975
979
979
977
976
978
983
986
986
985
984
983
989
996
1002
1009
1020
1033
1059
1084
1109
1135
1159
1186
1210
1242
1270
1289
1284
1261
1224
1178
1125
1076
1039
1009
991
986
992
994
993
994
994
994
992
988
986
984
983
983
982
977
976
972
976
979
979
974
970
971
973
975
978
974
974
972
980
982
982
978
977
977
981
987
987
987
986
987
989
993
993
992
991
991
994
999
1000
996
997
998
1002
1006
1008
1006
1007
1010
1014
1019
1018
1018
1019
1022
1024
1030
1032
1032
1032
1032
1038
1042
1045
1043
1042
1044
1049
1051
1053
1051
1050
1052
1057
1057
1058
1057
1052
1049
1048
1046
1043
1032
1026
1023
1022
1020
1017
1009
1002
999
998
998
995
991
987
986
986
985
985
982
979
981
984
987
989
986
986
986
993
994
994
995
994
998
999
1003
1001
998
995
996
1000
1003
1004
1003
1002
1005
1012
1014
1015
1014
1013
1017
1021
1023
1023
1022
1019
1017
1021
1023
1021
1017
1012
1012
1014
1015
1014
1008
1009
1006
1007
1011
1011
1007
1004
999
1004
1003
1004
1001
997
994
996
998
995
992
992
992
997
997
998
997
995
996
996
996
997
995
991
993
991
996
997
997
997
995
998
1003
1005
1002
998
997
999
1002
997
995
991
992
995
999
998
995
994
1000
1007
1011
1006
1001
999
997
998
998
998
996
997
995
994
997
1001
997
995
989
995
1003
1002
996
995
995
999
1009
1010
1014
1015
1014
1018
1022
1025
1027
1027
1028
1029
1032
1030
1032
1031
1032
1034
1038
1036
1033
1030
1026
1027
1028
1022
1020
1019
1016
1016
1016
1013
1009
1008
1006
1009
1011
1010
1005
1003
1000
1001
1003
1008
1004
1002
1003
1007
1011
1009
1007
1004
1004
1008
1013
1015
1012
1009
1009
1014
1019
1025
1030
1034
1044
1060
1081
1106
1132
1151
1178
1203
1232
1257
1283
1300
1300
1284
1257
1212
1162
1116
1078
1051
1031
1018
1013
1009
1012
1016
1018
1016
1010
1002
1001
1000
1004
1001
1002
1002
1001
1001
1004
1008
1007
1001
998
1001
1006
1007
1005
1001
1003
1006
1010
1010
1009
1009
1008
1011
1014
1012
1006
1006
1008
1010
1011
1009
1007
1007
1007
1008
1012
1011
1006
1004
1002
1004
1010
1010
1009
1008
1010
1015
1019
1021
1022
1023
1029
1033
1038
1043
1047
1055
1054
1063
1067
1071
1070
1071
1074
1079
1082
1081
1080
1076
1077
1085
1088
1086
1083
1080
1080
1082
1083
1077
1072
1068
1065
1063
1062
1061
1055
1047
1044
1043
1040
1033
1032
1025
1021
1022
1024
1020
1015
1013
1015
1021
1021
1021
1017
1011
1013
1014
1017
1017
1010
1013
1013
1016
1018
1016
1016
1016
1015
1017
1020
1019
1019
1017
1014
1014
1020
1022
1020
1019
1017
1019
1020
1021
1018
1015
1012
1013
1018
1016
1014
1013
1013
1014
1017
1016
1012
1010
1013
1016
1017
1015
1010
1007
1007
1010
1015
1011
1007
1005
1010
1010
1012
1007
1007
1007
1003
1003
1004
1002
1003
1003
1004
1009
1010
1010
1005
1005
1004
1009
1012
1010
1007
1004
1003
1006
1009
1008
1008
1006
1004
1008
1008
1004
1002
995
997
1000
1002
1003
1002
1003
1005
1010
1011
1009
1006
1004
1006
1009
1010
1009
1009
1008
1009
1010
1013
1008
1005
1002
1003
1005
1009
1006
1002
998
1000
1001
1007
1010
1011
1011
1013
1018
1022
1024
1018
1016
1018
1023
1028
1030
1027
1023
1028
1033
1037
1033
1032
1032
1035
1035
1035
1033
1028
1027
1019
1021
1025
1023
1022
1022
1021
1022
1023
1022
1014
1013
1010
1007
1011
1009
1005
1005
1005
1006
1009
1007
1006
1006
1001
1004
1006
1005
1002
1003
1000
1001
1004
1001
1003
1006
1009
1011
1018
1025
1031
1032
1039
1055
1075
1091
1109
1128
1152
1178
1201
1222
1241
1263
1281
1279
1262
1227
1184
1137
1095
1065
1034
1012
997
990
992
997
1000
995
992
986
982
981
983
981
975
973
970
971
975
972
970
964
964
966
973
973
971
969
970
974
975
972
968
966
963
970
975
978
977
974
976
976
982
979
977
971
977
976
979
980
976
974
978
980
984
983
981
979
976
981
988
991
988
983
982
982
986
985
984
986
985
989
995
998
1000
999
999
1008
1017
1021
1022
1018
1023
1030
1037
1042
1042
1041
1039
1044
1048
1048
1047
1044
1041
1038
1043
1041
1036
1027
1029
1028
1029
1024
1018
1008
1006
1004
1002
996
997
990
987
990
995
993
987
983
983
985
984
984
980
981
980
977
981
979
975
971
974
977
983
984
982
982
983
982
983
983
981
979
979
982
984
984
981
980
980
980
983
987
984
980
977
983
983
982
985
984
984
989
992
990
986
983
983
986
990
991
988
986
988
990
991
991
983
981
981
985
987
987
986
981
980
980
978
980
979
975
978
980
983
980
980
979
976
977
979
981
980
977
976
978
982
980
975
972
972
973
977
979
979
974
971
974
974
973
973
975
976
978
979
982
981
981
980
983
985
984
984
981
980
980
982
981
980
976
974
975
978
978
979
977
976
979
984
983
984
984
990
992
999
999
1004
1008
1006
1007
1011
1015
1012
1011
1007
1011
1013
1013
1010
1007
1005
1010
1012
1012
1006
1007
1006
1005
1003
1003
999
993
991
993
994
990
987
982
982
983
984
986
982
978
975
973
975
977
978
976
975
973
977
976
975
969
967
968
970
969
965
967
967
966
972
972
972
973
976
982
994
1001
1004
1007
1021
1039
1063
1085
1109
1126
1147
1174
1200
1226
1250
1265
1266
1248
1222
1188
1149
1110
1074
1047
1025
1010
997
994
995
1000
1002
999
993
990
988
987
986
983
983
979
981
984
989
987
987
984
984
989
992
993
989
982
985
986
990
990
988
984
984
988
994
992
992
992
993
993
994
995
992
990
991
994
998
999
999
997
999
1003
1007
1009
1007
1006
1005
1007
1012
1015
1014
1014
1012
1017
1021
1023
1023
1020
1023
1026
1033
1035
1038
1037
1037
1039
1043
1047
1048
1044
1046
1050
1052
1057
1056
1058
1057
1058
1062
1063
1060
1058
1061
1061
1062
1057
1054
1046
1044
1043
1042
1037
1030
1024
1017
1013
1009
1006
1001
992
991
991
989
985
981
975
974
974
978
975
972
970
972
975
978
975
968
967
967
966
971
967
970
967
966
970
973
975
971
967
966
970
975
975
972
972
972
973
979
982
984
983
983
987
988
987
983
977
980
980
984
984
981
978
978
975
980
980
980
979
979
980
982
982
977
974
976
976
983
985
983
978
977
977
976
979
977
977
976
975
978
973
970
971
969
971
970
971
972
970
971
974
977
977
973
970
968
973
977
977
975
972
973
973
974
974
973
970
973
973
978
975
971
968
970
968
973
974
970
968
968
972
975
973
972
974
977
982
984
986
979
977
979
984
983
985
980
977
980
984
990
989
987
984
984
989
991
990
991
990
990
993
999
1000
998
995
1001
1006
1008
1008
1005
1000
1000
1006
1006
1006
1004
1000
1000
1001
1001
999
998
997
996
996
998
991
986
985
983
983
986
983
979
976
973
974
977
978
973
972
967
967
972
971
967
963
960
959
963
960
956
954
954
960
964
967
968
964
965
966
969
970
970
972
978
988
995
1007
1023
1040
1060
1083
1104
1133
1153
1171
1194
1222
1245
1243
1222
1189
1152
1111
1077
1041
1007
984
971
969
973
974
971
968
966
965
966
962
958
954
950
952
951
948
946
946
946
947
952
947
945
941
938
940
943
947
949
949
946
949
955
951
952
952
952
954
960
959
959
958
960
960
960
962
961
960
964
967
967
966
964
967
965
968
973
975
975
977
977
982
983
987
981
986
987
991
993
992
996
996
997
1000
1007
1013
1013
1014
1016
1020
1026
1028
1026
1026
1029
1033
1034
1036
1037
1033
1035
1038
1041
1039
1033
1031
1030
1030
1028
1023
1018
1009
1007
1005
1004
999
993
987
983
984
983
983
979
976
972
973
971
971
969
961
962
964
965
961
960
955
949
959
961
961
958
954
954
957
960
962
957
955
954
960
965
967
963
962
962
964
966
964
964
963
962
968
972
969
969
967
970
970
974
972
972
970
968
975
977
978
977
972
973
974
977
972
974
974
970
975
980
978
976
972
973
975
981
981
981
974
977
978
983
986
981
980
979
982
985
986
982
980
980
981
984
982
980
974
975
978
980
981
979
977
977
975
973
971
969
967
971
972
975
975
972
968
966
972
976
975
972
968
970
974
975
979
976
974
977
978
987
988
989
992
992
994
994
992
989
985
990
998
1013
1020
1025
1032
1039
1050
1060
1060
1055
1050
1046
1042
1030
1008
979
957
946
952
962
968
967
965
970
973
974
965
958
955
954
953
956
952
946
944
940
937
937
935
928
927
929
944
958
973
980
989
995
1004
1007
1006
1008
1008
1007
1011
1017
1019
1019
1017
1020
1023
1026
1027
1027
1026
1025
1033
1034
1041
1037
1037
1036
1040
1046
1047
1049
1047
1048
1055
1057
1060
1062
1063
1068
1072
1079
1083
1083
1084
1086
1093
1100
1102
1104
1107
1114
1120
1128
1133
1136
1136
1140
1146
1148
1152
1154
1153
1152
1154
1153
1148
1144
1137
1132
1130
1125
1117
1108
1099
1089
1083
1079
1071
1057
1046
1039
1033
1029
1025
1018
1008
1002
1001
1000
997
990
987
983
982
984
982
981
975
976
973
977
974
972
970
968
968
972
971
968
965
966
960
968
969
967
963
962
966
968
968
963
960
958
959
963
963
961
955
953
955
960
958
954
951
952
952
952
957
954
950
950
953
953
953
952
948
948
949
951
952
948
946
945
948
949
948
944
941
939
944
951
950
947
946
945
948
955
953
946
942
944
946
947
946
945
944
942
942
945
946
946
944
942
945
948
950
945
945
944
949
951
951
947
943
942
943
948
948
945
942
941
944
946
943
943
936
942
944
946
946
943
940
942
943
948
947
944
940
940
939
944
945
948
945
945
947
953
950
947
946
946
950
952
949
945
940
941
947
953
953
947
941
940
943
948
952
950
945
945
949
953
952
949
951
952
955
960
959
960
957
958
958
962
965
966
962
960
962
961
963
960
958
961
964
972
971
969
967
968
973
973
972
970
966
963
964
971
973
971
969
970
969
973
971
971
971
971
975
978
978
975
975
975
979
986
990
991
987
990
991
995
998
999
1000
1001
1002
1011
1011
1009
1008
1006
1007
1005
1003
1001
999
997
997
997
996
992
985
984
979
983
981
977
973
974
973
974
973
970
965
969
970
976
977
975
971
971
972
974
975
974
972
970
974
976
978
979
976
982
990
1000
1013
1023
1037
1061
1088
1116
1144
1165
1186
1212
1240
1260
1257
1230
1189
1141
1096
1056
1020
989
965
963
965
971
973
970
966
963
962
964
964
962
958
955
954
957
958
956
953
954
955
957
957
955
953
952
952
954
956
956
956
953
955
954
956
958
957
958
958
962
963
965
962
963
964
963
969
966
964
963
967
971
971
970
970
974
979
984
986
983
982
984
988
993
996
995
994
997
1003
1007
1010
1009
1008
1013
1014
1019
1020
1019
1022
1019
1024
1029
1030
1029
1028
1028
1029
1030
1027
1025
1021
1021
1017
1016
1013
1007
999
996
993
991
988
987
980
975
977
979
977
976
970
970
969
974
971
972
967
967
970
972
967
963
960
963
961
965
966
961
961
960
960
964
967
965
959
959
961
962
962
959
956
955
958
963
963
961
959
960
963
963
963
963
958
958
959
959
958
956
960
960
960
959
958
954
949
948
951
954
952
949
947
949
949
951
951
951
946
948
949
953
951
952
947
946
950
952
950
949
949
950
953
958
960
958
957
956
959
958
957
952
953
952
958
961
961
958
953
957
957
961
960
958
955
953
954
955
958
955
953
955
956
958
957
952
950
950
953
954
954
952
953
954
957
961
963
964
963
966
970
974
975
974
974
975
979
985
986
987
983
983
987
991
992
989
984
982
983
986
983
977
972
969
974
975
973
970
966
965
968
969
971
969
968
967
972
981
979
980
978
976
975
978
978
977
977
980
983
987
987
986
983
980
990
997
1001
1003
1007
1014
1029
1045
1063
1084
1110
1135
1164
1184
1206
1229
1252
1259
1240
1208
1161
1109
1066
1032
1009
992
983
976
969
971
974
973
969
963
956
957
957
955
951
945
944
941
943
947
944
938
932
928
928
929
925
925
926
928
935
937
936
934
937
937
941
945
947
944
943
943
945
947
946
944
942
948
954
959
960
958
956
956
960
967
972
971
966
967
975
982
986
986
986
988
994
999
1001
1001
1003
1007
1013
1019
1022
1020
1017
1019
1019
1024
1025
1027
1025
1026
1029
1033
1034
1029
1026
1024
1024
1023
1023
1015
1012
1006
1005
1005
998
993
987
984
984
984
980
971
970
968
970
969
969
961
963
960
961
966
967
966
966
964
964
972
969
971
969
970
970
973
973
970
967
966
968
974
976
974
974
977
978
981
979
976
972
975
975
978
978
978
974
976
979
981
980
976
972
971
973
975
972
968
962
966
970
973
975
976
975
974
973
978
977
976
972
971
972
978
974
971
970
971
969
973
974
973
970
969
968
972
972
971
970
971
972
975
976
975
971
972
975
976
977
974
975
974
978
978
980
980
975
977
980
980
980
978
975
976
979
984
981
975
974
972
972
971
973
973
973
975
979
982
981
976
975
977
977
981
982
979
977
978
983
986
989
992
990
989
996
999
1001
1000
996
997
1001
1004
1004
1001
1005
1006
1006
1009
1007
1003
1001
1000
998
1000
1000
1000
993
990
994
993
993
989
984
982
984
989
988
984
982
981
984
988
987
987
987
986
985
988
984
982
978
981
984
987
987
983
978
980
980
991
990
996
1000
1007
1015
1033
1051
1070
1092
1116
1144
1171
1196
1216
1239
1265
1278
1272
1247
1211
1166
1123
1085
1058
1030
1007
996
994
993
997
997
992
987
984
985
986
989
984
988
988
991
994
999
999
999
1001
1001
999
997
988
980
975
975
977
976
972
962
953
951
952
957
961
962
963
962
966
967
964
959
955
955
956
964
964
965
968
973
978
976
974
969
971
971
974
979
978
978
981
982
989
990
994
994
997
1007
1012
1016
1013
1014
1014
1017
1025
1025
1024
1024
1026
1029
1036
1034
1036
1035
1035
1035
1040
1042
1039
1040
1040
1042
1044
1045
1038
1033
1027
1029
1030
1026
1022
1017
1011
1009
1008
1005
999
990
986
989
990
989
983
976
976
975
980
976
974
971
971
975
976
972
973
970
968
971
972
971
967
967
969
975
979
974
973
969
969
973
977
979
979
975
976
975
978
981
980
978
978
980
982
981
981
981
982
983
986
986
983
980
978
981
983
985
982
980
980
984
986
989
986
983
984
985
986
984
984
982
979
979
982
982
980
977
979
980
980
978
979
977
975
979
983
983
981
977
980
981
981
982
982
977
980
982
986
986
983
979
980
983
985
985
983
978
978
977
981
983
979
976
977
979
981
983
982
980
982
980
984
988
987
983
983
984
986
985
986
983
982
984
986
982
984
980
981
984
987
986
988
984
987
990
992
990
988
992
994
996
1004
1001
1003
1000
1000
1005
1006
1007
1002
1003
1002
1008
1009
1009
1009
1009
1004
1002
1005
1003
1002
998
997
994
993
992
991
989
985
986
987
985
983
979
977
978
982
978
975
970
972
975
978
980
983
979
976
981
983
985
983
980
978
979
987
988
988
986
988
989
996
1002
1007
1011
1018
1029
1046
1065
1087
1105
1134
1160
1184
1206
1225
1246
1263
1266
1251
1222
1182
1134
1090
1061
1037
1018
998
987
989
993
998
997
991
984
985
983
985
986
979
972
973
975
977
977
973
972
971
974
978
979
977
971
971
974
978
976
979
979
980
982
985
989
985
985
986
987
992
992
993
992
991
994
995
997
996
995
996
1001
1004
1008
1005
1001
1004
1008
1012
1014
1014
1015
1015
1016
1020
1022
1023
1022
1026
1032
1031
1032
1035
1035
1034
1041
1045
1047
1049
1048
1048
1051
1056
1058
1058
1059
1060
1064
1066
1067
1066
1064
1065
1065
1066
1062
1060
1055
1052
1052
1048
1044
1041
1031
1028
1027
1027
1024
1021
1017
1013
1012
1010
1009
1009
1003
1005
1005
1007
1006
1002
997
997
1000
1000
998
1000
996
999
999
1002
1007
1000
998
994
999
1002
1005
1002
999
998
1002
1006
1008
1004
1003
1002
1001
1004
1004
1002
1001
1002
1005
1007
1010
1006
1003
1003
1003
1010
1009
1007
1007
1008
1008
1011
1009
1004
1004
1006
1011
1013
1013
1010
1005
1004
1006
1010
1010
1006
1001
1003
1005
1007
1007
1000
999
1000
1003
1005
1004
1003
1001
999
1005
1008
1005
1003
1004
1004
1006
1007
1007
1008
1004
1003
1006
1011
1011
1010
1008
1007
1012
1013
1016
1014
1009
1008
1012
1012
1011
1006
1005
1008
1018
1020
1020
1019
1016
1017
1022
1024
1023
1020
1019
1017
1027
1030
1033
1028
1028
1023
1026
1027
1029
1020
1017
1019
1020
1020
1020
1017
1013
1016
1020
1028
1029
1028
1028
1031
1034
1038
1042
1041
1041
1040
1043
1048
1050
1050
1047
1051
1055
1058
1059
1058
1054
1047
1047
1046
1044
1035
1030
1028
1032
1032
1032
1029
1024
1021
1023
1027
1025
1023
1021
1020
1020
1027
1027
1025
1023
1024
1027
1028
1031
1030
1028
1029
1032
1039
1040
1036
1033
1029
1029
1030
1033
1033
1035
1041
1048
1057
1068
1083
1103
1128
1157
1186
1214
1240
1259
1285
1314
1340
1352
1341
1308
1263
1210
1158
1123
1085
1055
1035
1032
1035
1037
1033
1032
1028
1026
1027
1022
1020
1018
1016
1018
1020
1020
1015
1011
1012
1014
1019
1020
1017
1017
1012
1012
1018
1019
1016
1017
1015
1018
1022
1022
1021
1020
1021
1023
1025
1030
1025
1020
1025
1027
1031
1030
1027
1024
1024
1027
1027
1029
1028
1026
1028
1031
1038
1040
1038
1035
1036
1041
1045
1048
1050
1050
1053
1054
1056
1057
1063
1065
1071
1076
1080
1079
1075
1071
1070
1070
1076
1078
1079
1077
1082
1084
1086
1089
1088
1084
1084
1083
1084
1083
1080
1074
1071
1070
1071
1065
1062
1052
1047
