1046
1049
1043
1042
1036
1031
1031
1033
1032
1026
1022
1022
1024
1026
1024
1023
1017
1017
1021
1022
1023
1020
1016
1017
1021
1024
1027
1027
1027
1027
1027
1029
1028
1027
1025
1024
1031
1031
1030
1028
1029
1029
1032
1035
1033
1029
1028
1028
1029
1035
1035
1033
1026
1025
1031
1033
1036
1032
1031
1028
1030
1030
1030
1032
1026
1026
1029
1034
1033
1031
1026
1026
1027
1030
1028
1024
1025
1023
1028
1032
1030
1029
1024
1025
1025
1027
1027
1022
1023
1023
1025
1029
1028
1026
1023
1021
1022
1024
1021
1023
1020
1018
1016
1019
1023
1023
1021
1018
1022
1022
1025
1022
1017
1015
1019
1021
1024
1020
1015
1015
1016
1015
1015
1016
1014
1015
1018
1020
1021
1020
1018
1017
1017
1021
1019
1018
1013
1013
1015
1017
1021
1021
1021
1022
1028
1032
1033
1032
1028
1032
1036
1040
1043
1040
1033
1036
1039
1044
1043
1043
1041
1040
1038
1041
1036
1036
1033
1030
1033
1032
1028
1025
1022
1019
1019
1022
1015
1010
1003
1005
1007
1005
1007
1006
1004
1004
1002
1006
1007
1006
1008
1008
1011
1014
1012
1009
1006
1007
1008
1014
1015
1012
1010
1009
1010
1015
1020
1025
1027
1036
1041
1058
1081
1100
1118
1145
1178
1212
1237
1255
1276
1303
1323
1328
1308
1277
1228
1179
1138
1102
1074
1050
1032
1022
1027
1030
1030
1027
1021
1016
1014
1014
1013
1003
1002
1002
1002
1004
1003
1001
1001
1000
1001
1002
998
997
998
1001
1005
1007
1005
1003
1002
999
1002
1008
1009
1009
1008
1007
1007
1009
1011
1011
1009
1011
1008
1009
1012
1016
1014
1013
1013
1015
1014
1016
1016
1018
1022
1023
1024
1021
1023
1027
1030
1035
1035
1033
1033
1036
1041
1044
1046
1046
1044
1045
1049
1058
1056
1058
1057
1060
1060
1065
1066
1069
1066
1069
1071
1076
1077
1073
1069
1067
1066
1069
1067
1067
1058
1051
1051
1051
1045
1038
1033
1030
1028
1029
1024
1019
1011
1010
1010
1010
1010
1005
1002
1005
1005
1007
1005
1002
998
999
999
1002
1002
1001
995
995
999
999
1001
998
996
1000
1004
1008
1006
1000
998
995
994
996
996
999
1000
1001
1003
1006
1007
1006
1000
999
1002
1003
1003
1000
995
998
1001
1002
1002
995
996
997
997
1001
1000
1000
996
997
1001
1003
1002
998
998
999
999
1001
1000
996
997
995
996
997
997
995
992
989
989
991
992
992
991
986
985
989
988
986
981
983
987
991
992
989
986
983
982
986
985
981
979
978
978
982
984
981
978
977
983
980
981
981
977
976
980
984
982
982
978
977
981
984
985
980
979
982
981
984
983
982
982
981
985
990
994
993
991
991
995
999
998
1000
997
997
1000
1007
1006
1006
1003
1001
1000
1002
1004
1001
996
992
992
994
992
991
985
981
981
981
974
974
970
966
969
974
974
973
968
969
967
972
971
968
965
966
968
972
969
966
961
961
964
971
970
968
967
969
971
980
987
995
999
1004
1015
1037
1061
1084
1109
1137
1169
1195
1216
1242
1267
1275
1259
1229
1179
1124
1069
1029
999
983
973
972
970
970
971
971
969
964
957
955
956
956
957
950
945
947
949
953
953
951
949
950
952
955
954
952
950
950
952
954
952
948
947
949
952
956
957
954
950
951
955
958
962
958
960
956
958
962
963
960
959
961
962
967
968
969
971
972
976
977
981
981
980
982
984
991
993
994
993
995
1001
1007
1007
1006
1006
1006
1010
1014
1014
1011
1016
1017
1022
1026
1028
1028
1025
1022
1023
1021
1021
1021
1016
1008
1005
1006
1003
997
989
985
984
986
983
979
972
971
970
970
968
962
962
962
963
964
962
959
959
956
958
961
960
961
959
961
964
964
964
964
962
960
962
966
967
967
963
963
968
973
973
972
966
963
967
972
973
972
967
965
967
972
972
970
966
966
970
972
971
967
964
962
965
970
971
969
963
965
967
971
969
966
963
962
965
968
966
963
957
960
960
963
963
958
955
955
960
960
962
960
959
958
960
960
959
954
950
949
952
954
951
949
947
948
952
954
949
949
945
947
948
952
951
946
945
947
949
952
951
949
950
948
949
953
951
949
948
949
952
953
957
957
958
960
962
966
970
972
970
969
973
976
979
981
979
978
981
985
986
982
977
975
978
982
981
977
971
968
968
968
966
962
956
954
952
953
954
949
945
945
950
953
953
951
945
945
947
950
950
946
942
941
943
946
946
943
942
940
944
947
952
957
964
972
982
995
1015
1036
1063
1095
1127
1157
1182
1208
1236
1255
1259
1238
1198
1147
1092
1046
1011
984
964
955
953
955
961
960
953
942
938
935
936
937
934
931
931
931
933
935
935
933
932
930
932
936
935
932
932
932
936
933
935
935
934
932
933
933
937
934
932
933
933
936
937
940
938
938
940
944
946
946
945
943
949
950
954
954
953
954
958
962
966
966
963
966
968
974
977
976
974
974
983
991
992
991
989
992
994
1000
1004
1004
999
1003
1006
1012
1013
1009
1002
1003
1009
1010
1006
1002
995
991
990
989
982
979
970
966
964
963
959
955
949
947
947
946
946
942
938
938
937
938
941
937
933
931
935
938
939
933
931
932
935
938
938
935
935
934
937
941
940
938
938
938
940
943
945
942
938
938
940
946
950
949
943
944
948
951
950
949
947
945
950
950
952
948
945
942
944
949
949
949
940
942
943
950
951
946
946
946
946
948
949
947
944
943
945
948
948
947
944
945
944
946
948
944
941
943
944
948
951
947
945
946
952
953
950
950
946
948
952
956
954
954
950
951
953
957
955
952
951
952
953
955
957
955
952
954
956
956
959
957
957
957
959
959
965
961
959
961
963
967
972
973
973
976
978
981
984
985
983
984
986
990
993
990
990
990
988
987
989
985
984
979
978
981
982
978
973
972
971
971
968
966
963
961
964
967
968
965
962
961
964
971
972
970
964
963
967
968
970
967
966
966
969
976
978
974
973
977
987
995
1003
1011
1023
1045
1069
1091
1116
1141
1166
1185
1206
1237
1254
1246
1220
1184
1141
1099
1060
1025
998
982
976
977
978
974
970
968
966
969
964
960
955
955
960
962
960
959
957
952
956
962
960
958
956
957
957
959
961
961
957
956
961
964
963
961
962
961
964
968
967
965
963
967
969
972
969
971
970
975
979
981
981
976
976
978
983
990
989
988
988
990
994
998
995
996
999
1001
1001
1009
1011
1008
1010
1012
1016
1022
1021
1022
1021
1020
1025
1029
1029
1029
1025
1027
1031
1033
1032
1030
1028
1024
1023
1023
1017
1013
1005
1002
999
996
992
985
980
975
975
971
969
965
958
957
955
955
952
950
946
944
943
945
945
940
941
941
943
948
948
945
945
945
945
946
946
944
944
943
946
948
948
946
944
942
945
949
947
943
945
946
948
946
947
946
946
946
948
948
948
946
945
943
946
946
945
949
943
942
943
940
943
941
939
939
938
943
942
941
940
940
941
942
942
943
939
936
941
944
946
940
938
938
940
942
940
938
939
938
939
942
943
941
939
939
940
942
944
945
941
940
940
941
944
943
940
941
940
945
945
943
941
939
941
944
946
945
936
937
940
944
946
945
942
940
941
946
944
944
941
942
942
945
948
950
947
952
958
960
960
960
961
962
966
968
968
967
967
968
975
977
973
972
970
968
968
968
969
965
964
961
959
959
957
957
954
948
951
949
947
944
943
946
946
945
948
945
943
946
947
948
945
943
946
947
949
953
952
953
950
949
952
954
957
958
960
963
973
980
988
997
1009
1027
1050
1074
1100
1124
1147
1170
1198
1225
1249
1256
1238
1202
1157
1112
1064
1025
994
969
959
956
956
953
952
952
953
951
949
943
939
940
941
940
938
938
934
933
934
938
937
931
931
929
934
938
937
931
930
931
934
938
935
932
930
933
937
939
937
940
937
936
940
944
943
942
940
945
945
949
951
951
950
952
951
955
956
956
955
958
962
966
967
965
963
968
974
978
980
980
979
985
986
994
996
994
995
997
1000
1006
1008
1005
1003
1005
1009
1014
1015
1011
1008
1008
1010
1008
1006
999
994
989
988
985
982
980
972
970
971
969
962
960
953
952
953
953
950
945
944
943
943
946
943
942
940
938
943
945
943
941
944
940
943
946
946
945
942
941
944
947
947
946
943
942
945
949
950
951
947
946
947
950
951
949
949
946
950
953
952
953
950
949
952
954
955
953
948
946
950
950
952
948
944
946
950
954
949
948
947
949
952
952
949
950
945
947
949
951
951
948
946
946
948
953
949
949
947
945
945
948
945
945
941
944
947
949
949
946
944
944
948
951
949
947
945
944
947
950
948
947
946
944
946
949
950
951
947
947
952
955
954
948
945
946
946
950
953
952
949
951
948
951
953
951
951
951
952
954
955
957
957
959
963
974
974
971
971
974
976
979
981
980
976
976
979
983
982
980
977
977
979
979
978
974
971
970
970
972
970
967
964
962
961
960
961
960
956
955
955
954
951
952
951
951
953
958
957
956
951
951
955
956
958
959
955
956
958
961
957
960
961
966
970
978
980
984
991
1001
1018
1039
1057
1077
1099
1127
1153
1172
1192
1212
1232
1236
1222
1191
1155
1112
1072
1034
1009
992
978
968
966
966
968
969
967
962
958
955
955
954
955
954
951
948
953
954
954
952
946
947
948
950
950
950
948
948
952
953
956
953
952
950
953
955
955
955
953
956
958
961
964
962
960
960
962
964
964
963
960
962
965
972
975
971
971
972
974
977
980
978
976
976
983
986
993
993
990
990
995
1001
1002
999
1001
1000
1010
1013
1018
1015
1012
1013
1016
1022
1024
1025
1023
1024
1029
1032
1032
1031
1026
1028
1027
1029
1021
1020
1011
1007
1004
1005
1004
996
990
987
985
983
981
976
974
971
972
972
970
965
962
958
960
959
958
959
956
954
958
958
960
959
956
954
958
959
960
960
958
956
959
963
965
962
959
959
961
962
963
962
960
962
964
965
965
962
961
963
961
966
964
962
957
957
962
961
966
961
960
961
960
966
963
962
958
958
959
962
961
963
959
957
961
963
965
963
961
957
958
961
964
960
955
959
959
961
962
960
960
957
959
959
962
960
957
959
958
961
962
959
957
958
960
961
965
963
958
958
960
964
964
964
962
960
962
967
970
971
971
976
984
993
1003
1012
1019
1027
1036
1043
1046
1040
1031
1021
1009
989
956
915
883
871
874
883
887
886
885
883
888
889
885
882
886
891
897
900
897
892
891
889
891
895
900
903
911
926
953
969
982
991
992
996
998
1005
1006
1006
1004
1002
1005
1005
1006
1005
1003
1004
1003
1005
1003
1003
1004
1005
1011
1013
1011
1011
1012
1013
1015
1018
1020
1020
1022
1026
1027
1033
1035
1038
1038
1042
1048
1052
1056
1058
1056
1064
1070
1076
1077
1081
1083
1091
1097
1103
1109
1107
1111
1117
1125
1133
1137
1138
1139
1143
1147
1153
1154
1151
1146
1144
1142
1144
1137
1129
1116
1112
1108
1103
1095
1084
1075
1066
1061
1057
1049
1037
1031
1024
1018
1015
1011
1007
998
994
994
991
985
980
973
975
974
972
971
965
961
959
963
961
960
958
952
950
952
955
953
951
950
950
954
958
955
951
948
949
950
953
952
951
946
944
947
948
946
944
940
944
944
944
944
945
942
940
941
946
945
941
944
942
946
945
946
944
941
938
945
947
947
944
942
940
944
946
947
944
943
943
946
949
945
945
942
941
946
948
949
945
944
945
947
948
950
946
946
945
948
950
951
946
944
941
944
946
951
949
946
945
949
948
951
949
947
946
951
953
951
950
948
948
949
950
953
951
949
946
949
951
953
951
948
947
948
949
951
950
947
946
949
950
954
950
946
944
948
952
954
954
948
947
950
954
955
951
952
952
953
956
957
955
951
950
952
958
957
958
953
953
956
959
957
959
956
957
958
961
961
961
961
960
961
963
962
961
958
962
963
965
963
961
961
960
963
967
963
962
960
961
962
964
963
962
960
959
960
963
965
964
959
960
962
965
964
960
961
960
962
961
965
967
960
960
962
965
965
963
963
963
965
970
973
971
973
972
976
978
980
979
978
977
975
980
982
982
981
981
977
983
981
980
978
977
976
976
977
973
970
963
968
973
972
965
960
962
963
962
964
963
962
960
961
965
967
963
960
960
961
963
961
962
959
957
959
961
964
962
962
962
965
969
975
980
987
992
1004
1021
1043
1062
1083
1113
1142
1169
1190
1212
1234
1257
1266
1249
1216
1172
1122
1080
1049
1025
1002
984
973
972
974
981
981
978
973
976
975
976
970
969
967
965
967
971
970
967
964
966
970
970
970
968
969
971
972
974
972
973
969
970
974
977
978
975
975
972
974
977
978
977
973
978
978
981
982
979
975
981
984
989
990
989
986
988
992
997
996
996
995
997
999
1004
1003
1006
1005
1007
1009
1014
1014
1012
1013
1015
1016
1023
1026
1023
1023
1026
1028
1032
1035
1034
1029
1028
1031
1037
1041
1036
1035
1034
1037
1041
1039
1035
1033
1030
1027
1024
1023
1017
1012
1008
1008
1005
1000
994
989
986
988
988
988
982
979
974
979
981
981
978
973
972
975
978
977
975
968
970
972
974
974
972
971
970
971
973
976
975
973
973
974
979
978
976
975
976
979
982
984
980
977
977
979
985
983
983
979
976
977
980
980
978
977
977
978
979
978
976
971
969
974
977
978
977
975
973
973
972
974
973
971
971
968
973
971
969
968
967
968
968
966
963
959
961
958
960
959
959
953
952
954
955
957
954
949
950
948
953
955
953
952
953
952
957
956
953
951
950
951
957
956
956
953
954
953
955
957
956
952
954
955
954
958
956
957
957
954
957
956
955
949
952
953
954
957
955
952
948
952
957
957
957
960
962
964
970
968
973
972
973
974
980
979
979
979
981
984
984
984
980
977
977
976
976
978
975
968
963
966
967
966
964
960
958
958
961
964
961
958
957
957
961
963
961
958
959
961
965
967
965
963
961
964
965
967
968
964
967
976
986
990
994
1000
1015
1039
1066
1090
1111
1136
1159
1182
1212
1236
1242
1225
1189
1145
1097
1048
1012
983
967
961
964
966
966
961
961
957
959
958
957
952
952
953
956
958
952
951
951
955
958
957
955
949
949
953
955
957
954
954
953
959
960
961
957
955
956
961
964
964
960
959
962
966
966
968
967
967
967
969
973
973
970
974
975
975
975
983
984
984
983
989
992
993
992
992
992
998
1000
1003
1004
1003
1003
1010
1015
1016
1016
1013
1015
1017
1021
1023
1024
1023
1022
1023
1026
1026
1020
1018
1013
1009
1011
1004
998
991
989
986
987
984
977
971
964
965
967
963
960
954
953
958
961
961
955
951
951
956
959
959
956
953
951
954
957
955
953
952
954
956
956
956
956
954
953
956
959
960
958
954
956
956
960
961
959
960
960
959
961
960
959
957
956
960
961
960
957
957
958
956
959
958
958
954
953
951
956
958
957
953
949
952
957
958
954
953
947
952
955
957
954
952
951
953
959
956
955
953
952
955
958
958
958
951
949
953
957
957
958
956
956
958
962
960
958
955
957
957
962
961
955
951
954
956
959
957
956
952
954
956
959
958
959
954
953
957
959
961
959
956
955
960
962
963
964
964
965
971
975
978
977
977
977
982
983
983
981
982
984
985
987
987
982
978
980
982
983
978
974
967
968
969
970
965
961
952
953
957
959
955
951
949
949
952
954
956
955
950
953
956
956
957
957
952
955
959
959
961
962
960
960
967
973
978
981
986
996
1006
1020
1043
1064
1087
1114
1143
1169
1186
1208
1236
1247
1238
1206
1165
1115
1070
1035
1010
990
976
971
969
968
972
971
968
967
961
959
961
960
958
953
955
952
952
953
954
955
955
951
956
957
959
957
954
956
957
958
959
957
958
954
957
958
960
960
959
956
960
965
966
965
962
964
969
974
975
975
973
971
976
981
984
980
981
979
986
989
993
994
994
994
1000
1002
1005
1005
1006
1008
1013
1017
1019
1017
1017
1021
1026
1031
1032
1031
1028
1028
1031
1035
1037
1035
1035
1033
1032
1030
1025
1020
1013
1011
1007
1005
1001
996
986
983
981
982
980
975
971
968
970
973
971
966
963
963
965
966
967
967
965
964
967
968
969
968
965
967
969
972
972
971
968
965
968
970
971
971
969
968
973
976
976
975
972
971
974
980
978
976
974
973
976
978
979
976
974
973
975
979
978
975
974
972
975
975
977
976
970
970
972
975
974
972
969
969
971
973
971
972
971
972
971
975
975
974
970
970
975
974
974
974
968
970
974
974
975
972
973
972
973
977
978
975
972
969
969
971
972
967
969
965
968
970
973
970
967
965
969
972
973
971
968
966
971
974
975
969
967
967
975
980
984
983
984
986
991
990
993
992
987
988
995
999
1001
1000
994
992
993
994
996
993
988
988
990
991
990
984
980
978
977
979
974
973
967
968
972
973
973
967
965
966
967
968
970
968
967
967
970
974
972
967
965
965
971
974
975
973
970
974
983
992
999
1005
1020
1040
1063
1088
1115
1142
1168
1191
1222
1254
1272
1267
1242
1204
1163
1119
1073
1036
1003
980
975
976
977
977
974
970
969
969
966
965
962
964
965
967
967
962
957
956
959
957
959
954
955
955
957
959
954
953
951
954
959
962
961
960
960
961
963
968
968
967
967
968
973
974
972
971
970
970
972
977
980
979
975
979
979
979
979
980
979
982
983
988
989
991
993
997
1000
1006
1004
1007
1006
1007
1009
1016
1019
1020
1021
1025
1030
1030
1028
1028
1023
1024
1026
1029
1032
1034
1030
1031
1030
1029
1025
1019
1012
1007
1006
1009
1004
993
984
981
978
981
977
973
968
964
967
966
968
966
963
961
962
963
964
960
958
960
962
963
962
964
963
964
