1119
1119
1119
1117
1117
1114
1111
1108
1105
1100
1099
1096
1093
1088
1084
1077
1072
1069
1063
1066
1062
1062
1058
1054
1045
1039
1034
1032
1032
1034
1035
1037
1035
1032
1031
1030
1030
1030
1032
1032
1033
1035
1037
1044
1050
1057
1062
1066
1066
1065
1064
1066
1071
1075
1080
1080
1081
1074
1066
1053
1041
1032
1022
1014
1008
1005
998
997
1000
1002
1001
1005
1005
1006
1004
1004
1004
1001
1004
1005
1007
1007
1006
1004
1003
1003
1003
1003
1002
998
993
990
989
1001
1027
1068
1124
1186
1253
1327
1399
1465
1509
1524
1501
1449
1376
1292
1206
1125
1048
983
932
906
902
918
943
969
984
988
985
977
970
961
958
954
960
963
969
973
976
972
969
964
964
962
966
971
973
975
978
977
976
977
980
984
984
986
988
992
995
1003
1011
1018
1022
1024
1029
1029
1033
1038
1046
1058
1069
1081
1088
1094
1099
1104
1110
1119
1128
1138
1145
1153
1159
1164
1169
1178
1186
1191
1200
1204
1207
1210
1219
1224
1232
1238
1237
1239
1239
1236
1237
1239
1237
1235
1234
1227
1225
1223
1220
1218
1216
1209
1199
1190
1187
1181
1179
1177
1176
1172
1164
1154
1146
1138
1133
1125
1118
1108
1101
1095
1090
1087
1084
1080
1074
1065
1057
1054
1054
1053
1053
1055
1055
1055
1054
1051
1052
1051
1053
1054
1056
1058
1063
1067
1071
1080
1089
1097
1102
1103
1103
1103
1099
1095
1095
1099
1106
1114
1122
1136
1152
1173
1201
1233
1271
1316
1366
1414
1457
1497
1526
1550
1563
1576
1584
1588
1590
1583
1580
1573
1564
1558
1551
1546
1541
1529
1521
1505
1482
1449
1405
1351
1289
1227
1170
1113
1065
1021
984
952
922
896
877
861
851
844
839
837
831
825
816
808
802
798
797
793
787
784
779
774
767
761
756
758
751
744
739
733
731
731
730
730
728
723
720
716
714
714
715
720
722
725
728
729
733
737
742
746
751
753
764
771
780
788
797
809
818
824
831
835
847
857
871
888
901
913
920
929
935
943
952
960
965
969
972
973
979
985
987
993
997
1001
1001
998
996
994
993
994
997
999
1001
998
995
991
987
986
984
983
983
985
980
980
976
972
970
970
966
967
968
966
964
961
962
964
966
966
969
968
967
964
961
961
964
969
968
970
973
973
973
970
971
971
971
972
972
971
971
971
972
973
977
977
976
977
976
974
972
973
977
982
984
985
984
983
985
989
994
1000
1008
1016
1020
1020
1022
1025
1029
1030
1033
1033
1026
1023
1015
1001
990
979
970
961
957
954
950
949
948
952
953
955
956
954
954
953
952
952
952
951
950
949
945
946
944
946
943
940
934
924
914
915
927
960
1011
1081
1158
1248
1334
1412
1466
1489
1477
1432
1366
1286
1198
1112
1027
951
880
828
797
796
814
840
865
885
896
900
899
895
888
881
879
878
877
880
880
881
878
879
876
874
873
872
873
872
873
871
869
867
870
874
876
878
879
878
877
877
878
880
881
883
887
890
891
897
901
906
911
913
916
916
920
924
931
938
947
955
961
965
971
974
982
989
996
1006
1013
1020
1027
1033
1040
1051
1060
1067
1069
1075
1079
1084
1090
1097
1103
1110
1111
1114
1113
1114
1115
1115
1115
1112
1111
1106
1105
1102
1098
1095
1089
1085
1079
1072
1062
1054
1047
1044
1042
1036
1032
1028
1023
1018
1013
1010
1009
1009
1011
1009
1005
1006
1007
1010
1011
1012
1012
1011
1007
1007
1009
1012
1013
1023
1031
1037
1039
1041
1038
1039
1042
1044
1048
1049
1051
1051
1046
1042
1036
1025
1016
1001
989
977
966
959
957
961
962
963
958
957
954
953
955
956
955
957
956
956
956
953
957
958
956
952
947
943
936
929
932
940
957
989
1034
1094
1165
1245
1332
1411
1467
1485
1466
1418
1350
1268
1190
1115
1042
972
908
861
842
846
870
902
927
941
939
930
919
907
902
900
902
904
906
907
902
903
899
897
896
898
895
894
890
888
889
890
894
894
895
892
887
886
885
887
889
894
893
894
896
897
898
897
901
904
908
912
916
920
925
933
943
950
957
963
965
965
971
978
990
1000
1011
1020
1028
1038
1043
1049
1058
1066
1072
1075
1082
1087
1091
1097
1105
1113
1119
1123
1123
1119
1117
1116
1119
1121
1126
1129
1126
1125
1121
1118
1116
1115
1112
1109
1106
1100
1093
1091
1086
1082
1078
1073
1070
1063
1055
1051
1047
1043
1040
1040
1037
1033
1029
1027
1020
1018
1021
1023
1026
1024
1025
1028
1026
1027
1029
1035
1039
1042
1045
1046
1048
1058
1067
1075
1088
1095
1101
1099
1102
1100
1103
1105
1107
1107
1104
1098
1090
1078
1067
1057
1050
1044
1040
1040
1039
1042
1043
1049
1050
1054
1054
1053
1051
1048
1046
1046
1049
1053
1057
1060
1058
1060
1057
1055
1053
1050
1048
1043
1043
1048
1060
1087
1127
1183
1252
1331
1410
1477
1523
1538
1519
1470
1404
1333
1257
1179
1108
1044
988
944
923
921
935
959
985
1005
1015
1013
1015
1008
1003
996
995
994
992
994
992
995
995
995
993
989
983
981
977
978
979
981
983
982
980
979
980
982
988
993
994
997
997
999
998
1000
1005
1011
1018
1021
1023
1020
1024
1027
1036
1045
1054
1061
1066
1070
1075
1072
1076
1082
1093
1101
1110
1118
1121
1126
1136
1140
1143
1150
1155
1163
1165
1165
1169
1169
1170
1177
1183
1187
1188
1187
1187
1183
1181
1180
1181
1184
1182
1181
1179
1176
1170
1163
1157
1150
1143
1136
1130
1125
1118
1114
1112
1111
1109
1108
1103
1097
1087
1077
1071
1064
1060
1055
1047
1042
1033
1029
1023
1019
1015
1012
1011
1008
1003
1000
999
1002
1002
1005
1007
1004
1003
1003
1002
1005
1004
1006
1009
1012
1014
1017
1019
1022
1028
1036
1043
1049
1052
1054
1058
1061
1067
1067
1066
1060
1050
1038
1028
1013
1003
997
994
991
986
987
983
977
976
979
980
982
981
982
983
980
979
980
980
984
985
984
981
980
979
978
978
978
976
971
962
957
961
974
1008
1056
1116
1186
1260
1335
1403
1457
1490
1499
1480
1435
1374
1298
1214
1128
1042
962
896
840
811
806
823
849
877
899
913
921
927
925
921
917
911
906
903
901
904
904
908
905
901
900
897
897
896
899
899
901
903
903
902
900
899
898
901
903
904
906
907
904
905
908
913
919
926
932
935
934
932
929
931
935
944
953
960
968
972
973
978
983
988
991
998
1004
1008
1012
1016
1020
1028
1036
1043
1050
1055
1059
1062
1065
1069
1074
1082
1086
1088
1094
1095
1095
1094
1090
1093
1093
1091
1088
1087
1083
1079
1074
1074
1069
1065
1057
1049
1042
1036
1032
1030
1028
1025
1017
1011
1000
989
982
977
974
973
973
971
968
963
960
954
949
948
947
944
942
943
942
942
942
946
946
947
950
948
946
944
942
947
951
955
964
967
972
978
980
983
985
987
992
992
993
994
993
998
994
991
981
969
955
941
930
923
919
918
919
921
921
921
915
912
912
913
912
914
914
915
911
914
915
918
912
912
911
909
904
903
902
898
894
897
907
933
975
1031
1102
1185
1275
1358
1422
1452
1441
1405
1349
1287
1226
1153
1080
1003
929
856
803
775
773
792
824
852
870
875
869
862
855
850
848
849
851
850
849
849
847
846
845
842
839
836
836
834
836
837
838
839
837
835
834
835
832
835
838
840
841
838
840
845
845
848
852
856
858
861
863
868
874
883
892
897
901
902
906
910
917
924
931
941
948
954
961
968
974
983
991
994
1001
1008
1012
1018
1023
1032
1037
1042
1046
1049
1048
1046
1047
1049
1051
1054
1055
1051
1049
1045
1041
1037
1036
1031
1027
1023
1013
1010
1010
1006
1002
999
996
988
983
975
968
965
964
962
961
960
955
950
947
948
946
946
947
945
945
939
939
942
943
948
949
955
958
962
963
966
970
972
976
981
988
988
989
988
985
984
980
980
975
969
957
946
932
922
912
905
903
903
905
904
905
905
905
907
908
910
907
906
904
900
899
898
901
904
907
908
904
900
892
890
884
881
883
898
925
966
1028
1106
1197
1290
1375
1434
1462
1450
1406
1344
1273
1194
1118
1044
971
901
841
803
791
805
831
859
875
882
877
867
858
853
850
848
849
845
845
842
841
838
840
844
842
841
839
835
830
829
827
827
829
830
830
827
825
826
825
824
825
826
826
827
830
831
832
836
838
844
848
848
848
852
851
858
866
873
884
891
894
901
903
910
918
925
933
940
948
953
962
971
981
990
999
1007
1013
1013
1018
1023
1029
1037
1043
1048
1046
1049
1047
1045
1048
1051
1050
1050
1050
1045
1042
1040
1040
1038
1037
1032
1027
1017
1012
1009
1005
1004
1003
996
995
988
979
970
967
962
957
956
950
948
946
945
941
945
944
942
941
937
933
933
935
940
945
951
953
958
960
965
967
969
973
975
977
980
981
983
981
980
970
961
946
934
923
915
910
907
910
910
910
911
910
909
910
910
911
912
913
912
910
911
914
915
916
916
914
912
909
907
901
898
896
893
896
909
938
981
1046
1125
1216
1311
1394
1445
1452
1420
1362
1281
1193
1114
1043
976
911
858
822
818
832
855
877
893
894
887
878
869
864
861
858
861
858
861
860
860
858
859
854
849
844
842
841
844
844
848
847
846
844
842
840
839
841
842
839
840
842
845
850
854
859
861
861
861
864
869
879
888
900
908
917
920
930
934
945
957
968
979
987
998
1009
1018
1031
1040
1050
1057
1061
1066
1073
1077
1088
1096
1104
1107
1108
1104
1103
1102
1103
1103
1102
1101
1099
1103
1105
1106
1103
1104
1097
1092
1088
1081
1074
1072
1068
1065
1059
1055
1051
1048
1044
1037
1034
1028
1020
1015
1008
1004
1002
996
995
997
995
992
988
984
985
985
987
991
994
997
996
995
994
995
998
1003
1010
1021
1028
1031
1033
1036
1036
1043
1048
1052
1053
1054
1047
1040
1031
1022
1013
1005
997
990
982
975
969
967
965
967
970
974
974
974
972
969
969
969
970
969
969
969
967
967
967
968
967
968
969
971
968
962
959
963
982
1018
1070
1137
1211
1292
1372
1432
1473
1480
1448
1386
1304
1212
1123
1040
968
909
864
835
828
836
855
878
903
918
929
933
930
924
918
912
907
903
902
903
903
903
902
900
896
895
892
893
891
891
889
890
891
891
897
899
902
904
903
903
900
901
902
906
914
919
925
931
932
935
938
943
948
954
963
968
972
978
986
998
1004
1014
1016
1020
1021
1023
1028
1034
1041
1056
1065
1074
1080
1083
1088
1091
1096
1098
1101
1100
1100
1099
1104
1106
1106
1104
1103
1098
1094
1088
1083
1079
1074
1070
1066
1059
1057
1055
1051
1046
1041
1036
1025
1020
1013
1009
1005
1000
998
991
979
972
966
961
954
953
951
947
946
943
939
934
933
931
932
934
934
930
934
933
934
935
939
942
941
940
938
935
934
932
934
944
953
960
966
972
976
983
989
994
997
997
998
998
997
999
997
990
981
966
949
934
926
921
925
928
927
930
925
920
910
900
894
890
893
902
921
952
986
1032
1081
1128
1174
1219
1262
1299
1333
1367
1395
1419
1437
1453
1465
1486
1502
1514
1527
1536
1543
1541
1541
1533
1518
1490
1443
1376
1293
1195
1090
985
895
829
800
794
808
821
829
826
813
798
783
773
766
767
765
764
762
759
753
749
744
742
736
734
729
719
713
711
708
708
706
702
698
693
687
682
676
671
673
673
673
673
664
661
659
658
659
661
662
659
659
662
663
670
673
685
692
697
701
704
706
712
719
726
736
748
754
762
767
777
785
792
801
813
822
829
838
846
853
859
867
875
882
887
889
893
898
904
907
912
917
918
918
916
911
909
903
904
905
903
903
899
896
891
888
883
880
877
872
866
863
863
858
857
854
851
850
847
842
837
833
829
833
835
839
843
845
843
841
838
834
839
840
844
846
846
850
853
854
858
864
869
874
876
876
878
881
881
889
893
899
899
899
896
885
876
865
855
849
844
838
832
828
825
820
822
824
824
822
822
821
820
819
823
827
829
830
831
828
826
826
824
827
828
826
822
815
809
812
828
864
912
975
1054
1143
1235
1317
1380
1406
1390
1339
1264
1172
1073
979
894
817
759
724
719
730
757
784
802
808
804
798
787
778
775
773
774
778
777
776
774
771
764
761
761
764
765
765
766
766
767
764
763
764
762
761
761
761
764
765
769
774
777
777
779
780
780
785
787
796
799
807
812
816
821
827
830
839
846
852
858
865
876
885
894
907
914
919
925
927
930
938
946
958
966
974
979
980
987
989
993
994
997
998
997
997
992
995
998
998
999
993
989
982
974
970
965
965
964
958
954
948
940
934
928
926
921
915
905
901
899
897
897
897
897
896
894
891
887
881
881
885
887
889
892
892
892
894
897
902
906
909
912
914
916
917
921
926
930
931
930
922
913
905
894
885
878
872
867
860
858
855
854
853
856
856
858
856
853
854
853
855
858
859
860
857
855
852
856
859
859
859
860
856
847
843
844
858
887
939
1006
1082
1177
1267
1348
1400
1415
1390
1337
1265
1185
1110
1044
995
949
899
848
808
786
782
795
815
829
837
836
831
826
817
815
808
810
812
815
814
811
807
801
796
796
799
799
801
804
803
799
796
793
791
791
793
797
797
798
797
796
797
797
798
801
801
804
806
807
810
817
821
829
833
836
838
840
842
847
856
866
875
883
891
898
905
910
917
928
935
943
950
955
962
967
976
986
992
999
1004
1007
1009
1012
1014
1021
1027
1031
1033
1038
1036
1033
1031
1031
1028
1030
1028
1027
1023
1019
1018
1015
1011
1010
1010
1007
1001
995
992
986
980
975
971
972
967
959
952
943
937
934
930
931
931
928
926
925
922
920
922
920
923
924
919
917
919
922
928
938
943
946
947
946
948
950
954
960
966
970
968
964
961
956
947
935
929
916
908
900
896
896
896
900
904
908
903
904
900
897
899
903
903
907
905
907
906
905
905
905
905
905
904
899
895
893
892
900
918
950
1000
1067
1151
1244
1339
1417
1460
1463
1424
1359
1281
1195
1119
1049
985
923
868
832
820
830
852
875
895
905
902
896
886
880
878
878
881
884
887
887
883
880
875
873
875
876
878
878
876
876
878
880
881
880
886
884
881
885
885
887
889
896
903
907
914
914
913
915
918
922
931
939
948
953
961
969
974
981
989
997
1004
1011
1019
1027
1036
1046
1054
1063
1070
1074
1081
1086
1094
1100
1108
1113
1121
1121
1124
1125
1128
1131
1135
1136
1139
1137
1137
1135
1131
1132
1131
1132
1129
1124
1120
1112
1104
1098
1097
1095
1094
1094
1096
1091
1086
1078
1070
1058
1050
1046
1041
1036
1030
1025
1021
1017
1011
1006
1003
996
989
983
979
975
975
975
975
975
973
971
973
969
972
973
976
979
981
982
981
982
982
981
983
988
992
999
1005
1014
1020
1024
1027
1029
1031
1032
1036
1043
1053
1068
1091
1120
1150
1182
1214
1249
1287
1328
1372
1413
1450
1481
1506
1528
1544
1556
1563
1565
1561
1554
1543
1532
1523
1515
1509
1505
1503
1498
1487
1470
1445
1405
1356
1298
1238
1179
1122
1072
1031
991
958
924
898
874
857
841
830
818
810
801
794
790
788
788
788
782
778
769
761
752
748
742
739
739
737
734
726
720
716
708
705
704
703
704
701
699
701
699
696
700
700
701
698
697
701
704
706
712
718
722
729
731
735
742
749
757
767
774
785
797
803
812
822
831
837
848
859
868
878
885
889
894
903
911
921
930
937
938
943
944
948
954
961
969
972
973
974
973
973
972
974
975
975
975
972
968
966
962
961
958
959
956
953
950
948
949
948
951
949
947
941
936
933
929
930
929
932
935
936
939
941
941
940
937
937
935
936
934
932
935
938
941
942
942
943
937
938
934
935
938
941
940
938
939
940
943
946
948
952
949
949
944
943
939
944
950
956
962
968
970
973
975
980
985
990
996
999
999
999
1001
997
989
984
975
960
946
934
927
923
927
927
930
931
931
932
931
930
928
928
929
929
929
930
932
934
936
938
938
937
932
924
915
906
903
906
923
954
1001
1062
1141
1231
1325
1406
1462
1476
1452
1399
1324
1239
1153
1071
992
914
843
790
765
762
785
816
844
866
878
880
877
871
864
862
860
861
859
857
856
853
853
851
852
852
850
849
849
847
849
855
856
857
855
852
848
849
848
856
861
863
867
868
867
867
870
874
878
879
882
884
888
890
896
903
909
914
915
918
920
923
923
930
934
941
952
957
961
966
970
973
979
986
990
995
999
1001
1005
1011
1018
1027
1035
1038
1040
1041
1043
1044
1048
1050
1052
1054
1049
1042
1036
1030
1026
1023
1019
1015
1009
1002
995
988
985
979
976
968
960
954
943
938
934
931
930
930
929
926
921
917
913
913
914
914
915
916
918
914
915
916
916
917
918
917
916
916
915
917
921
924
929
932
931
930
930
933
936
941
946
949
954
953
954
955
954
952
945
935
922
907
895
887
884
881
876
878
876
874
868
867
866
870
875
875
879
879
876
875
875
876
875
874
873
869
872
869
866
863
860
861
867
886
918
967
1030
1099
1173
1257
1331
1392
1419
1412
1370
1305
1224
1135
1048
972
899
834
785
751
741
750
773
797
816
827
831
827
821
815
816
816
816
814
815
812
809
807
807
806
807
807
804
804
805
804
806
806
806
803
799
799
800
803
806
810
813
811
811
810
811
816
819
826
830
835
839
841
845
849
854
860
864
870
874
878
886
894
904
913
920
928
933
936
945
952
961
971
977
985
990
995
1001
1009
1012
1017
1019
1020
1020
1021
1022
1026
1030
1029
1029
1025
1020
1012
1010
1008
1006
1002
999
994
991
986
983
979
971
967
963
956
950
944
940
939
937
933
930
927
924
921
920
919
920
922
922
924
921
918
916
922
924
927
931
933
936
941
948
951
959
963
967
967
968
968
966
964
958
951
942
932
922
910
905
903
901
898
896
896
893
894
892
895
898
902
902
901
898
894
892
890
892
895
899
898
898
896
892
889
884
882
884
901
931
983
1056
1146
1249
1346
1419
1454
1441
1388
1308
1216
1125
1045
984
929
880
838
813
805
815
838
857
869
873
868
866
858
856
855
855
852
849
848
847
846
845
843
841
840
839
838
840
841
