962
961
960
959
959
958
959
959
961
959
962
962
963
962
959
960
958
957
957
959
960
961
961
962
962
963
959
959
958
958
957
961
964
968
970
971
973
971
971
970
968
971
973
976
979
980
978
978
973
971
968
967
966
967
965
963
963
963
964
964
964
963
959
956
954
953
950
951
951
953
955
959
959
959
957
956
956
955
956
954
955
952
951
948
953
961
980
1002
1034
1075
1119
1160
1189
1189
1158
1098
1033
974
939
932
939
958
972
981
984
981
977
972
970
967
966
963
963
963
963
963
964
964
964
964
967
965
965
963
962
962
962
960
963
963
966
965
966
969
968
967
966
966
966
965
968
968
970
972
971
971
970
969
969
969
968
968
971
972
973
974
974
974
973
972
972
970
971
972
975
975
975
975
976
977
975
975
974
974
973
974
975
976
979
979
979
980
979
979
979
978
979
979
982
985
987
990
991
992
994
991
991
989
990
992
993
994
993
992
991
991
988
986
982
980
978
977
977
978
978
980
982
987
990
992
997
999
997
988
966
930
886
837
795
760
736
719
709
701
699
700
704
712
724
739
755
770
787
798
813
825
834
845
849
855
861
863
866
868
870
872
873
877
880
892
910
932
956
977
994
1006
1011
1011
1012
1011
1011
1012
1016
1021
1027
1032
1034
1035
1037
1037
1037
1038
1039
1042
1045
1048
1054
1057
1059
1062
1061
1063
1066
1067
1067
1069
1072
1078
1081
1085
1088
1091
1093
1094
1095
1098
1100
1105
1107
1113
1118
1124
1126
1130
1132
1133
1129
1133
1133
1134
1133
1131
1130
1129
1125
1120
1116
1113
1106
1100
1095
1092
1088
1086
1081
1079
1074
1068
1063
1058
1054
1050
1045
1041
1039
1037
1035
1032
1027
1024
1021
1018
1014
1009
1006
1004
1003
1000
999
997
996
993
991
989
983
983
980
978
979
979
978
976
975
976
974
972
969
967
966
966
966
967
967
969
966
966
965
965
962
961
960
960
962
959
962
962
962
961
960
958
956
957
956
956
954
955
955
960
958
960
958
956
956
956
954
953
955
956
957
958
959
957
955
954
954
951
953
952
952
952
951
953
953
954
954
953
951
949
949
946
948
950
951
952
954
954
951
950
949
948
949
947
949
951
953
953
952
954
954
951
951
950
949
948
950
950
952
950
950
948
949
948
949
948
949
948
949
950
951
953
954
951
952
947
948
949
947
948
951
950
952
954
953
952
951
950
949
947
948
948
948
949
950
949
952
953
953
950
950
949
948
950
948
950
953
953
954
953
953
949
949
948
948
949
951
952
953
954
953
954
952
951
949
949
950
948
948
951
952
951
952
952
953
954
952
954
955
956
958
960
961
961
965
968
976
983
992
1004
1014
1022
1024
1015
990
953
906
863
824
793
770
757
748
741
742
742
741
743
745
750
757
764
773
781
793
807
820
834
843
851
852
856
855
858
857
862
866
869
877
884
890
895
906
919
937
955
972
986
997
1001
1004
1006
1006
1007
1008
1011
1013
1015
1016
1019
1017
1020
1023
1025
1028
1031
1033
1036
1038
1038
1038
1041
1041
1046
1047
1047
1052
1055
1058
1064
1064
1066
1069
1071
1075
1081
1085
1090
1094
1100
1104
1109
1111
1114
1117
1120
1125
1128
1134
1139
1145
1150
1153
1158
1159
1159
1161
1165
1165
1165
1168
1168
1170
1170
1169
1169
1165
1159
1155
1150
1147
1143
1143
1138
1135
1130
1126
1119
1115
1108
1102
1096
1090
1084
1081
1077
1074
1071
1065
1063
1056
1052
1043
1038
1035
1029
1027
1024
1022
1020
1018
1015
1012
1008
1003
1001
999
996
994
994
994
994
992
991
989
988
985
984
984
982
983
986
987
992
994
1002
1011
1018
1031
1043
1056
1070
1090
1109
1127
1147
1166
1182
1195
1208
1219
1232
1243
1259
1270
1281
1291
1298
1301
1304
1302
1301
1300
1295
1291
1284
1285
1289
1293
1293
1282
1262
1225
1178
1125
1067
1015
975
947
931
924
922
919
914
907
900
892
886
882
879
875
876
873
873
869
867
861
859
858
856
854
852
852
851
847
846
843
841
840
835
830
827
823
821
818
816
815
814
810
806
802
798
793
789
785
779
777
774
772
770
767
763
759
753
750
745
743
739
738
737
735
735
736
735
735
734
733
734
736
737
739
742
748
753
757
763
765
771
776
782
789
795
804
813
819
828
833
842
847
854
859
866
872
876
884
890
894
900
902
904
906
908
912
916
922
931
946
959
969
979
978
963
935
896
849
806
769
743
727
714
706
703
701
703
704
708
712
722
729
739
752
765
779
792
806
816
823
826
826
827
828
831
837
842
846
853
858
864
866
870
878
889
907
927
950
971
983
992
998
1002
1003
1004
1003
1005
1006
1009
1011
1016
1019
1021
1025
1028
1029
1030
1033
1035
1037
1039
1042
1047
1050
1054
1058
1061
1065
1067
1073
1075
1079
1081
1085
1090
1097
1104
1107
1113
1117
1119
1121
1124
1127
1130
1134
1137
1141
1146
1147
1146
1146
1141
1141
1139
1135
1132
1130
1129
1128
1128
1130
1130
1132
1126
1113
1085
1046
993
937
885
847
821
800
786
774
762
752
748
745
746
749
753
758
764
772
779
792
807
822
834
841
849
855
860
866
869
868
871
870
872
874
879
882
890
903
917
936
955
970
984
993
996
999
1001
1001
1003
1007
1011
1013
1017
1018
1020
1022
1022
1022
1024
1024
1027
1026
1031
1035
1036
1039
1040
1041
1041
1044
1046
1048
1051
1056
1060
1062
1066
1067
1070
1072
1075
1079
1079
1078
1079
1080
1081
1080
1082
1083
1085
1087
1088
1085
1077
1055
1020
972
917
864
817
783
758
741
727
718
712
714
719
729
738
748
761
773
786
798
814
831
841
851
856
858
863
866
868
870
875
878
883
891
904
923
941
962
982
996
1007
1015
1017
1019
1018
1020
1020
1021
1026
1031
1037
1041
1045
1047
1050
1053
1054
1055
1057
1059
1063
1064
1068
1072
1075
1078
1082
1085
1087
1086
1086
1089
1090
1094
1099
1102
1105
1105
1107
1104
1103
1101
1097
1094
1091
1089
1087
1084
1079
1078
1073
1070
1066
1063
1064
1058
1048
1031
997
951
899
846
801
766
743
728
721
715
713
719
723
729
738
747
757
769
779
791
801
813
826
835
842
847
850
852
853
856
858
858
863
869
874
881
892
906
927
952
977
994
1007
1014
1015
1013
1013
1013
1016
1020
1025
1028
1031
1034
1034
1035
1037
1038
1037
1041
1048
1050
1056
1060
1062
1065
1065
1065
1067
1072
1072
1075
1079
1084
1088
1092
1096
1099
1099
1101
1100
1103
1103
1104
1107
1105
1107
1107
1107
1104
1099
1095
1090
1084
1080
1074
1072
1070
1069
1065
1064
1060
1054
1041
1018
988
945
898
855
816
787
768
754
744
739
735
733
733
736
743
747
757
766
776
789
801
812
821
830
839
844
847
853
855
861
866
870
873
877
882
888
896
912
934
961
989
1009
1025
1032
1035
1033
1029
1025
1023
1024
1028
1031
1035
1035
1036
1038
1039
1038
1038
1038
1037
1037
1039
1042
1044
1050
1054
1055
1056
1060
1059
1060
1064
1063
1068
1070
1072
1077
1082
1084
1085
1088
1089
1089
1090
1090
1092
1093
1094
1093
1092
1090
1087
1083
1077
1071
1068
1062
1058
1053
1050
1045
1043
1039
1032
1028
1024
1023
1023
1025
1028
1027
1018
998
961
915
862
817
784
763
750
741
742
738
741
742
742
743
745
750
758
768
782
797
813
826
836
843
845
848
849
852
853
855
862
866
871
881
894
911
933
957
979
997
1006
1010
1011
1010
1010
1012
1017
1023
1026
1029
1033
1035
1036
1037
1039
1040
1045
1050
1054
1059
1060
1066
1066
1070
1071
1074
1079
1082
1087
1093
1096
1102
1106
1111
1114
1117
1116
1119
1121
1122
1125
1124
1126
1125
1125
1121
1119
1114
1108
1103
1099
1092
1089
1085
1083
1082
1077
1072
1067
1057
1040
1014
977
931
884
842
807
785
770
762
756
750
746
739
736
736
740
750
762
775
787
799
814
825
836
843
852
855
857
863
864
866
871
877
878
890
904
923
949
970
988
1001
1010
1016
1017
1017
1018
1019
1018
1019
1019
1024
1026
1028
1029
1031
1031
1036
1037
1039
1039
1040
1041
1043
1047
1049
1054
1057
1060
1064
1066
1069
1073
1074
1078
1080
1083
1086
1089
1095
1099
1105
1109
1112
1112
1111
1109
1104
1104
1104
1104
1105
1101
1100
1097
1090
1084
1077
1071
1064
1057
1054
1052
1047
1045
1044
1038
1030
1015
989
952
903
857
821
793
776
766
758
752
748
746
745
742
743
746
752
761
773
784
798
812
826
836
841
846
849
850
853
856
860
863
869
872
877
883
890
903
919
939
963
986
1002
1011
1016
1016
1016
1013
1012
1016
1019
1023
1027
1032
1035
1036
1039
1043
1044
1045
1047
1048
1052
1055
1059
1063
1068
1071
1076
1077
1079
1081
1083
1086
1088
1093
1099
1100
1104
1105
1107
1107
1107
1103
1102
1101
1096
1090
1089
1085
1083
1083
1077
1073
1067
1055
1040
1015
977
927
877
832
797
774
759
749
741
734
730
728
727
733
742
748
762
778
795
811
826
838
846
851
855
860
864
866
869
870
875
878
886
896
914
937
962
981
998
1009
1015
1017
1019
1018
1017
1019
1018
1023
1024
1027
1031
1031
1036
1040
1042
1044
1046
1047
1047
1047
1048
1055
1058
1062
1067
1070
1072
1074
1077
1077
1080
1082
1085
1087
1091
1093
1098
1100
1105
1105
1106
1105
1104
1103
1105
1101
1100
1097
1098
1096
1093
1086
1083
1077
1071
1064
1061
1056
1052
1049
1047
1043
1038
1035
1029
1024
1018
1014
1010
1004
1003
1000
1000
998
994
992
990
987
988
988
986
984
986
984
985
984
986
987
986
985
985
978
976
973
972
967
968
969
966
965
963
960
960
959
957
955
954
953
952
953
951
950
947
947
945
944
943
945
944
946
947
947
950
949
948
945
945
944
943
942
939
937
935
935
943
956
975
997
1027
1059
1095
1132
1158
1169
1155
1114
1056
999
951
924
918
929
943
957
963
965
965
962
962
956
953
947
945
945
942
942
944
944
946
947
946
946
945
945
944
943
943
942
944
943
944
944
946
945
944
942
942
938
939
939
941
940
941
941
940
940
941
936
936
935
933
933
932
934
935
936
936
938
935
934
931
932
929
929
928
931
932
933
934
933
935
934
932
931
932
932
933
934
937
938
941
942
942
942
944
945
947
949
955
959
963
966
968
970
970
969
968
967
967
966
965
966
966
965
964
965
961
960
957
955
954
954
954
953
954
954
955
953
952
948
947
945
946
945
947
945
946
946
945
944
945
945
944
942
941
942
942
943
944
945
946
945
943
943
942
941
939
941
941
942
944
942
943
942
939
938
938
937
937
937
939
939
941
940
940
941
941
939
939
938
937
935
935
937
936
939
939
940
943
940
942
940
941
944
946
947
948
950
951
950
950
949
950
953
955
954
953
951
951
952
952
952
949
948
948
944
943
942
943
943
941
942
939
939
936
933
933
933
932
932
933
933
935
939
940
943
946
953
960
970
981
991
995
990
971
943
906
871
843
826
822
829
841
855
866
870
864
858
853
853
858
868
886
902
917
931
938
947
953
958
960
960
960
958
957
959
959
959
962
964
966
966
969
971
972
972
971
970
972
972
974
976
978
982
982
983
981
982
980
982
980
982
985
986
988
989
990
992
992
992
994
996
995
997
1002
1004
1006
1010
1014
1013
1016
1015
1018
1021
1022
1024
1028
1031
1033
1038
1041
1042
1042
1045
1045
1048
1048
1050
1051
1051
1054
1055
1058
1058
1058
1057
1055
1055
1055
1052
1053
1051
1051
1051
1047
1044
1040
1036
1031
1027
1021
1018
1015
1014
1013
1011
1008
1005
1002
997
993
991
988
983
981
981
980
978
976
975
971
967
965
965
962
961
960
960
959
961
961
959
958
956
954
951
949
949
949
949
950
950
948
948
947
945
943
944
940
938
943
943
943
945
944
944
943
941
939
938
937
936
937
938
939
942
941
939
939
937
936
935
934
932
934
935
937
937
937
936
935
936
933
933
935
933
933
936
936
939
939
937
936
935
933
934
933
936
940
943
946
948
948
947
946
944
943
947
949
954
957
960
967
974
984
995
1004
1007
998
972
929
882
839
800
771
749
733
722
713
708
708
712
713
716
725
732
742
751
760
772
781
792
803
813
823
828
833
837
839
844
846
851
852
855
860
866
870
875
882
896
916
938
958
974
987
993
993
994
993
994
997
1000
1004
1008
1012
1013
1015
1015
1015
1016
1019
1021
1023
1026
1028
1031
1036
1039
1039
1041
1044
1043
1047
1051
1054
1059
1064
1067
1070
1072
1075
1077
1080
1082
1086
1091
1095
1100
1106
1110
1113
1117
1120
1121
1123
1123
1126
1127
1128
1133
1133
1136
1136
1134
1131
1128
1124
1121
1119
1115
1114
1113
1111
1109
1107
1101
1098
1092
1088
1086
1081
1075
1073
1070
1069
1065
1062
1058
1053
1049
1044
1039
1034
1030
1027
1026
1023
1024
1019
1018
1013
1009
1003
1002
995
992
990
990
987
984
986
981
978
976
974
970
968
966
965
966
966
966
966
964
962
960
958
956
954
952
954
953
955
955
956
954
952
950
951
949
949
945
945
947
949
951
952
950
948
948
945
944
943
942
943
944
943
946
944
945
945
944
942
941
939
940
939
941
941
943
945
943
942
939
937
936
934
934
935
936
937
939
942
941
941
938
935
939
936
936
937
937
937
938
940
941
941
939
938
937
938
940
945
948
951
957
962
971
979
990
1003
1013
1017
1008
986
952
910
868
829
799
777
761
749
739
734
731
731
731
733
734
739
743
750
759
770
780
795
807
820
833
840
845
848
849
854
855
857
859
865
868
875
884
895
912
931
953
972
985
992
996
996
996
996
999
1003
1005
1010
1015
1014
1013
1015
1014
1017
1020
1020
1025
1028
1030
1032
1037
1039
1039
1041
1041
1044
1047
1053
1056
1061
1066
1070
1072
1077
1080
1082
1086
1088
1091
1097
1102
1108
1110
1114
1119
1121
1122
1122
1124
1123
1124
1124
1126
1126
1128
1125
1123
1120
1118
1115
1111
1106
1104
1101
1100
1096
1095
1094
1089
1085
1079
1077
1070
1066
1060
1058
1056
1054
1049
1047
1044
1039
1034
1029
1025
1020
1016
1012
1011
1009
1008
1004
1000
997
993
990
986
981
978
975
975
975
973
970
970
967
964
960
959
955
951
953
953
953
953
951
952
949
949
946
944
944
943
945
945
947
947
945
946
945
944
942
940
940
938
938
940
940
941
941
943
941
938
937
936
935
935
936
938
939
940
941
939
941
937
937
935
933
933
933
935
936
936
938
937
937
937
934
933
932
931
934
935
935
937
937
938
938
936
934
932
934
932
935
938
941
948
955
965
978
989
997
999
989
964
928
886
847
813
785
764
751
742
733
726
724
724
725
728
735
743
751
760
767
778
790
799
818
831
843
852
856
855
855
858
860
859
863
868
870
874
878
887
903
923
946
965
980
989
991
990
989
988
989
993
998
1003
1006
1009
1010
1010
1012
1013
1014
1013
1017
1022
1025
1027
1031
1032
1036
1039
1038
1040
1043
1045
1048
1052
1057
1060
1065
1069
1072
1073
1076
1079
1082
1086
1089
1095
1100
1104
1108
1113
1115
1118
1120
1119
1122
1122
1123
1124
1124
1123
1123
1123
1120
1117
1111
1106
1102
1098
1096
1092
1088
1088
1083
1080
1077
1070
1066
1060
1057
1051
1048
1047
1042
1040
1035
1033
1028
1025
1021
1016
1010
1006
1003
1000
996
998
991
989
987
983
979
974
971
969
965
967
963
964
962
960
959
956
953
949
949
947
946
947
948
947
946
946
946
944
941
938
937
937
937
936
937
940
939
937
937
936
934
932
931
931
929
932
932
934
935
934
936
933
932
932
929
929
931
932
933
936
935
933
933
931
930
928
928
927
928
930
930
929
931
930
929
929
928
928
925
926
926
927
928
930
928
929
928
928
927
925
924
925
925
926
926
928
928
928
929
929
927
929
931
934
942
949
962
976
992
995
988
965
926
881
837
797
767
749
735
727
719
718
715
714
712
713
715
719
729
739
750
762
778
790
804
816
825
830
833
836
840
844
848
851
857
864
873
879
891
903
921
940
958
973
986
991
992
990
991
989
990
992
994
994
995
999
999
1002
1006
1008
1012
1014
1013
1015
1017
1016
1022
1026
1030
1034
1037
1041
1046
1045
1048
1050
1052
1056
1059
1064
1068
1073
1079
1082
1083
1088
1090
1094
1097
1099
1105
1111
1112
1116
1120
1122
1124
1125
1124
1122
1121
1120
1120
1119
1120
1115
1114
1111
1108
1104
1100
1094
1090
1086
1083
1080
1077
1075
1072
1067
1062
1056
1053
1046
1042
1038
1035
1032
1030
1027
1024
1020
1015
1011
1005
1001
996
993
990
988
984
984
982
979
975
972
969
963
961
957
955
955
956
953
949
947
946
946
942
939
938
935
937
936
936
936
936
932
935
933
930
929
925
925
925
926
926
925
927
927
924
925
923
923
923
923
920
922
924
924
924
923
921
920
920
919
917
916
917
918
920
920
921
920
921
921
919
917
916
917
915
916
917
918
919
921
920
919
918
917
916
916
918
923
926
934
945
955
968
974
975
961
937
901
858
820
787
760
741
730
719
711
704
701
700
699
702
705
711
719
727
738
748
758
769
779
790
801
809
815
821
824
827
831
834
836
835
838
841
847
852
860
872
889
908
928
946
958
966
971
974
974
976
981
982
988
990
993
995
994
994
994
996
997
1001
1004
1007
1011
1014
1017
1020
1020
1022
1021
1025
1024
1029
1034
1039
1045
1050
1054
1056
1058
1062
1063
1067
1071
1077
1082
1087
1094
1098
1103
1106
1109
1111
1112
1114
1116
1116
1117
1120
1119
1119
1117
1114
1110
1106
1099
1095
1091
1088
1086
1081
1078
1073
1070
1064
1062
1055
1049
1044
1038
1035
1032
1029
1026
1022
1020
1015
1013
1006
1002
998
994
990
988
986
983
981
979
974
972
969
967
965
961
957
956
953
953
951
949
948
944
940
938
936
935
933
932
931
932
932
932
929
930
930
926
924
924
923
922
923
924
925
924
924
923
921
919
919
918
917
915
916
917
918
921
923
922
919
919
917
917
916
918
917
918
919
920
920
920
917
916
914
914
915
916
918
917
917
918
916
915
915
913
914
915
913
915
915
916
917
918
916
917
916
914
913
912
911
911
913
912
916
916
916
913
911
911
910
909
911
914
913
