1105
1106
1106
1107
1107
1105
1105
1103
1102
1101
1098
1096
1090
1087
1082
1076
1071
1067
1060
1054
1050
1048
1047
1043
1041
1036
1032
1027
1023
1019
1012
1010
1008
1010
1007
1006
1004
1002
998
998
999
994
993
994
991
991
996
994
993
992
993
990
989
988
989
992
991
990
988
993
990
991
986
989
988
988
988
988
988
989
990
990
990
987
986
986
986
985
985
985
984
983
983
988
987
984
984
982
982
981
977
978
975
975
977
977
980
978
977
975
974
973
973
975
975
978
979
979
979
980
979
978
976
976
977
974
980
983
988
994
998
1005
1012
1021
1027
1039
1050
1065
1085
1107
1133
1161
1190
1219
1243
1261
1275
1277
1269
1254
1231
1201
1171
1139
1106
1072
1040
1009
985
966
951
942
940
940
938
937
934
930
926
919
915
911
907
908
907
911
909
912
914
911
910
908
903
900
898
894
894
893
892
890
890
888
888
888
887
884
883
882
879
877
876
874
873
869
867
864
861
857
852
850
848
847
845
845
844
841
838
837
833
830
827
828
830
829
832
833
840
841
843
846
849
848
853
858
866
872
878
885
893
897
902
904
911
913
916
920
924
930
934
940
943
944
945
946
948
946
946
948
951
953
955
956
959
957
957
955
953
951
953
954
953
955
954
957
956
953
951
949
951
949
949
947
948
951
951
954
952
952
952
949
945
948
949
951
951
959
960
964
965
963
959
953
946
938
936
937
942
954
971
992
1007
1019
1023
1024
1021
1010
994
972
943
913
885
866
851
834
823
806
789
775
760
756
758
766
776
791
803
812
821
828
834
843
847
854
860
871
883
897
905
912
919
925
929
933
937
942
946
954
959
964
970
972
972
972
973
974
976
976
978
979
978
978
979
978
977
976
976
975
978
976
980
985
988
991
995
997
999
998
1001
1003
1004
1002
1007
1009
1012
1018
1023
1026
1029
1028
1032
1037
1038
1041
1047
1053
1057
1060
1064
1069
1071
1074
1075
1078
1079
1080
1081
1083
1086
1088
1087
1087
1086
1084
1082
1078
1078
1074
1069
1070
1066
1063
1060
1057
1050
1044
1039
1035
1027
1023
1019
1015
1012
1012
1010
1003
1000
996
991
985
981
979
981
980
977
975
977
975
971
973
973
969
970
969
970
970
971
970
971
970
971
967
966
965
963
964
964
965
966
969
970
970
969
966
964
962
962
962
963
962
962
966
966
967
964
963
963
963
961
960
961
962
960
963
962
961
957
957
958
957
955
956
957
957
956
958
956
955
956
957
956
956
955
957
958
958
960
964
969
973
977
986
995
1001
1012
1026
1043
1059
1084
1107
1136
1161
1186
1208
1223
1233
1234
1227
1214
1195
1172
1144
1116
1085
1061
1038
1012
991
970
955
946
938
932
929
929
925
921
915
912
905
905
901
897
896
895
893
893
891
893
888
884
881
882
880
880
882
883
883
882
881
875
870
870
866
863
864
863
866
865
867
867
867
861
859
855
851
848
847
845
846
845
845
844
840
838
834
830
826
821
819
819
821
817
819
821
820
818
814
814
814
813
815
814
817
820
824
827
828
831
831
833
833
834
835
839
844
846
855
860
866
869
874
877
882
883
889
892
898
899
902
906
907
910
910
913
915
916
918
921
917
920
922
926
925
924
923
922
922
921
920
922
921
923
925
922
922
923
922
919
919
916
915
914
916
915
915
917
918
918
917
919
918
919
918
922
922
922
921
915
910
902
898
892
889
891
902
914
928
943
957
966
967
967
962
952
940
920
893
867
841
822
808
795
786
775
765
751
747
745
749
759
771
783
795
809
817
825
832
840
852
862
874
886
896
903
914
925
930
939
944
947
950
953
957
957
959
962
962
962
962
962
964
965
962
961
960
959
959
959
959
961
963
964
963
963
967
966
966
969
974
977
979
982
983
983
986
983
986
988
993
995
1002
1005
1011
1019
1024
1029
1034
1036
1039
1041
1048
1053
1057
1062
1062
1063
1064
1062
1058
1058
1056
1052
1049
1046
1044
1042
1037
1034
1032
1024
1020
1015
1010
1004
1002
998
995
992
989
987
982
981
977
972
971
969
967
963
964
966
967
965
962
962
958
958
955
954
953
953
952
955
958
955
956
956
954
955
954
956
954
953
952
955
957
958
959
958
957
957
955
954
954
954
955
957
957
959
958
958
956
955
954
952
950
948
950
950
952
953
955
955
952
954
951
950
949
945
945
949
950
951
951
950
948
948
948
948
946
946
946
947
948
949
949
949
948
947
948
947
947
949
949
952
954
952
954
956
956
961
964
969
974
979
988
995
1007
1019
1033
1051
1069
1092
1116
1143
1171
1190
1208
1220
1222
1218
1206
1179
1154
1122
1087
1058
1028
1004
987
969
956
945
938
930
926
921
916
911
907
906
901
901
898
898
894
893
889
889
886
884
884
884
885
887
888
889
888
889
884
883
880
876
875
874
873
871
871
870
867
872
871
868
867
867
865
862
862
860
861
860
858
855
849
847
843
839
838
839
836
834
835
833
829
826
826
822
821
820
815
815
819
820
821
823
822
822
824
828
828
832
830
836
840
845
850
855
859
864
870
873
876
881
884
892
895
900
907
911
913
916
917
918
919
921
919
922
926
926
927
930
931
931
932
932
931
933
930
932
932
932
935
935
933
933
931
929
927
928
925
925
926
926
926
925
924
924
924
925
924
924
924
924
927
930
932
936
937
936
936
935
928
924
922
918
916
920
928
939
953
970
985
992
996
992
986
975
956
932
902
873
846
828
809
794
778
762
747
738
734
737
747
758
774
788
801
812
819
828
838
846
857
868
879
888
894
900
904
909
912
917
923
931
939
943
948
955
956
956
955
956
954
954
953
956
955
956
958
962
962
965
964
968
970
970
974
973
975
980
984
986
987
989
991
992
995
997
998
1003
1009
1013
1016
1024
1029
1032
1032
1035
1040
1043
1046
1050
1054
1058
1061
1064
1067
1069
1070
1072
1072
1070
1071
1070
1069
1069
1069
1068
1065
1062
1060
1057
1051
1045
1039
1035
1033
1031
1028
1025
1021
1018
1012
1005
1001
994
989
987
982
982
978
976
976
975
971
968
966
963
963
962
963
965
964
964
965
961
962
960
960
959
957
956
958
961
959
961
959
961
960
960
957
956
955
957
959
960
961
962
964
963
960
960
960
957
956
957
957
957
960
962
959
961
957
957
956
952
951
951
953
955
953
955
953
954
953
952
951
950
947
949
951
952
953
952
954
956
957
959
961
964
969
972
982
992
1004
1015
1031
1048
1066
1088
1117
1146
1174
1201
1227
1246
1259
1261
1252
1239
1215
1187
1159
1132
1103
1074
1048
1023
1000
979
959
944
935
927
921
916
912
912
907
904
902
898
896
892
889
887
885
884
885
885
887
886
884
885
886
882
881
875
875
870
867
865
862
862
862
863
864
859
862
858
856
850
844
842
842
839
837
837
832
833
831
824
821
816
813
811
812
808
809
807
808
804
804
802
800
803
804
805
808
809
811
815
818
818
819
822
824
831
832
838
842
847
853
857
863
865
871
875
881
884
886
890
896
898
905
909
913
916
914
918
917
917
918
916
917
919
919
925
926
926
927
926
923
921
919
920
919
921
922
922
922
922
921
919
915
914
914
915
916
917
916
918
918
918
916
914
915
915
915
918
919
924
928
930
933
933
930
928
922
915
910
910
910
913
921
934
952
969
984
992
995
992
985
974
954
927
894
864
839
817
798
780
761
744
731
723
725
734
742
760
775
788
799
809
817
823
833
839
851
863
875
883
889
895
902
904
909
911
917
923
928
935
938
940
942
942
942
942
944
943
941
942
943
943
945
946
946
947
945
944
947
946
947
950
954
957
959
961
965
965
968
965
968
970
970
973
978
981
985
990
994
998
1002
1005
1007
1010
1013
1017
1021
1026
1028
1035
1043
1043
1048
1050
1051
1052
1051
1050
1054
1054
1054
1054
1052
1048
1047
1046
1040
1038
1033
1027
1023
1019
1016
1014
1010
1006
1000
997
993
986
982
977
977
974
973
971
969
967
964
962
956
953
950
951
951
951
954
951
952
951
950
947
946
943
943
944
943
944
943
941
943
942
945
943
942
942
939
937
939
945
944
945
946
943
942
943
941
938
940
943
943
944
945
944
944
944
943
942
941
939
937
938
937
940
944
941
942
938
939
938
936
935
932
935
937
938
941
942
941
941
938
937
938
937
935
938
941
944
951
958
966
970
976
985
995
1010
1025
1043
1065
1090
1120
1150
1178
1200
1215
1225
1219
1205
1181
1159
1130
1099
1070
1043
1015
992
970
948
931
915
908
896
893
894
892
890
891
886
882
878
872
870
868
869
867
868
867
868
867
868
867
865
864
859
858
857
855
852
851
848
846
844
844
842
846
844
840
841
840
840
838
838
838
836
835
831
830
825
821
820
816
817
813
813
812
809
804
804
801
798
796
795
795
795
797
798
798
796
800
799
799
798
799
802
803
809
813
818
824
827
829
834
836
840
844
847
852
858
864
872
877
878
883
883
887
888
888
890
891
893
899
899
902
903
903
899
901
899
900
900
900
901
900
901
903
902
902
902
900
898
896
894
897
897
900
901
901
901
899
897
893
892
890
889
890
890
889
891
896
897
895
895
897
894
896
898
900
903
908
908
914
912
908
905
898
893
891
890
890
896
907
916
932
944
955
957
956
954
943
936
924
908
887
865
841
824
813
797
786
774
759
748
737
734
730
733
738
745
756
763
773
781
789
795
805
813
822
830
841
849
856
863
868
873
876
881
888
894
900
907
914
915
918
920
919
921
921
924
925
928
928
929
930
929
929
928
925
927
928
928
933
935
941
942
946
949
950
950
948
949
948
948
950
956
958
962
967
969
973
975
978
980
982
987
991
997
1001
1007
1012
1014
1017
1020
1021
1023
1025
1028
1033
1034
1037
1039
1041
1039
1039
1038
1035
1029
1027
1026
1024
1020
1018
1015
1013
1009
1004
997
991
984
979
972
971
968
965
964
962
959
955
951
947
944
941
937
937
933
937
935
938
937
936
935
935
932
930
931
929
931
931
934
937
936
931
929
930
927
927
928
929
930
933
933
934
932
933
935
933
932
931
931
930
930
931
932
934
934
935
933
930
927
927
927
928
928
928
931
931
933
931
931
929
926
925
925
930
930
930
930
935
934
940
939
942
944
951
956
964
976
990
1007
1023
1042
1067
1094
1123
1152
1176
1199
1215
1222
1221
1208
1184
1156
1121
1087
1056
1026
1002
979
959
940
928
920
911
906
903
900
896
890
887
884
880
879
875
872
869
870
870
869
870
867
866
865
866
866
864
864
864
863
862
859
858
853
850
848
846
845
844
844
845
845
844
842
837
835
830
828
826
825
822
822
820
818
815
813
808
806
803
801
799
796
795
795
795
793
792
790
790
788
789
789
791
791
793
796
798
801
803
803
805
806
808
812
815
820
827
833
839
843
848
852
856
860
860
866
872
876
880
885
889
892
891
894
896
895
897
898
899
902
904
906
908
908
907
906
906
904
904
903
905
907
906
907
909
908
905
906
906
902
900
901
898
897
900
900
900
900
902
898
899
895
895
896
901
901
904
905
909
910
914
914
913
911
909
904
898
895
892
893
899
908
918
933
949
962
970
974
972
971
963
946
922
896
866
838
814
795
780
760
746
730
715
710
712
719
730
745
760
773
782
790
800
810
819
832
843
854
867
876
883
890
894
897
903
910
916
923
927
929
932
932
933
932
932
933
933
935
937
941
940
940
938
938
937
938
939
943
942
947
952
954
960
964
964
964
965
967
966
972
974
981
986
992
998
999
1003
1006
1010
1015
1018
1022
1024
1031
1036
1043
1048
1051
1055
1056
1057
1055
1056
1054
1052
1051
1051
1049
1046
1043
1041
1038
1031
1025
1019
1015
1011
1008
1005
999
998
992
989
984
979
975
971
966
963
962
960
960
958
957
955
951
948
945
943
941
941
942
940
940
942
941
939
941
939
940
939
937
935
938
939
940
941
941
940
939
938
936
936
933
934
935
936
938
937
939
938
938
938
936
933
935
933
935
935
935
935
934
935
936
934
935
934
931
933
934
933
933
936
936
935
933
931
930
929
932
933
937
940
949
955
960
968
973
980
992
1003
1018
1038
1060
1084
1112
1141
1164
1187
1206
1219
1234
1238
1235
1225
1208
1190
1167
1145
1117
1090
1059
1027
997
967
940
924
910
903
900
897
894
888
884
879
875
867
862
862
857
859
859
861
862
861
858
856
854
849
850
849
850
848
847
845
843
840
836
833
829
828
826
826
826
827
824
826
823
819
816
812
807
802
797
797
794
795
794
792
791
788
784
783
782
779
777
778
775
775
774
776
781
780
782
782
780
783
783
789
794
800
803
814
817
820
826
829
835
840
843
853
860
865
869
872
876
880
882
882
881
882
880
880
884
886
888
894
893
893
892
889
890
888
886
885
889
890
891
890
891
894
892
891
887
888
885
885
885
884
883
885
885
886
882
883
882
881
879
881
883
886
889
890
892
895
900
898
899
902
898
896
894
895
892
891
894
900
910
923
937
950
960
961
960
953
941
922
897
870
841
819
801
784
768
751
730
717
708
701
705
711
724
736
747
760
767
776
785
793
802
814
826
835
844
848
854
858
862
863
871
880
884
890
892
895
896
901
907
905
906
906
909
909
910
913
914
912
912
912
912
909
909
910
912
916
917
921
925
924
923
925
927
932
933
934
938
943
943
947
950
951
954
956
958
960
966
970
977
982
987
994
995
997
1000
1000
1003
1005
1010
1011
1016
1022
1021
1025
1025
1026
1025
1025
1023
1022
1018
1018
1017
1014
1014
1010
1009
1004
1000
994
991
986
982
979
977
975
973
969
967
960
956
950
948
943
938
934
931
929
927
926
924
924
922
918
915
911
908
904
908
909
910
912
913
912
910
909
908
907
907
906
906
907
909
909
910
907
908
906
908
908
906
905
908
908
909
911
912
911
911
908
907
908
906
907
907
909
910
910
911
910
912
915
918
921
925
931
936
943
952
963
973
986
1004
1025
1051
1079
1110
1139
1163
1178
1184
1177
1163
1133
1103
1066
1029
994
960
931
906
888
876
869
866
864
858
855
854
849
844
840
837
835
833
830
829
826
827
825
821
820
825
824
822
821
820
820
818
816
813
809
806
800
799
797
797
798
796
797
794
794
792
790
787
782
779
777
777
775
774
774
770
766
765
762
762
760
756
755
755
756
756
757
758
757
759
760
762
761
763
765
769
775
778
783
788
790
796
801
803
811
815
820
826
832
835
837
842
843
847
848
850
850
853
855
857
859
860
859
860
861
863
861
860
859
859
860
861
864
865
867
865
863
863
862
862
860
858
860
861
861
861
861
861
858
856
855
856
853
855
857
856
856
861
862
860
858
861
859
861
862
863
866
868
873
875
878
881
883
883
876
866
862
858
859
863
868
881
893
911
920
927
926
923
918
907
897
883
865
843
820
801
784
769
756
739
726
713
701
692
691
694
701
710
719
729
738
744
750
758
765
773
783
790
797
803
811
818
825
828
832
837
843
850
853
862
869
876
880
883
885
887
888
886
887
886
889
889
892
891
891
890
890
892
890
889
894
894
898
903
905
907
906
909
911
913
915
915
919
922
926
929
933
936
938
941
943
949
953
957
960
965
970
975
981
985
988
991
994
997
998
999
1003
1004
1008
1010
1010
1012
1010
1011
1009
1008
1005
1006
1003
1000
997
994
993
990
984
978
971
966
962
955
953
952
950
945
944
939
935
931
924
920
917
914
914
914
913
913
914
911
909
908
906
904
904
903
906
906
910
910
911
910
908
908
904
901
901
901
902
905
908
907
910
912
913
913
913
912
910
908
909
907
908
910
912
914
915
915
914
912
908
904
905
904
909
908
912
915
914
912
911
909
907
907
907
904
907
909
909
913
918
922
927
933
937
944
951
963
978
994
1015
1038
1060
1087
1112
1137
1161
1182
1202
1214
1221
1218
1207
1191
1166
1142
1112
1084
1055
1028
996
966
944
920
905
892
883
877
875
876
874
873
869
866
864
860
856
853
851
848
845
844
844
842
841
843
843
844
844
844
844
841
838
834
832
829
826
824
821
818
820
820
817
816
816
810
810
808
806
799
799
796
792
791
791
789
784
782
779
776
772
770
770
769
768
768
763
762
760
757
754
755
756
757
760
762
765
767
771
772
772
772
776
777
783
788
790
797
804
809
812
818
820
823
827
831
835
838
843
846
852
858
860
864
866
866
867
871
872
872
875
877
880
880
882
882
879
883
882
880
882
882
884
883
885
887
887
885
884
882
879
878
880
879
879
878
881
882
884
881
880
878
874
871
874
877
883
887
895
897
897
896
891
889
882
879
875
873
872
869
876
884
896
911
926
940
954
960
962
961
954
940
922
896
867
839
814
794
781
764
749
734
721
713
708
710
717
726
739
749
762
770
780
788
800
814
826
843
851
860
866
873
878
884
888
894
903
909
915
919
921
923
923
922
923
925
926
928
928
929
928
932
935
936
935
935
934
934
936
940
946
949
955
960
960
962
963
965
965
968
971
975
981
985
989
994
998
1000
1002
1008
1012
1016
1021
1026
1034
1038
1043
1049
1049
1053
1056
1056
1056
1056
1053
1052
1051
1050
1047
1047
1044
1037
1035
1030
1023
1018
1016
1008
1005
