949
945
945
943
942
939
941
944
945
945
945
946
944
942
940
939
941
941
944
944
941
948
947
946
950
948
947
952
958
965
972
984
996
1013
1032
1052
1076
1109
1144
1186
1231
1276
1316
1348
1368
1376
1373
1363
1344
1323
1292
1255
1211
1156
1095
1042
992
956
934
921
914
910
907
903
897
892
886
885
879
875
873
870
867
864
862
860
859
858
858
859
861
861
858
860
855
853
848
846
841
838
835
835
836
836
836
834
832
830
824
821
821
820
815
815
813
810
807
805
803
797
792
788
783
782
778
778
775
774
770
769
765
764
760
760
758
759
762
763
762
766
771
772
774
774
777
779
781
785
790
799
801
805
812
818
822
828
832
837
839
842
851
855
861
868
872
874
877
883
886
887
891
893
896
900
901
903
906
909
909
907
906
906
907
907
909
908
909
909
911
908
909
906
905
908
905
906
906
906
905
905
907
905
903
905
903
901
902
903
905
908
911
913
914
912
911
903
901
897
894
902
907
922
939
961
988
1017
1043
1064
1082
1096
1105
1109
1105
1093
1071
1045
1019
1000
981
964
950
933
912
888
864
838
818
802
795
790
790
790
794
797
799
802
805
807
814
824
836
843
852
861
867
874
880
889
896
903
910
913
915
915
913
910
908
906
908
906
907
906
905
906
905
902
900
895
892
888
887
884
886
888
889
891
896
894
893
896
897
898
899
899
901
905
908
911
914
916
920
919
926
929
934
942
947
954
961
970
975
979
987
994
997
1002
1007
1013
1017
1021
1026
1028
1029
1028
1026
1025
1022
1022
1015
1014
1011
1006
1005
1001
999
995
988
984
976
971
967
966
962
961
958
957
957
953
951
950
946
944
943
940
939
939
940
942
941
940
940
939
939
936
936
936
938
939
939
941
939
941
940
937
940
938
937
939
939
938
940
940
941
940
941
942
940
940
941
939
940
941
942
943
944
942
940
939
939
937
937
934
934
937
939
939
940
936
937
939
935
934
934
934
933
936
936
939
940
938
937
938
936
934
935
935
936
941
950
956
962
969
974
982
993
1002
1014
1028
1048
1070
1094
1126
1156
1190
1225
1253
1281
1304
1320
1332
1335
1333
1325
1316
1304
1289
1271
1246
1212
1170
1119
1066
1016
976
942
922
910
903
900
895
890
886
879
875
870
867
865
859
857
854
853
850
845
843
841
841
847
845
845
844
845
845
841
840
838
836
829
826
825
822
822
824
823
819
818
817
815
811
811
808
808
808
804
803
800
795
794
790
786
784
779
776
774
773
770
768
767
763
761
760
760
755
757
754
754
755
757
759
760
761
760
762
763
765
768
770
775
780
784
789
796
801
805
810
817
821
827
834
840
847
850
855
863
864
871
873
874
878
877
880
881
885
887
888
891
892
892
892
891
890
890
893
892
894
895
896
892
890
891
889
888
890
886
887
886
888
889
890
893
891
891
890
890
890
890
888
894
896
896
898
896
893
889
889
888
893
902
917
940
972
1004
1037
1066
1084
1093
1092
1071
1042
1004
973
947
926
904
881
858
831
808
793
787
784
787
795
802
811
816
822
829
834
842
846
850
857
862
865
868
874
878
881
886
886
885
885
888
887
884
887
887
889
892
895
895
896
896
892
892
891
888
887
885
885
885
885
885
887
885
886
888
888
888
888
892
893
896
898
902
903
908
909
914
917
922
926
933
940
949
954
960
965
972
974
979
981
987
991
997
1003
1008
1010
1014
1017
1016
1018
1015
1015
1014
1012
1011
1010
1011
1010
1008
1005
1002
994
990
987
981
978
976
973
971
971
969
965
959
956
953
952
948
948
945
944
942
944
943
940
938
936
934
933
934
932
933
931
934
937
936
937
935
937
935
933
933
932
933
934
935
936
939
937
940
940
938
935
934
934
935
936
937
937
940
938
940
937
937
933
934
932
932
935
932
936
936
935
935
934
932
930
930
931
929
933
932
935
936
935
935
934
932
931
930
932
932
934
936
937
937
936
937
938
938
942
948
954
959
966
979
991
1004
1018
1038
1060
1088
1120
1157
1194
1235
1271
1301
1320
1329
1326
1316
1300
1279
1258
1228
1197
1160
1114
1068
1021
983
949
927
911
901
896
890
888
886
883
878
876
872
866
863
856
854
851
851
853
853
853
854
854
854
851
853
846
845
842
839
836
837
834
831
829
829
826
824
823
824
819
817
813
813
809
808
804
803
801
798
791
786
783
777
774
768
768
767
765
767
768
768
767
767
767
767
769
770
773
779
780
785
789
793
795
800
803
808
815
820
829
835
842
847
856
859
865
868
871
871
878
881
884
886
892
896
898
899
900
900
898
899
900
901
900
904
907
907
908
909
908
907
906
905
903
904
904
904
905
906
904
904
903
903
901
901
901
900
906
907
909
911
912
910
906
901
898
896
896
901
919
937
964
995
1023
1048
1066
1084
1093
1093
1081
1059
1028
998
969
946
933
919
901
882
859
835
813
799
787
786
788
790
796
798
799
799
800
802
802
808
818
827
838
852
860
872
877
884
889
896
901
909
912
917
917
919
915
918
916
915
913
912
909
908
909
907
907
909
905
902
899
895
894
892
896
895
900
904
906
909
911
913
912
913
912
914
916
919
923
926
930
932
935
943
949
956
959
966
970
977
982
987
994
1003
1007
1011
1014
1015
1017
1021
1023
1026
1030
1034
1037
1038
1040
1038
1037
1035
1031
1025
1025
1023
1020
1019
1013
1010
1006
1000
996
992
988
981
980
973
971
968
967
965
961
960
958
953
952
948
951
947
947
948
949
948
946
951
947
946
943
945
944
942
946
946
949
951
949
946
946
946
946
947
944
944
947
949
950
953
952
954
951
949
948
946
946
946
948
947
950
949
950
948
946
946
943
943
939
939
943
941
944
946
946
944
942
942
938
940
938
938
939
941
942
944
942
941
940
938
939
938
936
938
940
941
940
944
944
942
943
941
942
942
946
950
955
963
971
981
990
1002
1014
1029
1043
1065
1092
1121
1154
1192
1233
1272
1307
1338
1359
1372
1377
1370
1359
1349
1333
1314
1290
1256
1209
1155
1096
1037
986
944
918
903
896
896
895
896
892
887
880
871
864
859
853
849
849
850
851
852
851
847
847
844
843
840
838
835
835
834
834
833
829
826
822
819
818
815
813
810
812
810
809
810
810
806
802
799
794
791
789
786
781
782
780
780
775
770
767
762
764
757
758
756
754
753
754
753
753
750
749
749
747
749
747
752
757
760
762
766
769
776
779
784
789
793
797
801
810
818
825
832
837
844
849
857
860
864
870
872
877
881
885
889
892
891
891
891
891
893
895
897
898
900
899
901
901
903
902
900
900
897
897
900
899
900
900
901
902
900
900
899
898
897
895
895
898
897
900
902
903
902
901
901
901
899
896
896
891
889
885
891
898
907
922
945
970
998
1023
1049
1073
1090
1104
1111
1104
1085
1059
1027
993
971
952
936
919
900
878
854
831
810
797
790
789
791
796
799
804
812
820
823
827
832
836
842
847
852
857
861
865
870
874
878
881
885
888
889
888
888
888
888
890
889
890
895
895
896
895
895
893
893
893
894
892
893
894
895
894
894
890
888
886
882
886
887
888
890
893
894
898
899
898
899
903
902
905
909
912
917
921
928
932
936
941
943
947
952
955
961
967
974
977
984
986
992
998
1001
1005
1007
1008
1012
1014
1016
1018
1023
1021
1021
1019
1018
1016
1014
1011
1008
1006
1004
1000
998
997
992
989
983
979
975
968
966
964
960
962
959
959
956
954
951
947
946
944
943
944
943
943
942
940
939
938
938
937
936
935
934
935
937
938
939
938
938
937
938
938
935
936
939
936
938
941
939
939
941
939
938
938
936
936
938
937
939
938
939
937
938
939
937
933
934
934
934
935
935
936
936
938
937
938
933
933
931
932
930
930
931
931
937
936
935
938
937
935
938
938
942
951
957
968
974
983
998
1012
1029
1050
1079
1108
1145
1182
1227
1265
1298
1323
1336
1341
1333
1322
1305
1286
1264
1234
1197
1149
1096
1041
992
951
925
905
896
889
889
887
884
880
877
872
867
859
853
848
844
842
843
845
842
843
845
845
844
842
838
837
834
832
828
826
826
823
822
821
819
816
813
810
806
806
805
804
804
801
800
797
793
789
784
781
775
770
768
765
764
763
764
761
758
756
754
751
751
750
750
750
752
755
758
760
762
763
765
767
770
773
776
782
785
792
801
805
811
819
823
826
830
835
842
846
852
856
864
869
872
876
876
880
878
880
880
884
886
887
890
892
892
890
890
891
890
890
893
891
891
890
891
893
890
890
890
888
889
889
888
887
889
889
891
890
889
890
889
886
884
889
890
892
894
895
897
898
895
893
886
887
889
893
905
922
945
973
1002
1029
1051
1070
1080
1087
1084
1074
1052
1030
1004
977
957
938
919
897
873
845
817
794
779
772
770
774
781
787
787
791
792
795
797
801
810
819
830
839
846
856
860
868
875
880
885
889
893
894
895
894
893
891
885
883
881
883
883
883
885
884
889
888
890
888
890
890
889
887
884
880
879
880
882
884
887
888
891
895
898
900
903
907
908
912
915
925
933
937
941
945
949
950
959
961
968
972
980
984
993
994
999
1002
1004
1007
1008
1010
1011
1014
1015
1015
1016
1017
1015
1012
1009
1006
1002
997
993
987
985
983
981
977
972
968
965
957
953
948
947
943
942
942
944
942
940
936
935
929
926
926
925
924
926
925
932
929
932
930
931
930
927
929
927
928
928
933
934
935
934
935
932
932
932
932
929
933
932
934
932
934
932
932
934
933
931
927
929
927
927
928
929
932
931
930
929
928
927
925
928
926
928
928
930
932
933
931
931
932
936
939
944
950
960
971
980
991
1002
1016
1031
1048
1073
1099
1131
1167
1204
1240
1273
1298
1313
1320
1318
1308
1294
1279
1260
1242
1217
1187
1153
1113
1070
1026
985
954
933
916
906
900
894
893
888
885
880
875
869
865
858
853
850
845
843
843
843
843
841
838
840
838
834
835
831
832
829
830
826
827
823
819
819
816
811
810
808
806
806
807
806
807
803
801
795
793
788
784
783
778
776
777
776
773
771
766
762
759
757
753
754
754
753
753
756
755
754
755
754
757
756
757
760
762
766
767
773
776
779
785
787
791
794
800
804
810
817
825
831
839
845
850
853
857
861
864
869
872
876
879
883
887
885
888
887
886
886
888
889
890
890
893
894
894
894
893
892
894
892
890
890
887
889
891
890
892
891
890
891
888
886
888
888
891
896
898
901
903
900
898
894
892
887
886
888
896
907
924
948
975
997
1024
1045
1065
1075
1080
1075
1058
1033
1001
970
944
918
897
875
849
821
800
783
775
774
775
779
788
793
796
800
803
808
815
826
835
846
857
865
872
876
884
887
890
892
891
891
888
889
887
886
885
886
888
888
885
886
888
887
889
891
891
892
894
893
893
891
890
889
887
883
884
888
886
885
887
888
890
892
893
895
897
900
901
907
914
920
926
929
937
944
946
951
955
961
966
971
979
983
991
995
1002
1002
1006
1007
1009
1015
1018
1021
1022
1022
1025
1024
1022
1019
1017
1014
1009
1007
1006
1003
1001
998
995
991
983
979
976
971
969
966
965
964
962
959
958
954
951
948
947
944
941
939
939
940
943
941
943
940
941
940
938
935
931
932
933
934
936
937
938
936
936
936
936
936
935
934
935
937
939
939
941
941
940
937
938
936
935
935
936
937
936
936
935
935
934
934
934
934
933
933
933
932
932
934
932
932
932
929
930
927
924
928
930
931
931
935
934
933
933
933
931
927
925
926
928
927
929
933
931
931
931
929
929
926
928
929
929
932
934
932
936
936
938
940
944
948
955
962
970
982
995
1011
1029
1051
1082
1119
1159
1200
1247
1290
1324
1345
1354
1351
1338
1315
1289
1255
1213
1158
1098
1040
988
946
917
902
895
890
888
885
882
874
866
859
853
850
846
847
847
846
847
847
842
839
839
839
838
837
834
834
832
829
825
822
818
816
815
811
812
810
811
811
807
806
802
797
792
784
781
779
777
774
773
769
766
762
759
754
752
749
746
743
741
743
744
745
746
746
749
749
752
751
754
757
761
766
771
777
782
787
792
797
803
805
813
815
823
831
840
847
852
857
859
862
868
868
870
873
876
880
883
886
887
888
890
888
889
888
888
890
890
892
894
894
894
893
895
894
892
891
889
888
885
890
890
890
893
894
891
892
892
891
888
892
894
894
894
891
889
883
879
877
878
878
889
907
929
957
983
1016
1038
1062
1078
1088
1089
1082
1065
1037
1006
975
949
929
919
907
892
869
845
818
795
780
768
767
767
771
776
778
780
782
784
785
788
791
798
808
816
825
837
843
850
858
861
865
873
882
889
897
901
903
902
903
899
899
899
897
895
898
893
893
895
895
894
891
889
887
883
878
875
876
876
878
881
884
885
887
888
889
888
891
891
896
898
900
907
909
912
917
920
922
922
927
933
941
947
957
964
970
976
983
988
993
992
996
999
1004
1008
1012
1013
1018
1021
1021
1020
1020
1018
1015
1012
1012
1011
1010
1009
1007
1007
1001
998
994
989
983
980
978
973
970
968
965
963
959
956
951
950
946
944
943
941
941
942
940
940
939
939
937
936
935
930
932
933
933
935
935
935
938
938
936
935
934
934
935
935
937
938
940
941
939
938
936
936
934
932
932
933
937
938
936
937
938
937
936
937
935
933
932
932
931
932
934
935
936
933
930
935
933
931
931
931
932
933
933
934
934
934
931
930
929
927
929
929
930
932
933
936
934
936
936
931
933
934
933
941
947
952
960
969
977
986
1000
1013
1030
1048
1073
1102
1138
1176
1217
1254
1290
1321
1343
1358
1363
1359
1353
1343
1329
1313
1293
1267
1228
1183
1130
1073
1022
977
942
922
908
899
896
892
888
884
879
870
863
858
852
848
846
845
845
847
846
845
843
843
840
838
835
835
835
834
831
829
825
824
822
821
815
811
812
810
811
810
809
809
807
803
801
796
794
789
787
783
781
779
778
776
773
769
767
760
758
755
754
754
752
752
752
749
750
750
748
747
746
747
749
750
750
757
759
762
765
767
771
774
778
782
787
793
798
806
814
823
828
833
839
845
847
851
856
856
860
865
872
876
878
880
881
882
883
883
884
886
886
887
890
893
893
890
890
893
891
890
889
889
890
888
891
890
890
889
891
886
886
885
884
885
885
889
885
887
886
887
887
888
885
889
888
891
892
894
893
889
887
884
883
883
887
893
906
927
952
980
1010
1038
1060
1076
1086
1081
1067
1039
1010
979
955
934
920
904
880
858
832
809
791
780
776
779
782
790
797
803
809
812
816
820
824
831
838
844
851
857
860
864
868
870
875
876
880
879
879
880
880
881
884
885
885
888
891
886
884
884
883
883
885
884
882
885
883
881
880
879
878
877
880
882
885
887
890
892
893
897
897
900
900
904
908
914
919
926
934
940
946
952
957
961
965
970
975
980
986
990
996
1003
1004
1008
1009
1009
1010
1011
1010
1008
1007
1007
1008
1005
1001
998
993
987
982
980
977
971
968
965
961
960
956
955
951
947
943
941
938
936
933
935
935
935
933
934
932
930
928
924
923
923
926
927
927
925
929
930
927
928
925
925
924
925
927
929
927
929
929
929
929
928
927
926
925
926
925
927
928
929
929
928
927
926
924
925
922
923
925
924
926
927
927
927
924
922
922
921
920
919
920
920
921
922
922
921
920
920
920
918
917
917
918
921
925
928
927
926
925
925
922
923
927
931
932
940
947
957
963
973
984
999
1017
1042
1068
1100
1137
1178
1219
1255
1287
1307
1316
1318
1310
1298
1281
1265
1244
1218
1182
1141
1094
1039
991
951
922
901
892
887
882
879
880
875
869
862
857
852
846
843
841
838
837
839
840
838
839
840
836
836
833
830
831
829
828
828
824
823
822
820
818
813
811
808
804
805
805
804
801
802
798
797
793
784
781
778
774
769
763
762
761
760
758
754
753
750
747
744
742
743
747
743
748
751
752
755
757
757
759
762
765
770
774
780
786
793
798
801
806
812
815
821
826
831
836
844
849
856
858
862
865
866
868
869
871
872
873
877
879
882
882
882
884
882
885
884
881
884
884
884
886
888
886
886
885
884
882
881
880
880
879
879
882
881
882
880
881
883
882
884
885
886
887
889
885
886
882
881
878
880
886
896
913
939
967
998
1024
1048
1064
1075
1076
1065
1046
1021
990
963
939
921
906
888
868
846
821
798
781
771
765
763
767
771
776
779
783
784
786
788
793
800
812
822
831
844
853
860
866
874
878
883
886
892
889
891
891
890
890
888
887
885
882
880
876
875
878
879
878
881
885
885
887
885
887
885
885
884
882
880
880
880
884
886
891
892
895
899
903
907
909
918
921
929
936
943
948
952
958
961
964
968
972
977
984
989
996
1000
1004
1008
1010
1012
1011
1013
1012
1012
1012
1011
1010
1008
1008
1004
1000
993
989
985
980
977
969
967
963
961
959
955
952
949
944
942
939
937
937
935
935
935
934
935
932
930
926
924
924
928
927
930
931
932
931
933
931
929
929
927
926
928
928
927
931
933
933
933
932
930
929
929
928
927
929
930
927
931
