1000
998
998
994
988
985
978
976
973
971
967
964
962
960
958
955
953
951
948
948
945
944
940
943
942
945
945
943
944
942
938
938
937
939
942
943
945
947
945
943
946
944
942
941
941
940
940
942
944
945
946
946
945
944
939
938
934
933
934
936
937
941
940
940
938
937
936
933
931
932
931
933
934
935
935
933
931
933
927
928
927
927
929
931
932
933
935
933
932
932
932
929
930
931
934
939
946
949
956
965
970
980
992
1004
1017
1035
1057
1080
1105
1131
1156
1179
1194
1212
1224
1228
1225
1218
1201
1180
1152
1125
1097
1068
1038
1008
980
955
932
917
905
900
895
890
890
889
884
880
873
868
864
855
853
856
854
854
855
857
854
852
849
848
846
845
845
844
840
841
838
836
837
833
830
829
823
824
823
823
825
823
826
820
819
816
814
812
807
806
802
800
798
798
796
793
793
790
790
784
784
783
782
780
779
781
781
780
781
782
783
783
783
782
782
785
790
793
800
804
810
812
817
818
822
831
836
843
849
856
861
863
861
862
865
866
866
870
871
873
878
880
883
882
879
880
882
883
883
886
886
888
889
889
889
887
887
884
882
882
880
881
878
882
881
884
884
883
883
881
881
876
875
876
878
880
877
879
880
882
883
887
887
887
886
889
890
893
896
893
891
885
882
881
883
887
899
913
923
932
937
934
934
931
922
905
882
856
828
808
790
774
764
753
739
729
722
716
717
720
729
740
752
762
772
782
789
796
804
811
820
828
835
843
852
862
868
875
881
885
890
895
899
901
905
907
912
912
916
919
921
921
920
922
919
920
917
918
921
923
924
929
930
932
934
935
939
938
940
943
947
952
956
961
965
969
971
973
978
982
986
989
991
998
1004
1007
1009
1012
1012
1014
1020
1022
1023
1029
1031
1032
1037
1037
1036
1034
1030
1028
1024
1018
1015
1014
1012
1012
1010
1008
1008
1005
1000
992
988
979
971
967
964
961
959
957
958
952
945
939
936
932
930
927
928
929
928
930
931
934
934
935
931
928
923
920
920
922
923
926
930
929
931
928
927
923
920
921
920
922
923
925
926
925
924
925
922
922
921
920
921
925
926
931
931
930
931
929
926
925
920
922
923
924
925
925
928
927
927
930
929
933
937
939
942
949
955
965
975
986
998
1018
1038
1061
1090
1120
1147
1171
1190
1202
1208
1204
1187
1166
1137
1105
1071
1039
1005
980
958
942
931
919
913
907
901
896
890
886
883
883
881
880
876
874
869
862
858
854
853
851
852
852
855
853
853
849
851
847
844
843
841
842
841
841
842
841
841
836
835
830
827
826
825
825
826
826
823
824
827
827
823
819
813
808
805
802
802
799
800
800
798
794
792
789
787
784
784
783
785
787
788
790
791
796
797
795
796
797
803
807
808
815
821
825
830
836
837
842
844
848
852
856
860
865
869
872
875
877
875
878
880
881
881
883
886
888
890
893
894
896
896
896
896
897
893
893
894
896
898
903
903
902
903
900
899
896
894
893
892
894
895
894
893
896
898
893
893
892
891
892
892
896
897
900
905
904
904
907
907
905
908
912
910
911
910
908
906
899
894
889
888
892
898
907
916
933
945
950
953
950
944
934
924
910
892
872
851
831
813
804
794
784
770
759
745
734
726
723
723
730
739
748
761
770
779
787
796
804
813
823
835
844
858
868
876
881
884
890
892
894
900
908
913
918
922
928
931
932
933
934
933
935
932
931
930
931
931
933
936
938
938
939
939
937
944
942
947
949
953
957
960
962
964
965
968
969
970
971
974
976
979
980
984
992
994
997
999
999
1001
1001
1008
1012
1018
1024
1035
1035
1037
1037
1036
1041
1044
1046
1051
1051
1054
1057
1057
1056
1056
1054
1051
1051
1045
1039
1036
1036
1033
1031
1029
1024
1020
1012
1006
1003
999
999
995
991
989
985
982
978
975
971
968
967
964
964
963
962
961
961
961
959
958
955
950
950
946
947
948
948
949
951
950
952
951
950
951
951
951
951
949
949
953
952
953
953
952
950
949
946
946
946
947
946
945
945
946
946
948
951
950
949
949
946
945
947
945
946
945
945
946
944
944
943
941
938
939
938
942
943
945
947
946
945
944
943
940
939
940
942
948
957
964
972
976
981
989
996
1009
1024
1041
1067
1092
1120
1155
1182
1206
1225
1230
1231
1221
1207
1186
1163
1134
1105
1077
1044
1015
987
965
945
934
927
921
917
910
905
902
901
896
891
888
883
880
877
874
874
871
875
877
879
875
871
869
865
863
861
857
858
857
854
850
854
851
850
848
847
844
840
840
838
835
833
832
826
823
820
817
814
811
807
802
800
803
800
800
799
796
794
788
788
784
782
783
782
786
789
791
794
795
796
798
799
800
800
801
806
813
821
829
833
838
843
842
845
850
856
862
867
871
874
877
880
880
883
885
888
890
891
892
891
895
894
895
891
894
895
891
891
892
897
899
897
899
899
901
900
896
896
895
891
887
884
886
886
888
890
892
892
890
889
888
888
889
889
888
892
892
897
902
908
906
905
903
894
886
882
878
876
879
884
897
911
924
934
945
949
950
945
938
925
905
881
855
831
811
791
772
754
737
725
719
721
730
740
752
764
772
779
784
790
793
799
809
820
830
841
852
865
873
881
887
889
893
893
895
898
903
908
911
915
919
921
918
915
915
916
917
921
922
924
925
924
924
923
923
925
927
931
932
935
936
935
935
938
943
944
945
951
950
953
954
955
960
965
973
978
981
985
989
991
992
996
1003
1008
1014
1019
1022
1028
1028
1032
1033
1033
1031
1027
1020
1015
1015
1014
1018
1019
1019
1017
1012
1006
999
990
988
986
983
983
981
976
971
966
959
953
949
946
944
942
941
941
941
938
933
929
926
923
919
918
920
921
925
929
931
930
927
923
915
908
900
899
898
899
901
905
906
910
911
914
916
915
912
906
904
905
906
906
908
910
909
909
905
906
907
904
903
901
901
901
908
909
909
908
908
907
905
903
899
898
900
901
907
916
922
934
939
945
948
956
965
981
1000
1023
1049
1073
1096
1120
1137
1150
1153
1155
1148
1137
1119
1098
1073
1042
1008
973
940
917
900
892
884
886
885
882
879
871
866
858
854
851
844
842
838
837
836
837
840
843
841
838
834
829
826
822
820
824
825
824
824
824
822
823
816
810
805
802
802
803
807
809
812
812
810
807
803
798
793
792
789
784
782
783
783
787
783
784
780
775
773
768
770
768
769
771
774
773
769
767
765
765
765
767
768
771
775
780
781
786
788
792
793
797
801
804
811
817
824
828
833
838
842
848
847
849
851
853
858
860
861
862
862
861
862
862
862
867
868
870
873
875
875
875
873
873
872
872
873
872
875
873
872
871
869
868
868
866
868
866
866
866
867
870
872
873
874
874
871
870
870
870
871
871
874
874
878
882
879
878
870
865
857
849
844
841
846
854
871
890
906
919
922
924
914
901
878
856
829
810
793
778
764
755
746
739
729
723
721
724
731
737
748
756
767
775
786
794
798
809
821
830
838
848
853
861
867
872
877
883
885
891
894
898
898
900
900
899
899
902
904
908
909
912
913
912
909
907
904
905
907
911
911
919
923
926
925
926
929
928
932
936
939
945
949
952
957
959
962
968
973
977
980
984
990
994
999
1002
1005
1011
1011
1012
1011
1013
1012
1013
1015
1017
1016
1019
1016
1016
1013
1012
1009
1007
1004
1003
1000
997
994
994
989
982
979
973
970
965
964
963
962
961
961
958
951
947
944
940
936
933
931
929
929
925
925
924
927
921
925
924
924
925
921
921
919
914
911
912
913
913
914
914
913
910
912
913
911
912
914
916
915
915
918
917
919
919
922
922
922
920
919
920
916
917
914
914
916
915
918
919
919
919
917
922
919
920
916
914
912
909
910
910
914
915
918
918
919
918
918
916
915
919
920
922
925
927
934
939
944
949
961
971
979
990
1007
1030
1056
1084
1117
1146
1171
1188
1195
1190
1173
1146
1115
1079
1045
1012
979
958
939
927
916
908
900
896
894
891
890
892
889
888
884
880
873
866
859
856
856
856
856
858
862
862
860
858
856
851
848
841
844
844
845
847
846
845
840
837
833
830
829
826
825
824
825
827
829
829
826
823
819
816
811
808
804
799
797
795
793
795
795
792
789
785
782
782
784
786
786
788
794
798
798
799
798
799
800
801
807
811
819
826
835
844
847
850
848
848
849
853
859
867
873
878
885
888
887
889
889
887
885
885
883
884
886
893
896
900
903
904
902
899
895
894
894
895
896
896
901
900
899
902
900
899
897
894
894
892
892
892
893
895
896
897
897
899
902
903
903
906
905
905
907
912
917
915
911
906
898
890
890
893
903
912
927
942
952
960
960
956
950
939
926
907
890
868
852
837
825
815
807
796
780
768
758
750
749
749
754
762
770
778
786
793
800
805
815
821
833
844
856
870
880
888
894
901
904
907
910
913
918
923
927
934
935
936
941
939
938
935
939
940
941
943
942
942
943
943
942
942
945
945
947
953
957
958
962
967
967
968
968
968
972
973
977
979
982
982
987
992
996
999
1003
1006
1006
1012
1014
1018
1024
1028
1032
1033
1037
1043
1043
1044
1045
1047
1052
1055
1059
1061
1062
1061
1055
1050
1045
1043
1038
1041
1034
1032
1028
1025
1026
1025
1022
1016
1009
1004
997
995
992
990
991
993
992
989
988
981
977
974
970
967
962
961
963
962
963
962
961
962
962
961
959
960
959
957
957
959
960
962
961
960
961
958
959
958
959
960
960
959
957
953
953
954
956
955
957
955
954
953
953
953
955
956
955
956
955
957
955
953
950
950
948
952
952
954
956
957
956
955
952
948
949
950
951
952
953
960
965
968
972
977
985
993
1006
1020
1038
1058
1079
1105
1131
1158
1185
1213
1233
1248
1257
1258
1251
1234
1210
1182
1151
1120
1091
1059
1031
1007
984
966
951
943
935
935
932
926
921
911
904
899
898
897
895
896
894
896
893
889
885
877
870
870
868
872
871
870
871
869
866
861
858
856
851
846
841
837
835
833
834
835
833
829
829
827
824
823
819
815
812
808
804
802
801
796
793
791
788
787
784
786
785
782
781
781
781
778
780
781
781
783
784
789
795
797
799
804
805
807
807
810
816
819
825
828
835
842
848
855
863
865
869
871
869
870
868
869
874
875
878
882
884
882
884
885
887
891
891
894
895
896
895
898
899
898
895
895
892
893
894
894
897
896
896
897
892
890
890
889
888
886
886
887
891
890
892
892
893
892
890
893
895
894
892
892
892
893
897
902
901
904
905
907
908
909
909
907
903
897
892
889
888
889
892
896
904
917
927
936
943
944
946
939
935
926
912
899
878
854
830
812
796
778
763
749
736
727
723
724
731
739
749
759
769
781
788
799
807
815
821
829
835
844
850
859
863
871
877
883
889
893
896
898
902
908
911
914
917
918
917
921
920
921
922
921
918
919
918
920
920
921
925
927
929
930
933
933
935
935
934
938
939
941
941
939
938
939
942
946
949
952
956
958
962
968
975
983
987
991
993
994
998
1002
1003
1008
1011
1012
1017
1021
1024
1025
1027
1027
1025
1024
1021
1020
1020
1020
1019
1019
1016
1014
1008
1002
993
984
978
975
972
969
969
971
972
968
961
949
943
936
933
931
929
928
929
932
931
933
931
929
927
925
922
917
920
921
923
926
928
928
927
925
922
920
918
920
920
923
925
925
926
926
925
928
926
926
923
921
923
922
923
926
926
925
925
923
921
924
925
926
927
928
929
927
926
925
925
926
929
933
939
943
948
958
967
979
995
1011
1028
1048
1069
1099
1128
1157
1182
1201
1214
1218
1209
1192
1171
1143
1116
1082
1052
1021
992
968
950
932
917
908
902
897
890
887
882
879
874
871
870
869
867
864
861
854
851
849
847
847
847
847
848
850
849
847
843
838
833
830
825
824
823
823
824
824
823
822
821
818
817
816
814
809
805
804
798
798
797
796
792
787
783
780
777
773
776
774
777
778
778
776
777
774
774
775
778
780
781
782
783
786
793
795
800
802
804
810
814
817
822
828
835
840
846
852
857
861
863
866
868
869
871
875
878
883
888
888
888
888
884
883
882
885
885
885
887
889
890
892
890
891
890
889
890
888
888
890
892
894
891
892
889
884
882
881
881
881
881
885
887
889
890
890
888
886
885
882
883
886
888
890
893
894
896
897
897
897
900
901
901
898
893
888
885
883
885
889
900
909
923
934
939
940
938
932
921
912
894
869
847
824
803
785
767
750
728
716
711
712
721
735
747
758
765
774
786
797
809
820
829
839
849
854
860
862
865
870
873
880
886
897
902
909
914
913
916
915
914
912
909
910
908
911
914
916
919
918
917
918
917
917
918
921
925
927
930
933
937
942
942
942
945
947
947
950
952
957
961
966
973
980
981
985
987
991
992
999
1005
1010
1016
1022
1023
1023
1022
1019
1018
1018
1019
1018
1018
1017
1013
1014
1009
1007
1001
995
991
988
988
984
985
984
982
977
975
968
963
961
960
952
950
947
943
943
940
942
936
933
929
929
927
924
922
917
917
916
919
919
921
919
918
913
909
909
909
914
917
920
922
922
923
920
920
917
916
913
912
912
911
913
916
917
918
917
919
917
917
915
916
914
916
916
915
915
915
916
915
912
911
909
907
908
906
907
906
907
909
907
909
909
908
908
907
909
907
909
912
913
914
907
906
906
905
906
913
921
927
935
944
953
964
975
988
1003
1024
1049
1078
1110
1140
1168
1183
1189
1185
1166
1138
1108
1072
1040
1007
981
957
937
918
905
897
889
882
876
874
869
864
862
858
851
847
846
843
839
839
838
836
836
836
837
838
837
835
835
833
830
828
827
821
817
816
815
814
815
813
814
808
806
807
805
804
804
803
800
795
792
791
788
788
785
783
780
777
774
771
768
764
761
760
760
761
761
764
764
762
761
758
760
762
761
764
768
768
771
777
777
781
782
786
793
796
805
811
819
826
829
835
838
842
841
842
843
846
852
854
856
860
862
864
865
866
866
867
867
870
871
874
873
875
875
874
874
870
870
869
868
868
870
872
877
878
876
872
869
867
862
864
862
864
868
869
871
871
871
871
869
868
868
871
873
877
878
880
880
880
876
871
868
863
857
855
852
851
854
863
876
892
906
919
925
927
924
921
916
905
892
867
846
822
800
782
769
759
746
732
720
707
696
687
686
690
695
706
718
727
737
742
750
761
773
784
794
810
818
827
830
836
840
847
854
861
867
874
878
882
887
889
889
891
890
888
887
889
891
894
899
900
901
903
901
900
898
897
898
899
898
901
907
913
916
916
920
922
922
923
924
922
928
932
938
944
946
952
954
955
954
955
955
961
965
972
976
980
984
987
988
990
994
995
999
1004
1008
1011
1011
1012
1010
1008
1006
1005
1002
998
995
991
987
985
981
980
977
973
969
964
960
956
954
950
946
942
939
937
932
927
922
920
917
915
914
913
910
907
909
907
906
903
904
905
905
901
902
899
900
898
899
900
897
897
897
897
896
899
901
903
902
901
900
900
899
896
893
894
892
891
891
893
892
894
897
897
893
894
895
896
895
893
893
892
890
896
897
899
898
897
891
892
890
888
888
887
888
890
890
891
894
895
891
892
892
893
892
889
884
882
881
878
882
883
885
885
887
886
889
892
894
899
902
909
914
918
929
939
951
967
982
1002
1025
1051
1076
1105
1132
1155
1176
1188
1192
1190
1181
1165
1149
1124
1098
1076
1049
1024
997
972
948
926
903
884
869
862
856
851
850
847
842
839
833
827
820
817
816
816
818
818
818
817
812
810
807
804
798
798
799
799
799
799
797
795
792
789
786
782
782
782
782
779
781
780
776
772
765
763
760
757
756
756
755
752
752
747
742
737
735
731
727
727
729
730
728
727
729
730
729
729
730
730
731
733
734
736
741
744
751
756
761
768
772
779
784
787
799
803
808
810
813
819
822
823
832
834
835
837
837
838
835
834
836
838
841
842
841
841
842
842
843
843
849
849
847
848
847
847
846
845
846
846
844
846
841
842
840
838
839
833
834
836
832
836
838
838
841
842
843
845
846
844
847
847
849
854
854
853
847
843
835
831
830
832
845
858
875
886
895
903
902
899
892
879
857
833
808
785
769
755
742
728
715
699
684
672
666
667
672
681
690
699
711
719
729
739
745
752
763
773
783
788
799
804
813
817
823
829
836
842
846
850
853
852
850
847
847
850
852
855
861
864
863
862
863
862
863
862
865
865
866
869
871
873
869
874
878
881
883
886
887
888
889
890
897
901
906
909
912
914
914
916
917
924
926
932
942
947
952
956
959
961
965
968
969
975
980
982
982
984
982
981
980
980
975
973
971
970
966
967
965
963
958
956
949
945
943
937
935
932
928
924
923
920
914
910
906
907
905
903
902
899
891
888
886
882
881
883
883
886
889
887
887
885
884
881
882
884
886
890
893
890
887
887
881
883
881
880
879
884
885
886
885
883
882
881
880
