865
868
873
876
881
885
891
898
904
910
914
917
921
924
927
927
928
931
934
938
942
944
942
944
941
942
942
943
943
943
943
945
947
946
947
945
944
945
942
939
939
939
939
941
941
944
944
946
945
945
944
944
942
941
936
930
925
920
917
915
918
923
934
950
968
988
1004
1018
1029
1030
1024
1003
970
933
894
862
838
823
809
794
778
766
761
760
766
775
786
800
812
827
842
858
872
888
896
908
917
924
929
937
946
956
966
973
979
982
982
983
982
978
976
975
975
979
978
980
984
984
984
984
983
978
979
979
979
980
983
987
989
993
993
991
992
993
992
995
998
998
1003
1006
1009
1013
1012
1016
1017
1018
1022
1023
1025
1031
1036
1041
1049
1055
1061
1063
1064
1067
1072
1073
1076
1078
1080
1081
1083
1086
1085
1084
1081
1078
1074
1069
1068
1061
1060
1058
1055
1052
1048
1046
1043
1037
1034
1027
1021
1018
1014
1012
1008
1010
1007
1004
999
997
995
991
989
988
989
989
988
988
986
984
983
980
980
978
979
978
978
979
981
979
983
984
983
984
980
979
979
978
977
978
977
980
980
978
975
976
975
974
973
972
970
972
976
977
978
978
976
973
971
972
970
971
972
973
971
974
972
970
971
966
962
962
962
960
962
965
964
966
965
962
963
962
960
957
960
956
959
962
964
964
963
961
960
956
954
955
953
955
958
957
960
962
961
960
959
959
958
957
956
952
953
954
954
953
957
955
957
955
956
956
956
956
958
958
958
958
960
962
963
961
963
970
973
980
985
992
1003
1016
1030
1044
1060
1078
1100
1126
1155
1186
1212
1237
1253
1263
1264
1251
1235
1211
1183
1156
1129
1105
1083
1062
1044
1027
1006
987
971
955
943
935
930
927
925
925
921
920
915
912
908
905
903
903
902
900
899
902
904
908
907
908
907
901
897
897
893
889
887
884
883
883
883
882
882
879
878
875
873
871
873
867
868
870
867
862
858
856
855
852
849
846
844
843
842
843
841
841
835
833
831
828
829
827
826
829
829
830
829
830
828
828
828
826
828
828
830
831
832
838
837
838
841
843
847
852
856
859
865
872
879
886
886
891
891
894
893
899
901
903
906
913
915
918
923
922
926
924
926
926
923
924
922
923
929
933
931
929
929
927
926
925
924
925
923
922
924
926
926
926
924
923
922
922
920
919
920
922
923
923
924
925
926
926
927
928
928
930
929
932
937
938
936
931
929
923
918
914
914
919
927
939
952
971
981
987
990
986
980
967
951
933
909
888
866
847
833
813
798
785
773
763
763
764
771
782
791
800
811
818
826
832
841
848
856
867
878
886
894
903
908
913
918
922
926
929
938
945
949
954
953
957
957
956
959
960
962
960
962
960
963
963
962
961
964
965
965
966
967
970
969
973
977
979
982
983
985
987
988
987
987
988
988
991
995
998
1003
1008
1012
1013
1017
1018
1022
1024
1031
1033
1036
1042
1044
1051
1055
1055
1057
1060
1064
1065
1067
1070
1072
1073
1077
1079
1079
1080
1080
1079
1077
1074
1070
1069
1068
1065
1064
1064
1060
1054
1052
1047
1044
1040
1035
1032
1027
1027
1025
1021
1019
1015
1011
1008
1005
1000
998
995
995
995
995
994
994
990
992
989
987
984
984
984
982
984
984
985
986
984
985
983
982
981
979
978
980
982
982
982
984
984
983
981
982
980
978
979
978
978
979
980
981
979
977
977
976
971
970
968
969
970
969
971
973
972
973
971
970
969
969
966
964
965
965
969
967
963
966
966
965
963
960
963
963
964
964
966
966
966
965
962
962
960
959
959
957
959
959
960
960
963
960
960
959
959
956
959
959
961
961
960
963
963
962
959
960
958
960
960
962
964
966
971
973
977
978
985
990
994
1004
1018
1031
1048
1065
1088
1113
1140
1170
1198
1227
1252
1274
1285
1290
1284
1268
1243
1216
1189
1161
1131
1102
1071
1044
1019
993
974
956
945
936
933
928
924
920
915
911
906
904
904
903
904
905
900
899
897
895
891
890
889
888
888
886
886
886
880
880
875
873
872
872
869
868
869
869
867
866
865
861
858
855
851
848
847
844
845
842
843
839
839
834
830
829
825
822
821
817
816
815
812
812
810
807
806
802
800
798
795
797
796
797
799
800
800
798
799
797
799
797
801
803
807
810
816
819
823
824
830
832
834
840
846
851
859
864
872
873
875
882
887
890
890
893
894
896
899
903
904
907
907
907
907
908
908
906
908
910
911
913
914
913
912
911
908
906
906
905
905
907
908
908
909
909
908
909
906
907
908
907
909
912
912
912
910
906
897
890
882
876
876
877
881
892
906
924
945
966
979
988
993
991
975
949
914
873
835
808
789
774
761
744
730
717
712
712
722
727
743
753
765
779
787
799
808
819
832
846
855
869
878
891
902
908
919
927
935
940
941
942
943
943
943
944
945
947
945
945
944
944
942
941
940
940
942
944
947
949
953
953
954
956
957
957
957
960
961
966
970
973
973
974
974
975
975
981
984
990
997
1004
1012
1017
1022
1027
1029
1033
1034
1037
1041
1045
1046
1050
1053
1056
1059
1061
1059
1058
1056
1053
1052
1048
1048
1047
1044
1042
1037
1032
1028
1023
1018
1013
1010
1008
1004
1001
998
997
990
986
983
977
975
974
968
967
968
964
963
962
964
963
960
956
956
956
953
954
953
955
956
955
955
955
954
952
951
950
950
948
949
952
951
955
954
954
952
951
949
949
950
948
949
948
950
949
948
950
949
947
944
943
942
943
941
944
945
945
945
944
942
943
937
938
939
939
937
939
941
941
940
939
938
939
939
938
938
937
937
937
939
940
940
939
935
934
933
932
933
933
934
932
936
938
937
938
932
932
928
929
932
931
932
932
936
937
938
940
937
935
935
932
937
941
946
953
958
967
972
980
990
1000
1013
1027
1045
1069
1096
1128
1154
1183
1209
1229
1241
1245
1242
1230
1212
1187
1166
1142
1115
1088
1063
1041
1016
987
965
942
925
913
906
904
902
898
896
894
887
882
879
874
870
870
867
867
869
871
870
867
865
863
862
861
859
858
858
858
854
849
849
847
847
844
844
841
840
840
840
839
837
836
833
831
828
824
820
818
817
814
814
811
810
808
808
803
800
797
796
793
791
791
792
790
790
789
790
787
788
788
787
787
788
790
790
796
796
801
803
805
806
808
811
813
819
824
829
835
841
847
852
856
858
860
865
867
870
871
874
876
880
885
888
889
890
892
891
889
890
892
893
893
896
894
896
896
895
893
892
892
888
888
890
889
890
890
889
889
888
884
886
885
883
883
886
890
892
895
895
898
899
900
899
898
899
895
892
890
887
885
884
884
886
891
902
914
928
941
945
947
942
932
912
885
852
825
798
780
766
753
742
732
724
713
714
719
725
739
751
763
776
786
797
809
817
829
841
848
857
863
866
870
877
884
890
897
903
910
915
917
919
918
917
918
917
921
922
924
927
928
929
930
927
926
925
924
925
926
928
931
933
937
938
940
941
941
941
939
944
946
944
948
953
955
958
961
963
965
968
970
974
974
979
983
989
992
997
999
1000
1003
1005
1010
1013
1022
1025
1026
1032
1033
1031
1031
1031
1028
1026
1028
1026
1023
1024
1023
1022
1021
1018
1012
1008
1003
996
992
991
987
985
981
980
977
976
973
967
961
959
958
957
954
953
951
950
947
947
946
943
940
938
937
936
936
937
936
935
934
935
938
935
934
933
932
930
931
932
932
935
934
934
935
934
934
934
933
932
933
934
933
936
938
936
935
933
932
933
932
931
931
932
931
930
931
932
930
932
930
929
928
928
928
929
930
932
934
933
930
929
929
924
924
925
924
925
929
930
931
933
931
929
929
927
926
927
927
928
926
928
933
935
934
933
934
932
929
929
933
936
941
948
955
961
970
982
994
1007
1024
1045
1075
1108
1143
1177
1206
1227
1233
1229
1214
1191
1161
1131
1100
1070
1042
1017
996
976
957
939
926
916
909
905
901
899
898
893
892
891
888
884
881
878
876
877
878
877
877
879
878
875
877
875
876
873
871
871
868
867
866
864
863
861
860
857
859
857
855
853
852
851
853
853
853
850
848
844
841
836
832
827
824
825
823
822
820
820
818
813
810
810
807
804
806
801
804
804
806
807
809
807
806
808
807
810
812
813
820
825
832
832
836
840
842
845
847
849
856
860
865
869
875
879
885
887
890
891
892
897
900
899
903
906
912
911
917
915
914
918
918
919
922
923
923
924
927
925
923
923
920
921
921
919
920
918
920
921
925
923
923
921
918
917
917
917
915
918
917
920
922
923
925
923
927
925
928
928
927
926
923
920
916
914
910
909
910
917
923
937
954
969
982
992
997
998
993
985
976
960
938
909
880
851
827
809
796
782
768
752
735
715
703
698
707
723
741
756
771
783
792
800
807
813
823
834
849
863
875
888
900
907
914
918
921
926
929
933
936
940
945
946
950
951
951
952
952
951
951
950
951
953
951
955
958
958
957
955
956
961
961
963
966
968
972
976
978
981
983
982
985
986
985
989
994
1000
1007
1009
1016
1018
1022
1025
1027
1032
1034
1040
1044
1048
1053
1058
1062
1068
1069
1071
1073
1071
1072
1071
1072
1070
1066
1067
1064
1061
1056
1051
1045
1039
1034
1030
1027
1024
1018
1016
1011
1008
1001
999
995
994
989
984
981
979
978
976
977
977
974
970
970
966
964
960
963
964
967
966
966
966
965
963
963
961
961
961
961
961
963
961
964
963
962
961
962
962
961
958
959
959
961
963
965
966
964
963
962
961
960
958
960
959
960
961
962
965
962
961
961
960
958
956
956
955
958
958
956
957
958
958
957
957
954
955
954
957
957
956
958
958
956
957
955
954
953
954
954
953
957
956
959
956
957
956
956
953
952
952
955
955
956
960
962
961
963
961
960
958
958
959
961
960
963
965
973
979
984
991
998
1007
1016
1028
1045
1063
1089
1120
1154
1190
1224
1254
1277
1287
1289
1278
1257
1234
1209
1179
1155
1127
1099
1071
1041
1015
990
970
956
945
939
937
933
928
927
923
916
911
905
899
900
900
900
900
902
900
900
900
896
895
892
890
890
889
889
888
888
887
883
881
880
876
872
873
875
877
878
877
875
874
872
870
868
865
864
860
858
856
855
854
851
849
845
841
836
831
826
826
821
821
819
819
819
818
814
816
813
810
808
805
809
810
812
814
816
819
820
823
825
827
827
830
835
837
844
846
854
860
863
870
870
871
872
877
880
884
890
896
903
906
908
910
910
911
910
908
913
912
916
919
921
924
924
923
922
920
919
923
920
921
922
923
924
923
924
923
922
921
917
918
917
917
918
919
919
920
918
920
919
921
921
923
924
929
933
933
930
926
920
913
906
899
902
906
918
931
951
971
984
989
989
985
975
959
934
906
876
844
822
804
793
781
769
756
744
737
729
735
742
752
767
778
786
796
802
811
818
824
834
845
852
867
876
886
898
906
916
926
932
939
943
943
945
946
948
952
952
956
956
957
956
958
957
957
959
959
961
963
965
964
964
965
963
964
966
971
975
978
982
986
989
993
995
997
1000
1002
1003
1007
1009
1014
1018
1022
1025
1031
1033
1037
1037
1045
1045
1048
1053
1054
1058
1061
1067
1066
1068
1071
1069
1070
1071
1068
1068
1067
1066
1064
1061
1058
1055
1048
1044
1039
1032
1027
1023
1018
1016
1010
1009
1006
1001
1000
996
991
985
981
981
975
977
975
975
978
978
976
973
972
970
967
962
966
964
965
967
967
968
964
966
965
964
962
962
963
961
961
963
965
965
967
966
964
964
963
964
965
964
966
967
964
965
964
963
960
959
959
961
958
961
960
963
963
961
961
958
959
957
957
955
956
959
957
959
957
957
956
955
957
956
954
954
955
957
957
959
961
959
959
957
956
955
955
954
954
954
957
960
960
960
963
963
967
970
973
977
983
990
997
1009
1022
1032
1046
1061
1075
1097
1123
1148
1172
1198
1216
1232
1238
1235
1227
1212
1189
1160
1131
1097
1066
1038
1013
993
974
960
947
936
929
924
919
914
909
907
904
900
901
899
898
893
892
891
891
892
890
891
891
891
889
885
884
880
878
875
872
871
871
869
869
870
869
871
870
868
868
867
861
859
859
857
856
855
855
850
849
845
839
835
834
831
830
828
828
826
826
826
823
820
819
817
815
815
815
819
822
824
827
827
830
829
830
830
831
835
843
848
856
862
869
873
878
880
882
885
887
892
896
900
904
909
911
911
917
918
919
920
920
920
922
922
922
923
927
929
929
927
924
926
927
926
926
929
925
928
930
929
925
925
924
923
923
922
923
924
922
926
927
924
925
922
924
923
925
926
928
932
935
937
933
931
925
918
910
908
908
912
919
934
954
970
984
991
990
984
970
955
928
898
867
839
817
803
792
779
769
757
747
739
736
739
749
760
772
785
796
806
815
819
826
831
838
849
858
870
879
889
896
902
910
914
917
923
925
934
939
945
950
956
959
960
961
959
962
962
964
967
969
968
969
969
970
969
967
964
966
971
970
975
978
983
990
993
996
998
1000
1001
1002
1006
1006
1008
1016
1021
1027
1032
1034
1036
1040
1043
1045
1050
1050
1055
1060
1064
1070
1073
1077
1078
1081
1080
1081
1082
1081
1083
1086
1086
1087
1082
1081
1080
1078
1073
1070
1066
1063
1059
1054
1052
1050
1048
1046
1039
1033
1026
1024
1017
1009
1004
1000
1000
999
999
996
992
987
984
981
979
978
978
977
976
978
977
979
978
976
977
976
973
974
972
972
973
976
978
978
977
976
975
976
973
972
971
971
974
974
978
978
975
973
972
974
973
971
972
973
975
976
976
977
977
975
974
973
972
970
971
971
973
970
971
971
971
970
971
968
967
965
966
965
966
964
967
966
968
965
964
964
964
964
963
963
961
965
963
961
963
963
963
962
961
960
959
959
961
964
966
969
966
968
965
965
967
970
972
977
981
991
997
1005
1015
1025
1036
1048
1066
1084
1107
1131
1160
1187
1212
1233
1250
1262
1270
1267
1262
1249
1233
1209
1186
1163
1139
1113
1087
1060
1031
1006
986
964
950
942
936
935
934
932
927
924
918
912
907
906
902
903
904
906
907
908
906
906
900
899
896
895
893
890
889
889
888
887
890
888
885
885
883
880
881
879
880
879
874
876
876
875
870
866
864
858
857
855
852
850
851
852
849
847
843
841
839
837
835
834
833
834
834
834
835
833
831
831
830
829
834
833
835
839
842
842
848
850
852
854
855
858
865
868
876
879
885
890
895
900
906
907
912
914
914
916
922
926
930
932
933
936
936
937
938
940
940
941
941
943
945
950
947
947
945
943
940
940
939
941
940
943
944
946
946
947
946
943
943
940
936
939
939
939
939
941
938
940
941
940
939
939
941
942
946
947
952
952
952
948
940
933
927
922
919
922
928
937
952
972
991
1002
1008
1006
999
986
964
937
906
876
852
833
821
809
798
788
777
766
760
761
768
780
789
803
812
815
824
832
839
847
855
866
878
890
903
915
923
927
932
939
945
949
954
959
963
966
969
972
974
977
976
977
980
980
976
976
978
981
983
986
987
986
985
983
983
982
983
984
988
990
996
999
1002
1005
1007
1007
1007
1011
1013
1016
1021
1024
1028
1034
1037
1038
1043
1048
1050
1052
1054
1058
1062
1066
1071
1075
1078
1081
1085
1087
1088
1090
1089
1090
1090
1095
1096
1095
1092
1092
1088
1085
1078
1076
1075
1068
1065
1060
1058
1056
1054
1051
1045
1042
1039
1033
1030
1025
1022
1020
1015
1014
1014
1009
1007
1004
998
999
996
991
992
992
993
992
992
989
986
985
984
986
986
985
986
988
989
988
986
985
988
984
986
985
984
984
983
987
986
989
987
987
987
986
987
985
984
985
985
987
986
989
986
986
986
984
981
982
981
980
980
982
981
984
983
984
982
982
980
978
978
977
977
977
981
982
981
980
981
978
976
974
974
975
977
979
977
982
979
981
981
981
978
978
979
979
979
980
985
988
991
996
1000
1008
1013
1022
1031
1041
1057
1076
1095
1118
1144
1169
1195
1218
1237
1251
1254
1248
1235
1217
1190
1160
1132
1100
1072
1048
1029
1010
995
980
971
968
957
953
950
946
945
941
935
931
925
922
920
921
921
924
925
925
921
922
919
915
913
912
912
913
912
915
913
911
911
906
902
900
899
898
897
899
899
900
900
903
898
896
894
892
888
887
885
885
885
884
880
878
873
871
867
864
858
860
859
858
854
855
855
853
849
847
848
847
845
845
844
846
850
851
853
855
854
854
854
858
859
863
867
871
874
878
885
887
891
895
896
900
906
910
915
919
924
928
932
936
938
938
938
939
940
943
945
946
951
953
954
954
954
954
950
954
952
952
951
954
953
957
956
955
956
954
951
951
948
947
949
952
952
948
951
947
946
946
946
946
948
950
951
956
958
961
962
965
962
955
947
942
938
934
937
946
958
974
991
1003
1011
1012
1010
997
984
964
939
911
882
859
841
827
815
801
789
777
767
765
768
778
792
808
823
833
845
850
859
867
879
890
902
913
921
931
938
945
950
954
959
964
967
973
975
977
984
987
988
988
990
990
989
990
988
989
990
991
993
993
995
996
995
996
994
998
1002
1005
1008
1013
1015
1018
1020
1023
1024
1026
1027
1027
1030
1035
1038
1042
1048
1054
1057
1059
1065
1067
1071
1072
1077
1082
1087
1093
1097
1101
