880
882
884
889
892
890
885
883
877
874
871
868
872
876
879
881
883
884
888
888
888
884
880
873
871
873
878
886
891
891
890
886
879
877
873
875
880
891
901
914
927
934
940
950
963
982
1007
1038
1076
1118
1150
1178
1193
1197
1183
1160
1129
1091
1054
1021
992
968
946
926
909
891
876
863
854
849
844
843
841
839
834
831
826
824
822
820
820
820
818
816
814
811
810
807
806
805
805
805
804
803
799
795
792
789
789
786
787
786
785
785
781
774
770
766
764
761
761
759
760
761
758
755
748
741
737
733
732
729
732
734
739
737
738
737
736
736
736
737
741
745
752
754
761
764
766
769
774
776
784
784
790
793
801
805
812
815
818
821
820
821
824
824
827
831
836
839
843
845
847
844
840
838
831
827
825
830
833
836
841
842
841
839
839
836
836
835
838
838
839
840
840
839
839
838
836
836
834
831
830
830
829
832
834
837
838
838
835
835
834
836
840
846
849
852
854
856
854
851
845
837
833
831
828
829
838
845
856
867
876
885
891
887
883
877
871
861
846
826
807
786
767
751
739
728
714
701
690
679
677
678
680
688
696
706
718
728
736
743
752
766
779
792
804
811
815
818
823
825
834
838
846
850
855
859
860
860
861
865
867
865
866
862
864
865
869
870
874
875
874
876
879
877
877
880
884
888
891
895
900
901
903
905
903
901
900
902
906
913
919
927
933
940
943
946
944
946
945
945
948
956
963
967
970
969
970
970
971
975
975
976
975
971
972
971
971
968
961
961
956
949
943
943
941
936
932
928
924
920
918
914
908
901
894
890
888
889
889
892
892
887
883
883
884
885
885
880
874
870
864
863
864
869
871
876
875
871
870
867
864
867
866
867
867
868
867
865
864
862
863
862
863
863
866
868
871
873
876
878
879
873
868
862
858
856
854
861
864
865
866
865
861
860
860
858
858
861
864
865
868
870
864
860
856
856
865
876
888
899
913
925
942
962
979
998
1022
1051
1077
1103
1122
1133
1140
1140
1128
1113
1086
1058
1023
988
956
925
897
879
862
849
842
833
827
821
816
810
806
797
792
786
782
778
773
774
771
767
765
762
761
760
758
757
761
762
765
767
763
754
747
741
736
736
735
736
733
732
730
726
721
720
717
716
718
716
711
713
707
705
699
693
686
682
679
680
682
681
681
680
680
679
681
680
676
674
670
669
672
673
676
682
682
687
688
687
689
694
696
701
705
707
713
718
722
730
736
744
749
755
763
769
777
777
771
760
751
744
747
752
758
763
767
775
779
782
785
785
785
785
791
789
787
786
785
783
785
786
789
792
796
800
806
805
805
803
797
787
775
770
768
776
783
786
791
788
788
785
785
789
793
795
796
798
800
799
801
803
808
810
812
809
804
801
795
792
792
792
794
797
802
810
818
827
832
838
839
836
835
823
804
783
753
726
704
686
670
655
644
635
629
633
638
649
662
678
690
702
714
724
737
750
764
775
786
793
799
803
799
796
795
797
803
809
815
820
823
827
826
828
829
827
826
829
830
831
836
835
837
841
841
842
844
845
846
849
849
852
860
864
868
869
873
874
870
866
866
867
870
877
883
891
896
906
911
915
917
925
932
935
936
938
937
939
940
944
945
951
952
954
956
958
959
963
962
957
954
946
938
933
930
928
925
923
917
914
913
909
907
905
900
894
889
886
884
880
879
876
873
870
867
869
868
866
864
860
857
851
849
848
848
850
852
857
851
852
850
852
850
853
855
856
856
855
855
853
847
846
843
844
844
846
850
847
850
848
851
851
851
852
849
848
848
849
851
854
856
855
853
855
852
851
848
849
847
848
849
849
849
848
853
854
852
850
850
848
846
848
850
852
851
849
847
849
846
845
845
847
849
852
856
863
867
869
872
876
880
893
904
914
930
948
968
991
1015
1038
1060
1085
1105
1126
1141
1149
1143
1130
1105
1074
1042
1009
975
945
922
899
876
855
837
826
815
810
807
809
806
810
803
799
796
797
794
790
785
783
784
782
788
791
795
796
790
784
774
770
763
765
764
762
761
759
760
759
759
759
756
755
752
749
750
750
752
752
753
751
748
743
736
728
726
724
725
727
727
731
724
719
715
709
708
710
710
717
722
719
717
712
712
710
712
715
714
720
724
727
731
737
743
751
757
765
769
772
775
778
782
785
790
792
799
805
810
813
816
819
819
821
825
829
831
832
829
829
824
826
824
828
830
829
830
835
837
843
844
845
841
837
832
829
824
821
821
818
820
820
825
829
832
834
834
831
829
828
825
826
828
828
832
836
837
843
844
845
844
845
847
846
847
845
839
831
826
823
823
834
848
863
878
885
891
891
892
890
883
875
857
833
805
779
759
744
732
720
708
691
684
679
679
683
689
697
705
711
717
724
729
736
746
755
764
775
786
789
796
805
816
824
829
836
838
840
842
846
850
856
861
865
865
869
873
876
879
882
886
889
888
884
882
877
872
872
876
882
887
893
895
898
897
899
900
904
909
914
917
922
927
927
926
925
927
931
932
941
947
953
961
968
968
970
970
970
971
973
980
988
996
1003
1013
1016
1012
1011
1005
1000
1000
999
1000
1002
1003
1002
999
995
989
988
987
982
983
976
973
969
967
965
962
959
956
947
944
938
933
928
925
926
924
922
921
920
912
910
906
901
905
906
906
904
903
899
899
900
899
901
899
899
895
895
900
902
905
906
908
906
904
900
899
899
898
900
901
901
903
906
908
909
910
909
904
904
904
899
900
897
903
905
910
907
906
906
905
903
902
903
903
903
903
901
901
903
902
900
903
902
903
900
902
905
911
916
923
930
939
948
959
973
988
1008
1034
1063
1092
1122
1149
1174
1189
1195
1194
1185
1169
1147
1118
1088
1055
1024
997
972
948
928
914
899
892
885
880
876
876
873
871
871
865
857
854
849
846
845
844
842
839
842
843
842
843
842
841
842
841
838
834
833
833
831
831
828
826
821
818
815
815
811
809
810
809
808
806
805
806
804
801
796
794
791
785
788
786
784
783
782
782
781
779
780
778
776
774
778
778
780
780
782
782
781
781
779
783
785
789
794
802
808
815
821
827
832
835
836
838
836
839
847
852
857
861
870
873
875
876
875
877
878
880
881
885
887
889
891
891
892
894
895
894
892
889
889
889
893
895
900
900
902
901
901
899
898
899
899
900
900
900
899
899
898
897
897
896
894
894
897
900
903
902
907
907
909
914
915
919
920
923
923
921
921
916
912
908
904
901
900
896
900
911
925
940
954
962
967
960
958
951
943
929
909
889
866
845
830
818
806
792
775
761
748
742
738
745
755
769
781
798
807
819
830
838
847
857
867
878
890
899
909
914
919
924
928
934
939
944
945
947
947
954
956
957
960
962
961
958
960
956
955
954
956
958
960
968
971
974
976
980
977
978
980
984
984
988
991
994
997
998
1000
1004
1004
1009
1010
1018
1017
1022
1028
1033
1037
1040
1039
1044
1050
1052
1057
1060
1063
1067
1069
1072
1077
1076
1076
1076
1073
1070
1068
1066
1061
1058
1056
1055
1050
1043
1035
1029
1022
1017
1016
1011
1008
1008
1005
1003
1002
999
992
990
987
982
979
981
981
983
983
983
978
973
972
972
968
969
971
973
972
972
970
968
970
968
968
968
968
966
967
966
965
967
967
970
973
974
974
972
973
972
970
969
969
970
970
975
975
974
975
970
963
962
962
966
974
980
988
994
1004
1013
1023
1033
1052
1075
1098
1128
1160
1191
1222
1248
1265
1271
1267
1254
1230
1203
1174
1144
1110
1080
1049
1019
994
975
955
942
933
927
920
920
916
915
914
914
913
909
905
902
896
890
883
879
879
879
878
876
875
879
878
877
879
876
873
867
863
859
853
852
851
849
847
841
837
833
824
823
821
820
821
818
820
818
815
812
808
803
795
795
788
786
786
784
787
786
784
782
779
778
775
776
776
778
779
781
781
783
783
789
789
791
796
800
809
814
820
824
827
828
831
832
833
837
845
852
858
867
873
876
880
880
883
883
884
880
884
886
884
882
884
887
893
897
898
900
894
890
885
886
884
885
888
889
894
894
895
897
895
891
888
885
882
883
885
888
889
890
891
888
892
890
888
885
884
887
891
899
904
907
904
903
900
895
887
881
876
871
871
871
878
882
894
905
916
922
923
918
911
904
896
881
859
830
799
774
754
739
729
717
707
698
693
695
704
716
728
742
752
767
775
783
796
807
817
830
840
853
862
866
871
872
875
882
891
899
908
913
914
917
917
919
916
912
914
914
913
916
920
922
923
922
924
921
920
924
931
935
939
937
934
934
932
932
930
932
935
938
944
953
958
963
968
973
975
975
972
973
974
976
978
982
988
993
999
1005
1009
1010
1013
1018
1024
1030
1035
1034
1035
1033
1032
1032
1033
1034
1033
1029
1026
1021
1015
1013
1008
1008
1006
1004
1002
995
987
978
970
966
961
961
961
958
954
947
942
940
937
935
930
925
920
915
907
903
901
906
914
922
925
919
916
908
903
897
895
897
899
901
903
907
908
910
917
920
921
919
921
916
907
898
895
888
887
893
898
903
903
905
907
907
904
897
898
896
898
898
898
897
896
895
895
898
902
900
899
898
897
894
884
871
866
867
876
887
898
906
908
908
908
903
894
891
887
883
883
880
875
871
868
869
873
879
888
892
896
895
890
882
876
872
871
872
876
884
887
888
887
883
883
882
884
889
892
895
895
894
896
905
913
918
928
937
950
967
992
1012
1035
1063
1094
1127
1161
1189
1208
1211
1201
1177
1148
1120
1095
1069
1044
1015
987
959
931
900
873
853
846
846
846
848
842
832
822
814
814
819
824
829
833
829
820
808
800
796
799
804
806
810
808
805
803
802
803
802
800
798
791
781
772
774
777
780
789
793
798
797
794
787
775
770
768
772
770
767
765
766
770
764
755
747
733
722
720
723
735
748
758
761
758
750
742
737
733
729
731
733
734
736
738
739
739
743
746
749
754
759
765
772
780
788
792
799
802
804
803
802
801
803
809
816
824
831
837
844
851
849
846
843
842
844
844
842
840
841
844
847
846
847
851
857
857
858
860
859
860
857
858
861
860
857
852
843
840
837
838
840
841
840
845
853
860
867
871
874
879
876
873
869
863
857
852
848
841
835
830
831
836
848
866
884
899
909
909
904
897
881
859
833
800
766
736
716
699
684
670
660
651
645
645
648
658
669
684
698
710
719
726
732
734
735
739
748
764
781
797
812
828
841
854
865
877
887
889
891
892
892
895
897
904
910
914
913
911
907
902
897
892
887
889
894
902
907
910
913
914
917
918
918
916
913
913
916
922
927
936
939
942
944
942
951
956
961
968
975
984
988
993
992
990
990
991
995
997
998
1003
1011
1022
1032
1043
1046
1045
1039
1034
1030
1024
1024
1024
1027
1026
1023
1021
1015
1009
1004
998
992
989
983
976
972
967
962
957
951
947
945
946
944
941
936
929
925
921
918
916
919
919
922
927
929
925
924
915
909
904
903
903
909
913
918
916
913
908
907
905
906
910
916
920
916
912
915
914
916
914
913
909
906
903
907
913
919
920
921
915
909
902
898
903
913
921
925
919
907
895
890
891
896
904
917
927
937
939
936
927
918
911
905
902
902
904
906
911
918
924
934
945
954
963
969
983
1000
1021
1047
1080
1110
1138
1165
1188
1211
1216
1214
1203
1186
1166
1142
1116
1086
1055
1022
988
956
931
913
901
897
895
891
888
881
876
866
859
856
854
852
846
842
833
831
837
840
846
848
849
847
841
834
827
822
818
821
824
825
826
825
823
822
819
812
805
797
793
794
797
800
802
800
802
804
803
799
794
784
778
775
774
773
781
776
772
769
765
766
763
763
763
763
764
771
780
784
784
786
784
783
782
786
790
796
804
814
821
824
826
825
827
834
843
852
860
865
870
871
872
872
870
871
872
876
884
889
892
893
890
883
880
876
878
885
890
898
902
908
905
903
902
897
893
891
887
886
886
888
891
890
891
890
890
890
892
891
889
888
881
883
881
881
883
888
895
901
907
910
910
908
904
904
901
907
907
910
908
905
901
894
889
883
879
878
881
890
909
932
954
968
972
964
949
926
895
862
824
793
765
749
737
724
714
705
698
697
699
708
721
739
759
771
782
796
806
818
828
839
846
854
860
863
867
872
876
882
890
898
908
917
924
931
937
943
941
942
937
933
931
932
932
934
931
928
925
923
925
933
937
950
960
964
967
972
969
970
967
964
960
959
960
967
981
995
1002
1008
1007
1004
1001
1006
1015
1023
1032
1041
1044
1050
1055
1059
1061
1064
1064
1065
1066
1063
1058
1054
1053
1054
1054
1053
1050
1046
1039
1032
1024
1014
1010
1000
996
995
993
990
987
987
982
980
974
972
971
968
965
963
957
957
953
953
952
949
947
947
949
951
954
954
952
951
951
946
946
946
943
945
944
941
942
941
948
952
957
960
958
955
949
944
942
941
943
948
948
953
955
957
958
953
950
944
942
939
941
941
941
943
943
942
944
942
946
950
952
950
949
950
951
955
956
957
958
961
967
975
988
1006
1023
1040
1060
1082
1105
1127
1148
1168
1188
1207
1223
1240
1251
1256
1253
1242
1226
1205
1180
1151
1117
1082
1043
1014
984
961
936
920
910
903
899
897
895
890
883
881
877
874
868
865
862
866
868
868
867
863
858
855
855
855
855
853
849
845
838
837
839
847
852
851
845
836
829
824
825
832
835
837
837
832
827
821
815
809
808
807
809
808
804
803
796
794
790
788
786
787
787
787
786
786
789
790
790
785
780
777
776
781
788
794
798
800
799
800
800
799
801
806
810
819
829
839
850
855
855
857
858
860
865
871
876
881
886
887
888
895
897
900
897
897
898
898
898
899
901
907
912
918
919
917
913
905
900
900
901
900
906
908
912
912
909
905
904
903
905
907
909
910
909
908
907
902
900
897
899
901
903
905
907
907
910
917
923
922
923
920
915
911
908
904
900
901
903
908
916
934
951
971
987
994
988
970
939
896
853
815
788
768
757
748
736
726
715
711
714
724
743
764
782
796
801
810
819
831
841
850
857
864
869
875
878
881
883
890
898
909
925
935
940
941
938
935
932
933
931
933
937
937
938
938
941
942
946
947
944
943
943
946
949
950
950
951
947
949
954
964
975
984
989
992
989
987
990
996
1001
1007
1010
1013
1018
1025
1029
1032
1030
1036
1041
1053
1060
1067
1070
1069
1070
1072
1070
1070
1068
1067
1068
1068
1070
1070
1072
1071
1067
1059
1051
1048
1045
1043
1039
1032
1023
1016
1015
1014
1014
1014
1011
1006
1000
992
987
983
981
982
979
978
974
971
968
965
963
961
962
964
965
965
963
963
962
960
955
957
954
952
952
951
952
954
957
957
961
962
963
964
963
962
960
957
958
955
955
957
961
962
959
959
957
953
952
952
955
960
961
962
960
958
954
952
956
956
958
957
956
961
960
960
957
959
954
954
953
951
948
946
946
945
948
952
957
963
965
966
963
957
954
949
952
954
963
974
987
998
1012
1022
1033
1045
1061
1085
1111
1144
1175
1205
1231
1254
1263
1265
1254
1239
1222
1202
1182
1156
1127
1098
1066
1035
1004
972
951
931
922
916
916
918
919
917
911
902
891
881
877
879
883
889
893
891
889
884
880
876
874
872
874
874
876
873
871
868
863
860
858
858
858
857
857
854
851
850
849
850
849
849
845
842
838
834
827
823
818
815
815
814
815
816
814
811
806
803
797
798
799
799
802
803
803
807
808
810
811
814
817
817
820
821
828
833
840
847
852
854
859
862
866
872
876
885
892
896
899
899
899
899
900
901
903
902
904
909
913
917
920
921
919
924
925
930
931
926
924
924
925
924
926
927
929
929
932
930
927
925
921
919
920
919
917
921
923
926
929
930
925
924
923
922
923
924
924
924
925
926
928
932
936
941
945
944
941
934
929
928
926
926
928
930
939
950
966
981
993
1000
998
996
988
971
952
925
894
862
837
816
807
798
790
777
766
754
745
741
739
745
755
766
784
799
813
822
834
842
848
858
868
874
883
892
898
906
915
926
933
940
943
949
949
946
948
948
948
952
956
960
963
965
965
964
963
960
960
960
960
960
958
962
967
976
983
990
991
992
989
987
987
990
993
996
999
1003
1007
1008
1010
1012
1017
1022
1028
1034
1038
1042
1044
1049
1056
1057
1056
1057
1061
1066
1074
1078
1084
1087
1088
1089
1086
1086
1083
1080
1080
1079
1080
1078
1078
1077
1070
1069
1064
1057
1051
1045
1041
1041
1038
1035
1027
1022
1017
1011
1008
1007
1007
1003
996
992
989
988
987
987
986
985
983
979
975
973
970
968
969
970
973
977
978
977
973
968
965
960
957
960
965
969
971
973
971
968
966
965
966
968
969
969
967
964
963
966
963
961
959
963
966
968
970
964
962
960
959
961
960
960
960
963
966
965
962
961
960
960
962
967
964
965
960
958
957
955
954
955
957
961
970
978
989
996
1005
1015
1024
1040
1062
1090
1121
1153
1186
1215
1240
1257
1266
1265
1254
