930
929
928
928
926
926
925
926
923
924
927
926
925
927
926
924
921
922
923
922
924
925
926
928
927
926
924
924
919
920
920
922
921
922
923
924
926
924
923
923
919
920
920
922
920
925
924
927
926
926
927
929
932
937
943
947
955
961
971
981
993
1007
1022
1037
1058
1083
1110
1144
1178
1216
1252
1291
1323
1346
1358
1361
1353
1340
1319
1294
1259
1214
1157
1093
1030
976
936
909
894
886
884
886
882
879
876
869
864
856
850
845
842
838
838
838
837
840
840
841
839
837
834
832
833
828
825
820
817
818
818
816
817
814
814
809
810
808
803
802
802
802
800
795
793
789
785
782
781
775
773
769
768
767
763
762
760
755
753
750
748
746
742
743
741
740
741
743
742
742
742
742
744
746
747
749
753
756
763
769
771
777
781
786
793
797
805
812
821
829
835
840
849
853
856
857
863
863
869
868
871
873
877
880
883
887
887
888
886
887
887
886
889
888
889
892
892
891
891
888
888
889
887
888
887
888
890
889
889
885
886
884
882
883
882
884
885
887
892
895
899
900
897
897
890
885
881
879
883
891
903
922
944
967
1000
1026
1053
1074
1085
1087
1080
1058
1029
996
965
940
920
904
889
870
844
819
792
775
761
761
759
763
770
773
774
780
779
783
786
796
806
818
829
837
845
847
850
859
862
869
876
884
890
895
899
898
898
896
896
892
890
891
892
891
894
893
892
890
888
886
883
882
880
879
877
875
875
875
876
874
874
876
878
878
879
881
884
886
891
892
894
897
899
901
903
905
908
913
917
924
929
938
945
952
957
962
967
974
976
979
985
992
998
1002
1007
1007
1011
1014
1014
1012
1015
1016
1018
1020
1019
1020
1019
1019
1014
1012
1009
1001
997
995
990
992
988
988
985
978
978
974
970
963
963
960
956
954
953
952
950
948
946
943
941
937
935
936
935
933
933
930
934
934
932
933
931
933
933
931
934
934
936
935
937
936
936
938
938
937
933
934
935
936
936
937
938
940
939
939
938
938
938
937
936
935
936
938
937
939
936
936
936
933
931
931
930
932
931
934
936
933
934
933
933
931
929
929
933
932
934
933
934
933
934
934
932
933
931
933
933
936
939
946
953
959
965
973
981
989
1003
1020
1040
1064
1094
1131
1169
1208
1250
1288
1322
1349
1366
1373
1369
1361
1346
1329
1304
1267
1222
1163
1097
1034
979
942
916
904
899
897
897
894
889
882
874
867
859
857
852
849
849
847
846
845
845
843
842
839
837
835
835
835
834
834
831
828
829
824
817
809
806
807
805
805
806
805
803
801
798
794
791
786
780
777
773
770
771
766
763
763
760
755
751
749
744
744
744
745
746
747
748
752
751
753
749
754
754
759
764
770
777
779
787
793
795
803
809
812
820
824
831
838
843
851
857
860
861
865
867
870
873
873
877
881
884
885
886
887
888
887
887
887
888
890
890
891
894
894
895
893
894
893
892
889
888
890
890
890
887
887
890
890
890
888
887
888
887
887
887
891
892
895
896
896
893
894
889
885
882
884
888
897
913
934
958
989
1017
1040
1058
1073
1083
1087
1082
1069
1047
1020
992
969
949
931
911
887
863
836
809
792
775
775
778
783
790
798
802
807
806
811
818
823
834
843
850
853
858
858
863
866
868
873
876
877
881
884
884
885
886
884
886
884
887
885
887
885
887
891
892
891
887
886
885
881
878
877
876
881
883
885
884
889
889
888
889
889
890
890
891
897
901
905
908
909
914
919
923
925
929
935
940
946
953
960
965
973
977
984
984
990
992
997
1000
1005
1007
1012
1016
1014
1018
1013
1010
1008
1005
1003
1001
997
994
992
990
987
984
978
974
967
962
958
955
952
950
946
947
944
942
938
936
932
928
927
927
927
926
927
930
930
931
928
925
922
921
920
921
924
925
927
929
928
930
928
927
924
921
922
923
925
927
929
932
932
931
929
928
925
924
925
922
923
927
927
927
926
926
924
921
919
921
923
921
919
923
925
927
924
928
925
924
924
923
923
925
928
933
939
946
954
961
970
980
994
1007
1022
1042
1069
1100
1137
1173
1208
1242
1274
1299
1317
1325
1325
1318
1310
1298
1284
1267
1243
1213
1176
1130
1076
1023
977
941
916
898
889
886
881
878
871
871
863
857
850
848
843
841
841
839
838
835
835
834
831
830
831
828
829
828
826
826
823
822
817
814
809
807
804
802
801
803
802
802
799
800
794
792
790
787
782
777
775
774
772
773
770
764
763
758
756
752
750
751
746
745
749
747
745
745
743
742
744
746
746
748
753
755
760
762
764
766
773
777
783
787
792
799
806
813
821
827
834
842
844
849
853
857
862
866
870
872
875
878
879
879
879
881
880
878
881
881
883
885
884
887
888
887
884
886
882
884
882
883
883
883
884
885
883
884
883
881
880
876
875
876
878
880
880
883
885
887
887
887
885
884
881
878
880
881
886
894
907
926
952
979
1008
1033
1052
1066
1071
1063
1046
1020
987
954
928
902
876
848
821
797
778
767
764
766
772
778
782
787
788
787
789
794
800
812
819
830
839
844
847
854
857
859
865
869
873
877
880
881
879
878
878
876
875
876
877
879
883
885
885
888
886
885
886
885
882
881
879
879
876
876
876
877
876
876
878
881
883
884
885
888
888
894
897
902
905
911
914
919
922
927
931
938
945
955
962
968
975
979
984
986
991
992
998
1000
1004
1008
1009
1012
1017
1015
1015
1014
1012
1008
1008
1006
1007
1005
1001
999
999
994
989
983
979
975
971
968
966
963
960
959
955
954
952
948
945
940
937
937
935
935
932
936
932
934
930
926
925
926
922
923
924
928
928
930
930
931
930
929
929
927
927
927
928
928
929
931
932
931
933
932
930
931
930
928
930
931
932
934
934
933
931
930
928
927
928
925
927
928
929
930
930
930
928
928
926
925
922
923
924
927
928
930
929
929
927
924
926
925
924
927
926
925
929
929
929
928
929
927
927
925
925
925
926
929
932
938
939
945
948
954
962
971
982
996
1014
1036
1063
1094
1127
1164
1203
1237
1271
1299
1321
1336
1339
1336
1325
1313
1297
1274
1247
1208
1160
1105
1048
998
957
928
911
903
898
895
893
887
882
874
867
863
857
854
851
850
850
847
846
844
845
843
839
840
840
840
839
839
838
836
833
830
823
819
815
815
815
815
813
812
813
811
809
802
798
795
790
785
783
780
776
773
772
768
764
760
755
752
749
748
746
749
750
749
751
749
751
751
752
754
757
759
763
772
780
786
789
797
803
805
811
815
819
827
834
841
847
855
858
860
864
865
870
874
874
877
882
885
887
890
890
893
891
893
893
894
894
893
894
894
897
899
899
896
896
893
895
894
891
892
892
889
892
893
895
893
894
893
893
893
894
894
894
891
893
891
885
882
879
881
885
896
913
938
967
996
1025
1051
1071
1084
1092
1092
1080
1059
1029
995
962
937
919
908
897
881
862
838
812
787
770
761
763
765
768
772
777
779
780
784
790
796
804
813
821
836
845
855
862
871
878
882
887
896
898
901
904
906
904
906
905
904
901
900
897
894
893
895
897
896
895
894
892
891
889
885
884
884
883
885
886
892
895
898
901
902
906
906
907
908
910
913
918
923
925
932
936
942
947
952
959
962
966
973
984
989
995
1000
1001
1008
1011
1014
1018
1022
1023
1026
1028
1028
1030
1032
1032
1032
1027
1022
1018
1016
1015
1011
1007
1004
1002
999
995
990
985
980
976
971
966
965
961
957
957
958
957
954
952
950
946
942
941
939
940
940
938
942
943
942
940
939
938
938
937
939
941
940
940
941
944
944
944
941
941
941
941
942
939
944
943
945
946
945
945
943
942
940
938
938
939
938
941
942
944
942
938
939
941
939
936
937
937
938
937
941
941
940
939
937
935
935
934
933
934
936
938
937
938
938
937
935
934
934
931
932
933
935
934
937
939
937
938
937
939
933
937
941
949
952
959
968
978
984
994
1006
1020
1034
1053
1076
1103
1135
1169
1207
1245
1278
1312
1337
1359
1371
1374
1374
1368
1359
1342
1324
1295
1256
1205
1144
1082
1025
977
942
922
912
905
903
899
895
890
884
875
869
861
856
853
851
849
849
851
848
849
849
848
847
843
842
842
841
839
841
839
836
831
827
824
820
816
817
817
814
815
817
814
813
808
808
804
802
798
795
792
791
786
787
782
780
776
774
770
766
763
760
756
758
757
758
756
755
753
750
748
750
748
751
751
756
758
762
767
769
772
774
779
783
789
796
803
811
818
824
834
836
842
847
853
857
859
865
870
874
877
878
882
884
886
889
890
894
892
893
894
896
896
899
902
902
901
899
898
895
895
893
893
895
897
898
898
896
895
894
892
889
890
892
891
893
892
896
895
897
896
896
896
895
896
893
891
891
889
888
888
891
896
911
938
966
998
1029
1055
1078
1090
1093
1092
1074
1049
1018
989
964
944
928
910
892
867
844
821
799
786
781
781
786
792
799
806
810
814
819
821
827
834
839
846
849
855
858
863
868
874
878
883
884
888
887
886
886
884
886
886
887
890
893
893
895
895
891
892
890
887
887
883
885
884
885
885
886
885
887
890
891
890
892
893
897
901
905
909
914
918
922
926
928
934
940
946
953
962
969
977
980
985
993
995
1000
1003
1007
1012
1013
1016
1020
1023
1022
1022
1020
1019
1015
1014
1010
1006
1006
1004
1003
997
995
992
990
984
980
977
971
970
966
963
962
960
956
952
949
946
943
940
938
938
938
939
938
937
937
936
932
932
931
927
929
929
933
932
933
934
934
934
934
933
933
932
931
934
935
934
936
938
937
936
935
932
932
929
930
932
933
935
936
935
935
935
931
930
928
927
926
926
929
929
931
931
932
932
929
928
927
925
926
927
928
928
929
930
930
929
925
925
924
922
924
925
927
928
929
928
928
931
928
928
926
925
928
930
934
940
947
957
967
975
985
998
1012
1027
1048
1073
1105
1137
1173
1213
1248
1282
1310
1329
1341
1342
1334
1326
1311
1293
1269
1239
1201
1153
1100
1046
1000
959
930
913
902
896
892
889
885
882
875
867
860
852
850
848
845
842
842
843
843
843
842
841
838
834
833
834
832
829
828
829
826
820
817
813
811
809
807
806
807
805
804
803
798
796
790
783
781
778
776
773
773
771
767
768
765
760
758
755
752
749
749
750
747
751
750
753
753
754
754
754
755
758
760
764
767
772
777
782
787
792
795
799
803
809
814
818
826
834
840
844
849
853
854
858
862
865
868
870
875
878
882
884
883
885
885
885
886
886
885
886
887
888
890
892
890
888
886
886
884
882
883
884
884
884
885
886
885
885
883
881
880
880
880
882
883
886
889
892
892
891
890
886
881
880
877
878
886
895
910
929
951
975
998
1017
1037
1053
1062
1069
1072
1058
1040
1015
987
959
937
918
899
877
851
828
804
786
775
769
768
773
777
778
779
783
784
787
794
802
813
825
832
842
848
857
859
866
871
880
887
890
896
899
901
900
896
893
889
891
890
892
891
890
890
892
890
888
884
881
877
877
874
872
874
875
877
878
881
881
883
883
887
888
888
891
894
896
898
904
903
907
908
909
914
917
926
933
941
950
957
966
975
980
986
991
993
998
1000
1006
1009
1011
1014
1016
1014
1014
1012
1012
1008
1005
1000
998
997
994
994
990
985
981
977
972
966
964
958
957
954
949
949
946
943
943
939
935
934
930
929
926
930
931
930
930
929
930
927
926
922
923
924
925
924
925
926
929
929
930
927
928
927
925
924
925
928
930
931
931
933
933
932
928
930
931
929
928
931
931
931
932
932
930
928
928
927
925
926
927
927
929
931
928
931
930
930
930
927
926
926
926
927
929
929
930
929
930
928
925
926
927
925
926
927
928
930
931
928
930
930
927
923
923
924
926
930
932
933
931
933
934
932
933
933
937
940
947
957
967
978
990
1005
1020
1045
1068
1095
1131
1168
1203
1242
1275
1306
1329
1343
1344
1336
1323
1304
1278
1249
1210
1163
1109
1059
1011
974
948
930
920
914
911
909
908
905
905
903
901
895
893
888
883
876
872
870
867
863
863
861
858
855
849
843
842
839
833
833
833
831
834
832
830
826
824
821
817
812
810
805
805
807
805
802
800
795
793
788
782
778
776
773
768
765
764
764
762
759
755
754
749
746
745
745
746
747
749
752
757
759
755
759
757
757
760
763
766
772
780
785
790
796
802
805
810
815
819
827
834
839
846
851
857
860
863
865
870
870
871
872
876
880
881
884
886
886
887
887
888
886
888
887
887
885
890
892
893
895
892
894
891
890
889
889
887
888
887
888
887
887
885
887
884
886
888
887
890
891
889
889
885
877
874
871
873
877
885
899
920
944
973
1001
1027
1047
1062
1076
1079
1071
1055
1030
997
967
941
920
906
894
881
861
839
816
793
779
769
767
770
774
780
784
788
792
794
795
798
803
809
819
829
840
843
849
855
860
865
868
874
877
883
888
890
891
892
891
890
888
890
891
891
893
894
894
896
898
898
898
900
901
898
896
894
894
893
890
892
894
897
897
898
898
901
902
905
907
911
915
916
925
929
934
935
938
941
942
946
953
961
965
971
978
984
988
993
999
1003
1009
1010
1016
1017
1021
1026
1027
1031
1033
1036
1035
1035
1033
1033
1029
1029
1029
1027
1028
1025
1020
1014
1010
1007
1000
995
994
987
986
984
980
977
975
972
969
964
963
957
955
954
953
954
951
952
949
946
944
944
942
942
939
940
941
941
944
945
943
944
942
942
940
941
942
942
941
944
945
948
947
946
946
943
943
942
940
941
942
944
945
945
945
942
944
941
940
939
940
939
938
939
941
941
938
939
938
937
935
934
934
930
933
934
935
936
936
937
936
932
932
933
931
932
930
931
935
934
931
933
932
931
930
927
928
929
930
933
933
936
934
933
932
933
932
931
932
932
933
937
942
947
952
958
964
973
983
995
1009
1028
1051
1076
1106
1142
1181
1221
1260
1296
1327
1349
1362
1367
1360
1355
1342
1329
1308
1279
1240
1194
1138
1075
1017
967
930
910
897
893
889
888
883
877
869
862
857
854
850
851
851
852
854
854
850
847
844
843
841
841
839
838
837
839
835
832
828
827
821
819
818
816
814
817
816
815
813
810
805
803
797
795
791
787
783
784
781
781
778
774
770
768
766
762
757
757
756
758
757
757
757
755
754
752
751
752
753
756
762
764
769
774
779
782
785
788
795
798
803
809
818
823
832
838
843
848
852
856
860
861
865
866
873
877
882
884
888
889
892
889
891
891
889
891
893
893
898
896
897
898
896
895
894
892
891
892
891
893
895
896
895
894
893
891
889
887
886
888
887
888
893
891
891
894
893
895
893
891
889
888
884
880
881
883
889
901
921
947
977
1008
1035
1058
1078
1086
1088
1079
1057
1025
995
967
938
917
900
884
864
839
815
795
782
772
771
771
776
778
780
782
785
791
796
803
809
818
826
834
842
847
855
862
869
878
884
892
898
901
902
900
900
897
896
896
894
898
898
899
896
897
894
895
893
888
885
883
883
881
882
881
883
882
883
881
883
887
887
890
893
896
899
905
906
909
911
911
912
914
920
926
931
943
952
960
965
971
978
984
986
990
993
996
1002
1008
1010
1016
1018
1019
1017
1016
1014
1010
1009
1008
1006
1004
1000
1002
995
993
987
982
978
972
967
963
962
958
957
952
949
945
944
941
935
935
930
930
931
928
930
931
931
929
926
924
921
918
920
921
923
923
925
927
927
927
925
924
923
923
922
923
922
924
927
927
926
927
926
924
925
924
922
923
923
925
924
925
926
924
921
920
917
918
919
919
921
920
922
922
922
921
921
918
917
915
917
916
918
921
920
923
921
919
919
917
916
913
913
914
915
916
918
918
917
919
918
918
919
916
916
919
916
920
920
925
929
931
934
937
945
949
958
969
980
996
1013
1034
1056
1082
1115
1148
1188
1223
1258
1285
1307
1324
1329
1326
1316
1301
1285
1262
1235
1205
1167
1123
1076
1030
989
957
932
916
904
895
887
884
878
873
871
865
862
857
854
848
843
839
836
835
833
835
833
832
834
836
835
833
830
827
826
820
815
813
811
810
810
810
807
808
805
801
799
797
793
793
790
790
786
783
783
779
774
771
766
761
759
755
757
754
754
753
750
750
749
747
744
744
744
746
748
751
752
757
761
763
765
767
769
771
777
779
785
790
797
803
809
815
822
828
831
837
841
848
854
855
863
867
870
873
872
874
875
876
878
879
881
881
885
886
884
887
884
885
882
882
880
881
878
885
883
882
880
882
883
878
877
876
875
874
876
876
879
879
881
882
884
885
887
881
879
877
874
877
876
882
887
900
916
935
960
987
1010
1030
1049
1062
1067
1064
1049
1021
990
959
927
903
880
858
837
814
794
784
776
775
779
783
789
795
801
807
813
818
828
836
841
850
851
854
860
862
865
868
875
876
877
882
883
884
883
881
882
883
880
883
884
886
887
888
889
889
886
884
883
881
880
880
879
879
885
886
888
887
890
889
889
887
888
892
896
899
900
907
909
914
917
919
922
924
933
937
941
948
