957
963
969
975
977
983
985
989
994
997
1002
1010
1013
1018
1018
1020
1018
1016
1015
1012
1007
1005
1005
1005
1005
1003
1000
996
994
988
984
977
971
970
967
964
962
960
957
953
952
946
944
940
940
940
936
936
934
936
936
932
931
929
928
926
924
926
930
929
931
930
929
929
929
928
927
926
924
924
925
928
929
929
929
931
930
928
928
926
925
926
927
927
926
930
932
929
929
926
925
924
923
923
923
924
925
927
931
928
928
926
923
923
920
921
921
922
922
924
924
924
924
921
918
919
918
919
920
921
922
922
924
924
922
919
919
919
917
915
916
919
922
921
924
923
924
920
918
916
916
918
918
918
919
921
922
921
922
922
921
922
921
922
923
925
931
935
941
949
956
966
977
988
1005
1024
1048
1075
1111
1150
1189
1229
1270
1305
1331
1345
1348
1342
1328
1309
1282
1248
1204
1152
1089
1030
978
935
911
895
884
881
884
880
879
870
867
858
856
851
850
848
849
850
851
850
849
849
843
842
842
839
836
833
831
827
823
823
822
818
818
814
813
811
808
807
805
805
802
802
797
794
791
785
780
777
772
769
769
768
768
764
763
759
755
756
751
750
747
746
746
745
746
749
750
750
751
752
754
755
755
757
761
763
769
773
777
781
788
792
794
797
798
806
811
818
826
833
840
842
847
851
854
855
857
863
869
872
876
877
879
881
881
882
884
885
884
884
886
888
890
892
894
893
893
891
889
886
887
886
885
884
886
889
889
887
887
885
885
886
886
888
891
893
894
893
893
888
883
876
873
872
871
879
890
905
924
947
976
1004
1027
1045
1062
1074
1076
1077
1066
1045
1016
984
953
926
908
892
879
859
837
813
788
772
760
756
758
763
767
773
776
779
783
787
793
801
812
824
834
844
852
857
864
870
875
884
893
897
901
901
902
902
900
899
898
898
897
895
894
897
897
896
895
894
888
889
887
880
879
880
879
879
881
883
886
885
885
887
891
895
895
898
901
904
909
910
915
918
920
921
921
924
930
935
943
952
959
967
974
981
988
992
999
1002
1004
1008
1015
1018
1022
1025
1025
1023
1025
1021
1019
1015
1010
1007
1005
1004
1002
1001
998
994
990
985
979
976
971
967
965
960
959
955
954
952
946
943
942
939
938
935
934
935
936
934
935
936
936
933
931
931
930
929
931
931
932
936
933
934
933
933
932
932
931
931
932
934
934
938
938
936
935
934
935
932
934
934
934
935
935
935
936
933
933
931
931
929
928
929
929
930
930
934
934
933
933
930
930
928
925
924
926
927
927
927
929
929
929
927
926
925
925
923
925
925
926
927
926
927
927
927
925
924
924
923
924
926
925
925
928
926
927
925
925
923
923
920
924
925
925
928
928
929
928
925
926
924
925
924
927
927
928
931
929
929
932
931
932
936
940
947
956
964
974
987
1003
1019
1035
1054
1079
1107
1139
1176
1215
1252
1290
1320
1344
1356
1360
1358
1348
1333
1315
1295
1268
1230
1185
1134
1075
1023
979
946
923
909
900
895
892
889
885
883
873
870
863
857
851
848
846
845
846
846
849
849
849
843
844
841
839
837
834
832
832
829
830
827
829
825
823
821
818
814
812
812
810
810
811
808
808
804
800
792
789
785
782
779
774
773
774
771
772
767
764
760
756
755
752
752
751
751
749
750
752
752
754
753
754
755
755
758
760
763
769
773
776
780
784
790
792
795
799
808
813
818
826
831
837
841
846
848
849
854
858
862
865
871
873
878
878
879
880
878
880
884
881
885
885
888
888
887
889
886
887
886
885
883
881
882
881
885
883
883
885
884
883
880
879
878
878
881
881
885
886
887
886
879
876
874
873
877
881
897
917
945
975
1008
1032
1053
1067
1072
1064
1048
1020
991
957
929
908
892
874
853
833
809
791
777
769
769
771
777
783
787
796
797
799
804
810
819
829
838
846
855
861
871
876
881
883
882
879
876
875
874
872
876
881
883
886
888
889
887
885
883
883
883
883
883
883
883
883
881
881
881
882
882
882
885
891
894
896
898
902
906
910
910
913
915
919
925
929
936
944
949
954
957
961
967
970
972
978
983
990
995
1000
1005
1008
1009
1012
1013
1013
1011
1009
1009
1010
1007
1005
1004
1001
998
993
990
982
977
972
969
965
962
961
957
955
951
948
944
940
937
933
932
928
929
928
929
930
929
926
925
923
920
920
919
922
922
923
925
924
925
923
923
923
921
920
920
920
922
923
925
926
924
925
925
922
922
921
922
922
922
925
924
926
922
921
919
920
918
918
914
917
917
919
918
919
919
919
917
916
916
916
913
915
912
912
918
917
917
917
915
915
913
911
912
908
913
914
915
915
916
915
914
913
911
911
910
911
912
913
913
913
912
911
911
909
909
908
907
907
909
909
912
913
913
914
913
910
909
908
910
912
911
913
918
919
918
919
921
922
927
931
937
945
956
968
981
1002
1021
1042
1073
1105
1142
1179
1215
1246
1273
1294
1308
1309
1303
1291
1275
1254
1232
1203
1171
1128
1080
1029
984
942
918
903
892
885
880
876
871
868
861
855
851
849
847
843
843
841
839
838
839
838
836
835
836
838
836
838
834
833
828
824
822
822
818
817
819
819
815
817
814
813
809
806
804
802
799
798
798
795
792
789
786
780
778
774
770
769
766
765
765
764
763
761
758
757
756
754
753
753
754
756
759
761
760
763
765
766
767
768
772
776
782
786
791
799
802
809
811
816
819
823
829
836
839
842
849
855
859
862
864
865
867
868
870
874
880
880
882
885
883
886
887
886
884
882
883
884
882
889
888
890
888
888
888
885
884
883
883
883
884
884
885
886
885
884
885
885
884
884
885
884
887
885
880
879
876
879
887
900
919
945
975
1005
1028
1048
1064
1072
1068
1058
1035
1006
971
942
916
897
881
864
850
831
812
793
780
772
767
768
770
773
778
782
786
790
797
800
807
819
829
839
847
855
861
871
881
892
898
904
907
907
907
906
904
907
907
906
907
907
906
903
902
901
897
895
894
890
889
889
892
893
893
894
896
898
899
897
899
901
906
911
912
918
922
920
923
924
925
927
931
935
943
948
954
963
967
972
976
984
987
990
995
1001
1008
1011
1017
1022
1025
1027
1029
1029
1028
1026
1025
1024
1025
1024
1023
1024
1020
1016
1013
1008
1003
995
990
989
985
982
980
978
973
968
965
962
959
955
952
952
949
948
948
949
945
943
944
941
939
935
937
936
939
939
941
942
940
939
940
941
939
940
941
940
941
942
943
944
945
946
943
944
941
940
940
939
942
944
946
947
946
945
942
943
942
941
940
941
940
940
941
942
939
940
939
940
938
938
938
935
938
937
938
937
936
939
938
937
935
934
932
936
937
940
939
941
939
939
935
935
934
933
935
937
936
935
937
938
938
940
936
935
935
936
936
934
936
938
937
939
941
940
939
940
937
938
936
938
938
939
940
944
951
956
961
967
976
987
999
1014
1033
1057
1084
1119
1152
1190
1227
1266
1304
1335
1352
1367
1367
1358
1342
1321
1292
1254
1211
1160
1105
1054
1008
973
948
929
920
914
912
907
904
896
890
883
878
874
870
867
864
864
863
865
862
861
860
857
857
855
853
854
853
858
853
853
849
847
842
840
839
836
834
834
834
833
832
833
829
827
823
822
819
814
811
808
809
809
805
801
797
792
788
786
783
780
778
779
775
773
773
769
765
765
764
761
763
762
763
765
768
767
770
772
773
775
776
777
780
784
790
797
802
806
812
818
823
826
831
835
838
844
852
858
864
870
873
878
878
881
884
884
886
888
895
896
898
902
901
906
904
904
902
903
903
904
906
909
910
911
913
911
910
909
907
903
904
904
906
906
906
906
908
907
907
903
903
902
903
902
908
912
914
916
918
919
915
909
906
902
896
896
897
902
911
924
946
968
990
1012
1033
1050
1065
1074
1081
1076
1060
1034
1003
968
940
916
899
881
864
842
817
798
781
772
769
767
769
781
788
795
802
803
810
814
821
831
841
846
852
858
862
869
872
877
884
891
896
902
903
902
903
904
903
902
901
903
905
907
908
911
914
916
913
912
910
907
906
907
908
907
908
911
913
914
915
915
916
917
919
922
924
929
934
941
945
951
954
957
961
964
971
976
978
989
996
1003
1003
1009
1016
1020
1022
1025
1030
1031
1035
1039
1042
1042
1043
1043
1041
1039
1036
1031
1029
1025
1024
1022
1016
1015
1013
1005
1000
997
989
986
980
979
976
973
971
970
968
967
965
962
959
955
955
954
955
953
953
953
954
952
952
951
950
949
949
949
949
949
953
954
955
954
951
949
946
950
949
949
950
952
954
955
953
953
949
947
949
948
946
944
949
948
948
949
949
947
946
945
945
944
943
942
943
946
945
947
946
944
945
940
942
941
940
940
940
942
941
942
945
947
944
943
942
940
940
941
939
941
944
946
945
946
945
947
945
945
944
945
946
948
952
957
962
966
972
975
983
992
1003
1016
1033
1050
1073
1101
1128
1160
1192
1226
1259
1288
1318
1339
1354
1364
1363
1358
1351
1336
1319
1298
1267
1227
1180
1128
1071
1022
976
950
929
914
907
904
899
897
891
885
879
874
870
869
868
865
863
862
862
860
858
858
856
858
858
857
854
852
849
847
843
842
837
835
836
833
832
834
832
832
829
828
823
819
817
817
813
811
808
807
803
799
797
792
787
783
781
777
777
777
773
774
773
769
765
764
761
761
761
761
761
762
766
770
772
776
776
779
782
786
790
795
801
808
816
821
828
833
838
842
845
851
856
862
867
871
877
882
885
886
887
888
888
886
889
890
895
896
899
903
904
902
902
900
896
896
896
896
898
899
901
902
903
900
900
899
896
898
896
893
895
895
898
898
897
895
894
893
895
893
895
898
900
901
901
902
899
895
892
891
895
903
918
942
971
1003
1035
1058
1075
1086
1087
1078
1055
1029
997
969
942
919
902
885
862
836
812
792
780
776
777
783
787
793
798
803
804
806
812
819
826
834
842
850
857
865
872
880
890
897
899
901
903
906
905
906
906
908
907
909
909
908
906
906
901
901
899
898
896
896
893
893
892
891
889
890
890
892
892
895
899
904
905
911
913
914
917
919
920
922
923
926
933
940
950
956
963
970
977
982
985
989
993
998
1002
1008
1013
1018
1020
1022
1024
1024
1023
1021
1018
1019
1020
1021
1020
1019
1016
1013
1009
1003
998
996
991
987
986
985
982
979
977
969
967
963
959
954
948
946
943
945
945
943
941
940
941
939
935
934
933
933
934
935
934
935
935
935
936
936
934
932
932
932
933
934
938
938
940
939
937
937
937
936
934
935
936
936
937
939
939
939
938
939
937
935
934
935
934
937
934
935
934
934
934
933
931
934
933
934
931
931
933
935
936
935
936
935
935
929
931
929
929
930
931
933
933
933
931
932
930
929
928
930
928
932
932
933
934
934
934
933
933
934
934
933
934
939
942
946
950
954
957
965
973
981
990
1003
1018
1037
1063
1089
1117
1148
1181
1216
1247
1272
1292
1302
1305
1301
1290
1275
1254
1235
1208
1174
1136
1091
1047
1006
974
950
934
924
915
910
906
901
894
890
886
884
880
882
879
880
878
876
874
871
865
861
853
853
849
845
844
840
840
838
834
835
830
827
827
824
820
821
817
818
817
814
811
806
801
798
795
790
787
786
784
783
782
778
774
771
768
766
767
765
765
764
768
767
768
768
768
766
767
769
771
772
775
779
784
791
793
796
803
805
810
813
819
824
830
838
847
853
859
864
868
869
870
874
874
881
884
887
889
894
896
896
897
897
896
895
896
897
897
898
900
901
901
897
899
899
897
897
895
893
896
897
894
898
899
898
900
897
894
895
895
897
898
900
903
905
906
903
902
897
894
888
886
888
888
895
904
916
934
954
980
1000
1022
1043
1058
1069
1070
1064
1045
1014
981
947
920
899
881
864
845
827
809
793
783
782
786
788
798
803
809
809
813
821
827
834
842
852
859
864
867
871
875
879
882
887
890
895
897
900
902
900
900
901
902
902
902
905
906
903
906
910
911
910
909
907
905
903
902
903
902
905
906
909
909
912
913
913
913
915
913
914
919
924
930
935
942
944
948
955
960
962
967
972
979
988
992
999
1008
1014
1018
1022
1026
1029
1029
1033
1035
1038
1036
1040
1041
1038
1038
1033
1028
1025
1024
1021
1018
1015
1011
1010
1006
1001
998
993
988
983
981
978
971
971
969
968
964
962
961
957
954
951
950
949
950
949
952
954
955
955
952
950
948
946
946
945
947
950
951
952
953
952
950
952
950
949
948
948
951
952
952
953
952
952
953
951
949
950
949
947
947
946
950
951
951
951
947
948
947
946
944
944
944
945
946
945
945
944
946
945
942
941
941
940
939
941
941
942
943
943
940
939
940
937
939
939
939
942
942
941
940
941
940
940
938
937
938
938
939
940
940
940
941
940
938
943
942
942
940
941
939
941
943
944
946
943
946
943
943
942
943
943
942
944
948
952
959
962
966
969
975
980
988
1001
1014
1031
1048
1071
1092
1118
1150
1181
1218
1251
1281
1312
1336
1351
1362
1367
1364
1356
1345
1329
1311
1291
1267
1238
1201
1159
1114
1068
1029
993
966
945
931
920
913
909
905
902
894
890
884
875
872
868
868
864
862
863
863
863
864
862
862
860
860
853
853
849
848
846
842
839
837
840
839
838
835
834
833
831
830
826
825
821
821
818
816
814
810
805
801
796
793
790
787
786
783
782
782
777
776
772
766
765
762
763
762
763
763
765
770
768
769
766
767
768
771
773
772
776
783
787
792
798
802
806
812
815
821
829
834
842
849
856
861
868
871
876
880
883
887
891
894
898
902
902
906
908
909
909
909
907
906
907
908
910
912
915
914
914
911
912
909
908
907
906
907
909
909
911
910
910
911
908
908
906
907
909
910
913
916
919
921
920
915
913
907
901
897
899
896
900
908
920
937
958
979
1006
1030
1049
1068
1079
1082
1075
1055
1024
990
957
931
911
894
869
844
818
795
776
771
768
775
783
787
790
795
797
803
808
811
820
832
842
852
861
867
871
878
884
888
898
906
913
920
923
926
926
924
925
925
923
921
917
920
920
921
924
924
921
921
918
917
914
914
910
908
909
910
911
912
911
913
917
916
916
917
921
921
926
930
934
938
941
943
946
948
950
952
957
965
974
982
988
998
1003
1010
1015
1021
1023
1026
1029
1031
1036
1038
1044
1052
1054
1055
1053
1054
1052
1050
1050
1049
1048
1051
1049
1049
1044
1040
1036
1029
1026
1022
1020
1017
1014
1009
1008
1004
1001
994
991
990
986
984
981
979
978
976
973
974
972
970
967
966
963
960
961
961
960
962
961
960
958
960
958
958
956
955
956
955
957
960
961
963
961
962
960
959
959
957
956
956
957
959
960
963
959
960
957
956
956
955
956
956
958
958
958
960
956
957
959
955
954
953
951
952
954
954
956
956
954
954
953
949
950
948
949
950
951
953
953
955
952
954
951
950
950
948
946
947
948
950
952
951
951
952
946
947
944
945
943
945
946
947
947
949
950
947
947
947
945
945
945
945
946
947
949
952
951
951
950
950
949
948
947
946
949
951
957
961
967
971
979
988
996
1009
1022
1041
1065
1087
1118
1153
1191
1228
1267
1302
1331
1353
1366
1370
1369
1361
1346
1328
1301
1270
1228
1178
1123
1064
1014
974
947
931
923
919
914
911
905
901
893
886
881
876
871
867
870
868
867
867
867
862
862
859
859
857
858
856
856
853
850
847
843
840
836
835
835
831
832
832
832
831
829
826
822
818
815
810
808
806
803
801
799
797
793
790
785
783
778
775
775
772
773
770
769
771
770
770
768
767
768
766
769
772
775
778
780
785
788
791
795
798
802
805
813
817
825
832
840
849
855
858
866
868
872
878
880
884
887
892
893
894
896
898
897
898
897
900
901
900
901
903
904
907
907
904
904
903
900
902
898
900
902
901
904
902
901
900
899
898
900
898
899
899
899
902
904
908
906
906
903
902
900
894
893
891
892
899
905
921
939
962
989
1016
1039
1056
1071
1081
1080
1067
1043
1012
978
944
918
893
871
847
824
804
794
790
789
793
796
803
805
806
806
806
812
819
827
836
847
855
863
869
874
878
881
885
891
895
896
897
900
900
901
899
900
901
901
901
903
904
906
907
908
909
908
906
904
902
898
897
897
896
898
896
902
905
909
907
910
913
914
916
919
921
924
930
935
940
944
950
954
959
964
969
975
984
989
997
1002
1008
1013
1015
1020
1021
1023
1023
1027
1027
1029
1029
1031
1031
1030
1027
1021
1018
1014
1010
1008
1005
1000
999
995
993
991
985
979
975
971
966
963
960
956
956
956
955
955
953
948
945
941
940
941
940
940
941
941
943
943
942
941
939
936
935
937
934
936
940
940
942
943
943
940
940
938
936
938
939
939
940
941
942
942
943
940
939
938
937
934
936
936
937
938
940
939
938
936
936
933
933
933
931
933
934
937
936
937
936
933
934
932
931
930
932
932
932
932
936
934
934
934
932
930
930
931
930
930
929
928
931
932
931
929
929
928
928
925
927
928
929
931
931
927
929
927
928
928
925
925
925
