999
997
997
997
997
997
999
997
999
996
995
996
996
993
992
991
991
991
990
991
992
992
994
994
994
997
993
995
994
996
996
997
1000
1002
1004
1006
1007
1011
1013
1012
1014
1014
1013
1009
1007
1005
1003
1003
999
995
991
987
982
980
976
975
973
972
971
973
969
967
965
965
964
963
963
963
964
966
963
963
962
959
957
959
961
960
961
961
961
962
961
960
959
955
957
957
956
954
960
958
960
960
962
963
962
959
960
956
954
956
958
960
961
964
962
961
961
961
956
956
957
956
958
958
960
961
960
961
960
960
955
954
955
955
957
958
960
961
958
958
957
957
958
957
957
959
957
960
959
962
961
962
960
960
959
961
960
958
958
959
961
961
962
964
963
963
962
960
963
961
962
964
964
967
966
968
968
967
964
965
963
962
963
966
969
970
969
971
967
969
968
963
964
965
967
968
969
970
968
970
966
965
964
965
967
966
968
965
971
970
969
971
968
968
967
964
965
964
966
966
969
971
969
973
971
971
969
968
968
969
968
967
969
970
973
974
972
971
971
966
968
968
969
971
970
972
970
972
969
968
969
967
968
968
970
971
973
973
972
974
974
973
973
971
971
972
974
973
975
977
976
975
973
973
970
969
968
971
972
972
974
975
975
976
975
974
973
972
969
969
970
970
972
972
973
975
971
972
971
971
970
970
972
973
975
977
975
975
972
972
972
971
973
973
972
973
976
977
976
975
976
975
974
974
972
973
974
976
979
979
979
980
980
980
981
983
983
986
987
991
993
995
996
999
1004
1008
1011
1014
1017
1018
1017
1016
1014
1012
1010
1008
1004
1002
996
993
988
986
985
980
978
978
975
976
973
972
972
970
969
970
971
970
969
973
969
969
970
970
970
966
969
969
970
969
971
970
962
951
935
923
918
932
975
1041
1125
1216
1299
1362
1384
1357
1284
1189
1098
1036
1001
991
1000
1007
1013
1013
1006
993
980
969
963
962
963
961
962
960
960
957
957
956
954
955
953
951
951
952
952
953
956
955
955
955
954
953
952
950
952
952
950
954
952
953
955
954
954
953
953
954
953
955
956
956
958
957
956
957
956
956
956
953
955
954
956
959
960
962
961
959
961
960
960
961
962
964
966
967
971
970
969
972
972
972
971
970
972
972
974
976
978
982
979
980
980
982
983
983
983
984
986
990
992
995
998
1000
999
1002
1003
1001
1001
1001
1004
1006
1009
1012
1016
1018
1020
1022
1023
1022
1024
1024
1027
1027
1030
1034
1034
1038
1044
1045
1048
1047
1047
1046
1049
1050
1057
1060
1061
1063
1065
1064
1059
1057
1058
1057
1058
1056
1058
1058
1056
1057
1054
1051
1048
1044
1041
1036
1037
1033
1035
1032
1028
1025
1023
1019
1016
1012
1008
1008
1009
1005
1005
1004
1001
1001
996
995
992
991
993
992
994
994
992
992
988
987
986
986
985
985
986
987
985
987
989
990
990
989
990
990
989
987
987
987
987
985
986
986
986
986
987
986
986
984
984
983
984
985
989
988
993
995
994
994
992
992
993
995
998
999
1008
1010
1015
1017
1018
1015
1013
1010
1007
1004
1003
1001
1000
997
995
992
985
979
975
969
967
969
969
970
971
971
970
968
966
962
962
961
959
961
962
962
962
964
962
961
959
958
958
957
956
956
958
959
959
960
961
961
960
958
960
960
963
963
965
964
964
963
962
963
962
962
963
959
959
958
959
960
963
965
966
966
964
964
962
958
958
957
957
958
963
966
964
964
965
963
961
961
960
960
959
960
963
964
963
967
965
964
961
961
958
960
958
961
963
964
964
965
962
964
963
962
962
964
964
968
966
968
968
966
964
962
963
962
960
961
963
964
964
963
965
967
965
967
965
965
966
966
968
967
967
965
968
970
970
969
969
966
965
967
963
967
968
974
975
975
975
975
974
972
971
973
971
971
972
974
974
976
973
971
969
972
970
973
973
975
976
977
977
975
974
974
971
971
969
971
974
975
974
974
972
973
974
973
972
972
974
976
976
978
978
976
973
972
968
968
967
971
974
973
976
980
980
979
978
976
975
973
974
973
974
974
976
978
977
977
977
976
978
979
978
977
976
976
976
977
976
978
980
980
980
980
979
975
976
976
978
979
980
983
982
983
981
979
978
978
978
980
981
982
983
983
982
981
980
978
977
977
977
979
981
982
980
984
985
984
979
979
977
978
977
978
980
980
983
984
983
982
984
982
980
979
980
979
980
982
983
985
983
984
983
982
982
980
981
984
984
986
991
992
994
995
996
999
999
997
1002
1004
1007
1010
1017
1021
1024
1025
1023
1021
1017
1013
1012
1009
1007
1007
1003
1003
999
997
989
987
983
978
980
979
978
979
981
983
982
982
980
979
977
976
975
977
976
975
978
980
981
982
980
979
977
973
973
967
959
950
939
935
948
978
1031
1099
1178
1251
1315
1348
1342
1285
1194
1101
1030
992
979
980
984
989
990
986
980
975
972
972
970
971
972
970
967
965
961
963
963
961
962
964
965
961
960
960
959
955
953
957
956
958
959
961
957
957
957
957
958
955
954
958
956
957
957
962
962
961
960
959
958
957
957
959
960
961
961
965
965
962
963
962
963
961
961
962
963
964
964
967
967
968
969
968
967
968
968
967
968
971
970
975
973
974
972
975
974
975
975
977
978
980
982
985
983
984
985
985
987
985
987
987
987
992
993
997
998
1000
999
998
1000
998
1000
1004
1006
1010
1013
1014
1019
1020
1020
1022
1024
1026
1027
1030
1033
1037
1042
1046
1047
1051
1053
1053
1055
1054
1055
1059
1062
1066
1066
1069
1070
1070
1070
1069
1069
1068
1067
1069
1067
1067
1067
1064
1064
1061
1057
1051
1052
1045
1043
1042
1039
1038
1035
1034
1029
1030
1025
1021
1019
1015
1012
1011
1010
1009
1009
1008
1006
1006
1003
1002
1002
999
998
998
1000
1000
1000
1003
1002
1003
1001
998
998
996
995
996
995
996
996
998
997
995
993
994
991
990
989
989
988
989
989
991
990
990
988
986
986
984
981
984
984
983
983
987
988
988
991
992
991
990
992
994
995
998
1002
1006
1010
1015
1017
1017
1016
1014
1012
1010
1007
1007
1004
1006
1004
1001
995
992
985
980
976
971
971
972
970
973
972
971
969
967
966
963
961
961
962
961
964
963
964
965
965
960
961
960
960
962
962
962
965
966
964
963
965
964
963
963
960
963
965
965
962
967
965
965
964
963
961
959
959
961
960
962
963
965
965
965
963
963
960
958
960
961
960
962
964
964
964
966
963
963
962
962
960
962
962
963
964
967
967
967
966
964
963
963
961
961
963
965
967
968
967
965
963
966
962
962
962
963
964
966
963
967
967
968
969
965
966
963
963
963
963
964
967
967
969
970
969
966
967
966
966
967
970
968
970
970
971
969
969
971
969
969
969
969
971
969
971
975
974
973
974
972
972
971
971
971
973
973
975
975
974
977
976
974
974
971
971
971
973
973
975
976
975
977
975
976
974
972
973
973
972
973
978
977
978
979
979
978
977
976
978
975
976
979
980
980
980
981
980
977
977
975
975
975
977
979
976
978
978
977
979
982
980
979
979
975
978
978
978
981
981
981
979
979
975
975
978
976
978
979
981
981
982
979
978
979
978
979
977
979
979
980
981
982
983
981
981
980
980
979
977
977
978
980
980
983
981
981
981
980
979
978
978
977
979
982
983
984
983
984
985
984
981
981
981
979
980
983
983
985
984
986
986
985
984
982
984
987
990
992
995
999
998
1000
1001
1006
1006
1011
1016
1022
1024
1025
1024
1024
1020
1018
1016
1010
1009
1003
1000
996
999
994
992
989
987
984
981
980
975
973
975
979
979
981
981
982
981
977
978
976
976
975
976
976
974
971
973
977
978
978
972
963
948
933
925
937
975
1039
1123
1217
1303
1366
1384
1341
1251
1146
1056
1001
979
983
992
1003
1008
1003
992
981
971
966
965
963
963
965
965
967
966
965
965
963
963
960
960
961
958
958
959
961
960
961
961
959
960
956
955
959
957
960
960
964
965
967
966
964
962
963
961
961
963
965
967
967
969
969
967
965
964
962
961
964
967
970
970
973
975
971
972
973
974
976
976
974
976
976
976
977
977
978
981
981
981
980
978
982
985
988
989
992
991
989
989
987
990
989
992
996
1000
1005
1008
1010
1009
1010
1011
1010
1012
1011
1011
1012
1014
1016
1017
1024
1025
1027
1026
1027
1025
1029
1029
1033
1037
1041
1046
1051
1055
1055
1057
1055
1057
1058
1058
1062
1065
1070
1074
1076
1077
1075
1075
1075
1074
1075
1076
1075
1076
1081
1082
1082
1080
1076
1074
1071
1072
1067
1066
1061
1061
1058
1055
1056
1057
1057
1055
1052
1047
1041
1036
1033
1029
1026
1024
1024
1022
1017
1018
1016
1013
1012
1010
1008
1010
1010
1013
1014
1013
1011
1010
1006
1002
997
995
992
991
990
993
995
998
1001
1003
1004
1003
1003
1003
999
1001
998
999
999
999
999
1000
1000
999
999
1002
1002
1004
1005
1008
1011
1012
1010
1011
1010
1010
1007
1012
1018
1023
1029
1036
1034
1034
1030
1025
1020
1015
1011
1008
1005
1007
1005
1002
999
996
989
987
981
978
975
975
977
976
975
979
978
976
978
975
973
972
972
970
970
968
970
972
972
972
973
972
974
973
974
975
974
974
974
973
974
973
976
975
975
972
973
974
972
973
974
974
977
977
979
977
971
969
969
972
972
976
978
980
978
978
977
975
975
974
972
973
973
973
974
974
975
976
976
975
975
976
980
978
976
975
974
975
976
978
978
979
978
975
972
972
972
973
975
976
977
978
979
978
975
974
973
973
975
975
976
977
980
980
982
979
979
978
976
975
978
978
981
983
984
982
980
984
981
979
980
976
978
979
979
979
983
984
983
982
983
982
982
982
983
980
982
983
985
985
982
983
984
983
981
984
982
983
984
985
986
986
986
985
986
983
985
982
986
983
985
985
987
989
987
988
985
986
983
984
984
983
983
985
989
989
988
989
987
987
987
985
987
985
987
987
988
987
991
991
988
989
987
986
987
987
985
989
993
991
991
989
988
989
988
987
987
987
989
988
989
991
989
991
991
990
988
987
988
988
990
989
991
991
992
991
991
989
988
987
988
987
989
989
991
993
990
991
990
987
987
990
990
989
990
991
993
991
993
992
990
991
990
989
989
990
989
990
992
994
993
992
991
992
989
990
991
992
992
996
999
999
1002
1004
1002
1003
1004
1003
1003
1005
1010
1018
1023
1027
1031
1031
1030
1029
1024
1020
1019
1018
1017
1017
1015
1013
1009
1006
1001
996
993
987
987
985
985
987
987
987
987
984
981
981
980
978
981
981
983
983
985
986
985
985
984
983
982
979
978
974
964
952
941
934
940
970
1020
1091
1175
1255
1325
1360
1351
1290
1201
1108
1043
1007
995
997
1002
1008
1006
1001
993
985
979
978
977
978
976
971
969
964
962
964
965
967
968
968
967
966
964
964
961
960
962
962
963
964
966
965
965
965
965
963
962
962
963
961
962
966
965
966
967
967
965
964
963
963
964
963
965
966
969
969
968
969
965
965
966
968
968
967
968
972
971
970
972
972
974
972
976
972
972
976
978
979
981
980
982
984
983
985
984
982
982
985
987
989
992
993
994
995
994
995
993
992
997
997
999
1001
1005
1006
1007
1008
1007
1008
1008
1007
1010
1014
1016
1017
1020
1023
1026
1027
1029
1031
1030
1033
1036
1037
1041
1045
1050
1045
1050
1053
1054
1054
1055
1055
1060
1061
1064
1066
1068
1069
1070
1071
1069
1069
1068
1065
1065
1063
1063
1064
1064
1061
1059
1057
1053
1049
1046
1043
1041
1040
1035
1035
1034
1032
1028
1025
1022
1019
1016
1014
1012
1011
1008
1011
1012
1010
1008
1007
1005
1002
1002
999
999
997
997
1001
1000
1002
1000
999
998
997
995
995
994
994
996
995
997
997
996
997
993
993
993
988
991
991
991
992
993
993
992
993
994
994
994
993
996
999
999
1001
1005
1005
1006
1006
1008
1011
1015
1015
1020
1017
1019
1019
1017
1014
1011
1009
1004
1001
998
992
987
984
980
979
977
976
974
972
972
972
970
969
968
968
969
968
968
969
968
967
965
965
965
964
962
961
965
962
965
967
966
966
964
963
964
959
961
964
964
963
965
966
967
968
968
964
963
961
960
961
964
967
965
966
966
967
965
964
963
962
963
963
963
965
965
966
965
967
964
964
963
962
963
963
965
965
966
969
966
967
965
963
964
963
962
965
962
964
966
967
967
966
965
964
965
964
961
961
965
965
967
967
968
967
966
965
963
964
964
965
966
965
967
968
967
967
969
968
966
963
965
965
968
968
970
971
967
970
969
968
967
966
966
969
970
969
972
972
972
971
970
970
969
968
969
968
970
971
972
971
971
970
970
970
970
970
969
972
971
973
974
976
971
973
974
972
971
968
970
971
972
973
974
976
974
976
974
975
974
972
971
972
973
974
973
975
974
975
974
973
972
972
972
975
972
974
976
976
976
976
976
974
972
972
973
971
974
974
978
975
979
978
977
977
975
973
972
975
977
977
978
981
979
980
978
978
976
975
975
978
979
978
980
983
981
982
980
979
978
977
977
975
978
977
979
978
981
979
978
978
976
974
975
976
979
979
983
983
984
984
982
981
979
977
979
976
980
980
984
984
984
986
984
986
988
988
990
990
990
992
995
998
1000
1002
1006
1012
1013
1018
1020
1019
1018
1016
1016
1014
1013
1011
1006
1003
1000
997
995
991
991
987
985
983
981
978
976
975
974
973
974
974
973
974
974
974
973
974
974
975
973
974
973
972
974
973
976
977
976
976
974
967
960
949
934
921
918
931
966
1023
1095
1176
1251
1318
1356
1352
1302
1217
1123
1047
1003
988
988
996
1004
1006
1003
994
982
974
967
965
966
968
967
968
966
963
961
957
957
956
959
960
962
965
963
962
958
959
955
949
951
949
952
954
955
956
959
960
959
960
960
955
958
958
958
960
961
965
961
964
961
960
959
959
958
958
958
959
960
960
963
961
959
959
958
959
958
961
964
965
967
967
968
968
968
968
969
970
970
973
972
973
974
973
978
980
979
982
979
978
979
978
979
983
989
992
992
993
991
990
989
992
993
994
1000
1001
1004
1007
1009
1014
1012
1012
1012
1013
1013
1016
1020
1024
1027
1032
1034
1038
1036
1040
1039
1041
1046
1046
1048
1051
1053
1057
1058
1064
1063
1067
1068
1067
1069
1071
1071
1075
1076
1077
1076
1078
1075
1072
1071
1069
1067
1066
1063
1063
1066
1065
1062
1059
1054
1052
1046
1042
1037
1032
1031
1028
1026
1026
1023
1022
1019
1016
1014
1011
1009
1007
1005
1002
1000
1000
1000
999
997
999
1000
997
996
997
995
992
994
995
993
991
993
993
995
996
994
994
994
994
996
995
995
993
993
993
995
994
995
998
999
1000
1006
1006
1008
1009
1008
1009
1009
1012
1015
1020
1023
1025
1024
1022
1018
1018
1018
1015
1011
1006
1004
1001
999
1000
999
998
993
990
983
979
972
968
966
968
969
974
974
974
973
972
969
965
962
958
958
956
963
967
969
972
972
971
964
965
963
964
965
964
965
965
965
966
965
969
969
969
968
966
963
961
960
961
966
967
968
970
968
966
963
960
960
961
962
961
963
963
963
961
960
959
960
960
963
964
964
966
963
963
962
963
962
961
962
962
962
963
965
966
965
966
966
964
963
964
962
963
963
961
963
962
964
968
967
967
967
967
966
966
967
966
967
968
968
970
966
967
966
967
965
965
962
962
965
965
968
970
970
970
968
966
965
966
967
966
967
969
972
974
971
972
970
969
968
966
966
968
970
971
973
973
973
973
974
972
970
969
971
969
972
972
972
975
975
976
971
971
969
969
970
971
970
973
974
976
975
975
974
974
972
970
971
973
972
973
975
977
975
975
973
971
969
970
970
970
973
974
975
975
975
975
976
974
972
973
969
972
974
975
975
976
976
976
977
974
974
971
972
971
973
975
978
979
978
978
975
977
974
971
973
973
975
976
978
978
980
978
979
976
975
971
974
975
973
975
977
975
977
979
979
976
974
974
972
973
973
976
977
977
976
976
977
977
976
974
974
975
977
976
977
982
980
982
981
980
982
982
986
987
990
992
993
996
996
997
1000
1004
1010
1011
1011
1013
1015
1013
1015
1012
1008
1007
1001
999
998
994
988
984
981
978
976
974
975
971
973
971
970
968
968
968
966
967
967
971
970
971
970
968
968
968
967
967
965
961
960
952
941
928
923
934
977
1041
1129
1219
1299
1350
1349
1289
1196
1099
1026
984
969
974
982
989
993
988
980
972
968
964
964
964
961
959
957
955
954
953
954
955
956
954
954
952
952
951
950
950
951
952
953
954
955
955
953
954
950
947
948
950
951
951
954
953
956
955
952
951
954
953
951
951
951
954
956
958
957
957
957
957
956
955
955
953
957
957
960
962
964
963
963
962
963
963
961
966
965
967
968
969
971
972
971
971
970
970
968
968
970
972
974
978
978
981
982
981
981
980
980
980
984
987
992
991
991
990
992
992
993
994
996
995
1000
1001
1001
1005
1004
1007
1009
1011
1011
1013
1015
1017
1023
1024
1029
1034
1034
1039
1039
1040
1042
1043
1043
1046
1049
1052
1055
1056
1057
1058
1058
1054
1052
1053
1054
1052
1053
1053
1054
1054
1054
1052
1048
1047
1043
1040
1037
1035
1033
1033
1029
1029
1023
1023
1020
1016
1013
1008
1004
1003
1001
1000
1000
999
997
998
994
992
991
986
985
986
988
989
989
991
990
988
987
985
986
983
984
985
987
985
986
988
988
