989
989
990
992
991
991
990
991
991
994
999
1001
1003
1006
1008
1009
1008
1009
1012
1011
1016
1017
1019
1022
1024
1026
1027
1027
1030
1029
1031
1034
1038
1042
1047
1050
1053
1054
1053
1053
1054
1057
1060
1063
1067
1070
1071
1073
1077
1078
1078
1078
1080
1079
1077
1078
1077
1079
1081
1077
1080
1077
1078
1077
1076
1074
1071
1068
1067
1065
1063
1061
1058
1059
1052
1047
1043
1034
1031
1032
1031
1030
1032
1030
1026
1022
1017
1014
1010
1009
1008
1009
1009
1011
1009
1008
1007
1005
1006
1003
1003
1001
999
997
995
998
998
999
999
999
999
999
1000
999
1000
997
998
997
999
1002
1000
1000
999
998
994
997
999
1001
1004
1007
1010
1011
1009
1009
1011
1010
1011
1013
1016
1023
1026
1029
1030
1031
1026
1023
1020
1017
1014
1009
1005
1002
998
996
992
985
985
981
983
983
978
976
975
975
972
973
976
976
974
973
974
972
972
971
971
969
968
972
970
971
970
968
967
968
970
972
969
968
965
965
967
971
971
973
973
973
969
969
968
967
967
968
971
973
973
972
972
970
966
963
962
962
967
968
972
972
974
974
970
968
968
967
965
967
967
966
967
970
970
972
972
973
971
970
966
968
969
971
971
977
977
972
974
970
972
972
972
975
974
975
973
975
974
975
972
972
972
976
975
977
977
976
977
976
976
975
975
972
975
975
974
975
976
977
976
978
978
978
980
978
978
978
975
974
973
976
977
978
977
976
976
975
975
975
975
974
975
976
980
982
980
980
981
978
977
976
976
975
977
978
981
981
983
983
981
980
979
980
979
978
978
982
983
983
985
983
983
981
981
981
980
980
981
981
982
984
982
984
984
981
983
982
979
982
982
983
983
986
985
984
985
984
984
982
982
981
981
982
985
985
984
984
985
983
982
980
981
981
981
978
979
984
984
984
983
982
981
984
982
982
980
982
982
983
986
985
986
985
983
980
981
981
983
985
984
985
988
987
987
985
986
983
980
983
983
984
985
987
988
988
989
988
987
984
984
984
983
986
985
987
990
987
990
990
991
992
992
994
995
998
999
1002
1007
1007
1011
1011
1016
1020
1023
1024
1025
1027
1024
1024
1022
1020
1016
1013
1009
1006
1002
999
997
995
990
991
986
985
985
982
983
984
980
980
981
983
982
983
982
981
983
980
981
979
976
980
982
982
985
982
983
980
971
960
945
932
926
942
977
1036
1110
1190
1266
1328
1361
1347
1293
1204
1113
1044
1004
991
991
1002
1007
1009
1007
998
988
978
974
972
972
975
974
977
974
970
966
967
963
963
960
961
961
961
963
962
965
964
962
963
961
960
959
960
959
962
964
964
968
965
967
964
962
961
961
960
960
961
967
968
967
966
968
965
965
962
961
966
964
966
968
970
970
970
971
971
971
970
967
969
970
971
972
975
975
975
977
977
976
976
976
977
978
982
983
983
985
986
988
987
986
984
983
983
988
989
989
993
996
997
996
996
998
999
999
1001
1005
1008
1008
1011
1011
1011
1011
1014
1018
1017
1018
1019
1023
1025
1028
1029
1033
1035
1036
1038
1042
1041
1043
1046
1047
1051
1054
1058
1062
1063
1066
1064
1066
1067
1067
1071
1070
1070
1075
1075
1076
1076
1076
1072
1071
1069
1065
1065
1065
1065
1065
1064
1062
1059
1058
1054
1051
1049
1043
1039
1037
1038
1037
1034
1032
1029
1027
1025
1018
1018
1016
1016
1013
1015
1013
1013
1016
1013
1011
1010
1008
1005
1003
1005
1003
1002
1004
1005
1007
1006
1004
1003
1003
1002
999
998
1000
1001
999
1003
1002
1001
1001
1000
999
994
994
997
995
996
998
995
999
997
997
993
993
991
992
995
994
997
1000
1002
1001
1002
1004
1002
1003
1003
1003
1004
1006
1011
1016
1022
1024
1025
1025
1023
1021
1018
1014
1008
1008
1008
1006
1005
1005
1002
997
992
985
982
978
975
978
976
976
978
976
973
974
970
973
971
970
970
970
970
971
972
973
972
971
970
968
966
967
969
968
967
968
970
970
972
969
970
968
967
968
967
967
968
969
971
973
971
973
971
971
970
967
965
966
968
968
970
974
971
972
970
969
967
970
968
969
969
969
970
973
972
971
970
968
968
965
967
967
967
967
969
970
969
968
969
967
966
964
966
966
968
968
971
972
974
972
971
972
971
969
968
970
971
972
973
973
972
974
973
972
970
970
968
970
972
973
974
975
976
976
973
973
973
973
972
973
974
975
976
975
977
976
976
974
973
971
972
971
974
975
977
978
977
978
976
977
975
976
974
974
977
979
980
979
979
977
980
977
976
976
976
978
976
977
980
980
980
979
978
978
978
976
976
978
977
979
980
982
982
981
978
975
975
975
975
979
980
983
982
985
984
985
980
981
980
980
980
980
980
981
982
983
982
980
978
980
978
976
976
977
977
983
986
986
986
984
985
984
985
982
984
983
982
983
980
985
985
986
983
983
984
982
980
980
981
983
983
985
982
985
981
981
977
978
978
979
982
982
985
985
986
985
984
982
982
980
982
980
982
983
986
988
988
986
988
986
986
982
983
985
982
984
986
988
989
993
993
996
998
997
999
997
995
996
999
1003
1008
1019
1024
1028
1028
1027
1023
1020
1016
1017
1017
1016
1014
1012
1009
1005
1000
995
990
986
986
983
982
985
980
981
980
982
980
977
977
976
977
976
977
978
979
979
980
980
979
978
975
976
979
980
978
975
971
959
945
933
932
952
994
1057
1135
1216
1291
1347
1365
1335
1258
1161
1073
1012
983
979
985
996
1005
1007
1002
992
981
976
971
970
971
970
970
974
974
972
972
972
971
966
964
961
963
962
965
967
970
970
968
966
962
965
965
965
966
966
965
966
967
970
969
970
971
970
971
969
968
967
968
967
970
974
973
975
973
972
971
968
968
967
970
971
973
978
979
982
980
981
981
978
976
977
977
979
983
986
987
988
987
988
990
991
993
997
996
999
999
1001
1003
1005
1008
1002
1004
1003
1003
1005
1008
1010
1014
1016
1018
1022
1023
1024
1023
1023
1026
1027
1031
1031
1033
1036
1035
1039
1041
1042
1046
1050
1053
1057
1061
1064
1066
1069
1067
1069
1069
1071
1071
1069
1071
1074
1077
1080
1082
1085
1084
1088
1086
1083
1080
1081
1079
1078
1079
1078
1078
1076
1070
1070
1066
1063
1061
1056
1055
1051
1047
1044
1045
1043
1041
1039
1035
1031
1028
1021
1020
1018
1014
1013
1014
1014
1015
1016
1013
1014
1006
1003
1001
1002
1002
1001
1003
1006
1004
1002
1001
999
999
999
1003
1004
1004
1002
1003
1001
1000
998
997
998
995
995
996
998
1002
1005
1007
1009
1008
1010
1009
1006
1005
1005
1002
1003
1006
1014
1021
1029
1033
1034
1031
1029
1024
1017
1015
1012
1010
1008
1005
1004
1002
999
993
987
984
979
978
977
977
976
976
976
974
975
976
976
975
973
972
969
970
971
970
971
969
972
970
969
965
967
965
967
970
971
971
972
970
972
968
969
966
967
965
965
963
964
967
971
972
969
968
967
962
961
962
962
964
963
964
966
963
963
960
961
964
960
960
962
963
964
962
967
965
965
963
962
963
961
963
961
963
964
963
964
966
966
964
963
962
962
962
961
962
965
966
967
967
968
964
964
963
963
964
966
967
967
968
970
970
969
965
966
968
964
963
963
964
966
969
969
968
968
965
966
966
964
965
967
968
968
969
971
971
970
966
967
966
965
966
965
967
967
967
969
970
972
968
968
969
967
968
968
968
971
972
974
973
973
972
972
969
968
969
969
970
971
970
975
973
975
975
972
971
970
971
970
969
974
973
975
973
973
974
972
972
969
969
968
969
975
974
976
976
975
975
972
971
969
970
968
972
974
976
976
976
976
975
976
974
974
973
974
975
976
978
977
979
978
976
976
975
973
973
971
975
973
975
977
974
976
974
974
975
974
974
975
977
976
977
978
979
977
976
974
973
974
972
975
975
976
977
980
977
978
977
975
974
972
971
970
973
971
972
976
976
976
977
975
972
972
972
972
974
974
975
975
976
974
976
976
972
973
972
975
976
979
982
984
986
988
986
988
987
987
988
993
999
1005
1010
1016
1019
1020
1018
1017
1013
1010
1007
1004
1002
1001
996
997
994
991
986
981
975
970
972
969
970
969
968
972
972
970
970
969
969
967
966
967
965
964
968
971
970
969
968
966
961
963
957
947
934
923
918
932
968
1031
1106
1190
1265
1327
1350
1332
1261
1166
1080
1022
987
979
984
988
992
990
983
973
965
964
961
961
961
959
956
954
951
948
948
947
947
945
950
952
950
949
947
947
944
943
943
942
944
944
947
949
950
949
948
947
947
944
945
944
946
946
949
951
950
950
949
949
946
945
946
947
950
949
950
950
951
952
952
952
951
949
950
950
952
952
953
956
956
958
953
955
954
955
957
958
960
961
965
965
964
968
965
966
962
962
964
966
970
971
974
976
976
978
977
976
978
978
979
980
982
982
986
987
989
990
992
990
987
989
991
992
995
997
1000
1003
1003
1004
1009
1010
1012
1012
1015
1016
1020
1021
1025
1025
1028
1032
1034
1035
1036
1035
1037
1038
1039
1042
1046
1050
1051
1052
1052
1050
1051
1050
1048
1050
1050
1049
1049
1049
1049
1049
1046
1043
1038
1036
1034
1032
1032
1031
1030
1026
1025
1025
1021
1017
1014
1009
1006
1005
1003
1004
1002
1002
998
996
997
993
991
986
986
987
988
989
989
990
987
987
983
982
983
981
984
983
984
984
983
983
983
986
985
983
981
980
977
978
979
981
980
982
979
980
977
976
978
977
977
977
981
984
987
985
987
988
987
990
989
992
993
998
1001
1005
1005
1002
1002
999
997
992
989
986
983
981
976
975
970
965
962
962
960
958
956
956
953
952
954
954
954
954
952
956
954
951
952
950
952
948
949
950
953
953
954
955
952
952
951
950
949
949
951
951
951
952
953
952
947
946
946
948
949
947
945
947
947
950
953
953
953
952
951
947
946
946
949
949
950
952
951
953
949
948
949
948
945
946
949
948
948
948
947
948
947
947
945
944
945
948
947
947
949
949
948
949
949
950
948
946
947
948
949
950
952
954
953
954
951
950
950
949
949
946
950
950
952
955
954
955
955
955
952
952
953
953
953
949
953
956
956
959
957
956
953
952
951
952
952
956
955
958
957
954
955
953
955
953
956
956
960
960
963
963
964
965
961
958
959
956
956
957
960
960
960
963
962
962
959
957
956
951
952
955
952
956
960
965
963
964
962
962
961
960
958
958
959
961
961
959
961
963
964
964
965
965
964
964
961
962
964
965
964
966
966
966
965
964
962
964
966
965
966
969
969
968
969
968
967
967
967
969
969
966
970
971
970
971
970
968
967
963
961
963
966
967
971
973
973
969
966
967
969
966
970
969
969
969
971
972
970
971
970
969
970
972
972
971
973
975
975
976
978
976
977
975
973
971
971
970
972
975
980
983
984
987
988
991
992
993
995
1001
1005
1009
1013
1015
1014
1013
1013
1008
1004
1002
999
999
996
992
993
990
987
982
979
975
972
971
969
971
968
969
967
966
970
968
965
967
965
962
961
960
961
965
968
972
973
972
973
971
968
964
959
954
946
936
927
920
927
947
993
1055
1129
1201
1273
1328
1350
1333
1277
1188
1095
1023
979
963
963
969
973
976
975
973
967
963
961
961
960
960
961
960
958
956
955
953
951
951
951
950
953
953
954
952
954
953
952
953
952
952
952
952
950
951
950
945
944
946
951
954
957
960
958
956
954
952
952
953
952
950
950
952
956
958
959
959
956
956
955
956
957
958
958
960
960
962
962
962
963
965
965
965
965
966
968
969
969
972
971
973
974
974
975
974
974
977
977
983
984
988
987
988
986
986
985
985
988
992
995
996
999
1003
1005
1007
1007
1006
1003
1005
1007
1012
1019
1021
1023
1029
1027
1025
1029
1030
1034
1036
1039
1043
1047
1049
1050
1050
1054
1052
1053
1055
1058
1060
1064
1065
1070
1069
1072
1072
1074
1075
1073
1073
1071
1068
1066
1065
1066
1066
1066
1064
1063
1061
1056
1052
1050
1045
1043
1040
1038
1036
1037
1035
1032
1028
1026
1021
1020
1016
1016
1014
1011
1009
1006
1005
1003
1001
999
996
995
993
992
994
994
994
995
994
993
993
991
992
992
990
989
988
990
991
991
992
991
991
991
989
989
989
986
988
986
988
992
995
998
995
997
998
999
998
998
999
1001
1003
1008
1014
1018
1020
1019
1017
1014
1010
1008
1004
1004
1004
1002
1002
998
995
991
986
982
975
972
969
967
968
965
969
967
965
965
963
963
962
960
960
960
962
959
961
962
961
962
960
956
957
958
956
955
957
958
959
960
960
961
957
955
956
955
955
955
956
957
955
957
957
955
956
955
954
955
955
955
957
957
959
958
958
958
956
955
952
952
955
956
956
956
955
954
955
955
956
953
952
951
950
952
955
953
957
957
957
957
956
955
954
955
953
957
958
958
958
959
960
959
957
956
957
955
954
955
955
956
957
956
959
958
956
958
955
956
954
955
958
959
960
960
960
958
958
958
958
956
957
959
958
961
959
959
959
960
957
957
957
955
958
958
959
959
962
964
963
964
961
962
960
958
956
957
961
963
965
961
961
960
959
959
959
959
959
961
961
963
963
964
963
964
962
963
962
962
961
962
965
964
966
968
967
967
964
963
963
961
962
964
965
964
966
966
966
966
964
963
963
964
963
965
966
965
967
967
967
967
968
967
966
965
966
969
968
968
971
972
971
969
968
968
967
967
967
968
968
971
970
971
972
971
968
969
968
966
966
969
971
971
974
976
974
972
971
972
970
967
968
969
970
973
974
973
974
973
971
970
969
970
969
971
974
975
977
976
977
974
973
971
971
971
972
976
977
977
979
983
985
984
985
987
986
986
988
991
991
994
1002
1004
1008
1011
1012
1016
1014
1012
1010
1010
1008
1008
1007
1007
1005
1001
997
994
986
982
980
975
975
975
974
974
973
970
968
969
967
966
966
966
967
970
970
970
968
968
968
966
965
967
968
969
968
967
962
954
940
927
919
934
971
1030
1109
1197
1279
1338
1362
1334
1260
1164
1077
1020
993
984
990
996
1003
1000
993
983
972
967
964
964
961
961
957
959
958
957
959
959
957
955
953
952
951
950
950
951
949
949
949
950
950
950
950
953
952
951
949
948
952
953
954
952
952
954
954
952
953
952
952
954
955
957
958
956
956
959
958
955
957
956
956
957
956
960
961
963
965
965
964
965
964
965
966
967
969
971
975
972
972
972
972
973
974
974
975
974
979
982
984
983
986
985
986
984
988
988
988
991
993
993
997
999
1000
1000
1000
1002
1003
1003
1004
1003
1007
1012
1014
1014
1017
1018
1019
1022
1020
1023
1026
1028
1030
1035
1037
1039
1041
1042
1041
1043
1043
1043
1047
1051
1053
1054
1057
1057
1059
1059
1059
1059
1059
1059
1059
1058
1060
1059
1059
1061
1058
1058
1054
1054
1051
1049
1045
1044
1043
1042
1041
1037
1036
1034
1030
1025
1022
1020
1016
1015
1016
1015
1016
1012
1013
1010
1009
1005
1003
1002
999
1000
999
998
1001
1001
1000
999
999
998
998
998
997
997
998
1000
1001
999
998
998
995
995
990
989
989
990
989
992
993
993
994
995
996
995
994
993
994
995
995
1001
1002
1004
1004
1007
1011
1013
1015
1016
1020
1020
1019
1018
1016
1013
1011
1010
1008
1004
1000
995
991
985
986
981
980
978
976
975
971
969
967
963
964
964
964
964
965
965
968
965
963
964
961
963
966
965
966
966
966
967
967
962
963
961
957
958
958
959
964
966
968
968
968
968
968
965
965
964
966
963
961
962
965
964
963
964
962
964
963
962
962
964
966
968
970
971
973
972
970
971
967
966
965
962
964
962
966
968
973
972
970
971
968
967
967
970
972
973
975
975
971
970
968
966
963
965
965
967
970
972
973
971
972
971
970
970
971
973
972
973
973
972
973
972
974
977
976
975
972
968
967
967
967
969
971
977
977
979
978
975
973
972
969
970
974
977
979
981
981
980
975
976
973
971
972
972
971
975
977
978
980
980
977
974
973
973
976
974
980
981
983
981
980
980
979
977
976
974
976
978
980
979
980
977
977
979
978
978
981
981
982
981
982
982
983
980
981
980
980
978
978
981
981
982
984
983
984
982
983
985
985
987
984
985
983
985
983
981
985
985
985
985
982
985
984
984
985
987
987
989
991
989
988
986
984
983
984
981
985
985
987
988
988
986
987
988
987
987
989
988
991
992
992
993
991
989
988
988
986
988
987
986
986
990
991
993
995
996
995
994
992
989
988
990
990
989
989
992
992
993
993
996
997
995
994
994
995
998
1000
1002
1006
1008
1010
1017
1020
1023
1025
1029
1032
1032
1029
1028
1027
1023
1019
1016
1013
1008
1008
1004
1002
997
996
993
993
992
988
987
992
988
987
986
982
982
983
984
986
987
987
990
987
988
984
985
982
982
983
983
985
987
988
985
980
972
956
943
939
951
989
1043
1115
1194
1268
1329
1366
1367
1323
1240
1141
1051
993
973
968
975
980
985
984
981
977
974
973
973
980
983
985
983
983
979
975
975
970
969
969
970
972
973
973
976
977
976
975
972
970
968
966
967
969
971
973
973
970
973
972
970
967
967
971
971
972
973
973
975
972
975
974
974
973
973
973
972
974
974
977
978
977
978
978
976
974
976
976
979
980
983
982
984
986
985
986
986
985
986
984
985
987
992
991
993
991
994
994
994
993
992
994
996
997
997
1000
1002
1001
1000
1001
1005
1002
1002
1004
1005
1007
1011
1013
1014
1015
1018
1016
1016
1017
1018
1021
1022
1023
1025
