972
970
970
968
971
968
972
970
971
971
971
969
966
966
965
963
963
966
969
968
968
967
965
966
964
964
965
963
962
963
964
963
965
964
965
963
961
959
957
957
957
958
960
963
965
968
966
964
959
959
959
960
962
963
965
965
967
966
966
964
963
962
961
962
963
964
964
964
965
962
964
965
963
963
963
965
965
966
967
965
967
969
967
966
964
962
968
967
969
970
972
969
971
969
967
966
965
967
968
967
970
966
968
967
968
969
968
969
968
966
967
968
968
969
971
972
971
972
969
968
966
966
966
968
968
970
970
969
969
970
969
970
968
970
968
970
972
972
976
976
973
975
973
970
971
970
972
970
973
971
973
972
972
971
969
971
968
968
969
970
970
977
977
977
973
973
969
968
967
970
972
976
976
977
978
975
975
974
973
973
971
972
973
976
974
977
979
979
981
979
978
979
978
973
971
976
973
977
981
981
981
981
981
981
976
977
976
977
981
982
983
981
980
977
974
975
973
973
976
981
984
985
986
983
984
984
982
981
979
976
976
977
976
980
984
984
983
982
981
979
978
976
978
978
980
982
985
988
987
988
987
986
983
983
983
981
979
981
984
986
988
990
987
986
984
981
980
981
984
987
989
990
992
992
993
994
996
997
998
999
1001
1007
1013
1017
1020
1020
1023
1019
1018
1014
1013
1013
1013
1011
1011
1011
1009
1007
1002
997
991
984
981
980
981
984
983
985
983
983
980
978
977
976
977
978
982
982
984
986
983
985
980
976
978
975
974
974
973
969
964
952
942
936
945
976
1027
1094
1175
1252
1315
1350
1343
1290
1200
1101
1019
974
958
960
967
976
984
984
982
975
971
966
964
967
969
969
969
967
966
966
965
965
964
964
964
962
961
958
960
961
962
966
968
970
964
961
961
963
960
960
960
960
961
961
964
968
968
969
970
969
966
965
965
964
965
966
970
971
970
969
969
969
968
967
966
967
965
966
969
971
973
973
973
974
974
972
974
976
976
976
979
981
980
981
982
981
981
983
983
984
986
989
992
991
992
996
992
994
994
996
995
998
1000
1003
1008
1007
1008
1009
1010
1010
1011
1013
1015
1019
1021
1022
1026
1029
1028
1032
1034
1037
1035
1038
1039
1043
1046
1049
1056
1058
1060
1063
1064
1066
1067
1069
1070
1074
1076
1079
1081
1079
1079
1077
1076
1075
1073
1071
1071
1069
1068
1069
1067
1066
1063
1060
1055
1051
1046
1039
1035
1032
1031
1029
1028
1025
1022
1020
1014
1011
1008
1003
1003
1002
1003
1005
1004
1002
1000
1001
998
993
994
996
994
995
994
995
999
999
998
998
998
995
993
994
993
995
996
997
997
998
998
997
997
994
992
992
994
994
999
999
1004
1003
1004
1004
1005
1004
1004
1004
1006
1007
1010
1016
1019
1021
1024
1025
1018
1016
1015
1011
1007
1006
1006
1004
1001
999
995
990
987
979
976
973
971
972
973
971
973
971
972
971
969
968
965
965
966
965
967
966
969
970
968
966
964
961
961
960
960
961
961
963
965
967
966
964
962
962
961
959
963
963
962
963
965
964
966
964
961
962
962
962
963
962
964
962
966
966
966
967
966
961
961
960
960
962
964
966
968
966
966
964
964
963
964
962
961
963
963
966
967
968
967
968
966
965
963
962
964
966
966
966
966
967
968
965
964
962
965
964
963
965
965
966
967
969
967
966
965
964
961
960
960
960
964
966
970
969
970
968
968
966
967
968
966
966
968
968
969
968
968
970
969
969
969
969
968
969
970
970
974
974
973
971
970
970
969
970
970
972
973
974
976
975
973
970
972
973
971
973
972
973
973
975
973
977
978
975
974
974
972
972
973
974
973
971
976
976
977
977
975
973
974
974
972
974
974
976
978
976
976
976
975
973
972
972
974
972
972
975
976
974
976
974
973
972
971
971
971
973
972
974
975
976
977
978
976
976
975
973
974
976
975
976
977
978
978
979
979
975
973
973
973
976
975
977
979
978
977
976
975
974
974
972
972
973
973
976
976
979
977
976
978
975
976
974
975
975
978
978
980
983
982
984
983
983
984
986
985
986
992
994
995
997
998
1005
1008
1010
1015
1016
1016
1015
1016
1016
1015
1014
1011
1008
1005
1003
997
994
991
985
982
981
978
979
977
977
974
974
973
971
971
972
972
973
974
974
973
973
970
971
969
969
970
971
971
971
973
969
962
950
934
919
916
929
966
1027
1105
1196
1281
1342
1365
1332
1249
1149
1066
1010
986
979
987
997
998
996
988
978
970
963
961
961
958
958
957
956
958
957
958
957
954
950
948
947
949
947
949
949
954
951
952
952
952
953
949
950
949
950
951
953
955
955
956
957
955
956
956
954
952
953
955
957
956
960
958
957
957
955
954
955
955
957
960
962
964
964
965
966
964
964
965
963
963
965
969
970
973
974
974
976
974
975
975
975
978
978
982
983
986
985
987
989
988
989
988
989
988
993
994
996
997
1001
1004
1004
1007
1005
1005
1006
1008
1011
1015
1018
1021
1024
1024
1027
1026
1029
1027
1030
1033
1034
1037
1038
1041
1044
1047
1047
1048
1048
1048
1051
1050
1049
1052
1054
1057
1058
1058
1058
1056
1058
1053
1054
1055
1057
1057
1058
1057
1058
1054
1054
1050
1048
1042
1037
1037
1037
1035
1031
1031
1027
1019
1019
1013
1012
1008
1006
1006
1003
1005
1002
1004
1005
1002
1001
998
996
993
990
989
986
986
988
988
989
987
986
985
984
982
985
986
987
989
988
991
989
989
986
984
982
981
979
983
985
990
990
992
993
991
992
992
993
994
993
995
996
997
1000
1002
1006
1006
1008
1009
1010
1013
1018
1020
1019
1020
1020
1018
1014
1012
1011
1007
1004
999
991
990
983
980
978
974
975
972
972
970
970
968
966
963
964
969
968
969
971
973
969
968
967
965
962
961
959
962
963
966
966
968
968
967
964
964
964
962
961
963
960
961
962
962
962
963
964
965
964
963
963
965
966
965
965
966
966
966
965
965
965
965
965
963
963
961
963
962
960
960
960
960
962
965
966
968
968
968
970
967
965
964
961
960
960
961
962
962
963
965
967
968
968
968
967
964
962
962
961
966
969
970
972
968
965
963
961
960
963
965
965
966
969
972
975
976
976
977
974
972
969
968
969
969
974
974
977
977
975
974
972
973
972
974
974
974
976
975
976
976
974
973
974
974
973
974
972
973
970
972
975
973
976
976
976
975
974
976
979
978
975
977
976
975
975
974
974
976
977
979
978
981
980
979
977
976
975
975
978
977
979
978
979
979
980
980
980
980
980
982
980
979
975
978
979
978
983
984
983
984
981
980
977
975
977
980
982
986
986
986
986
985
985
982
982
980
980
979
979
983
986
987
989
986
986
984
981
981
981
982
981
985
984
983
988
988
987
986
985
985
984
984
983
986
987
988
989
988
988
988
986
984
983
985
986
988
987
990
989
989
991
988
987
985
983
987
985
988
990
992
993
993
996
995
995
996
996
997
998
1002
1004
1006
1009
1012
1014
1016
1018
1023
1026
1026
1028
1029
1028
1027
1027
1024
1022
1019
1014
1011
1006
1003
1000
997
995
993
992
992
988
988
989
988
985
985
985
986
986
986
986
990
988
987
987
984
986
985
985
987
987
987
985
978
970
953
941
937
952
990
1050
1126
1209
1287
1343
1362
1331
1258
1164
1079
1025
1001
996
1000
1006
1011
1009
1001
992
984
978
978
976
974
976
975
975
974
972
972
970
971
969
968
968
968
967
969
970
971
971
971
971
969
971
968
966
966
965
965
968
970
970
969
968
970
970
969
969
967
967
968
966
970
973
973
973
972
971
969
970
969
970
969
972
975
977
976
975
973
973
972
971
973
972
976
975
978
980
981
983
983
984
984
985
986
987
987
989
990
991
990
990
993
994
993
994
999
998
1001
1004
1006
1007
1009
1012
1012
1009
1012
1012
1013
1017
1019
1021
1025
1028
1031
1032
1031
1034
1037
1037
1038
1038
1041
1042
1045
1049
1052
1055
1057
1057
1058
1059
1061
1063
1065
1069
1071
1074
1076
1072
1071
1072
1070
1071
1069
1068
1068
1069
1067
1066
1061
1061
1056
1054
1049
1046
1042
1038
1037
1038
1033
1033
1030
1027
1024
1021
1018
1012
1013
1013
1010
1010
1009
1010
1007
1007
1004
1004
1001
999
999
1001
997
999
1001
1003
1003
1005
1003
1000
1001
998
997
1000
1003
1003
1003
1004
1004
1006
1003
1001
1001
999
1001
999
1002
1002
1005
1008
1009
1009
1009
1011
1010
1010
1011
1013
1015
1018
1023
1027
1031
1033
1033
1027
1026
1023
1021
1018
1018
1015
1015
1015
1010
1005
1002
994
988
982
981
979
979
983
980
981
980
979
977
977
974
971
970
968
970
971
972
973
972
972
973
970
967
969
969
970
970
972
972
976
975
975
973
972
971
969
968
968
971
972
973
975
973
974
973
973
971
968
968
969
972
973
974
975
974
975
973
971
967
968
970
970
968
972
972
974
972
972
971
973
970
969
968
967
970
969
970
969
971
970
971
969
970
968
967
967
967
971
971
971
970
972
970
971
970
969
968
967
971
971
973
975
974
975
973
973
970
969
968
969
971
972
973
972
972
977
973
971
972
972
971
972
971
975
975
977
977
977
977
976
975
974
975
974
973
977
978
978
979
980
978
979
979
977
977
977
978
979
980
981
981
981
980
980
979
977
977
977
979
978
979
982
981
983
982
982
982
980
978
980
981
983
983
985
984
985
983
980
980
980
980
981
980
984
986
986
986
986
984
984
982
982
983
982
984
985
987
985
986
986
985
983
983
985
982
982
985
983
984
987
987
986
986
987
985
982
983
984
983
986
984
989
987
987
986
984
984
983
980
981
979
983
985
986
986
987
985
984
984
982
980
981
984
985
985
985
985
987
987
986
985
983
983
984
983
985
985
989
990
992
992
993
994
992
995
995
998
1002
1002
1006
1007
1009
1011
1015
1020
1020
1025
1027
1025
1023
1023
1022
1019
1019
1016
1014
1013
1007
1004
1002
1001
997
995
995
991
990
988
989
988
986
985
986
987
987
987
988
989
986
987
985
983
983
982
985
984
987
988
988
985
986
984
976
969
961
947
932
931
946
983
1042
1116
1197
1274
1337
1374
1367
1313
1227
1137
1067
1028
1013
1011
1020
1023
1024
1018
1006
997
987
982
982
982
980
978
979
975
976
970
970
968
968
967
967
971
967
967
968
968
965
965
963
967
966
967
968
972
971
969
971
970
967
967
965
966
966
966
967
968
970
970
971
970
968
966
965
965
965
967
966
968
970
969
971
970
969
969
966
971
971
973
976
976
978
978
978
977
975
977
976
979
978
980
981
982
984
985
987
987
987
986
988
989
988
994
996
997
1002
1003
1003
1002
1004
1002
1003
1008
1007
1011
1014
1014
1017
1018
1021
1020
1024
1025
1024
1028
1029
1035
1038
1040
1044
1046
1049
1048
1050
1049
1050
1051
1053
1057
1059
1064
1068
1069
1071
1069
1070
1069
1065
1066
1067
1069
1070
1070
1073
1074
1072
1072
1067
1068
1063
1062
1061
1059
1058
1057
1054
1046
1041
1037
1034
1032
1028
1029
1029
1028
1029
1026
1022
1017
1017
1015
1011
1010
1005
1001
1000
996
998
996
1000
1001
1006
1000
999
995
995
992
993
997
998
996
1000
999
999
997
998
999
998
1003
1001
1003
1001
1001
1000
998
998
995
993
996
997
997
1000
1002
1004
1006
1008
1007
1010
1009
1008
1006
1002
1002
1005
1011
1014
1020
1022
1025
1029
1028
1027
1024
1027
1025
1024
1023
1022
1019
1016
1012
1010
1008
1004
1001
996
990
986
984
981
982
983
980
979
979
978
979
978
981
981
981
978
975
976
974
977
977
979
978
974
973
973
975
975
976
976
974
973
973
970
970
972
972
973
973
972
975
975
976
974
976
977
975
973
973
971
972
973
974
976
976
978
978
977
978
977
977
977
978
974
974
972
975
971
975
977
977
977
978
978
975
975
978
979
978
979
981
978
977
975
972
970
971
976
980
985
987
986
981
978
975
972
974
977
981
982
983
984
981
981
980
979
981
981
984
986
985
984
982
983
984
982
983
982
983
983
983
983
983
982
979
983
985
987
988
987
986
983
982
982
982
982
986
988
986
989
985
985
983
982
980
981
984
985
988
992
991
990
990
989
987
984
985
984
989
990
991
989
990
986
987
986
990
987
987
987
991
990
991
994
995
994
991
989
987
985
985
984
985
989
991
992
991
992
992
992
994
995
993
993
991
995
993
994
994
994
989
987
985
988
990
991
994
994
994
996
994
996
992
992
990
991
992
994
996
998
1000
997
997
998
997
996
993
989
989
990
991
996
1000
1003
1004
1004
1000
998
996
992
994
994
996
999
998
1000
1001
999
998
996
996
992
995
995
997
999
1000
1003
1000
1003
1001
999
999
998
1000
1001
1004
1007
1009
1012
1014
1013
1016
1015
1017
1018
1023
1029
1034
1035
1036
1037
1035
1031
1030
1026
1021
1019
1016
1011
1009
1005
1004
1002
999
997
994
992
991
990
990
990
990
991
990
993
991
993
991
988
989
988
986
987
989
988
992
990
989
984
978
965
951
939
941
970
1019
1091
1179
1266
1337
1370
1356
1287
1184
1084
1013
975
968
975
986
997
999
998
990
985
982
978
978
976
976
979
979
977
977
975
973
973
973
973
970
970
971
971
971
973
973
975
973
971
972
970
970
969
970
971
974
976
975
975
976
974
973
972
972
971
971
971
976
977
978
977
979
977
975
975
975
976
976
977
978
982
982
982
980
981
982
980
979
980
982
984
985
988
987
987
988
988
989
986
985
986
991
992
991
995
996
998
998
999
999
999
999
999
1002
1004
1006
1010
1011
1012
1012
1013
1013
1012
1012
1015
1017
1022
1023
1024
1027
1031
1030
1033
1034
1034
1035
1038
1041
1045
1049
1051
1054
1056
1057
1058
1059
1060
1061
1064
1066
1070
1073
1076
1078
1078
1078
1079
1080
1080
1078
1080
1082
1081
1081
1081
1081
1079
1078
1074
1072
1068
1065
1063
1061
1060
1057
1055
1054
1049
1045
1040
1034
1032
1029
1025
1024
1020
1019
1017
1016
1014
1013
1009
1010
1006
1005
1004
1003
1003
1005
1007
1005
1004
1004
1004
1003
1002
1002
1000
1001
1003
1004
1006
1005
1006
1005
1003
1001
1000
999
1001
998
1002
1001
1000
1001
1000
1002
998
997
996
995
996
996
995
997
998
997
998
999
996
995
998
998
1001
1002
1004
1005
1006
1010
1011
1013
1016
1018
1019
1020
1020
1022
1019
1019
1015
1014
1011
1008
1004
1000
998
995
990
987
985
984
981
980
977
977
973
968
969
969
967
967
970
969
971
969
969
965
964
963
964
963
964
965
967
964
963
963
962
964
963
963
964
963
959
960
964
966
967
966
965
965
965
962
963
960
962
963
964
966
967
967
968
967
966
965
962
963
962
963
965
966
968
967
967
967
965
964
963
963
962
966
967
968
967
969
969
967
967
965
966
964
965
966
967
967
969
969
970
968
967
964
961
963
962
964
967
968
971
971
970
969
968
967
967
967
964
968
969
969
971
972
971
970
969
967
966
968
966
967
968
972
975
975
973
971
970
967
967
967
966
968
974
972
976
977
975
974
970
970
969
970
970
972
973
973
975
973
976
975
974
972
971
972
972
971
970
973
977
975
978
976
977
974
975
973
975
973
975
976
977
976
977
975
972
973
971
973
973
973
974
976
978
977
977
977
976
974
972
972
975
976
976
977
980
977
978
977
979
978
976
975
976
975
978
977
980
980
981
981
979
978
976
977
976
977
977
981
982
980
983
982
979
978
975
977
978
978
978
979
981
981
983
981
980
980
980
979
978
978
982
984
984
982
983
982
981
982
979
980
980
982
983
981
984
983
984
984
982
980
980
979
979
981
981
982
987
984
985
986
985
985
984
981
982
985
987
987
992
993
995
996
995
995
996
997
995
1001
1004
1009
1014
1018
1020
1026
1027
1028
1026
1023
1020
1019
1017
1016
1018
1013
1012
1008
1003
999
994
989
986
985
984
982
983
982
981
979
981
979
976
975
974
975
977
976
977
976
977
976
975
975
976
974
976
977
977
977
978
974
969
955
942
927
920
926
956
1006
1073
1153
1234
1308
1363
1387
1367
1304
1213
1122
1055
1016
1004
1006
1016
1022
1024
1017
1007
994
982
973
971
971
973
971
972
970
970
965
960
955
954
951
953
956
958
957
961
960
963
960
957
957
955
953
953
954
954
958
960
960
958
958
957
955
956
952
953
953
955
956
959
961
961
962
962
960
958
956
956
957
960
962
968
965
966
965
964
964
963
965
966
967
969
970
975
976
976
975
975
975
976
975
976
979
979
980
981
984
987
986
985
984
986
983
986
989
995
1000
1002
1001
1001
1003
1003
1002
1004
1006
1008
1013
1016
1019
1023
1025
1024
1022
1024
1027
1026
1031
1034
1041
1045
1046
1050
1050
1051
1053
1051
1053
1054
1054
1056
1060
1064
1066
1071
1075
1075
1075
1074
1071
1071
1071
1069
1068
1067
1067
1068
1067
1065
1063
1057
1055
1053
1050
1048
1046
1043
1042
1041
1036
1032
1026
1023
1018
1014
1011
1009
1007
1005
1003
1005
1005
1004
1005
1002
998
995
991
988
989
990
990
993
994
992
990
988
986
985
980
981
982
982
984
986
987
986
985
984
983
983
983
984
983
986
986
991
990
988
986
981
979
980
981
982
985
987
988
988
986
984
983
980
977
979
981
981
982
982
986
988
991
992
994
995
996
997
999
1002
1005
1007
1011
1015
1012
1011
1008
1006
1003
1000
993
993
992
991
991
988
983
977
975
971
967
967
966
965
965
964
963
965
964
962
960
960
960
958
961
959
959
961
959
961
964
965
965
963
960
959
959
959
962
963
963
968
966
966
967
962
959
961
960
961
960
964
965
967
970
969
968
965
