966
960
960
958
958
959
964
969
970
969
969
963
960
957
956
955
955
956
960
963
965
966
968
965
966
965
962
963
963
962
960
961
959
961
962
963
963
965
963
963
961
961
961
962
965
967
967
965
966
967
963
965
964
967
967
969
968
969
969
968
967
963
964
963
963
962
963
966
969
969
969
966
966
963
962
962
962
967
967
971
971
969
972
970
968
968
965
964
968
970
971
976
975
975
972
969
968
969
971
971
969
969
971
972
974
973
975
975
974
972
972
975
973
972
975
977
974
972
973
976
972
972
970
969
971
973
975
977
979
974
974
975
974
973
971
973
973
972
974
975
975
975
974
973
972
972
970
970
972
971
974
977
979
978
977
978
976
973
973
973
974
974
975
976
976
977
976
977
975
973
971
973
973
973
977
978
976
979
979
975
975
972
972
973
973
974
976
978
977
975
977
975
976
973
974
974
974
973
975
975
977
976
978
976
974
969
970
973
974
975
976
981
980
979
979
978
977
976
976
975
976
976
978
978
980
980
978
979
980
977
977
979
982
983
983
989
991
992
995
995
994
995
994
999
1001
1007
1011
1018
1021
1019
1020
1017
1014
1012
1007
1006
1006
1004
1002
1001
998
994
991
987
982
978
976
974
976
976
976
978
979
978
974
974
972
969
969
970
970
972
973
975
974
973
975
973
972
972
970
971
964
957
947
936
926
926
948
993
1057
1136
1219
1292
1344
1361
1329
1256
1162
1074
1018
988
980
984
991
996
996
990
984
973
970
967
970
968
965
963
960
957
955
954
956
958
958
959
957
955
955
954
952
952
953
955
957
956
958
959
957
957
954
955
952
954
954
956
958
959
959
956
958
957
957
953
954
954
953
954
955
958
958
958
957
957
957
956
957
956
958
959
959
961
962
960
961
960
961
960
960
961
961
963
962
969
970
972
970
969
970
968
967
969
971
973
975
978
978
979
978
981
980
982
979
983
982
986
987
991
995
996
998
999
999
998
1001
1001
1002
1007
1008
1013
1017
1017
1019
1020
1020
1020
1023
1023
1026
1030
1033
1035
1039
1041
1041
1042
1043
1044
1046
1048
1049
1052
1053
1057
1059
1060
1061
1063
1062
1062
1063
1063
1063
1065
1066
1069
1068
1066
1066
1063
1062
1057
1055
1053
1052
1050
1047
1047
1044
1042
1035
1033
1030
1024
1021
1020
1017
1015
1013
1012
1009
1007
1005
1002
998
996
993
992
991
991
993
990
992
993
989
989
985
985
984
984
986
987
989
988
990
989
987
988
986
986
986
986
987
987
988
989
989
989
989
987
987
985
985
985
984
982
984
985
985
984
985
982
983
980
979
979
979
981
982
984
986
988
988
987
987
986
986
987
988
989
992
997
1002
1006
1009
1011
1010
1007
1004
1002
1000
998
997
996
995
992
988
985
979
976
970
966
964
962
962
963
963
965
964
960
959
960
956
957
957
957
958
959
960
960
960
958
956
956
955
956
958
959
959
962
960
962
962
960
958
956
955
956
956
958
960
960
963
960
962
960
960
958
958
958
957
959
959
958
960
961
962
961
960
958
958
957
956
956
957
958
963
960
961
958
959
956
958
956
955
957
962
962
964
962
961
959
958
958
959
960
959
960
961
961
962
962
962
962
961
960
960
960
961
963
964
965
968
968
969
967
966
964
962
964
964
965
967
967
967
969
970
966
966
967
965
966
966
965
966
970
969
971
971
969
970
968
967
967
968
969
969
972
969
971
972
971
971
970
968
969
970
969
972
972
973
974
974
973
973
970
970
971
969
971
973
976
975
976
976
972
971
970
969
969
973
973
975
979
979
978
979
975
975
977
978
975
975
977
979
980
983
981
980
977
976
975
978
974
975
977
976
981
979
979
979
979
980
979
978
978
977
979
979
982
983
981
981
979
980
979
977
977
978
977
978
982
981
982
982
981
981
981
979
980
980
980
981
980
981
982
980
981
978
977
977
979
979
981
983
983
982
979
982
980
979
978
978
978
981
980
979
981
981
980
981
980
979
980
977
979
981
982
982
981
982
981
984
983
981
983
979
981
983
984
991
992
996
993
994
993
997
1000
1006
1011
1017
1020
1021
1020
1016
1013
1010
1008
1007
1004
1000
996
993
990
986
980
977
975
975
977
976
974
976
976
973
974
973
975
978
975
977
977
976
973
972
971
969
973
973
977
976
972
962
950
935
922
922
944
989
1053
1132
1217
1294
1354
1381
1362
1296
1202
1104
1036
998
984
986
997
1006
1009
1007
997
986
976
970
968
971
973
972
973
972
971
967
965
960
959
957
957
955
956
958
960
963
963
963
965
963
958
958
956
957
956
956
958
961
962
963
960
959
958
959
958
959
962
962
964
964
966
966
966
964
962
962
961
960
963
965
968
971
970
970
967
969
970
969
967
967
968
971
971
975
977
980
978
980
979
980
980
982
983
986
990
990
991
991
991
990
991
993
993
998
1001
1002
1001
1006
1005
1006
1007
1011
1011
1014
1014
1015
1020
1023
1028
1032
1033
1034
1033
1035
1035
1034
1042
1044
1049
1054
1057
1061
1060
1061
1063
1062
1064
1064
1065
1066
1070
1072
1073
1079
1082
1084
1081
1080
1078
1076
1078
1077
1075
1077
1079
1078
1075
1071
1068
1064
1059
1056
1054
1053
1053
1051
1047
1045
1042
1040
1036
1032
1026
1024
1019
1017
1016
1016
1016
1014
1010
1006
1004
1001
998
997
996
997
995
994
994
995
994
995
999
1000
996
997
995
993
991
990
992
988
990
991
994
997
998
996
996
995
997
996
999
1000
998
998
996
993
991
993
992
993
992
994
994
995
996
996
996
994
997
998
998
1004
1005
1009
1009
1010
1008
1006
1005
1005
1008
1009
1018
1022
1026
1026
1026
1025
1021
1018
1017
1012
1010
1006
1005
1000
998
995
990
988
985
983
981
977
974
972
969
971
973
975
976
975
972
971
971
970
967
969
966
968
967
966
966
967
967
969
966
969
968
969
969
967
967
969
972
972
971
970
968
966
964
964
963
965
969
973
975
978
977
978
972
970
968
967
966
965
967
970
971
974
973
973
971
972
971
968
967
967
969
969
972
974
971
971
974
972
972
970
969
968
969
972
972
972
971
973
974
972
969
968
968
966
970
969
973
974
975
975
972
973
972
971
971
968
968
970
971
976
977
973
975
973
975
971
971
972
973
973
976
977
978
978
977
977
975
975
974
974
976
977
977
978
980
980
978
979
977
976
976
974
975
976
977
979
979
980
979
978
977
976
978
978
979
980
981
983
983
978
980
979
979
977
975
978
977
979
980
986
985
984
983
981
978
980
980
980
982
983
984
987
985
986
984
981
983
981
982
980
981
984
984
986
984
985
985
984
984
982
985
983
983
984
985
987
985
987
986
985
983
983
983
982
983
985
986
987
985
986
984
983
984
981
983
981
982
984
986
985
986
986
986
984
981
981
979
981
981
984
986
986
985
985
985
983
983
983
983
984
984
986
986
988
988
988
986
987
987
986
987
985
987
989
990
991
989
989
990
989
988
986
985
988
988
989
989
989
989
989
990
988
986
989
989
991
995
997
1000
1003
1004
1006
1005
1005
1006
1005
1008
1013
1017
1023
1027
1031
1031
1030
1027
1026
1021
1017
1016
1013
1011
1009
1006
1006
1003
997
993
988
987
984
983
983
984
984
984
985
986
984
984
984
980
978
979
979
981
985
983
986
984
987
983
984
980
974
966
955
940
927
928
949
987
1044
1114
1192
1267
1329
1366
1366
1322
1237
1143
1072
1023
1004
1000
1006
1011
1012
1008
1000
995
985
981
980
980
978
978
978
972
969
967
966
965
966
967
968
968
966
969
967
964
965
962
963
964
964
965
966
965
964
965
965
962
962
962
965
963
963
967
968
967
968
968
968
965
965
967
965
968
969
971
970
968
971
971
971
970
969
970
969
971
972
974
976
976
975
975
975
975
975
977
978
978
980
981
984
982
985
983
983
984
983
984
983
984
988
989
994
994
994
994
995
994
991
993
995
997
1000
1001
1006
1005
1005
1007
1006
1006
1007
1008
1011
1013
1018
1022
1024
1024
1027
1029
1029
1030
1032
1032
1035
1038
1041
1044
1046
1048
1051
1051
1053
1053
1054
1056
1058
1060
1064
1066
1069
1070
1072
1073
1073
1071
1071
1073
1071
1074
1076
1075
1074
1074
1075
1074
1065
1065
1065
1062
1059
1057
1057
1053
1052
1049
1046
1044
1037
1033
1028
1027
1025
1023
1021
1021
1020
1019
1017
1015
1012
1008
1006
1006
1005
1003
1005
1006
1006
1003
1004
1003
1002
1001
998
996
999
998
999
1000
1002
1003
1004
1002
1002
1001
999
1000
999
1000
998
1000
1001
1001
998
997
997
997
995
995
991
992
995
995
995
995
994
993
991
990
990
989
990
990
995
994
996
997
1000
1001
1001
999
1000
1002
1003
1006
1009
1015
1021
1022
1025
1026
1022
1022
1015
1013
1011
1012
1009
1008
1007
1004
999
997
992
986
983
980
977
978
980
981
982
982
980
978
979
975
974
974
975
973
974
974
976
976
976
975
974
973
971
969
969
971
971
974
976
975
975
974
973
972
972
973
972
972
973
975
975
974
975
975
975
974
971
970
971
974
975
974
977
978
976
974
974
973
970
970
973
972
973
974
977
978
976
973
976
975
974
974
975
974
976
975
979
978
977
976
973
972
973
974
974
976
977
980
978
978
976
980
976
977
975
975
975
977
979
978
980
980
981
980
981
979
978
978
978
981
980
984
982
984
982
982
982
981
979
980
979
979
982
985
987
987
986
986
984
983
981
980
983
982
985
985
987
987
988
988
987
985
985
983
982
985
986
986
987
986
989
987
980
983
982
978
978
978
983
984
987
984
986
986
985
987
986
985
986
987
987
989
991
990
990
989
986
986
985
985
989
988
989
990
991
992
992
991
989
987
986
985
985
985
987
990
991
992
993
991
991
989
989
989
988
991
992
994
994
994
995
992
991
987
987
989
988
990
991
992
993
992
992
992
991
991
991
988
990
990
990
991
992
992
992
995
990
991
989
988
987
989
993
994
995
996
993
992
993
990
987
991
990
991
989
992
993
994
995
997
994
995
994
991
986
986
988
990
992
992
997
996
995
994
994
997
999
1002
1006
1010
1012
1013
1016
1014
1013
1014
1018
1022
1025
1028
1031
1032
1032
1031
1031
1028
1024
1024
1019
1014
1012
1010
1007
1004
1001
997
993
987
987
988
989
987
990
991
990
988
989
990
988
986
989
988
986
986
987
985
988
992
991
989
987
980
967
953
942
945
972
1025
1099
1183
1265
1336
1371
1362
1298
1203
1103
1030
989
975
982
993
1003
1006
1003
997
988
982
979
979
979
978
977
977
976
975
974
974
969
970
969
969
968
968
970
971
969
971
971
970
971
970
966
966
966
968
970
973
972
973
974
971
970
969
967
968
970
969
969
970
972
973
975
977
978
977
972
971
968
970
971
972
978
979
982
982
981
980
978
980
979
982
981
980
982
980
980
980
982
983
986
987
989
993
993
996
997
998
996
998
994
995
996
995
998
1001
1003
1007
1009
1008
1012
1010
1010
1012
1013
1015
1015
1019
1019
1021
1024
1026
1027
1033
1035
1038
1035
1039
1043
1044
1046
1051
1054
1055
1056
1056
1059
1062
1061
1063
1067
1070
1076
1078
1083
1083
1085
1086
1086
1089
1092
1092
1091
1092
1092
1094
1094
1095
1097
1094
1091
1089
1085
1081
1079
1080
1078
1076
1076
1074
1070
1067
1063
1061
1056
1051
1047
1042
1038
1034
1035
1031
1026
1025
1024
1021
1019
1018
1015
1014
1012
1010
1011
1012
1012
1011
1006
1006
1002
1004
1002
998
999
1001
1003
1003
1008
1009
1007
1006
1002
995
995
997
1002
1007
1008
1007
1007
1000
997
994
997
1000
1001
1002
1005
1003
1002
1000
998
999
1001
1000
1002
1003
1005
1005
1006
1009
1014
1015
1016
1016
1015
1014
1013
1015
1020
1023
1026
1031
1032
1030
1032
1028
1024
1022
1018
1016
1013
1014
1010
1010
1008
1003
999
994
989
986
983
979
977
979
982
980
983
982
982
980
980
975
974
974
975
973
973
976
978
977
975
976
974
972
971
973
972
975
975
976
978
976
975
977
975
974
971
972
972
973
971
974
975
976
976
976
975
975
973
973
971
971
973
972
977
974
975
977
974
972
971
970
972
971
971
972
976
974
976
976
974
973
970
967
970
970
972
972
973
975
973
975
972
973
971
968
969
968
970
973
977
975
977
976
973
974
971
972
973
974
975
975
977
976
976
976
976
976
971
973
975
976
977
979
980
980
981
977
980
977
977
975
975
978
979
981
983
978
979
980
980
981
978
978
978
978
980
979
983
982
981
982
982
981
977
976
978
981
981
985
984
986
985
985
984
984
983
982
983
984
984
984
987
988
986
985
984
983
981
981
981
983
985
985
986
989
987
987
987
988
985
984
984
986
986
989
988
989
987
990
989
986
985
984
982
983
985
985
990
989
988
990
987
985
987
986
985
984
985
989
991
990
989
989
985
985
984
985
983
983
987
990
990
991
990
988
989
988
987
986
987
987
989
987
986
989
989
990
988
986
986
984
984
985
988
986
987
988
989
989
988
988
986
986
987
987
988
990
991
992
991
990
989
989
988
989
987
987
989
990
993
992
990
990
991
990
989
988
987
986
989
989
994
994
998
997
996
1000
1001
1001
1003
1005
1006
1012
1016
1022
1027
1030
1032
1032
1029
1027
1022
1022
1019
1016
1016
1012
1009
1008
1001
997
994
989
985
988
986
987
989
988
988
988
987
983
984
981
979
979
983
982
984
987
986
985
984
984
981
978
976
968
957
944
934
938
963
1013
1084
1169
1253
1328
1377
1371
1315
1225
1131
1057
1013
996
995
1002
1009
1009
1003
994
986
979
977
975
973
972
968
967
964
962
963
962
963
963
964
965
964
963
963
961
959
960
958
959
962
962
963
963
964
963
963
961
962
959
959
959
961
963
964
967
967
967
967
965
965
964
962
963
966
968
967
969
969
971
969
971
967
970
968
969
969
971
974
976
977
976
976
976
977
977
978
977
981
983
986
985
988
990
988
988
991
990
990
991
993
992
996
999
998
1001
1001
999
1000
1001
1003
1008
1010
1012
1015
1016
1019
1021
1022
1022
1022
1024
1023
1025
1031
1033
1038
1039
1042
1046
1045
1044
1046
1047
1049
1054
1057
1058
1063
1061
1065
1067
1067
1066
1067
1066
1065
1068
1066
1068
1071
1070
1070
1068
1067
1066
1061
1061
1059
1057
1057
1055
1056
1053
1050
1046
1043
1039
1034
1028
1030
1027
1027
1024
1021
1019
1017
1017
1013
1010
1009
1008
1005
1005
1005
1005
1005
1005
1003
1004
1001
1001
999
997
997
999
1002
1001
1002
1003
1002
1003
998
1000
998
997
996
996
998
997
999
1001
998
996
995
994
989
990
989
988
990
992
992
992
994
993
990
987
987
986
986
985
987
986
989
991
991
992
992
991
993
991
993
995
1000
1003
1005
1010
1013
1019
1020
1020
1016
1017
1013
1008
1008
1004
1005
1002
996
993
990
983
980
978
974
971
973
974
975
974
975
971
967
965
964
964
963
963
966
966
967
966
967
965
965
968
966
967
966
964
966
967
967
967
966
965
960
960
963
961
962
964
964
965
967
968
967
967
967
966
963
964
964
963
963
966
967
968
966
966
967
965
966
967
968
971
971
970
970
971
970
966
966
965
962
962
962
965
966
969
970
969
967
966
964
963
963
962
965
964
966
967
969
967
968
967
965
964
963
962
960
961
967
970
973
974
975
975
971
970
970
970
968
970
969
970
973
972
971
971
971
971
971
971
968
968
969
970
971
973
972
972
971
974
972
971
973
973
975
975
974
973
974
976
974
974
973
969
970
971
977
978
979
978
975
975
973
972
974
972
974
974
975
976
977
976
977
977
975
976
977
978
976
974
976
975
976
976
973
976
974
975
976
977
978
979
979
981
982
983
981
980
976
974
974
973
973
975
972
973
979
977
978
979
978
981
976
975
975
975
978
977
977
980
977
978
975
977
974
975
977
977
979
981
983
983
982
983
981
978
974
973
975
976
977
980
981
981
980
980
979
978
979
980
982
981
982
983
984
986
983
985
983
981
978
978
977
978
979
982
983
984
983
982
981
979
977
978
981
982
984
985
986
987
981
982
981
983
982
985
990
991
994
995
995
997
998
1001
1006
1010
1014
1018
1019
1023
1022
1023
1023
1023
1021
1022
1014
1010
1004
999
996
994
994
993
992
988
986
985
982
982
979
979
979
976
977
978
979
978
979
976
974
974
972
973
971
972
976
979
982
983
985
985
982
979
974
965
955
940
930
931
951
989
1044
1114
1190
1261
1318
1353
1352
1305
1222
1124
1041
989
965
960
968
974
979
978
978
974
971
970
970
974
972
971
967
964
963
961
963
963
965
965
966
965
964
964
965
964
961
961
961
961
962
964
965
968
967
967
966
966
964
963
962
964
962
965
964
966
969
970
967
968
966
966
964
965
967
966
969
972
971
972
972
970
970
971
970
973
973
974
974
976
977
979
978
977
978
978
976
980
980
984
986
987
985
985
989
985
984
985
987
989
988
994
993
997
997
998
1001
1000
1000
1001
1002
1004
1005
1010
1011
1015
1012
1015
1015
1017
1019
1019
1020
1023
1023
1027
1034
1036
1039
1041
1041
1043
1044
1045
1048
1052
1055
1058
1060
1063
1066
1067
1070
1070
1069
1068
1070
1073
1075
1079
1080
1082
1081
1081
1079
1078
1078
1075
1076
1073
1073
1071
1072
1071
1066
1065
1063
1058
1053
1049
1048
1046
1043
1041
1039
1037
1035
1032
1029
1027
1022
1021
1019
1017
1017
1016
1016
1014
1012
1012
1011
1009
1006
1003
1003
1003
1003
1004
1004
1005
1003
1004
1003
1002
1001
999
1000
999
1000
1003
1000
1001
1002
1001
