948
947
948
945
944
948
950
947
947
945
948
946
949
948
947
944
945
946
947
947
945
941
942
944
947
947
944
943
944
946
948
949
949
946
943
946
948
947
947
944
944
947
946
945
943
943
942
942
942
944
941
939
941
943
943
947
946
943
946
946
948
948
946
945
945
947
951
950
952
954
957
959
962
962
961
962
961
964
967
966
968
964
967
967
969
970
970
968
970
972
973
970
970
967
966
969
971
968
966
963
965
966
967
967
965
961
961
964
966
967
963
962
962
964
965
964
963
961
959
959
962
961
959
958
958
960
960
961
959
956
956
955
954
953
951
950
953
953
954
953
954
952
953
956
956
955
953
952
952
953
954
955
954
954
955
956
957
957
954
950
950
953
954
956
955
953
954
956
956
954
952
953
955
959
961
962
963
962
965
966
971
971
970
968
971
973
974
974
974
975
974
974
975
974
972
971
972
974
972
972
969
971
976
980
980
973
969
963
962
957
955
954
951
946
945
946
952
952
950
950
950
952
953
954
953
948
950
949
950
950
943
945
946
951
955
951
947
943
938
930
927
921
913
906
905
924
951
982
1015
1057
1116
1169
1202
1211
1190
1129
1047
978
940
927
928
938
942
942
943
941
941
937
939
942
944
944
942
939
939
940
943
942
939
937
937
940
943
944
943
940
939
944
943
942
939
939
940
942
942
941
941
937
937
941
943
941
942
936
938
941
943
943
942
938
939
945
944
943
944
942
944
944
944
944
941
938
941
944
946
945
944
941
941
941
940
936
938
935
936
936
938
937
936
932
933
935
937
937
934
930
933
935
934
932
933
931
933
931
934
932
932
935
939
943
949
951
951
951
955
957
959
960
960
956
961
963
967
963
965
961
964
967
967
969
964
960
959
962
960
962
961
960
960
960
962
963
958
956
961
961
960
958
956
955
955
958
959
959
957
955
955
955
957
954
952
949
950
953
956
959
958
957
955
955
955
955
955
953
953
955
954
957
953
948
948
949
954
955
954
952
950
949
950
954
952
949
952
956
959
958
958
953
954
954
957
956
953
948
951
952
955
957
953
953
956
960
965
967
963
963
964
965
970
971
969
970
973
977
978
977
974
972
972
971
970
972
968
967
966
967
972
976
977
974
975
975
972
969
965
960
954
953
953
954
951
951
951
951
950
948
948
946
946
948
948
950
948
944
945
946
947
949
948
947
947
948
950
949
944
941
935
930
927
922
916
908
909
927
952
984
1017
1055
1111
1166
1202
1222
1214
1171
1094
1014
960
933
924
927
934
941
943
945
942
940
939
943
946
945
943
939
940
942
942
943
942
938
940
943
945
946
944
943
944
946
946
947
944
941
939
942
944
943
942
938
939
941
943
943
942
939
939
942
943
942
942
941
942
944
947
946
948
942
942
945
943
945
943
940
942
943
946
944
943
940
942
943
944
944
943
941
940
941
942
942
940
936
937
937
939
940
936
934
933
934
935
935
933
933
934
934
933
935
934
933
935
938
941
943
944
944
947
953
956
958
957
956
960
965
969
967
966
964
965
968
969
969
967
966
967
967
970
969
967
964
968
968
970
971
970
968
968
972
971
970
968
965
968
968
970
969
969
965
964
967
966
966
967
963
962
963
967
966
963
961
963
964
966
966
965
962
963
965
965
965
965
965
966
969
970
968
966
963
964
962
965
964
963
961
960
963
964
961
960
961
962
962
962
963
960
961
962
964
967
965
963
962
961
963
965
961
961
960
962
963
965
965
965
964
965
970
973
977
976
975
977
979
982
983
985
985
987
989
990
989
986
983
980
981
983
981
981
978
978
980
984
985
987
985
982
979
978
976
973
969
967
969
969
969
967
963
960
960
964
963
958
958
957
958
959
957
959
956
956
956
960
960
957
957
959
961
960
961
958
953
948
941
934
930
924
918
923
944
976
1008
1045
1090
1145
1204
1243
1261
1251
1200
1106
1014
955
939
944
955
960
963
963
961
958
954
955
955
956
954
952
949
952
951
954
953
952
950
951
953
955
956
954
952
949
953
955
952
952
951
951
952
952
952
952
949
949
953
955
955
952
951
951
953
955
955
953
953
953
953
954
956
953
952
952
953
953
954
950
952
953
956
958
958
957
955
955
957
960
959
959
954
956
956
957
956
953
950
951
955
954
954
949
951
949
951
955
954
952
951
952
953
954
951
952
951
953
955
959
958
959
960
963
965
970
971
971
971
970
974
978
977
978
978
978
979
980
981
982
980
980
980
981
983
980
977
977
981
982
983
982
980
984
985
989
988
989
989
991
996
994
995
994
994
994
997
999
1002
1003
1000
1001
999
996
995
992
985
984
980
980
978
973
973
971
973
972
967
967
964
966
968
969
967
965
961
963
961
963
963
960
959
958
960
964
960
956
955
957
958
960
960
959
959
958
956
955
947
939
931
922
916
916
928
954
989
1028
1069
1115
1168
1214
1242
1252
1232
1177
1090
1005
949
935
941
952
954
958
962
961
962
962
960
959
956
956
957
959
957
957
953
954
955
958
957
953
953
954
954
952
955
953
951
951
953
956
952
954
952
953
955
957
957
955
955
955
955
957
957
956
954
952
954
955
957
955
953
953
956
956
957
956
954
956
958
960
959
955
954
955
957
960
960
958
952
954
953
954
955
952
954
950
951
954
950
950
947
950
949
955
952
952
950
951
951
954
954
954
953
952
954
957
957
955
955
952
957
960
961
960
960
962
965
968
967
969
970
971
974
974
973
974
972
974
975
979
977
977
975
974
977
976
977
974
971
969
973
974
974
971
969
968
971
975
971
971
969
968
969
971
973
971
967
968
969
969
966
965
963
964
964
968
966
966
964
964
965
967
966
966
965
968
968
972
971
970
966
967
968
970
971
968
968
966
964
966
968
967
965
968
967
972
969
969
969
967
969
970
970
967
969
970
971
971
973
970
971
968
968
972
972
967
968
967
969
974
973
970
969
968
970
971
971
970
969
968
969
973
973
974
972
971
972
975
975
973
973
971
974
974
975
974
971
971
972
973
975
972
970
967
971
973
976
973
972
972
974
976
974
975
973
971
973
974
972
974
971
969
974
977
974
972
970
972
975
980
978
978
978
980
983
987
988
985
984
984
986
987
988
989
987
989
988
994
994
993
989
986
990
990
992
987
984
983
986
994
994
992
984
982
981
978
974
973
968
967
963
968
966
966
965
963
965
967
965
963
963
963
965
965
967
967
966
963
964
964
961
956
947
944
946
944
936
924
921
934
964
998
1031
1076
1128
1187
1229
1243
1216
1146
1058
981
944
939
945
953
958
958
959
962
959
957
956
956
959
956
954
952
951
950
952
955
953
954
953
956
957
958
957
957
955
955
957
959
958
957
956
956
957
957
958
956
955
955
960
960
960
957
953
952
952
954
956
951
950
952
955
957
954
953
953
953
953
955
957
955
953
952
956
960
958
957
954
953
952
955
955
953
951
951
951
952
946
946
947
946
947
949
947
946
945
946
947
950
947
948
947
943
948
952
949
952
950
953
957
961
962
965
966
965
972
974
974
974
974
975
977
980
978
978
978
975
978
979
977
977
975
977
978
979
979
978
978
979
982
984
983
980
977
973
974
975
975
972
973
972
972
973
972
974
974
973
976
975
974
972
972
973
975
976
974
970
967
966
968
968
966
967
965
964
968
970
969
962
961
962
965
963
964
960
959
958
962
967
967
969
968
966
963
966
965
965
963
963
964
966
963
965
963
962
962
966
966
965
962
960
964
970
972
974
973
974
978
981
981
982
981
981
983
988
989
989
983
980
981
981
977
980
980
982
982
981
981
984
983
979
973
973
970
965
965
961
961
965
960
963
962
961
963
964
960
962
960
957
959
957
953
954
954
951
956
957
954
955
958
954
949
944
937
933
928
920
923
941
971
1009
1051
1109
1168
1213
1229
1204
1134
1036
966
938
934
940
947
951
954
953
953
955
955
953
952
954
952
950
948
951
953
954
952
949
950
947
950
953
951
951
945
946
949
954
952
949
945
948
951
954
953
950
946
945
948
951
952
951
951
952
951
954
950
949
946
946
948
951
952
950
948
948
951
952
952
949
948
948
949
952
949
945
945
945
947
947
945
943
944
942
942
944
941
940
936
936
937
937
938
936
934
937
938
942
943
941
943
945
948
953
951
950
951
952
955
960
962
962
961
964
965
972
971
969
970
968
971
975
976
974
974
973
975
978
975
972
972
971
971
973
973
973
971
969
974
975
973
976
973
973
977
975
974
974
972
970
972
973
975
971
966
965
967
970
969
972
969
968
972
972
972
971
970
968
970
971
970
969
968
967
970
972
970
969
969
968
972
974
974
972
972
970
973
976
973
974
972
972
972
975
974
971
970
969
972
973
973
970
969
969
973
974
976
973
971
972
976
978
979
980
981
982
984
987
987
990
989
992
992
995
998
994
992
989
991
991
987
990
990
987
990
992
995
997
996
990
986
985
982
975
973
971
967
971
969
967
963
967
967
969
969
965
964
963
967
968
969
968
962
964
967
967
969
965
964
963
959
953
941
938
935
931
922
919
918
927
942
970
1005
1047
1094
1154
1210
1251
1269
1250
1174
1066
979
940
944
959
970
970
965
963
965
966
964
964
961
961
964
965
963
964
962
961
963
963
964
960
959
958
959
961
961
961
958
957
960
962
960
960
961
959
961
963
963
961
961
962
962
962
961
960
961
959
961
962
961
963
960
961
962
963
963
963
961
963
964
963
964
962
959
960
964
964
963
961
960
959
961
963
962
961
956
957
956
960
961
958
958
958
961
960
960
961
959
955
959
961
963
962
963
961
965
970
972
974
974
977
980
984
985
987
989
990
999
1003
1010
1012
1014
1013
1015
1017
1016
1017
1018
1015
1018
1018
1012
1009
1005
1001
1001
998
1000
997
997
995
998
993
995
993
991
989
990
989
986
985
982
980
982
980
976
975
971
972
975
975
974
972
969
968
970
970
968
968
967
966
968
970
968
968
967
967
968
971
971
968
969
962
961
956
951
944
938
939
958
995
1036
1075
1118
1168
1222
1269
1289
1295
1278
1232
1167
1092
1023
971
951
952
965
976
975
969
969
966
968
970
967
966
964
963
965
966
966
963
961
960
963
967
967
966
962
962
966
967
966
966
963
963
965
967
965
965
963
962
967
965
966
965
966
966
966
967
965
966
965
966
968
968
967
965
963
961
963
966
966
963
962
962
964
966
969
963
962
961
963
961
961
959
957
956
957
959
957
956
955
954
955
957
958
956
954
956
960
965
965
964
964
967
968
970
972
970
968
968
971
976
976
974
972
974
976
978
978
976
976
976
977
979
978
978
978
974
978
980
978
974
974
973
974
974
974
974
970
970
971
974
972
970
967
967
970
971
970
970
967
969
970
972
972
970
969
970
972
974
974
972
969
969
970
971
972
970
968
967
971
970
972
971
970
970
971
973
972
972
969
969
971
976
973
975
973
971
973
977
976
973
974
969
973
974
975
973
968
969
971
973
973
971
968
970
971
973
971
972
971
970
973
975
975
974
973
971
973
976
975
974
970
971
971
974
974
972
967
967
970
973
974
972
970
971
974
975
973
973
973
972
974
977
974
977
973
972
972
974
974
972
971
967
972
973
974
973
970
969
971
972
975
976
975
974
977
979
983
985
987
985
986
986
987
986
986
988
992
994
995
994
993
992
991
993
991
988
987
986
989
990
988
988
990
994
998
996
989
985
982
978
977
976
975
973
971
968
967
971
970
969
966
967
968
969
967
967
966
965
966
967
967
967
965
964
968
968
966
964
962
957
950
944
938
935
926
923
939
967
1001
1033
1075
1127
1185
1231
1254
1252
1210
1126
1034
970
943
945
955
963
964
962
958
957
956
956
956
956
952
953
952
951
953
955
954
953
952
952
954
958
957
954
954
951
954
955
956
953
950
950
953
954
954
953
950
948
951
951
952
953
951
952
954
956
953
952
950
952
954
956
956
954
952
953
952
953
954
954
951
948
951
952
953
950
948
950
952
955
955
956
952
952
952
953
952
951
947
948
950
952
953
949
949
950
950
953
951
948
945
947
948
950
953
953
953
952
954
957
955
957
958
957
960
961
963
965
966
967
970
972
971
974
973
974
974
976
975
974
972
972
974
972
973
970
967
968
969
971
973
974
972
970
970
975
974
972
968
970
973
973
973
971
965
965
969
971
970
968
964
964
963
965
966
962
960
959
961
965
964
965
963
959
960
963
960
962
958
962
962
964
964
963
960
959
962
960
960
957
954
954
958
958
956
956
954
953
956
954
956
955
954
953
958
958
957
955
954
953
956
958
960
958
960
956
959
958
957
958
957
959
955
958
962
963
964
965
967
968
971
972
971
970
973
978
979
978
975
976
977
977
979
977
973
971
973
973
972
973
975
974
970
970
971
974
978
978
974
969
966
963
959
954
951
952
948
949
949
947
949
949
949
949
948
948
951
954
954
952
946
944
946
952
950
949
947
945
945
946
942
935
927
921
917
910
903
899
906
923
944
966
986
1013
1049
1098
1152
1192
1210
1197
1154
1077
1003
953
926
919
926
933
940
942
944
943
942
941
943
945
946
944
944
941
943
943
944
946
943
941
941
941
941
941
940
938
939
942
944
945
943
943
944
944
945
944
942
938
941
942
940
938
939
940
941
943
941
940
939
939
944
943
944
942
938
937
938
939
939
938
936
934
937
941
942
942
939
940
941
942
943
942
941
939
937
939
938
937
935
934
935
937
934
934
931
928
929
929
928
929
928
930
934
934
930
929
928
929
931
934
935
937
940
940
946
952
952
954
955
953
956
958
956
956
955
955
958
959
959
958
959
958
959
961
959
961
961
957
959
958
956
957
955
951
955
955
955
958
957
959
962
961
959
956
953
951
953
953
954
953
948
948
949
951
951
950
950
949
953
951
950
947
945
948
949
950
950
948
946
945
948
950
952
952
951
951
954
956
952
948
946
946
946
949
950
947
945
944
947
949
952
952
953
952
950
952
950
954
953
953
952
951
951
948
947
947
949
951
953
952
954
956
956
959
960
961
960
961
964
966
969
972
975
975
973
972
968
968
967
965
967
971
969
964
960
960
965
970
971
966
960
957
957
954
954
949
947
947
947
949
948
947
948
948
949
949
946
945
945
946
947
948
947
944
941
939
942
944
946
941
942
936
933
927
926
926
925
924
919
913
906
901
904
917
941
966
1000
1037
1079
1133
1181
1213
1224
1204
1140
1049
973
935
926
926
930
935
941
943
942
943
940
942
938
943
942
943
943
942
942
942
943
940
938
938
940
941
942
941
939
940
939
941
941
941
938
938
940
941
944
943
943
942
940
946
945
945
941
942
942
944
944
944
939
938
941
943
943
942
939
940
942
943
944
942
942
942
944
946
945
943
943
943
941
943
942
940
937
936
935
937
936
933
932
930
931
930
931
930
928
926
925
928
929
930
929
930
933
935
935
935
933
932
936
940
942
943
942
945
949
953
954
956
956
958
960
965
967
966
965
963
967
967
965
966
963
963
966
967
970
965
964
964
966
967
968
966
965
966
967
968
967
967
965
964
967
967
969
968
965
966
968
971
969
969
963
966
965
964
963
961
960
961
962
967
965
964
964
963
963
966
965
965
963
961
963
965
964
965
960
961
962
965
965
963
961
961
963
967
968
966
964
963
962
965
965
964
963
963
963
966
967
965
965
964
966
968
968
965
965
964
966
966
969
971
970
972
976
980
983
983
982
979
983
984
985
986
986
986
988
991
993
989
986
985
983
985
986
986
985
981
985
990
992
996
989
983
978
980
976
974
967
967
965
967
966
966
966
964
963
966
967
964
963
961
965
962
965
964
962
963
965
967
967
966
964
963
963
962
959
950
941
933
932
929
925
938
961
998
1038
1083
1135
1192
1235
1264
1274
1248
1180
1076
996
949
944
955
965
967
962
963
962
960
963
960
957
957
959
960
959
959
957
955
956
957
956
955
954
950
952
953
954
952
953
950
954
956
957
957
953
952
954
956
955
955
954
951
953
954
955
952
954
952
952
953
955
955
954
952
954
956
957
955
954
953
956
959
961
958
956
954
956
957
956
954
951
949
953
952
954
953
951
949
952
951
953
950
949
948
949
951
952
949
949
948
952
953
955
955
953
951
949
955
956
957
955
959
962
967
969
969
969
970
971
976
977
976
975
976
977
980
983
980
980
979
981
983
984
981
980
979
980
981
983
981
978
977
980
982
979
977
977
978
978
981
980
979
976
976
979
982
981
978
976
975
977
977
977
975
974
974
971
976
973
974
972
972
972
972
969
970
971
970
971
