1065
1066
1060
1059
1058
1058
1059
1055
1054
1049
1048
1051
1051
1051
1047
1043
1043
1043
1045
1045
1041
1040
1040
1040
1041
1040
1037
1034
1034
1037
1038
1038
1031
1032
1029
1031
1033
1033
1030
1025
1025
1025
1026
1024
1024
1021
1019
1022
1024
1023
1022
1021
1017
1021
1023
1022
1021
1018
1020
1020
1023
1023
1020
1018
1021
1020
1024
1025
1022
1018
1020
1023
1023
1024
1023
1020
1019
1023
1024
1024
1021
1019
1020
1023
1026
1024
1022
1018
1020
1022
1026
1024
1024
1020
1020
1020
1025
1022
1024
1022
1017
1022
1024
1024
1022
1022
1023
1026
1026
1024
1023
1019
1017
1021
1024
1023
1023
1022
1021
1025
1026
1029
1026
1023
1024
1023
1028
1027
1026
1026
1027
1029
1031
1029
1029
1027
1026
1031
1034
1037
1037
1033
1035
1036
1039
1041
1039
1036
1040
1043
1045
1044
1040
1037
1036
1039
1042
1041
1040
1040
1041
1043
1046
1047
1044
1040
1039
1038
1037
1037
1030
1029
1030
1030
1032
1032
1031
1028
1028
1028
1033
1030
1028
1025
1026
1029
1032
1030
1029
1023
1025
1025
1029
1028
1029
1025
1025
1031
1028
1030
1033
1034
1041
1054
1067
1082
1095
1107
1132
1164
1200
1236
1265
1292
1317
1348
1385
1429
1467
1486
1483
1447
1361
1248
1149
1091
1065
1051
1041
1037
1033
1028
1025
1026
1024
1023
1016
1011
1008
1008
1010
1009
1008
1005
1004
1008
1007
1007
1005
1002
1006
1008
1011
1008
1008
1006
1007
1007
1013
1014
1010
1009
1009
1010
1007
1006
1008
1004
1008
1008
1011
1010
1007
1001
1002
1005
1007
1008
1007
1001
1000
999
1001
1001
1000
1000
999
999
1001
998
996
994
994
997
1000
999
998
994
996
996
1003
1002
1000
1003
1001
1004
1010
1010
1013
1013
1018
1022
1028
1029
1034
1033
1041
1044
1053
1054
1053
1055
1058
1061
1061
1063
1061
1059
1059
1060
1061
1060
1057
1051
1052
1053
1054
1053
1049
1046
1047
1045
1046
1049
1046
1044
1042
1044
1046
1045
1042
1041
1039
1042
1047
1046
1040
1040
1037
1041
1041
1041
1041
1037
1035
1038
1039
1037
1033
1031
1031
1034
1037
1033
1035
1028
1029
1031
1037
1035
1034
1031
1029
1027
1031
1032
1030
1028
1029
1031
1032
1031
1029
1028
1028
1031
1036
1033
1033
1029
1029
1031
1035
1034
1033
1028
1027
1033
1033
1033
1031
1028
1027
1028
1029
1027
1025
1025
1024
1026
1029
1028
1026
1022
1021
1023
1029
1028
1029
1027
1025
1025
1029
1026
1023
1022
1023
1023
1027
1027
1025
1023
1025
1029
1032
1033
1032
1033
1032
1030
1036
1035
1033
1032
1034
1039
1040
1040
1038
1034
1034
1038
1039
1038
1035
1034
1034
1038
1043
1044
1042
1042
1041
1042
1043
1039
1033
1031
1031
1033
1035
1036
1031
1029
1028
1034
1037
1032
1028
1026
1026
1031
1032
1031
1029
1027
1026
1030
1031
1030
1029
1028
1027
1030
1033
1033
1034
1031
1037
1044
1056
1064
1073
1086
1102
1120
1144
1176
1211
1241
1272
1304
1329
1351
1378
1408
1445
1472
1479
1456
1392
1289
1185
1123
1096
1072
1050
1033
1030
1029
1028
1023
1019
1016
1012
1013
1009
1006
1001
997
997
1000
1002
999
998
996
996
999
1000
999
997
996
996
999
1003
1001
1000
996
998
1001
1002
998
999
998
997
998
1000
997
996
995
995
997
1000
997
994
994
993
995
1000
999
993
990
989
993
996
994
990
988
987
989
989
989
989
986
987
992
992
992
988
987
989
992
996
999
998
998
1000
1004
1011
1011
1016
1016
1021
1026
1035
1038
1041
1042
1044
1053
1059
1060
1059
1059
1060
1064
1066
1065
1063
1058
1058
1062
1064
1060
1059
1057
1055
1050
1052
1052
1051
1044
1047
1049
1052
1052
1051
1049
1051
1053
1056
1056
1056
1051
1048
1051
1051
1049
1046
1045
1045
1048
1050
1050
1050
1046
1047
1049
1048
1045
1040
1037
1043
1046
1048
1048
1046
1041
1040
1042
1043
1043
1042
1039
1039
1042
1045
1043
1044
1042
1039
1043
1045
1046
1045
1038
1037
1039
1042
1044
1040
1038
1037
1038
1040
1038
1034
1029
1028
1032
1034
1033
1029
1025
1025
1031
1031
1029
1022
1018
1018
1021
1024
1026
1022
1017
1018
1019
1020
1021
1020
1018
1022
1025
1026
1024
1021
1020
1020
1027
1028
1029
1027
1025
1027
1031
1035
1034
1033
1031
1032
1039
1038
1038
1033
1033
1035
1032
1031
1029
1028
1028
1031
1036
1043
1040
1040
1036
1032
1033
1033
1029
1027
1021
1021
1024
1028
1027
1026
1024
1023
1023
1027
1025
1023
1021
1020
1020
1022
1024
1024
1023
1021
1026
1030
1030
1029
1027
1027
1030
1035
1035
1040
1043
1052
1063
1081
1095
1109
1124
1149
1186
1222
1252
1275
1298
1323
1356
1394
1427
1441
1427
1376
1285
1183
1115
1081
1059
1037
1023
1022
1021
1013
1011
1011
1007
1006
1005
1004
1001
1001
1002
1002
999
996
993
996
998
1001
1000
996
993
994
996
995
994
992
989
990
990
994
996
994
991
993
993
994
994
985
984
984
986
989
987
984
981
981
986
985
985
981
979
985
988
987
983
979
977
979
983
986
989
991
992
995
997
1004
1004
1008
1011
1015
1022
1029
1030
1036
1037
1042
1048
1050
1050
1045
1044
1048
1052
1055
1053
1050
1045
1045
1050
1052
1052
1047
1045
1046
1047
1046
1046
1042
1038
1039
1043
1046
1043
1043
1041
1040
1038
1040
1038
1037
1036
1033
1032
1032
1032
1030
1029
1030
1031
1032
1030
1029
1029
1029
1027
1030
1028
1025
1025
1029
1033
1035
1036
1031
1027
1025
1025
1022
1023
1022
1024
1024
1028
1030
1027
1028
1030
1027
1030
1031
1028
1027
1028
1029
1029
1030
1029
1028
1027
1028
1028
1033
1030
1026
1022
1025
1026
1025
1020
1015
1016
1021
1021
1024
1023
1023
1020
1017
1024
1027
1024
1022
1022
1020
1022
1022
1023
1022
1020
1021
1026
1024
1021
1020
1019
1019
1024
1028
1024
1027
1028
1028
1035
1038
1035
1034
1030
1029
1030
1032
1030
1025
1020
1021
1027
1030
1026
1029
1030
1031
1033
1036
1033
1031
1029
1025
1026
1026
1024
1020
1018
1020
1021
1024
1020
1017
1015
1012
1014
1016
1014
1011
1010
1013
1016
1018
1016
1016
1014
1018
1020
1022
1018
1019
1014
1014
1019
1025
1027
1024
1027
1033
1043
1058
1068
1079
1088
1102
1120
1146
1171
1198
1221
1245
1270
1291
1317
1346
1379
1404
1419
1402
1342
1249
1153
1093
1067
1050
1029
1010
1004
1008
1008
1006
1004
999
994
995
992
994
991
989
988
986
988
992
989
988
987
991
994
995
997
991
984
981
981
984
983
986
985
985
987
991
988
983
980
979
982
984
984
981
979
982
984
984
983
980
982
986
985
987
985
984
980
981
982
982
977
970
969
971
971
975
971
969
966
965
971
974
972
968
967
969
971
974
974
972
971
971
977
981
982
980
979
980
986
993
996
998
1000
1008
1015
1022
1024
1022
1018
1020
1021
1028
1031
1032
1033
1034
1037
1037
1033
1032
1031
1035
1037
1037
1037
1031
1027
1025
1028
1030
1029
1024
1019
1018
1022
1026
1024
1022
1018
1018
1022
1024
1026
1023
1018
1017
1019
1023
1020
1017
1018
1016
1018
1022
1019
1016
1015
1016
1020
1023
1024
1021
1015
1014
1014
1017
1013
1006
1005
1007
1013
1015
1015
1014
1014
1017
1020
1020
1015
1010
1007
1011
1014
1016
1014
1012
1007
1008
1008
1010
1008
1006
1007
1008
1009
1012
1010
1008
1006
1007
1008
1010
1010
1007
1005
1004
1007
1012
1009
1007
1003
1006
1006
1005
1005
999
998
997
998
1001
1000
1001
998
1001
1004
1005
1002
999
998
998
999
999
997
995
995
997
1004
1004
1000
1000
998
997
1002
1004
1004
1004
1003
1007
1009
1013
1015
1008
1005
1004
1007
1012
1012
1010
1005
1008
1011
1016
1016
1010
1009
1008
1007
1009
1012
1009
1008
1012
1017
1017
1016
1011
1009
1013
1009
1011
1007
1001
997
996
997
998
999
993
994
998
1001
1001
999
995
994
995
997
1001
1002
999
993
992
995
998
999
999
996
996
1000
1002
1006
1001
1000
1000
1006
1014
1022
1028
1038
1054
1066
1083
1096
1114
1138
1165
1188
1209
1227
1244
1258
1279
1309
1338
1361
1372
1362
1327
1264
1185
1110
1063
1039
1024
1005
990
979
976
978
978
984
983
981
979
976
976
974
975
974
974
973
974
974
973
970
964
962
962
966
969
971
965
964
962
970
973
975
970
965
966
967
966
968
967
965
963
962
966
965
964
964
967
966
969
969
967
966
963
961
959
956
952
953
960
963
961
958
953
952
953
959
960
959
955
953
953
955
957
955
950
948
947
948
950
949
952
950
949
952
955
956
958
955
957
960
964
965
964
967
973
979
987
989
991
994
998
1006
1010
1009
1009
1008
1011
1012
1013
1013
1013
1013
1013
1015
1012
1009
1006
1006
1007
1010
1010
1009
1008
1005
1007
1009
1012
1011
1009
1007
1007
1006
1007
1008
1005
1004
1004
1004
1006
1006
1002
999
998
1002
1004
1004
1001
1001
1003
1009
1011
1005
1001
1000
1004
1007
1012
1011
1007
1003
999
1008
1011
1011
1007
1004
1009
1009
1013
1013
1008
1004
1004
1006
1009
1010
1011
1010
1014
1014
1010
1007
1004
1006
1016
1021
1021
1016
1012
1006
1006
1011
1014
1011
1003
1000
1002
1005
1011
1009
1009
1006
1005
1008
1010
1014
1012
1010
1009
1004
1005
998
992
991
995
999
1001
998
994
995
999
1001
999
998
996
996
1003
1007
1007
1000
996
991
993
998
1004
1005
998
996
994
997
1000
1004
1002
1002
1002
1010
1020
1023
1031
1044
1062
1082
1099
1119
1147
1175
1198
1220
1239
1250
1267
1289
1316
1345
1362
1348
1297
1223
1143
1084
1053
1028
1005
988
985
989
994
993
989
987
986
986
988
985
981
978
978
980
981
977
978
977
979
981
981
977
977
976
974
979
980
980
975
971
974
979
976
977
973
971
975
980
983
980
974
970
971
974
978
979
975
974
971
973
977
975
974
969
969
970
973
969
969
963
963
967
965
968
965
966
965
967
968
963
955
949
950
954
956
956
954
953
958
962
968
969
971
967
974
979
985
987
990
990
994
999
1005
1008
1006
1009
1013
1018
1027
1029
1024
1020
1021
1027
1029
1029
1029
1024
1028
1027
1030
1027
1024
1020
1014
1016
1012
1014
1015
1016
1018
1020
1020
1019
1017
1016
1016
1016
1016
1017
1012
1012
1012
1016
1018
1019
1016
1016
1015
1019
1020
1018
1013
1017
1016
1018
1018
1018
1015
1014
1016
1019
1022
1018
1015
1016
1016
1020
1019
1015
1014
1017
1024
1027
1028
1022
1018
1018
1018
1021
1022
1020
1016
1015
1016
1019
1017
1015
1013
1015
1018
1018
1017
1011
1011
1013
1018
1022
1018
1013
1014
1014
1014
1015
1011
1011
1011
1012
1012
1012
1016
1016
1016
1013
1013
1016
1012
1008
1012
1012
1016
1017
1017
1014
1013
1013
1012
1014
1010
1007
1006
1008
1013
1016
1018
1020
1019
1017
1015
1013
1012
1011
1009
1008
1010
1014
1017
1020
1018
1013
1010
1013
1020
1022
1020
1015
1016
1019
1021
1018
1016
1016
1020
1028
1032
1027
1016
1013
1016
1024
1030
1029
1023
1023
1026
1033
1028
1025
1024
1027
1027
1025
1024
1024
1020
1019
1020
1021
1019
1019
1015
1009
1009
1016
1019
1020
1016
1012
1011
1012
1015
1015
1015
1014
1017
1016
1017
1017
1010
1009
1009
1014
1018
1013
1011
1013
1014
1017
1021
1028
1036
1044
1051
1061
1074
1084
1093
1114
1144
1175
1201
1221
1242
1259
1286
1318
1353
1374
1361
1317
1253
1186
1128
1086
1053
1030
1010
996
996
1001
1005
1008
1006
1007
1003
998
994
992
995
998
996
995
994
992
991
993
994
995
991
989
992
992
993
994
990
990
990
987
989
987
985
986
985
987
990
990
985
985
985
991
994
989
986
989
990
991
993
992
986
986
985
989
988
986
983
981
986
987
986
990
987
983
983
986
989
990
988
985
987
987
992
990
987
985
985
986
988
989
989
997
1003
1010
1013
1016
1015
1020
1027
1031
1034
1034
1032
1033
1037
1042
1046
1048
1049
1047
1047
1049
1050
1049
1044
1042
1043
1044
1045
1040
1040
1038
1044
1046
1045
1042
1035
1037
1037
1040
1040
1037
1036
1035
1035
1037
1043
1042
1036
1037
1037
1040
1042
1039
1037
1036
1039
1040
1043
1039
1040
1037
1039
1044
1043
1041
1041
1038
1037
1043
1040
1038
1035
1032
1037
1041
1043
1041
1039
1036
1038
1041
1041
1041
1039
1037
1038
1039
1041
1041
1038
1037
1037
1036
1036
1036
1036
1033
1031
1034
1036
1034
1033
1033
1032
1035
1040
1040
1039
1039
1040
1036
1029
1025
1025
1030
1033
1030
1031
1032
1033
1032
1035
1034
1036
1036
1031
1031
1033
1038
1038
1034
1033
1034
1035
1034
1038
1036
1038
1039
1041
1046
1045
1046
1042
1042
1046
1049
1049
1045
1044
1042
1047
1050
1053
1052
1048
1042
1043
1043
1048
1047
1046
1045
1046
1052
1054
1054
1047
1043
1041
1039
1038
1037
1040
1040
1041
1041
1040
1037
1037
1036
1037
1039
1040
1038
1036
1035
1035
1036
1037
1036
1037
1037
1041
1041
1043
1037
1034
1036
1038
1042
1043
1047
1049
1053
1064
1076
1089
1102
1116
1134
1159
1190
1216
1234
1253
1274
1300
1335
1363
1372
1344
1289
1214
1145
1096
1063
1040
1028
1027
1030
1032
1026
1023
1024
1028
1032
1029
1022
1016
1015
1019
1021
1018
1016
1013
1012
1015
1022
1023
1022
1018
1016
1018
1022
1024
1021
1016
1010
1009
1010
1010
1012
1011
1007
1012
1016
1017
1017
1013
1010
1011
1014
1016
1013
1010
1005
1007
1007
1008
1008
1003
1001
1000
1002
1002
1002
998
996
996
998
997
996
994
995
995
996
994
993
992
993
999
1005
1007
1015
1015
1017
1014
1017
1021
1023
1029
1031
1036
1040
1046
1044
1046
1048
1052
1055
1057
1057
1055
1055
1056
1056
1057
1056
1051
1052
1051
1051
1055
1050
1051
1048
1050
1049
1052
1046
1045
1045
1046
1049
1052
1049
1046
1043
1046
1049
1050
1047
1045
1045
1044
1045
1044
1047
1045
1048
1051
1051
1049
1047
1042
1045
1051
1052
1051
1047
1043
1039
1044
1049
1047
1045
1043
1043
1046
1047
1048
1046
1042
1042
1043
1049
1049
1047
1046
1042
1043
1047
1048
1046
1044
1042
1041
1044
1046
1042
1042
1038
1040
1044
1043
1043
1039
1037
1038
1039
1042
1040
1036
1032
1037
1038
1041
1039
1038
1039
1040
1041
1043
1042
1038
1036
1037
1038
1036
1037
1038
1040
1043
1045
1046
1047
1041
1044
1044
1047
1049
1048
1048
1046
1045
1045
1045
1043
1042
1042
1043
1043
1043
1043
1045
1044
1045
1048
1045
1041
1036
1035
1035
1037
1034
1036
1033
1034
1037
1037
1036
1032
1032
1031
1033
1033
1034
1030
1029
1027
1033
1036
1034
1034
1031
1031
1034
1037
1036
1035
1034
1036
1041
1052
1057
1067
1077
1091
1106
1127
1150
1179
1203
1227
1256
1278
1302
1332
1368
1387
1383
1345
1274
1193
1125
1086
1059
1038
1021
1018
1020
1023
1022
1020
1022
1019
1016
1014
1013
1012
1011
1010
1006
1006
1011
1013
1012
1008
1004
1005
1006
1010
1012
1009
1005
1001
1003
1007
1007
1005
1002
1002
1004
1005
1004
1003
999
999
1001
1004
1000
1001
1000
997
999
1003
1001
999
996
995
996
999
997
995
992
992
993
997
997
989
986
983
985
988
986
987
983
981
982
985
985
984
980
981
987
992
994
996
997
1000
1002
1008
1010
1013
1015
1018
1024
1032
1036
1039
1039
1041
1043
1050
1051
1053
1052
1050
1051
1053
1055
1053
1049
1049
1051
1052
1054
1049
1047
1046
1047
1050
1048
1046
1043
1045
1045
1046
1047
1043
1042
1039
1042
1046
1047
1046
1042
1039
1040
1043
1045
1042
1040
1043
1045
1047
1046
1042
1042
1042
1044
1045
1046
1042
1039
1042
1040
1046
1045
1043
1042
1043
1041
1040
1040
1040
1041
1043
1045
1044
1040
1039
1034
1037
1040
1042
1044
1039
1038
1038
1040
1041
1038
1039
1037
1036
1039
1043
1040
1040
1038
1039
1042
1045
1046
1043
1038
1036
1034
1038
1038
1038
1034
1036
1037
1039
1038
1036
1031
1032
1036
1039
1039
1039
1037
1036
1038
1042
1046
1044
1044
1045
1047
1049
1051
1048
1045
1042
1042
1048
1045
1042
1038
1039
1041
1044
1043
1044
1043
1043
1045
1048
1046
1044
1042
1042
1040
1040
1034
1031
1027
1027
1027
1033
1035
1036
1033
1030
1031
1035
1034
1034
1031
1027
1034
1035
1037
1034
1035
1034
1036
1037
1035
1033
1034
1039
1044
1047
1053
1061
1071
1087
1103
1122
1150
1177
1203
1229
1253
1273
1296
1321
1352
1373
1374
1342
1279
1201
1131
1086
1057
1038
1024
1016
1012
1016
1017
1018
1019
1019
1012
1011
1009
1009
1014
1012
1010
1007
1007
1008
1008
1005
1004
1003
1009
1012
1016
1013
1012
1008
1003
1005
1007
1006
1003
1005
1007
1008
1006
1003
998
999
1001
1003
1005
1004
997
997
994
996
997
996
988
986
985
992
993
991
985
984
981
988
986
982
983
979
986
990
993
993
994
998
1001
1007
1009
1012
1015
1024
1031
1037
1038
1039
1040
1042
1047
1048
1051
1051
1047
1046
1048
1051
1049
1046
1042
1043
1048
1052
1051
1047
1045
1043
1044
1044
1046
1043
1043
1042
1045
1044
1042
1039
1036
1040
1042
1046
1045
1046
1044
1044
1041
1045
1043
1041
1040
1039
1044
1048
1049
1048
1048
1047
1044
1047
1044
1047
1042
1041
1046
1052
1050
1049
1047
1046
1049
1053
1049
1048
1045
1043
1044
1047
1049
1047
1046
1048
1047
1051
1049
1047
1041
1043
1047
1049
1048
1045
1041
1043
1041
1046
1048
1046
1043
1044
1045
1048
1047
1047
1045
1043
1049
1048
1047
1043
1038
1040
1044
1042
1039
1038
1039
1040
1043
1044
1047
1045
1042
1045
1046
1051
1052
1050
1048
1050
1052
1055
1052
1049
1045
1045
1046
1051
1052
1049
1047
1047
1052
1056
1056
1052
1048
1048
1050
1049
1048
1042
1038
1041
1041
1045
1045
1043
1039
1040
1041
1043
1043
1039
1037
1034
1039
1043
1041
1038
1036
1037
1039
1043
1044
1041
1038
1040
1040
1043
1048
1049
1047
1053
1063
1073
1076
1085
1094
1106
1125
1148
1173
1199
1213
1236
1257
1278
1301
1324
1352
1370
1362
1325
1257
1183
1120
1083
1060
1041
1027
1030
1035
1039
1039
1037
1033
1033
1026
1022
1019
1018
1019
1017
1017
1015
1020
1022
1020
1020
1017
1015
1020
1020
1019
1017
1015
1016
1017
1021
1021
1018
1015
1012
1013
1014
1015
1015
1011
1010
1011
1013
1010
1008
1007
1007
1011
1014
1013
1011
1009
1006
1009
1011
1009
1007
1003
1005
1005
1008
1004
1001
1000
1001
1002
1003
1003
999
999
1001
1006
1007
1008
1003
998
996
1004
1007
1008
1007
1004
1007
1011
1012
1018
1021
1023
1023
1032
1039
1043
1046
1046
1049
1055
1060
1060
1064
1059
1062
1067
1068
1067
1066
1062
1063
1060
1063
1062
1061
1058
1059
1061
1064
1063
1060
1057
1058
1060
1062
1060
1057
1056
1056
1058
1062
1060
1058
1057
1055
1061
1062
1064
1061
1059
1057
1059
1060
1062
1059
1054
1051
1055
1059
1059
1058
1056
1056
1058
1062
1057
1059
1056
1053
1057
1062
1063
1062
1058
1059
1062
1062
1062
1060
1058
1060
1061
1062
1061
1059
1055
1056
1058
1062
1060
1059
1056
1058
1058
1061
1058
1055
1054
1053
1055
1058
1060
1053
1051
1049
1051
1056
1057
1058
1056
1058
1059
1059
1053
1050
1049
1049
1053
1053
1047
1048
1044
1044
1047
1052
1055
1057
1057
1056
1060
1063
1058
1055
1052
1055
1059
1065
1063
1065
1060
1058
1058
1065
1067
1066
1061
1063
1062
1060
1059
1056
1056
1059
1064
1066
1061
1056
1053
1051
1053
1054
1052
1052
1052
1050
1054
1055
1054
1050
1049
1046
1048
1052
1052
1051
1048
1050
1051
1054
1052
1052
1051
1051
1053
1053
1053
1047
1047
1049
1054
1059
1058
1055
1054
1060
1067
1075
1084
1092
1100
1107
1122
1138
1159
1185
1207
1229
1250
1269
1285
1302
1325
1351
1377
1383
1360
1315
1256
1194
1145
1115
1092
1068
1047
1036
1032
1040
1046
1045
1040
1039
1038
1038
1035
1034
1028
1031
1029
1033
1030
1025
1023
1025
1026
1030
1029
1026
1024
1023
1026
1028
1030
1027
1025
1025
1026
1029
1029
1025
1022
1022
1024
1028
