1027
1026
1022
1022
1024
1027
1025
1024
1021
1021
1024
1026
1023
1021
1019
1020
1023
1024
1024
1020
1017
1016
1018
1019
1013
1008
1005
1008
1009
1013
1012
1009
1008
1007
1009
1011
1010
1008
1005
1002
1005
1009
1007
1008
1008
1009
1012
1017
1016
1016
1015
1018
1025
1031
1034
1035
1037
1039
1042
1050
1054
1056
1057
1059
1061
1066
1066
1065
1064
1067
1067
1074
1074
1070
1068
1067
1072
1073
1071
1068
1069
1069
1069
1071
1067
1066
1063
1062
1064
1066
1064
1063
1063
1063
1062
1065
1062
1060
1058
1059
1061
1064
1063
1060
1057
1058
1063
1063
1062
1058
1059
1057
1059
1062
1062
1058
1057
1061
1062
1064
1062
1063
1060
1062
1063
1065
1062
1059
1057
1058
1061
1065
1062
1061
1059
1057
1062
1063
1064
1060
1059
1060
1060
1061
1059
1057
1055
1055
1058
1059
1059
1055
1053
1053
1057
1058
1057
1052
1051
1051
1053
1056
1054
1048
1046
1046
1049
1052
1048
1049
1051
1050
1054
1053
1049
1047
1044
1043
1046
1048
1047
1044
1043
1042
1046
1048
1049
1049
1047
1049
1052
1054
1053
1052
1050
1051
1058
1059
1060
1056
1049
1050
1052
1054
1050
1048
1047
1047
1052
1052
1054
1050
1049
1049
1052
1055
1055
1050
1047
1044
1045
1046
1044
1043
1042
1041
1044
1046
1045
1045
1043
1041
1041
1041
1042
1039
1035
1035
1041
1041
1037
1034
1033
1033
1036
1037
1038
1038
1037
1042
1044
1048
1051
1055
1059
1070
1086
1103
1117
1132
1152
1173
1200
1222
1240
1260
1276
1301
1335
1363
1371
1350
1300
1231
1161
1109
1077
1052
1030
1022
1021
1024
1023
1022
1019
1019
1023
1022
1022
1014
1011
1012
1014
1016
1013
1013
1011
1010
1009
1010
1009
1005
1005
1008
1008
1011
1012
1008
1004
1002
1005
1006
1009
1002
999
997
1001
1003
1001
999
996
997
998
1004
999
1000
999
994
997
999
996
994
993
994
997
997
991
986
983
986
986
989
987
982
981
979
982
983
983
978
977
979
983
986
986
982
981
981
985
993
992
991
992
993
1000
1007
1009
1009
1011
1020
1022
1027
1030
1030
1031
1035
1040
1042
1041
1039
1040
1039
1042
1043
1041
1039
1039
1036
1041
1042
1040
1037
1035
1035
1038
1040
1037
1032
1030
1030
1033
1033
1034
1031
1029
1031
1035
1035
1031
1028
1025
1026
1028
1032
1029
1031
1027
1026
1031
1032
1029
1029
1025
1024
1027
1027
1026
1024
1023
1025
1029
1030
1027
1022
1018
1021
1025
1029
1027
1024
1023
1024
1025
1026
1027
1023
1021
1021
1025
1025
1022
1019
1019
1019
1022
1026
1021
1020
1020
1018
1020
1020
1017
1014
1013
1014
1016
1020
1016
1015
1013
1015
1013
1017
1018
1012
1009
1011
1015
1015
1014
1012
1008
1007
1008
1010
1009
1008
1011
1013
1018
1018
1019
1016
1014
1018
1019
1024
1021
1019
1016
1013
1016
1017
1015
1012
1013
1015
1016
1017
1017
1015
1017
1017
1018
1017
1013
1010
1006
1007
1007
1012
1011
1004
1000
1004
1007
1008
1005
1003
1002
1002
1006
1008
1005
1002
1001
1003
1004
1007
1005
1001
999
1004
1006
1010
1012
1012
1019
1033
1048
1063
1073
1085
1108
1141
1173
1195
1214
1230
1247
1281
1310
1319
1288
1224
1146
1083
1038
1012
995
983
978
985
994
997
990
986
983
981
981
985
985
981
979
980
983
982
981
980
978
976
977
979
978
978
975
977
979
979
977
975
972
975
977
976
975
973
972
974
976
977
977
973
969
969
971
972
967
963
964
963
967
969
968
964
964
962
966
966
961
961
962
967
968
973
969
968
968
967
967
968
971
972
972
975
982
983
981
980
985
990
995
1001
1001
1000
1004
1005
1008
1009
1010
1007
1009
1012
1014
1015
1014
1010
1007
1006
1008
1012
1011
1009
1003
1004
1005
1008
1009
1005
1002
1006
1006
1008
1005
1001
1000
1002
1004
1006
1005
1001
1000
1003
1006
1007
1010
1006
1001
999
999
1003
1004
1003
998
999
1004
1003
1002
997
996
995
1000
1001
999
994
995
999
1001
1002
1000
999
999
1002
1004
1003
1003
999
998
1000
1003
1004
1004
1003
1002
1004
1007
1007
1004
1000
999
997
1000
1003
1000
996
994
996
998
1002
999
996
996
998
1002
1009
1007
1006
1008
1017
1030
1043
1054
1068
1086
1114
1141
1162
1176
1182
1192
1210
1231
1253
1275
1276
1248
1190
1118
1054
1012
983
969
964
970
979
981
978
975
975
976
976
972
967
965
968
970
972
969
968
968
967
969
969
968
962
960
958
964
972
969
966
960
959
962
966
964
963
959
959
961
965
961
959
957
962
963
962
958
955
954
955
956
959
958
954
954
957
962
962
954
950
949
953
956
956
955
952
949
949
953
955
954
953
953
956
958
961
962
960
963
970
973
978
976
974
979
982
985
988
992
989
993
996
994
994
992
991
989
993
993
996
992
987
980
981
982
986
984
979
977
979
979
980
984
982
980
981
983
982
980
976
975
979
983
983
982
981
979
980
979
980
978
976
976
979
982
983
979
976
974
978
982
984
981
978
977
977
978
981
981
977
977
975
978
983
982
982
979
980
980
981
976
975
976
980
983
985
984
982
979
984
984
988
989
989
985
983
984
982
982
982
983
982
983
984
986
983
979
981
988
992
990
988
985
986
987
987
985
983
984
989
991
991
987
983
986
989
989
993
991
989
986
986
993
994
992
989
990
994
995
999
997
992
993
994
994
993
989
991
987
992
993
998
998
995
996
998
1002
1003
998
996
996
998
1002
1000
997
992
994
1002
1005
1005
1008
1006
1008
1010
1012
1011
1011
1013
1017
1020
1019
1019
1022
1020
1020
1018
1017
1014
1016
1016
1012
1015
1018
1020
1018
1019
1017
1016
1012
1014
1012
1009
1008
1007
1012
1012
1012
1013
1011
1012
1016
1017
1014
1014
1011
1012
1010
1016
1012
1012
1010
1013
1018
1023
1021
1018
1021
1031
1041
1054
1064
1076
1091
1116
1149
1182
1219
1249
1282
1316
1357
1401
1436
1446
1414
1338
1242
1157
1099
1062
1035
1020
1016
1016
1017
1015
1010
1011
1011
1008
1003
997
993
992
992
995
996
992
995
997
999
1001
1001
996
993
995
997
1001
999
995
991
995
997
998
997
994
991
994
997
998
996
992
991
991
991
994
993
992
991
993
996
997
995
991
989
992
995
997
993
989
991
992
996
998
997
995
992
996
994
992
991
991
991
995
1000
999
1000
994
993
997
1004
1009
1010
1011
1010
1014
1019
1020
1021
1023
1029
1035
1041
1042
1042
1043
1046
1050
1054
1059
1056
1053
1050
1052
1052
1052
1052
1051
1048
1047
1049
1045
1045
1045
1043
1044
1049
1047
1043
1040
1037
1036
1038
1038
1040
1035
1036
1038
1041
1039
1039
1035
1036
1035
1038
1039
1038
1035
1033
1036
1038
1038
1038
1034
1035
1033
1036
1037
1033
1032
1032
1035
1033
1035
1033
1030
1030
1032
1035
1035
1034
1030
1031
1034
1035
1036
1036
1032
1032
1033
1034
1034
1032
1029
1028
1029
1031
1033
1030
1029
1029
1033
1035
1033
1029
1027
1025
1027
1028
1031
1026
1023
1023
1025
1028
1031
1029
1026
1025
1026
1027
1029
1026
1027
1024
1028
1032
1034
1032
1031
1028
1031
1037
1039
1037
1037
1033
1035
1037
1038
1035
1030
1027
1030
1034
1035
1035
1033
1033
1035
1039
1042
1039
1032
1030
1030
1030
1029
1030
1028
1029
1032
1032
1035
1031
1030
1029
1031
1032
1032
1029
1027
1027
1031
1036
1037
1036
1028
1026
1029
1030
1035
1031
1034
1031
1034
1037
1044
1046
1050
1058
1073
1090
1106
1121
1146
1174
1210
1242
1269
1290
1311
1329
1360
1397
1429
1442
1435
1392
1316
1223
1144
1102
1076
1051
1037
1026
1027
1023
1017
1014
1018
1022
1024
1021
1015
1011
1005
999
995
997
993
996
997
998
998
997
993
995
998
1001
1001
996
996
993
994
997
997
995
994
994
990
995
997
992
993
992
996
995
994
995
990
990
994
998
998
993
989
988
991
993
993
992
987
987
990
994
993
990
990
988
993
998
999
993
990
986
989
990
994
994
992
994
1002
1007
1011
1011
1013
1014
1019
1022
1027
1033
1034
1039
1042
1045
1048
1050
1050
1052
1056
1061
1060
1053
1047
1043
1043
1051
1051
1054
1049
1048
1047
1046
1051
1055
1055
1056
1053
1049
1041
1036
1031
1030
1036
1038
1042
1038
1037
1033
1037
1042
1045
1043
1041
1041
1040
1045
1044
1042
1040
1039
1042
1041
1042
1040
1040
1039
1041
1045
1043
1042
1037
1035
1036
1040
1040
1035
1034
1034
1035
1038
1041
1042
1041
1042
1043
1040
1039
1034
1035
1038
1042
1040
1041
1037
1036
1035
1037
1040
1039
1039
1036
1038
1039
1041
1041
1041
1042
1043
1048
1050
1051
1051
1050
1051
1050
1049
1050
1048
1043
1043
1045
1048
1044
1043
1044
1048
1053
1053
1050
1046
1040
1040
1043
1048
1049
1044
1039
1035
1037
1042
1049
1047
1044
1044
1049
1050
1048
1040
1037
1033
1031
1035
1036
1036
1034
1034
1037
1043
1044
1042
1045
1050
1060
1068
1076
1085
1096
1111
1129
1149
1173
1202
1230
1253
1278
1298
1319
1346
1380
1415
1439
1443
1407
1324
1220
1141
1098
1082
1066
1048
1035
1030
1034
1040
1038
1036
1035
1030
1031
1029
1027
1027
1021
1023
1026
1025
1025
1023
1018
1020
1023
1026
1026
1023
1020
1022
1022
1025
1023
1023
1018
1018
1022
1024
1024
1023
1021
1022
1024
1026
1023
1026
1024
1024
1029
1033
1033
1031
1027
1024
1024
1023
1020
1019
1017
1017
1020
1024
1025
1021
1018
1018
1016
1020
1021
1016
1016
1015
1015
1019
1019
1019
1017
1020
1022
1026
1024
1027
1023
1025
1029
1033
1037
1037
1036
1038
1044
1051
1051
1056
1059
1063
1067
1074
1077
1075
1072
1074
1078
1082
1083
1080
1080
1077
1080
1081
1080
1079
1077
1076
1077
1078
1074
1074
1072
1069
1071
1075
1074
1073
1069
1071
1070
1072
1070
1070
1065
1069
1070
1071
1068
1069
1066
1066
1066
1069
1069
1068
1069
1068
1067
1069
1067
1066
1063
1062
1063
1064
1064
1064
1062
1063
1065
1070
1067
1065
1063
1062
1065
1069
1067
1063
1063
1062
1063
1066
1065
1062
1059
1061
1062
1065
1065
1060
1058
1058
1060
1065
1063
1059
1058
1056
1059
1060
1059
1057
1052
1053
1054
1055
1055
1055
1052
1052
1053
1053
1051
1050
1048
1048
1053
1051
1052
1050
1047
1048
1050
1054
1056
1055
1052
1052
1053
1056
1055
1055
1051
1052
1052
1054
1052
1050
1046
1045
1048
1050
1048
1047
1047
1044
1046
1050
1048
1045
1044
1043
1043
1040
1035
1031
1029
1029
1030
1036
1033
1029
1024
1028
1029
1032
1031
1026
1022
1024
1026
1029
1030
1027
1021
1022
1026
1031
1027
1024
1023
1021
1022
1024
1025
1026
1025
1030
1037
1046
1052
1064
1075
1090
1110
1136
1162
1191
1213
1234
1256
1276
1299
1322
1353
1380
1396
1383
1336
1256
1174
1109
1073
1050
1033
1014
1002
1003
1004
1004
1006
1001
997
997
999
1001
998
994
991
989
989
991
989
989
986
989
990
994
990
986
983
985
986
988
987
984
983
983
985
987
987
985
981
980
980
982
984
981
978
981
983
984
981
980
979
978
983
984
984
982
978
978
980
984
985
983
977
978
980
981
982
981
979
981
984
986
987
984
983
985
989
991
991
990
991
992
997
1003
1003
1003
1007
1011
1015
1021
1024
1023
1023
1025
1032
1037
1036
1031
1029
1032
1038
1036
1035
1034
1029
1027
1027
1028
1025
1021
1019
1019
1021
1022
1021
1021
1019
1017
1017
1022
1022
1016
1015
1017
1019
1020
1018
1016
1013
1014
1017
1019
1017
1011
1011
1010
1014
1016
1016
1015
1010
1009
1012
1015
1014
1012
1010
1010
1010
1015
1015
1012
1010
1011
1012
1013
1013
1010
1009
1010
1011
1015
1014
1011
1008
1011
1014
1017
1013
1011
1012
1011
1013
1019
1019
1017
1015
1013
1019
1018
1019
1017
1016
1016
1020
1023
1022
1016
1016
1020
1019
1024
1021
1021
1020
1020
1021
1024
1023
1021
1020
1020
1021
1024
1024
1022
1020
1022
1022
1027
1025
1027
1027
1027
1029
1035
1035
1032
1032
1035
1039
1043
1041
1039
1035
1038
1038
1040
1038
1038
1036
1038
1042
1042
1040
1039
1037
1041
1044
1049
1048
1045
1039
1035
1035
1039
1040
1039
1037
1041
1041
1043
1042
1039
1037
1039
1040
1044
1043
1044
1043
1044
1045
1048
1045
1046
1043
1045
1047
1047
1049
1046
1044
1048
1054
1057
1058
1058
1058
1063
1075
1087
1099
1110
1121
1134
1155
1180
1212
1239
1260
1285
1310
1332
1351
1378
1413
1448
1474
1482
1457
1399
1313
1226
1156
1122
1095
1076
1058
1058
1059
1057
1054
1049
1048
1046
1047
1045
1042
1039
1037
1036
1040
1040
1039
1035
1033
1037
1040
1040
1039
1037
1034
1037
1038
1043
1041
1040
1038
1038
1041
1041
1042
1038
1034
1037
1040
1043
1040
1038
1037
1035
1038
1041
1039
1038
1037
1037
1042
1045
1041
1038
1038
1038
1037
1040
1041
1038
1039
1040
1041
1045
1044
1041
1038
1038
1041
1044
1041
1041
1038
1038
1037
1037
1038
1037
1037
1038
1042
1045
1043
1043
1043
1047
1054
1060
1062
1061
1062
1065
1067
1075
1079
1082
1081
1085
1092
1099
1098
1096
1095
1097
1099
1103
1100
1097
1093
1092
1095
1098
1096
1093
1090
1087
1087
1091
1086
1088
1082
1084
1086
1088
1088
1085
1081
1081
1085
1087
1085
1082
1082
1078
1079
1079
1079
1079
1073
1072
1076
1077
1076
1074
1071
1070
1071
1075
1071
1067
1062
1065
1068
1074
1071
1067
1062
1062
1065
1066
1064
1066
1060
1063
1066
1064
1064
1057
1058
1057
1059
1059
1058
1056
1054
1055
1056
1059
1061
1057
1057
1054
1058
1061
1056
1052
1053
1056
1054
1055
1054
1050
1048
1047
1048
1051
1052
1052
1050
1051
1054
1055
1053
1050
1051
1051
1056
1060
1054
1053
1049
1049
1052
1056
1054
1050
1048
1050
1051
1044
1043
1044
1042
1047
1049
1048
1045
1046
1044
1045
1048
1050
1047
1044
1040
1035
1040
1041
1040
1035
1035
1033
1038
1041
1038
1035
1033
1034
1036
1040
1038
1035
1033
1033
1036
1038
1037
1035
1036
1038
1040
1045
1043
1039
1040
1044
1047
1054
1055
1061
1067
1076
1092
1109
1119
1132
1149
1171
1206
1235
1257
1277
1294
1313
1345
1384
1417
1434
1431
1398
1323
1232
1151
1103
1075
1056
1039
1032
1026
1023
1021
1022
1025
1029
1025
1020
1019
1020
1021
1022
1017
1011
1010
1008
1016
1017
1018
1014
1013
1018
1018
1018
1015
1009
1009
1010
1016
1020
1018
1017
1013
1014
1015
1019
1019
1016
1016
1015
1019
1018
1018
1015
1015
1013
1017
1019
1019
1016
1014
1014
1017
1020
1019
1016
1014
1015
1019
1022
1021
1016
1010
1012
1016
1020
1016
1012
1011
1009
1013
1016
1016
1017
1021
1025
1030
1030
1030
1033
1033
1039
1045
1050
1051
1053
1054
1060
1067
1073
1074
1074
1076
1078
1084
1083
1080
1077
1077
1080
1081
1080
1073
1067
1063
1065
1066
1068
1068
1065
1059
1057
1063
1063
1063
1060
1057
1056
1059
1061
1059
1055
1053
1054
1058
1061
1062
1060
1059
1058
1059
1061
1059
1055
1054
1055
1053
1049
1041
1040
1042
1046
1051
1054
1053
1049
1042
1040
1046
1053
1049
1044
1038
1032
1034
1038
1038
1039
1039
1043
1047
1048
1047
1046
1043
1038
1035
1038
1040
1040
1041
1041
1045
1043
1040
1042
1037
1038
1038
1042
1041
1037
1037
1041
1043
1039
1038
1039
1044
1049
1054
1052
1043
1037
1039
1043
1049
1050
1051
1047
1045
1045
1050
1049
1049
1042
1042
1040
1041
1046
1045
1043
1043
1045
1050
1049
1047
1040
1034
1034
1039
1045
1044
1041
1035
1033
1030
1033
1033
1036
1037
1038
1036
1036
1034
1031
1032
1034
1034
1037
1034
1026
1025
1032
1041
1044
1041
1044
1039
1037
1041
1046
1054
1065
1079
1094
1108
1124
1134
1150
1180
1211
1244
1266
1283
1297
1315
1344
1375
1404
1415
1409
1373
1305
1211
1134
1091
1069
1054
1040
1035
1033
1031
1027
1024
1023
1028
1026
1022
1015
1013
1018
1019
1020
1023
1018
1014
1013
1014
1019
1015
1014
1007
1006
1010
1017
1018
1013
1013
1016
1017
1020
1019
1012
1010
1010
1010
1016
1015
1015
1013
1017
1017
1022
1020
1016
1010
1012
1011
1014
1014
1011
1009
1012
1012
1010
1004
1005
1005
1002
1005
1006
1006
1001
1003
1005
1008
1011
1009
1011
1005
1008
1015
1018
1018
1016
1015
1019
1021
1025
1029
1032
1035
1037
1040
1044
1043
1040
1040
1051
1060
1065
1064
1063
1059
1060
1060
1060
1061
1059
1053
1050
1054
1059
1058
1054
1046
1039
1037
1037
1041
1038
1037
1037
1040
1040
1036
1033
1032
1032
1035
1037
1035
1028
1024
1027
1030
1033
1031
1028
1026
1023
1023
1026
1022
1018
1021
1023
1027
1031
1026
1021
1017
1015
1019
1017
1017
1014
1014
1016
1020
1024
1027
1021
1020
1021
1022
1024
1021
1020
1019
1023
1027
1028
1027
1022
1018
1018
1023
1023
1022
1018
1016
1021
1021
1025
1024
1023
1020
1022
1024
1025
1027
1025
1018
1015
1017
1020
1022
1021
1019
1017
1019
1019
1021
1020
1021
1022
1026
1025
1027
1024
1021
1021
1025
1029
1029
1027
1025
1024
1024
1026
1024
1020
1019
1019
1022
1026
1023
1021
1022
1024
1025
1029
1028
1024
1022
1021
1022
1027
1020
1018
1012
1010
1012
1021
1022
1017
1014
1017
1019
1022
1018
1016
1015
1017
1020
1021
1019
1013
1016
1019
1021
1025
1022
1023
1025
1029
1030
1031
1028
1030
1038
1055
1074
1085
1097
1112
1134
1168
1197
1222
1237
1251
1266
1292
1324
1355
1377
1382
1362
1313
1237
1156
1090
1050
1027
1015
1012
1013
1013
1010
1006
1007
1009
1011
1006
1002
998
999
1000
1000
999
995
997
992
995
995
993
993
994
996
997
999
998
996
994
995
999
1000
999
993
990
994
993
996
998
996
994
992
997
999
999
996
992
993
998
999
1000
999
998
997
1000
998
999
996
995
994
998
999
997
998
1003
1005
1005
1003
1003
1003
1004
1008
1013
1016
1018
1019
1025
1028
1033
1036
1038
1039
1043
1049
1054
1057
1055
1054
1055
1056
1063
1059
1057
1053
1051
1053
1052
1052
1049
1044
1040
1039
1040
1040
1037
1036
1032
1031
1033
1032
1033
1032
1030
1030
1030
1031
1032
1028
1027
1028
1029
1030
1027
1025
1028
1030
1031
1030
1031
1023
1017
1018
1020
1023
1023
1016
1017
1014
1019
1019
1020
1019
1017
1016
1022
1021
1018
1016
1016
1018
1019
1014
1015
1009
1008
1012
1016
1018
1017
1011
1010
1014
1014
1018
1016
1014
1012
1013
1020
1020
1019
1016
1019
1019
1022
1023
1018
1015
1014
1018
1021
1024
1023
1022
1021
1024
1022
1023
1020
1023
1023
1025
1031
1034
1032
1031
1032
1036
1039
1043
1041
1036
1032
1030
1030
1032
1032
1030
1033
1034
1037
1041
1036
1037
1038
1042
1045
1044
1038
1031
1026
1030
1035
1038
1036
1034
1032
1033
1038
1039
1036
1034
1035
1036
1038
1037
1034
1029
1032
1036
1041
1042
1043
1039
1038
1038
1042
1045
1043
1046
1048
1051
1055
1057
1061
1069
1079
1097
1110
1124
1139
1162
1191
1228
1259
1285
1308
1328
1351
1390
1432
1467
1480
1464
1410
1320
1219
1146
1101
1074
1055
1049
1050
1048
1045
1040
1038
1037
1037
1034
1032
1025
1025
1025
1027
1025
1023
1017
1018
1020
1022
1022
1017
1013
1013
1014
1015
1019
1017
1015
1015
1016
1018
1017
1015
1011
1009
1011
1016
1014
1011
1011
1012
1015
1016
1017
1016
1010
1012
1017
1017
1017
1016
1014
1015
1019
1018
1020
1018
1017
1018
1019
1020
1016
1014
1011
1013
1015
1021
1023
1022
1022
1022
1027
1032
1034
1032
1033
1038
1041
1047
1055
1056
1058
1061
1068
1076
1080
1076
1074
1073
1079
1083
1082
1078
1072
1073
1074
1073
1072
1066
1060
1060
1060
1064
1062
1056
1051
1050
1050
1053
1052
1053
1051
1049
1048
1048
1050
1048
1045
1047
1046
1045
1047
1045
1045
1042
1044
1044
1045
1043
1038
1038
1036
1040
1040
1035
1032
1032
1034
1034
1036
1034
1031
1030
1030
1032
1029
1027
1027
1025
1030
1029
1031
1028
1025
1022
1023
1022
1024
1021
1017
1019
1020
1022
1022
1019
1018
1013
1017
1019
1018
1016
