1048
1053
1053
1049
1049
1050
1052
1057
1058
1060
1058
1057
1055
1057
1058
1056
1052
1050
1055
1061
1060
1059
1058
1057
1060
1061
1061
1057
1050
1047
1046
1048
1049
1043
1043
1043
1047
1049
1048
1047
1044
1041
1043
1043
1045
1045
1042
1040
1043
1046
1046
1043
1042
1042
1043
1046
1050
1047
1049
1054
1060
1066
1077
1094
1111
1124
1151
1180
1216
1250
1285
1316
1347
1375
1405
1436
1465
1487
1492
1472
1416
1316
1220
1153
1121
1096
1077
1061
1047
1043
1038
1039
1038
1031
1023
1019
1016
1016
1017
1014
1012
1008
1006
1010
1015
1016
1011
1008
1007
1011
1013
1011
1006
1005
1005
1007
1007
1006
1004
1002
1002
1004
1004
1003
999
996
997
997
999
997
992
991
989
991
989
987
983
982
984
983
982
979
975
973
973
976
978
977
973
972
974
976
980
985
990
994
999
1008
1014
1019
1022
1026
1035
1042
1045
1048
1048
1049
1053
1057
1060
1058
1052
1051
1052
1053
1054
1051
1051
1048
1048
1049
1050
1048
1048
1046
1048
1049
1048
1047
1045
1042
1042
1046
1046
1044
1038
1037
1038
1040
1038
1041
1037
1035
1036
1036
1037
1032
1029
1027
1028
1030
1031
1027
1025
1024
1024
1029
1029
1028
1024
1025
1025
1027
1030
1027
1028
1026
1030
1034
1036
1034
1031
1028
1030
1035
1038
1038
1033
1031
1033
1036
1038
1035
1032
1029
1030
1035
1038
1033
1032
1029
1030
1033
1034
1031
1028
1028
1029
1033
1032
1031
1029
1026
1026
1027
1029
1028
1024
1024
1029
1031
1030
1027
1022
1021
1025
1027
1030
1030
1029
1027
1031
1031
1032
1032
1032
1031
1031
1036
1039
1040
1035
1035
1036
1036
1034
1032
1031
1030
1032
1036
1034
1033
1031
1031
1033
1037
1038
1035
1034
1031
1030
1030
1030
1025
1021
1022
1025
1026
1025
1025
1024
1021
1022
1027
1029
1027
1020
1019
1023
1024
1026
1023
1020
1020
1023
1024
1025
1024
1022
1020
1023
1025
1025
1023
1021
1021
1024
1031
1032
1038
1043
1051
1065
1079
1098
1113
1132
1159
1190
1226
1255
1280
1304
1327
1355
1389
1423
1448
1459
1452
1422
1357
1265
1179
1117
1090
1071
1049
1035
1022
1013
1007
1007
1006
1005
1000
995
988
991
989
987
984
981
981
983
984
984
978
976
973
974
976
976
974
968
968
969
970
970
968
966
960
964
966
966
963
962
959
961
962
961
962
957
959
961
960
958
958
954
954
954
954
958
956
952
950
950
952
950
950
947
946
945
947
944
942
939
936
941
941
942
940
936
934
936
937
938
936
935
938
942
944
941
937
939
940
949
954
957
956
957
961
968
974
981
983
981
988
990
997
996
996
996
997
1001
1003
1006
1004
1000
999
1000
999
1001
1000
996
997
997
1001
998
998
992
992
993
994
994
995
995
993
995
996
996
991
989
990
989
992
994
994
991
991
991
992
991
988
987
984
984
986
986
984
981
983
985
988
988
986
981
983
981
984
985
980
977
978
981
984
987
982
979
977
981
983
982
980
977
977
982
987
988
984
982
981
981
986
987
985
984
980
981
987
987
985
979
981
981
984
983
982
977
981
983
986
983
983
979
978
979
980
981
980
981
981
981
984
980
979
977
979
977
980
975
977
974
977
981
982
977
977
974
973
976
978
978
973
970
975
976
980
982
981
980
980
985
986
987
985
982
982
988
990
988
985
982
982
982
987
986
983
981
979
981
985
986
984
979
978
980
978
975
973
972
973
976
977
977
973
971
968
970
977
978
979
972
971
973
975
974
975
968
971
972
974
973
971
968
969
975
979
979
978
975
977
979
988
992
999
1004
1017
1032
1049
1064
1085
1108
1143
1180
1210
1234
1257
1275
1299
1333
1375
1403
1415
1398
1350
1267
1174
1095
1046
1013
994
981
975
969
964
959
958
958
956
949
944
940
937
936
937
936
935
931
929
931
937
936
934
931
927
929
929
933
932
929
926
926
928
930
928
926
924
925
927
927
925
924
920
922
925
925
923
921
921
922
925
926
923
914
914
916
920
919
918
911
916
919
923
922
920
913
912
917
922
924
919
915
911
915
918
920
924
921
922
924
927
930
928
927
930
932
937
938
938
939
944
947
953
960
961
963
965
972
975
979
979
981
981
985
987
986
985
977
978
977
981
986
987
984
981
982
983
980
976
971
974
975
976
978
977
973
975
976
978
977
973
972
971
974
978
975
972
970
970
973
975
972
970
966
966
970
972
975
973
968
969
970
971
972
974
968
967
971
974
974
975
972
972
974
976
979
975
973
972
974
976
977
974
975
976
979
982
984
984
981
979
981
984
985
987
983
986
985
989
987
982
982
984
990
992
991
990
987
991
995
995
994
992
989
990
993
993
995
993
992
992
993
999
999
998
993
993
995
997
1000
999
998
1000
999
1004
1005
1006
1007
1009
1008
1012
1012
1012
1013
1016
1017
1020
1018
1016
1013
1012
1015
1019
1021
1022
1018
1018
1023
1028
1028
1029
1025
1023
1022
1024
1021
1018
1013
1013
1017
1021
1022
1022
1018
1018
1018
1019
1020
1020
1019
1019
1021
1023
1020
1021
1020
1020
1025
1028
1026
1024
1022
1023
1027
1030
1032
1032
1034
1041
1049
1063
1079
1091
1106
1122
1152
1188
1224
1255
1285
1315
1342
1374
1408
1442
1469
1480
1466
1416
1321
1215
1140
1098
1074
1061
1049
1040
1030
1028
1027
1025
1020
1014
1008
1005
1009
1010
1006
1003
1001
998
1000
1003
1003
1003
997
997
998
999
1000
996
993
997
1000
1004
1005
999
994
993
998
998
995
996
993
992
993
994
994
990
987
989
989
990
989
987
983
984
984
985
983
982
979
981
980
983
980
979
976
977
976
978
974
972
967
966
969
974
973
973
972
973
975
977
980
981
979
983
988
992
995
998
1000
1007
1014
1025
1027
1032
1031
1035
1039
1043
1045
1046
1045
1048
1050
1053
1050
1050
1048
1046
1045
1048
1045
1044
1037
1040
1044
1044
1043
1041
1036
1037
1039
1041
1041
1039
1036
1036
1037
1041
1041
1039
1036
1034
1036
1039
1036
1032
1026
1029
1035
1038
1037
1034
1028
1028
1031
1032
1031
1026
1023
1022
1025
1029
1029
1026
1023
1020
1025
1029
1027
1025
1021
1021
1024
1027
1026
1024
1019
1022
1024
1025
1025
1024
1024
1020
1022
1027
1026
1026
1022
1021
1022
1024
1027
1021
1020
1022
1024
1029
1028
1024
1018
1021
1023
1027
1026
1022
1016
1019
1022
1024
1023
1022
1020
1020
1023
1024
1022
1018
1016
1014
1020
1025
1023
1025
1024
1023
1028
1029
1029
1029
1026
1026
1029
1037
1037
1035
1032
1027
1029
1031
1030
1028
1026
1027
1030
1034
1032
1032
1030
1029
1032
1036
1030
1027
1022
1019
1020
1024
1022
1020
1020
1019
1020
1025
1022
1019
1016
1016
1019
1022
1021
1019
1014
1015
1015
1018
1020
1020
1017
1017
1017
1022
1022
1024
1021
1028
1035
1043
1051
1068
1089
1112
1139
1182
1223
1266
1303
1336
1367
1407
1447
1469
1466
1432
1355
1249
1158
1107
1079
1055
1037
1024
1020
1015
1011
1008
1007
1004
1000
993
987
986
988
993
990
988
984
983
985
986
986
984
983
981
984
988
987
983
977
978
984
987
988
984
979
980
981
981
981
978
976
977
977
976
976
975
972
971
975
976
975
971
967
963
963
970
967
967
967
963
965
968
966
963
958
957
959
963
959
956
953
952
955
957
957
954
953
951
955
957
959
958
960
961
965
971
973
976
976
980
986
993
997
999
1000
1004
1012
1019
1020
1020
1020
1020
1023
1023
1023
1018
1015
1013
1014
1016
1014
1010
1007
1006
1007
1010
1006
1004
1001
1004
1004
1006
1002
998
997
997
995
1001
998
995
993
992
994
994
994
990
986
988
991
994
992
989
986
988
986
988
989
982
980
982
986
990
988
984
981
980
984
986
985
982
981
980
985
983
986
986
986
986
988
988
987
985
983
986
988
990
991
990
989
986
989
995
993
989
986
990
989
989
992
988
984
987
987
988
984
983
983
985
987
987
986
986
980
978
983
987
987
987
982
982
986
986
985
986
981
981
985
985
986
987
984
985
989
993
993
992
991
993
996
1000
1000
996
995
993
995
995
992
991
988
992
991
998
997
995
994
993
998
997
996
991
987
989
988
989
988
984
984
986
986
990
986
983
980
981
982
986
983
982
980
980
984
987
987
983
982
982
984
986
986
984
982
983
987
989
993
995
997
1006
1013
1026
1042
1058
1072
1096
1128
1165
1198
1228
1257
1282
1303
1327
1360
1394
1420
1427
1411
1362
1278
1176
1100
1059
1033
1016
1001
991
980
976
973
976
970
967
961
959
957
957
955
952
944
945
948
950
949
950
946
948
949
950
945
944
942
944
943
947
944
943
939
939
942
942
940
936
935
935
936
939
938
933
929
930
933
938
935
934
933
934
931
935
933
932
926
927
928
933
931
926
923
925
931
931
929
926
922
926
927
932
934
930
932
934
935
940
942
942
945
947
955
961
965
966
969
972
981
987
988
988
988
989
994
997
996
988
988
986
992
995
990
989
988
984
988
989
985
984
983
981
983
986
983
983
980
981
983
984
982
982
976
977
982
983
983
983
980
981
984
982
979
980
979
977
982
983
982
977
973
974
977
978
978
978
976
979
980
979
975
975
973
977
976
982
979
977
976
977
981
986
983
980
976
980
981
984
984
981
980
980
983
986
983
980
977
980
983
986
985
981
978
977
982
986
987
981
979
981
985
987
988
988
982
984
987
989
988
986
985
984
988
991
989
986
985
986
990
996
994
995
995
994
999
1002
1001
999
1000
1002
1007
1012
1014
1011
1005
1006
1008
1010
1010
1008
1007
1009
1009
1012
1015
1015
1013
1016
1020
1020
1016
1012
1007
1006
1009
1014
1012
1010
1007
1008
1010
1012
1013
1011
1009
1011
1014
1015
1013
1011
1010
1014
1016
1019
1015
1014
1012
1013
1016
1019
1020
1020
1018
1019
1024
1028
1031
1038
1043
1058
1076
1094
1111
1135
1166
1206
1245
1278
1306
1328
1350
1379
1417
1453
1479
1488
1477
1439
1360
1259
1169
1113
1080
1058
1047
1038
1033
1023
1017
1014
1014
1014
1009
1006
1000
1000
1002
1003
999
994
993
993
995
1000
1000
993
996
995
996
1001
1000
996
995
997
999
1001
999
996
993
995
999
999
997
997
996
994
998
998
996
995
993
993
994
996
996
994
989
989
990
992
992
988
985
985
987
987
984
980
979
980
983
984
984
984
980
983
987
989
990
990
992
996
1001
1008
1011
1016
1018
1025
1033
1038
1042
1045
1046
1050
1055
1059
1057
1055
1055
1053
1056
1059
1054
1054
1048
1049
1048
1048
1049
1044
1041
1042
1043
1042
1043
1042
1039
1039
1042
1042
1041
1038
1035
1037
1040
1041
1039
1035
1032
1032
1035
1034
1033
1034
1032
1034
1035
1035
1033
1030
1026
1027
1031
1030
1029
1026
1023
1024
1026
1030
1028
1023
1021
1024
1027
1029
1026
1024
1021
1022
1025
1027
1026
1023
1023
1023
1026
1028
1025
1022
1020
1021
1024
1026
1025
1023
1020
1020
1024
1028
1025
1024
1019
1020
1023
1025
1024
1021
1019
1020
1025
1028
1024
1021
1021
1023
1023
1028
1024
1019
1018
1021
1022
1025
1024
1019
1019
1023
1028
1032
1033
1029
1027
1031
1033
1037
1033
1036
1034
1035
1036
1040
1036
1034
1033
1031
1035
1036
1037
1034
1032
1035
1040
1042
1038
1035
1033
1029
1028
1028
1026
1024
1025
1023
1028
1026
1026
1025
1024
1025
1026
1030
1026
1025
1020
1023
1026
1028
1027
1025
1021
1023
1023
1029
1027
1025
1026
1027
1028
1031
1031
1032
1035
1042
1055
1069
1082
1096
1116
1145
1182
1221
1257
1287
1314
1342
1370
1402
1439
1472
1494
1498
1482
1423
1321
1213
1143
1105
1079
1057
1043
1031
1021
1017
1016
1015
1011
1006
1000
999
998
1000
996
991
990
992
996
997
992
992
987
990
992
996
994
992
988
989
990
991
991
990
987
986
987
986
987
985
982
982
983
985
983
979
975
976
982
983
980
974
969
969
971
972
969
967
961
964
968
965
964
962
957
960
964
968
967
968
970
972
977
984
992
994
999
1005
1013
1018
1020
1022
1021
1024
1028
1026
1023
1022
1020
1021
1020
1020
1017
1013
1011
1012
1011
1013
1009
1007
1005
1007
1009
1010
1010
1003
1000
1002
1005
1005
1008
1006
1004
1002
1005
1003
1004
1001
997
1000
1003
1002
1001
998
992
997
999
1001
1002
997
996
999
1002
1000
1001
997
994
996
997
1001
1001
1001
999
999
999
1000
1004
1002
1001
1003
1008
1009
1008
1004
1004
1006
1010
1011
1007
1006
1005
1006
1009
1009
1008
1009
1005
1008
1011
1011
1011
1007
1006
1008
1011
1014
1010
1009
1008
1011
1010
1010
1008
1009
1009
1010
1011
1013
1014
1012
1006
1009
1013
1012
1014
1010
1007
1010
1012
1015
1014
1010
1009
1010
1012
1016
1017
1015
1013
1017
1021
1021
1024
1020
1019
1022
1028
1032
1027
1023
1021
1021
1025
1022
1019
1020
1018
1021
1026
1029
1028
1024
1022
1022
1026
1029
1023
1020
1014
1014
1018
1021
1017
1016
1012
1013
1020
1020
1019
1013
1014
1014
1018
1019
1016
1012
1010
1012
1018
1018
1014
1014
1011
1014
1016
1018
1018
1016
1012
1018
1023
1024
1024
1027
1032
1041
1058
1079
1094
1105
1123
1148
1188
1227
1261
1291
1315
1338
1367
1398
1433
1457
1465
1453
1408
1329
1231
1145
1096
1065
1046
1032
1025
1016
1011
1008
1007
1009
1005
999
989
989
992
992
988
983
982
983
982
987
984
981
979
979
983
981
981
977
977
982
982
983
980
979
977
979
981
983
983
979
977
976
978
982
978
977
973
976
975
978
976
975
974
974
976
977
976
971
967
969
973
976
974
972
972
972
973
974
970
971
969
971
971
978
976
975
972
972
978
978
981
981
981
987
989
993
993
996
994
1002
1007
1010
1015
1017
1017
1021
1027
1030
1032
1031
1030
1035
1043
1042
1039
1033
1031
1032
1034
1034
1034
1031
1027
1025
1026
1029
1026
1024
1023
1026
1029
1027
1026
1023
1018
1018
1023
1024
1022
1022
1018
1019
1020
1023
1020
1017
1019
1021
1023
1024
1022
1018
1014
1017
1017
1017
1018
1015
1015
1016
1020
1020
1015
1015
1012
1013
1016
1016
1016
1012
1011
1014
1015
1018
1015
1014
1014
1014
1017
1017
1016
1013
1012
1013
1014
1019
1019
1020
1020
1017
1019
1020
1019
1016
1016
1021
1021
1025
1024
1020
1021
1022
1022
1025
1024
1024
1021
1021
1025
1026
1022
1023
1022
1022
1026
1030
1027
1023
1021
1023
1026
1029
1026
1024
1024
1025
1028
1028
1027
1023
1023
1024
1028
1030
1026
1026
1026
1025
1030
1034
1029
1026
1023
1027
1027
1031
1029
1027
1029
1029
1033
1034
1038
1036
1033
1038
1042
1041
1043
1042
1042
1043
1046
1047
1044
1043
1042
1044
1046
1047
1047
1044
1043
1044
1049
1050
1049
1048
1047
1049
1050
1051
1045
1042
1039
1040
1041
1042
1041
1039
1039
1041
1042
1044
1041
1038
1037
1039
1043
1043
1042
1039
1038
1041
1043
1043
1044
1042
1039
1040
1042
1042
1043
1043
1040
1045
1048
1048
1048
1048
1049
1056
1063
1071
1081
1091
1103
1121
1141
1163
1193
1223
1255
1291
1320
1351
1375
1399
1436
1471
1502
1516
1503
1461
1378
1276
1192
1138
1101
1080
1067
1059
1054
1050
1046
1038
1036
1035
1032
1032
1028
1022
1018
1019
1022
1020
1015
1013
1013
1013
1016
1016
1015
1013
1013
1012
1015
1016
1016
1012
1011
1013
1014
1017
1015
1013
1009
1014
1016
1017
1016
1014
1008
1010
1012
1013
1009
1009
1009
1008
1010
1011
1011
1006
1005
1004
1006
1008
1003
1003
1001
999
1004
1004
1000
997
999
998
998
998
997
994
989
996
1001
1000
1000
996
1000
999
1004
1006
1009
1009
1011
1018
1022
1028
1030
1031
1036
1042
1051
1054
1058
1058
1062
1066
1069
1072
1070
1070
1068
1068
1068
1071
1069
1067
1066
1064
1067
1067
1063
1059
1056
1058
1058
1058
1060
1056
1055
1055
1057
1054
1054
1053
1055
1055
1058
1059
1055
1052
1050
1050
1053
1055
1053
1049
1048
1049
1050
1050
1049
1046
1045
1046
1045
1048
1047
1043
1040
1043
1046
1046
1047
1042
1041
1043
1047
1049
1048
1041
1041
1040
1040
1042
1037
1034
1033
1036
1037
1037
1038
1033
1030
1033
1037
1038
1036
1034
1034
1036
1036
1034
1035
1030
1027
1027
1034
1036
1037
1034
1034
1037
1039
1041
1040
1036
1035
1039
1041
1040
1038
1036
1035
1039
1039
1043
1043
1040
1039
1040
1039
1043
1040
1040
1040
1041
1042
1047
1046
1041
1040
1044
1046
1048
1048
1045
1047
1052
1058
1064
1070
1076
1090
1110
1132
1156
1180
1213
1252
1289
1324
1351
1371
1391
1420
1452
1484
1503
1511
1501
1465
1392
1302
1220
1160
1122
1094
1070
1056
1047
1042
1039
1031
1029
1028
1026
1022
1015
1014
1012
1014
1013
1009
1006
1005
1007
1009
1009
1008
1007
1003
1004
1007
1008
1007
1003
1001
1004
1008
1008
1004
1002
1001
1003
1006
1006
1004
1001
1000
1000
1003
1003
999
997
997
999
1000
999
995
994
990
992
996
993
991
987
983
986
988
986
984
983
979
981
984
984
983
978
981
985
984
986
985
983
983
987
997
998
999
1001
1003
1011
1017
1024
1028
1031
1036
1043
1047
1052
1051
1050
1051
1056
1062
1060
1057
1054
1053
1055
1056
1056
1056
1051
1050
1051
1053
1054
1050
1049
1046
1051
1051
1051
1048
1044
1044
1045
1045
1048
1044
1043
1042
1041
1043
1044
1042
1041
1037
1039
1041
1042
1039
1037
1035
1039
1038
1040
1039
1034
1036
1036
1039
1042
1041
1041
1037
1039
1040
1042
1040
1039
1038
1042
1046
1044
1039
1040
1039
1043
1043
1043
1042
1038
1037
1038
1042
1042
1039
1038
1038
1041
1041
1043
1040
1036
1036
1040
1041
1040
1039
1035
1035
1036
1041
1043
1039
1036
1037
1036
1039
1041
1040
1038
1038
1041
1043
1042
1041
1036
1038
1039
1044
1039
1037
1035
1036
1040
1043
1043
1041
1038
1038
1039
1042
1042
1039
1037
1039
1044
1042
1043
1040
1038
1038
1041
1042
1042
1041
1038
1037
1040
1044
1045
1042
1040
1040
1043
1046
1044
1044
1038
1039
1043
1044
1044
1043
1039
1039
1041
1046
1046
1044
1038
1036
1043
1043
1045
1041
1040
1042
1042
1046
1043
1039
1038
1036
1038
1043
1044
1042
1040
1035
1038
1042
1043
1046
1043
1041
1046
1050
1050
1045
1045
1044
1049
1053
1054
1054
1050
1049
1049
1054
1053
1053
1046
1047
1048
1052
1053
1052
1050
1049
1052
1056
1054
1049
1045
1042
1044
1045
1045
1043
1041
1040
1043
1048
1047
1045
1043
1044
1046
1045
1045
1043
1038
1041
1042
1045
1044
1043
1042
1046
1048
1055
1063
1072
1086
1101
1122
1148
1183
1226
1264
1301
1338
1372
1409
1451
1469
1454
1393
1298
1199
1127
1089
1062
1050
1048
1042
1038
1032
1028
1028
1028
1024
1020
1015
1015
1012
1016
1015
1011
1004
1006
1008
1010
1010
1007
1005
1002
1005
1004
1006
1004
1003
1000
1002
999
999
998
997
999
1002
1006
1004
1000
997
998
1000
1002
1000
997
995
996
998
1002
1002
1001
997
999
999
1001
1002
1000
997
998
998
1000
1003
1002
998
998
1000
1001
1003
1000
998
1001
1003
1009
1010
1009
1009
1011
1015
1022
1020
1023
1022
1025
1029
1034
1038
1038
1039
1041
1047
1054
1055
1056
1057
1059
1066
1067
1067
1066
1064
1061
1063
