855
849
847
849
851
860
865
870
872
875
879
890
895
895
889
886
894
898
900
894
891
895
898
895
892
891
888
891
890
888
888
884
884
884
887
886
880
873
871
871
873
878
875
869
865
862
860
864
863
863
858
859
861
859
852
848
852
856
857
853
845
843
840
843
843
843
838
832
829
828
831
834
831
829
825
826
826
828
829
826
818
817
818
817
817
814
813
814
811
811
810
801
799
798
802
806
803
796
789
791
795
795
786
780
779
779
778
781
779
776
770
761
759
762
763
758
751
749
754
753
752
751
749
742
739
743
753
746
737
735
742
749
742
730
722
724
725
725
721
721
721
720
719
715
711
703
700
693
693
695
696
695
697
696
691
689
686
682
683
685
687
686
684
679
679
676
676
678
679
679
674
669
664
667
669
668
666
671
673
681
685
689
700
717
736
761
785
811
842
881
917
950
972
992
1013
1042
1067
1067
1039
981
895
806
743
712
694
675
664
658
656
651
648
642
638
634
630
627
624
620
619
620
625
623
620
615
614
618
624
623
617
610
606
610
614
615
611
609
605
607
611
612
610
606
603
606
607
609
608
605
603
603
605
608
608
608
603
605
605
607
605
602
598
602
603
606
604
601
602
603
608
611
609
604
602
606
608
610
609
608
606
610
610
612
611
610
609
610
615
616
613
612
614
616
619
622
621
619
618
621
624
628
627
625
626
628
633
634
630
630
631
634
638
638
637
635
634
638
640
643
640
637
637
640
643
645
645
642
641
642
648
648
646
647
645
648
649
653
652
649
651
653
657
659
657
656
655
655
661
661
663
660
659
662
665
667
665
664
663
666
668
673
670
668
668
670
674
675
674
674
673
674
677
681
679
679
677
678
683
684
684
679
680
683
684
688
686
687
685
688
690
694
692
689
689
694
693
697
695
694
694
694
699
699
701
699
697
701
702
704
705
704
703
702
707
709
709
707
704
706
710
714
714
709
710
711
716
718
717
716
715
718
719
723
721
720
720
722
726
729
733
736
744
753
762
774
780
789
809
823
834
839
831
813
787
767
757
752
749
742
738
740
743
744
743
739
740
743
745
746
746
743
743
744
745
747
748
745
745
747
750
751
752
748
748
749
754
753
752
752
750
750
754
755
755
752
752
757
759
760
761
759
758
762
762
767
765
762
761
761
766
769
768
766
765
768
770
772
771
770
769
772
773
774
774
773
774
776
777
780
780
775
776
781
781
784
784
779
781
782
786
787
787
783
784
784
789
792
789
788
787
790
793
794
796
793
791
794
797
799
799
797
795
799
799
803
799
799
798
799
804
805
804
802
803
802
806
810
806
807
805
808
810
813
811
811
811
811
815
817
815
813
811
814
820
822
820
816
814
819
822
823
823
820
819
821
827
825
825
827
825
827
831
828
829
826
827
830
832
836
833
831
830
832
835
836
834
832
832
834
836
839
838
836
836
839
839
843
840
838
838
841
842
845
841
839
839
844
846
847
843
842
842
843
849
849
847
845
844
847
847
850
847
848
846
848
853
851
851
847
849
852
854
855
854
851
852
852
856
858
855
854
853
854
860
858
859
856
858
858
861
865
862
857
858
859
862
866
863
859
860
863
866
867
867
865
864
868
871
870
869
867
868
869
873
871
872
870
869
873
874
877
876
872
872
874
877
880
878
876
874
878
880
882
879
878
877
880
882
885
883
880
879
882
885
886
886
884
883
885
889
890
888
886
887
889
892
893
891
889
890
889
894
895
893
891
891
892
896
897
896
893
894
895
900
901
900
896
895
900
901
903
901
898
899
902
906
906
903
902
900
904
907
907
905
901
903
904
909
907
909
906
905
907
910
911
909
907
905
910
911
912
910
909
908
910
911
913
912
910
909
913
914
913
913
908
913
912
915
916
913
912
913
915
920
924
927
929
939
958
980
1006
1023
1040
1062
1086
1094
1082
1059
1024
984
960
947
940
935
928
925
929
932
931
929
926
926
929
933
929
931
925
924
928
930
930
930
927
926
929
931
933
930
928
930
930
934
934
932
931
931
935
934
937
935
934
934
936
939
939
936
937
936
938
941
941
940
938
938
939
942
946
942
940
941
943
946
945
946
943
943
946
948
948
944
945
946
948
951
951
948
947
946
949
953
951
949
947
947
950
953
955
954
952
951
955
957
959
956
955
954
960
962
964
964
961
957
961
969
973
971
966
965
966
969
969
970
971
966
969
970
974
974
967
967
969
972
977
980
974
971
969
975
977
977
975
975
981
983
982
979
972
972
975
983
986
981
979
977
978
979
984
983
981
983
982
981
981
981
984
984
985
990
990
991
988
985
983
987
996
996
993
987
990
992
994
990
984
986
991
995
995
996
998
997
1001
998
999
1001
1002
999
997
1003
1004
1004
1002
1002
1009
1011
1010
1008
1005
1004
1004
1005
1010
1011
1008
1008
1010
1010
1005
1005
1002
1009
1013
1015
1017
1018
1015
1011
1012
1017
1019
1014
1010
1014
1018
1024
1021
1017
1016
1020
1021
1023
1019
1018
1020
1024
1030
1033
1028
1025
1024
1025
1027
1030
1035
1038
1037
1031
1029
1032
1041
1045
1038
1037
1038
1041
1046
1051
1051
1048
1047
1053
1061
1061
1049
1037
1040
1048
1055
1058
1059
1055
1053
1055
1064
1067
1062
1056
1060
1070
1070
1060
1057
1058
1065
1066
1066
1069
1075
1075
1068
1059
1062
1066
1065
1064
1065
1066
1068
1069
1069
1068
1072
1075
1078
1085
1082
1079
1081
1085
1083
1079
1083
1091
1100
1105
1109
1126
1153
1186
1219
1245
1269
1291
1313
1342
1380
1416
1443
1459
1447
1406
1343
1276
1222
1185
1150
1131
1122
1122
1116
1112
1109
1104
1101
1101
1104
1105
1105
1101
1103
1105
1103
1099
1093
1088
1092
1102
1108
1105
1101
1094
1087
1095
1109
1116
1113
1108
1110
1113
1108
1103
1108
1117
1116
1120
1122
1113
1102
1106
1116
1118
1117
1115
1111
1112
1114
1116
1116
1116
1119
1118
1112
1116
1124
1127
1114
1102
1104
1115
1123
1126
1121
1115
1111
1112
1113
1116
1112
1113
1113
1113
1112
1114
1117
1117
1120
1123
1129
1133
1127
1129
1137
1153
1157
1156
1159
1165
1168
1175
1178
1186
1192
1197
1204
1206
1201
1195
1201
1213
1210
1205
1207
1211
1205
1204
1212
1225
1228
1220
1207
1208
1216
1221
1219
1213
1211
1214
1219
1223
1227
1229
1226
1221
1223
1227
1228
1231
1227
1224
1222
1226
1223
1222
1223
1230
1231
1230
1235
1239
1239
1241
1240
1240
1234
1235
1238
1243
1239
1237
1235
1240
1235
1234
1233
1241
1247
1244
1240
1242
1250
1257
1256
1248
1240
1240
1251
1262
1254
1243
1238
1244
1249
1258
1263
1256
1250
1250
1262
1272
1265
1254
1250
1256
1266
1270
1262
1257
1257
1259
1260
1267
1271
1277
1277
1274
1270
1274
1275
1274
1260
1259
1262
1270
1270
1272
1273
1278
1279
1277
1275
1272
1274
1276
1279
1283
1280
1277
1275
1279
1282
1289
1288
1290
1292
1290
1287
1292
1298
1299
1291
1291
1292
1298
1297
1300
1298
1299
1303
1306
1304
1300
1302
1307
1310
1309
1302
1304
1299
1292
1294
1303
1303
1302
1297
1300
1300
1301
1301
1304
1305
1305
1303
1305
1298
1297
1295
1298
1305
1309
1308
1311
1311
1310
1312
1313
1309
1304
1305
1313
1317
1317
1317
1327
1331
1345
1360
1374
1387
1412
1441
1476
1510
1549
1591
1619
1638
1661
1697
1734
1747
1732
1693
1643
1575
1500
1433
1390
1364
1351
1345
1340
1334
1323
1319
1319
1319
1320
1315
1313
1307
1304
1306
1310
1310
1310
1311
1311
1308
1306
1301
1300
1301
1301
1302
1299
1296
1296
1297
1297
1299
1301
1300
1299
1295
1295
1298
1306
1307
1307
1298
1297
1295
1298
1296
1291
1288
1292
1298
1304
1300
1290
1286
1289
1292
1290
1289
1284
1284
1283
1285
1293
1295
1291
1284
1282
1279
1282
1292
1294
1289
1275
1268
1273
1277
1275
1269
1270
1274
1279
1283
1284
1280
1275
1275
1283
1291
1293
1295
1299
1306
1315
1316
1317
1318
1324
1330
1340
1346
1349
1344
1351
1367
1370
1365
1352
1348
1357
1361
1359
1358
1357
1355
1361
1365
1366
1361
1359
1356
1363
1367
1368
1363
1356
1351
1356
1364
1368
1363
1358
1353
1358
1368
1373
1371
1359
1349
1351
1359
1364
1361
1361
1359
1361
1366
1369
1370
1367
1361
1357
1358
1364
1360
1353
1348
1354
1357
1359
1361
1365
1367
1369
1373
1376
1371
1363
1353
1353
1358
1370
1373
1365
1353
1352
1358
1371
1371
1367
1358
1357
1362
1370
1373
1368
1366
1366
1369
1372
1371
1371
1367
1363
1367
1374
1375
1366
1352
1348
1354
1363
1368
1364
1367
1369
1371
1367
1367
1365
1366
1364
1365
1370
1374
1380
1381
1369
1352
1354
1361
1366
1369
1371
1370
1368
1364
1371
1375
1379
1376
1375
1372
1376
1378
1378
1370
1370
1378
1385
1382
1380
1376
1384
1393
1395
1389
1377
1372
1383
1391
1390
1387
1379
1387
1402
1395
1384
1372
1375
1376
1371
1366
1367
1370
1372
1376
1376
1374
1372
1374
1377
1378
1378
1373
1372
1376
1379
1376
1369
1367
1364
1365
1368
1370
1372
1372
1366
1365
1367
1372
1377
1376
1377
1376
1382
1396
1411
1426
1441
1456
1472
1500
1533
1562
1596
1629
1654
1674
1695
1729
1755
1773
1778
1759
1712
1636
1558
1504
1469
1439
1412
1398
1391
1389
1382
1376
1371
1364
1359
1357
1356
1355
1357
1356
1357
1355
1354
1356
1356
1351
1344
1340
1342
1346
1348
1346
1342
1344
1344
1345
1348
1349
1345
1334
1330
1333
1337
1336
1334
1335
1340
1342
1336
1325
1321
1323
1325
1329
1334
1331
1324
1316
1318
1326
1327
1321
1314
1307
1309
1316
1323
1323
1309
1293
1293
1301
1310
1314
1310
1300
1297
1298
1306
1307
1304
1297
1292
1297
1305
1307
1311
1305
1298
1298
1306
1314
1320
1327
1336
1342
1354
1353
1351
1353
1361
1370
1372
1368
1370
1371
1378
1381
1389
1390
1388
1381
1377
1380
1387
1388
1385
1384
1387
1383
1381
1379
1379
1377
1378
1382
1391
1390
1380
1368
1363
1367
1375
1377
1375
1374
1374
1373
1368
1366
1370
1373
1372
1373
1372
1369
1366
1363
1362
1366
1371
1372
1369
1365
1366
1368
1369
1365
1361
1359
1365
1369
1375
1373
1372
1368
1373
1376
1369
1361
1361
1366
1366
1367
1365
1361
1355
1355
1355
1359
1358
1354
1346
1346
1350
1357
1362
1360
1356
1352
1351
1350
1354
1357
1354
1344
1343
1351
1361
1357
1348
1336
1333
1336
1344
1347
1349
1350
1355
1356
1356
1357
1351
1351
1355
1360
1360
1359
1354
1354
1358
1362
1363
1362
1361
1354
1353
1358
1363
1368
1365
1363
1366
1371
1368
1359
1356
1354
1360
1364
1368
1363
1362
1359
1361
1362
1362
1360
1352
1347
1351
1361
1366
1358
1348
1342
1347
1357
1362
1355
1342
1331
1325
1331
1343
1347
1342
1337
1340
1343
1347
1347
1343
1340
1337
1339
1343
1346
1350
1352
1355
1348
1340
1332
1336
1344
1347
1347
1350
1354
1362
1374
1389
1409
1427
1447
1467
1497
1527
1555
1577
1595
1618
1640
1662
1672
1662
1619
1546
1463
1406
1377
1364
1353
1333
1324
1326
1325
1326
1325
1321
1309
1298
1291
1295
1301
1298
1292
1288
1287
1288
1289
1288
1290
1293
1301
1304
1295
1274
1265
1268
1280
1282
1277
1269
1270
1279
1283
1281
1272
1264
1261
1267
1270
1270
1272
1272
1268
1264
1263
1261
1263
1261
1264
1261
1259
1265
1270
1267
1258
1249
1245
1244
1244
1243
1247
1251
1247
1241
1240
1239
1231
1231
1236
1236
1232
1224
1224
1228
1231
1230
1233
1236
1237
1237
1242
1246
1252
1260
1267
1272
1273
1268
1267
1270
1277
1282
1283
1293
1297
1293
1284
1279
1289
1298
1298
1291
1284
1285
1286
1283
1276
1272
1273
1278
1283
1286
1285
1280
1270
1266
1271
1274
1276
1275
1274
1272
1279
1283
1280
1275
1269
1270
1275
1278
1274
1270
1276
1281
1281
1275
1271
1269
1262
1265
1277
1283
1273
1258
1249
1255
1270
1281
1279
1267
1259
1265
1275
1272
1261
1257
1260
1270
1270
1268
1270
1264
1257
1254
1263
1264
1258
1250
1254
1263
1260
1256
1250
1253
1257
1259
1252
1253
1256
1253
1248
1250
1253
1254
1255
1254
1254
1254
1249
1246
1243
1242
1244
1247
1251
1253
1251
1249
1251
1255
1258
1253
1247
1243
1245
1245
1249
1254
1257
1256
1248
1245
1252
1258
1263
1261
1258
1254
1243
1243
1249
1256
1250
1246
1247
1252
1254
1249
1241
1240
1247
1258
1256
1240
1228
1231
1237
1237
1240
1245
1240
1235
1228
1221
1218
1219
1226
1234
1234
1239
1233
1229
1224
1228
1233
1237
1236
1229
1225
1229
1232
1231
1224
1219
1225
1230
1242
1253
1262
1274
1288
1304
1330
1362
1388
1407
1423
1452
1476
1497
1515
1524
1526
1522
1504
1461
1394
1333
1297
1273
1252
1229
1211
1211
1219
1217
1214
1204
1204
1205
1202
1195
1193
1189
1187
1189
1190
1188
1186
1188
1183
1174
1172
1179
1186
1192
1187
1181
1171
1172
1177
1185
1183
1184
1182
1184
1180
1178
1170
1158
1157
1158
1167
1168
1163
1160
1161
1167
1174
1179
1168
1153
1142
1145
1151
1157
1155
1150
1149
1151
1153
1152
1142
1127
1122
1129
1138
1143
1146
1145
1143
1138
1129
1122
1123
1128
1127
1124
1123
1128
1129
1125
1123
1120
1121
1122
1127
1129
1133
1135
1141
1146
1144
1144
1145
1157
1169
1173
1173
1168
1172
1177
1177
1179
1181
1184
1180
1179
1181
1186
1187
1187
1190
1196
1204
1210
1208
1203
1195
1186
1177
1175
1188
1195
1202
1190
1176
1171
1180
1185
1182
1179
1179
1180
1182
1180
1180
1182
1185
1192
1187
1181
1179
1176
1175
1176
1173
1171
1171
1175
1180
1182
1182
1183
1184
1183
1177
1169
1164
1161
1160
1160
1159
1165
1167
1171
1171
1174
1173
1167
1156
1148
1149
1151
1156
1159
1156
1155
1154
1153
1155
1160
1159
1157
1158
1164
1166
1158
1146
1136
1136
1146
1155
1159
1159
1151
1147
1149
1154
1157
1149
1140
1132
1138
1142
1149
1151
1147
1146
1147
1155
1158
1150
1139
1133
1140
1151
1152
1147
1137
1130
1135
1142
1146
1142
1137
1136
1137
1141
1137
1132
1133
1133
1140
1148
1148
1142
1134
1131
1137
1144
1149
1147
1141
1138
1144
1149
1154
1150
1141
1135
1138
1142
1142
1141
1136
1136
1139
1139
1139
1139
1140
1141
1145
1149
1153
1153
1150
1146
1134
1126
1130
1131
1136
1139
1140
1140
1137
1126
1118
1116
1119
1126
1130
1131
1132
1132
1129
1130
1136
1137
1132
1122
1120
1122
1122
1124
1123
1125
1131
1133
1130
1126
1116
1117
1120
1122
1122
1118
1118
1126
1138
1152
1161
1165
1167
1175
1197
1220
1248
1260
1274
1288
1316
1337
1361
1387
1407
1412
1407
1387
1348
1294
1244
1201
1173
1155
1130
1113
1104
1100
1091
1088
1082
1077
1076
1077
1084
1091
1093
1085
1079
1074
1073
1065
1055
1052
1059
1069
1078
1079
1079
1071
1060
1048
1042
1043
1045
1050
1052
1057
1063
1063
1064
1057
1045
1044
1042
1047
1042
1028
1023
1027
1042
1061
1071
1068
1055
1041
1034
1029
1026
1025
1026
1027
1029
1035
1036
1036
1030
1031
1030
1029
1024
1025
1029
1029
1026
1014
1005
1004
1003
1001
1004
1009
1012
1010
1005
999
995
1007
1020
1020
1016
1009
1009
1016
1016
1016
1020
1033
1039
1038
1033
1027
1031
1038
1045
1051
1054
1056
1056
1057
1060
1057
1050
1050
1053
1052
1047
1050
1053
1059
1060
1055
1046
1046
1049
1050
1042
1037
1038
1046
1046
1042
1033
1034
1041
1045
1047
1038
1025
1024
1027
1034
1037
1035
1033
1028
1027
1027
1029
1032
1031
1031
1034
1035
1030
1015
1004
999
1005
1015
1020
1018
1014
1012
1016
1015
1016
1014
1012
1020
1027
1027
1021
1011
1008
1011
1017
1016
1010
1001
1000
1006
1017
1024
1030
1032
1028
1017
1009
1003
1001
1000
1000
998
1005
1016
1024
1023
1016
1008
1001
1003
1004
1005
1007
1007
1006
1009
1012
1017
1015
1005
1005
1006
1004
1003
1000
1007
1012
1010
1005
1009
1014
1015
1011
1008
1005
1005
1008
1008
1016
1019
1018
1014
1012
1012
1016
1025
1025
1028
1029
1026
1025
1026
1028
1023
1019
1024
1027
1031
1033
1035
1033
1029
1025
1023
1024
1020
1019
1021
1030
1029
1030
1027
1029
1030
1032
1027
1019
1013
1013
1013
1016
1019
1021
1021
1022
1022
1030
1035
1034
1029
1022
1020
1023
1024
1025
1022
1024
1025
1028
1029
1030
1029
1030
1031
1037
1047
1052
1058
1064
1074
1090
1107
1129
1153
1175
1194
1210
1231
1249
1268
1287
1305
1325
1330
1311
1252
1181
1117
1074
1049
1024
1004
992
995
1000
1005
1003
997
992
988
989
992
995
992
992
992
997
992
986
978
971
971
976
981
984
981
981
985
985
983
978
975
973
974
977
982
982
982
978
976
976
975
970
965
965
970
973
979
981
979
973
962
960
963
966
968
966
964
963
963
958
952
950
948
947
950
949
950
947
945
943
946
943
939
942
946
952
956
949
938
932
932
939
947
952
957
955
958
965
974
978
978
976
982
989
994
999
1000
995
998
997
993
988
990
993
995
997
997
997
993
991
992
992
993
994
991
988
985
987
989
991
988
984
981
987
991
987
987
981
981
983
990
991
985
982
984
986
984
982
983
980
975
973
971
971
972
973
975
978
977
976
974
977
971
974
975
975
980
980
981
983
983
981
978
975
974
979
981
979
973
968
970
979
987
988
988
985
982
980
980
979
982
978
973
971
972
976
977
976
977
980
986
987
983
976
970
967
967
963
961
957
956
962
970
972
973
970
967
975
976
974
968
964
967
976
971
961
954
955
963
963
961
959
952
946
953
960
969
972
968
961
959
960
962
959
956
949
952
956
961
964
961
958
959
953
948
944
949
947
948
947
944
942
950
948
948
949
951
947
943
940
939
945
949
948
945
944
943
942
947
946
941
942
945
952
952
949
947
951
961
962
965
968
976
990
1002
1010
1022
1036
1067
1100
1129
1146
1162
1178
1201
1237
1277
1308
1311
1273
1204
1110
1035
996
974
963
956
954
949
946
948
946
940
932
924
920
916
916
917
919
920
928
927
925
926
925
926
929
932
936
941
939
935
929
926
923
919
919
925
932
934
935
934
935
934
939
940
939
929
918
914
921
926
928
928
926
921
913
916
921
924
921
920
922
919
921
918
913
901
894
897
903
904
902
900
905
910
906
899
895
898
910
926
937
944
943
946
954
962
969
967
961
959
968
982
991
992
986
986
989
986
985
982
981
980
980
983
983
985
984
985
985
985
982
979
975
978
982
986
985
978
977
978
984
988
984
976
976
984
988
989
980
971
966
965
968
974
975
976
976
977
975
974
971
971
967
968
977
981
975
964
962
964
969
972
965
961
957
953
952
958
960
963
966
967
968
963
956
952
955
953
961
961
958
957
954
955
953
951
953
953
955
956
956
958
959
961
956
951
950
951
954
953
950
953
956
955
951
948
947
948
954
958
961
956
951
955
962
969
967
960
951
953
958
965
969
965
959
959
962
963
964
960
957
960
965
968
967
965
