980
981
981
984
982
985
978
980
981
984
985
985
979
980
982
984
982
981
976
975
980
984
984
982
979
976
980
984
983
981
976
977
979
982
983
980
976
975
976
980
980
975
978
976
976
979
982
981
977
975
975
977
980
980
978
974
977
981
983
982
976
975
977
980
984
982
980
979
981
982
983
982
979
981
978
982
982
983
981
979
979
985
986
986
984
983
983
987
985
985
981
981
981
984
982
983
981
981
983
985
984
980
982
981
982
983
986
982
980
980
980
982
984
983
980
982
982
985
987
983
981
981
981
984
984
984
981
983
986
988
987
982
981
981
983
987
986
984
981
980
982
988
986
986
981
981
984
989
986
982
981
982
986
992
991
991
986
988
991
1001
1004
1002
999
1000
1004
1009
1009
1008
1004
1005
1009
1009
1013
1010
1007
1006
1007
1008
1009
1005
1003
997
1001
1004
1003
1000
996
994
993
997
996
993
988
986
989
990
991
988
985
984
988
990
991
990
987
987
991
994
995
992
990
990
991
995
997
994
993
991
993
999
1001
1002
1001
1002
1013
1023
1031
1036
1044
1061
1087
1108
1132
1151
1171
1189
1211
1235
1261
1273
1265
1240
1210
1175
1132
1096
1063
1035
1019
1013
1012
1010
1007
1004
1003
1004
1005
1000
994
991
994
996
1000
996
991
990
992
995
997
994
992
990
989
997
998
999
991
994
994
997
1001
1000
996
995
1000
1002
1001
1001
1000
1002
1002
1008
1007
1009
1005
1003
1009
1014
1015
1013
1010
1012
1015
1017
1019
1021
1018
1019
1023
1025
1031
1030
1029
1031
1039
1043
1046
1047
1047
1048
1052
1056
1061
1061
1062
1063
1067
1072
1076
1074
1075
1076
1080
1084
1086
1084
1082
1081
1081
1085
1086
1079
1078
1070
1072
1068
1066
1062
1054
1051
1048
1048
1047
1042
1035
1028
1025
1026
1025
1018
1017
1017
1012
1014
1013
1013
1009
1007
1008
1009
1012
1011
1008
1008
1007
1009
1008
1008
1007
1007
1007
1008
1007
1009
1007
1010
1012
1010
1008
1009
1010
1008
1014
1016
1012
1011
1008
1012
1013
1012
1013
1008
1008
1008
1012
1013
1009
1008
1008
1006
1010
1010
1009
1004
1004
1006
1010
1009
1012
1007
1004
1006
1010
1013
1008
1005
1004
1001
1007
1011
1008
1006
1000
1001
1002
1007
1008
1005
1000
999
1003
1008
1008
1003
999
997
1002
1008
1006
1003
998
995
1002
1003
1005
1002
998
998
1002
1006
1006
1006
999
999
1003
1003
1002
1002
1000
997
998
1003
1003
1002
998
995
998
1001
1005
1003
999
997
998
1002
1006
1003
996
995
997
1000
1003
999
997
996
998
997
1002
1002
998
998
997
1001
1003
1004
1000
997
1000
1002
1003
1003
999
1000
997
999
1001
999
1001
1002
1000
1000
1002
996
994
999
998
998
1000
1001
998
1000
1001
1003
1000
999
998
1001
1006
1005
1003
1002
999
999
1001
1008
1005
1001
1001
1002
1007
1008
1007
1000
998
1000
1007
1010
1010
1005
1002
1003
1007
1014
1014
1011
1008
1008
1013
1020
1022
1019
1019
1020
1026
1031
1030
1027
1022
1021
1023
1029
1028
1025
1016
1012
1016
1024
1022
1016
1013
1011
1012
1017
1016
1013
1009
1005
1005
1007
1009
1007
1000
999
999
1005
1007
1008
1001
999
998
1003
1006
1006
1001
1002
1003
1006
1006
1008
1006
1006
1007
1012
1014
1010
1008
1005
1009
1015
1023
1026
1030
1033
1040
1054
1071
1092
1109
1130
1151
1184
1215
1232
1249
1268
1289
1302
1291
1263
1223
1176
1137
1103
1075
1050
1031
1020
1019
1023
1025
1024
1019
1009
1009
1005
1011
1003
999
998
1002
1004
1007
1004
1000
998
998
1002
1005
998
996
995
994
999
1003
998
995
994
1000
1003
1004
1002
997
995
1000
1002
1008
1005
1000
1003
1002
1010
1013
1012
1008
1006
1009
1015
1020
1017
1014
1015
1022
1025
1028
1027
1022
1023
1025
1031
1035
1039
1037
1035
1040
1046
1051
1053
1050
1055
1058
1066
1070
1071
1072
1075
1080
1085
1090
1092
1093
1093
1097
1102
1106
1105
1103
1100
1096
1093
1091
1085
1079
1069
1066
1067
1063
1058
1049
1045
1042
1042
1038
1024
1021
1016
1011
1010
1008
1005
1000
997
996
999
995
991
987
984
982
987
989
986
982
980
982
986
986
983
980
978
982
984
985
984
979
977
979
982
985
982
985
985
986
986
988
989
985
985
987
991
996
1000
1000
1006
1020
1031
1046
1063
1086
1110
1137
1164
1191
1212
1226
1239
1242
1236
1209
1166
1117
1067
1033
1015
998
987
980
985
993
993
991
988
982
977
980
981
978
975
971
969
974
975
974
975
972
970
970
973
976
972
970
970
974
974
977
976
973
974
975
978
978
976
974
973
976
979
978
979
977
974
982
985
982
982
982
981
985
990
991
992
990
992
994
999
1002
1001
1005
1004
1008
1011
1012
1017
1015
1015
1020
1023
1026
1028
1025
1027
1033
1033
1036
1037
1039
1040
1042
1045
1042
1042
1041
1040
1038
1041
1037
1035
1032
1026
1023
1022
1018
1017
1011
1008
1006
1006
1001
999
997
993
992
991
990
988
985
981
980
984
985
981
979
979
981
980
978
977
973
975
975
976
976
975
973
973
974
977
975
974
970
972
973
974
974
973
969
971
970
973
970
968
968
969
969
972
969
966
965
963
970
971
968
966
964
961
962
967
966
966
962
964
964
964
963
961
961
961
963
965
964
959
957
960
962
965
965
961
960
960
963
964
964
963
960
959
962
962
963
960
960
960
962
965
966
963
959
961
964
964
965
961
962
961
965
965
964
962
960
962
964
965
963
961
961
957
963
963
965
964
963
963
964
967
967
965
963
961
966
967
969
963
962
962
965
970
967
964
963
962
958
967
966
963
962
963
965
965
969
968
965
967
968
970
970
967
963
965
969
969
970
967
960
965
967
973
969
965
963
966
969
972
972
970
967
965
970
969
971
969
965
968
970
974
972
968
967
969
970
973
973
972
969
968
970
975
974
971
970
969
973
975
975
973
968
968
973
974
973
973
966
967
974
976
975
974
969
969
970
975
977
974
971
972
973
976
976
974
971
972
972
979
978
973
971
974
979
981
981
979
976
974
979
979
974
977
976
976
979
984
983
980
976
979
984
986
983
979
977
978
979
985
985
984
981
982
985
988
984
981
981
983
985
990
986
984
979
984
987
992
992
990
989
989
990
992
992
989
992
993
999
1000
998
997
994
997
1002
1006
1005
1004
1000
1002
1006
1005
1002
1000
996
998
999
1001
1000
1000
995
991
993
996
992
990
986
986
990
989
989
987
987
986
990
993
992
986
982
987
991
992
992
990
987
988
991
997
998
996
994
996
1000
1001
1002
1004
1006
1013
1022
1029
1035
1044
1060
1081
1107
1136
1162
1184
1205
1229
1255
1282
1295
1288
1261
1227
1187
1146
1104
1065
1035
1014
1005
1001
1001
1002
998
997
994
993
991
983
984
980
982
984
981
980
975
976
979
978
982
977
975
974
976
978
979
973
970
973
977
979
979
976
971
973
978
979
981
977
977
977
978
982
983
983
981
983
986
988
986
986
986
987
988
996
997
994
991
992
998
1002
1004
1000
1004
1004
1009
1015
1014
1013
1012
1015
1021
1026
1029
1024
1024
1026
1033
1034
1037
1035
1035
1039
1045
1047
1048
1043
1042
1047
1050
1051
1050
1048
1045
1041
1043
1043
1040
1033
1029
1026
1023
1022
1016
1012
1002
1002
1002
1000
996
991
989
986
986
985
984
980
978
975
978
980
977
975
972
972
973
974
974
974
974
974
977
975
975
977
973
974
977
980
981
979
979
979
981
984
982
978
976
976
977
983
978
980
976
976
982
984
984
982
978
979
979
982
983
983
978
977
980
983
984
979
979
976
975
977
980
978
973
971
971
974
976
973
975
972
975
975
975
974
968
968
972
974
973
967
963
965
969
972
972
971
965
969
970
972
972
972
966
966
968
973
974
969
968
963
969
973
972
968
963
967
971
973
971
968
966
965
969
969
971
969
966
964
965
972
972
967
965
965
970
971
973
969
969
968
969
974
971
969
968
969
970
972
971
970
968
970
972
972
971
969
969
968
971
973
972
968
973
971
971
972
972
972
972
971
972
971
971
971
970
969
972
975
975
971
970
971
971
977
973
973
968
971
972
977
977
975
977
977
980
984
984
982
980
983
984
992
990
990
989
993
998
1002
1000
994
990
993
995
1001
998
993
988
988
992
994
992
984
983
983
986
988
985
979
976
977
978
978
975
976
970
974
976
976
976
976
973
975
976
979
975
975
975
975
976
982
980
979
978
977
981
984
981
986
987
988
993
1003
1009
1016
1025
1040
1063
1088
1111
1135
1158
1182
1207
1230
1249
1262
1247
1223
1187
1149
1109
1071
1037
1011
997
994
993
990
988
984
985
986
982
979
976
973
972
975
975
972
971
968
972
972
973
973
971
971
971
973
974
971
970
969
972
974
977
977
974
974
974
979
980
979
977
976
977
984
985
986
984
983
985
994
995
993
992
989
992
1000
1000
1000
999
997
1005
1008
1012
1011
1010
1012
1016
1023
1026
1024
1026
1026
1029
1035
1039
1036
1036
1037
1038
1045
1044
1045
1045
1044
1049
1054
1052
1047
1044
1046
1046
1046
1042
1037
1030
1024
1027
1022
1020
1012
1007
1003
1002
1001
998
993
988
984
985
984
983
981
973
975
978
982
981
976
971
972
973
972
975
972
970
971
975
976
977
976
974
974
979
982
979
973
975
978
979
984
982
981
979
979
979
982
982
979
978
976
979
980
984
981
977
981
983
985
984
982
980
981
984
983
982
980
982
980
981
986
984
983
981
982
981
982
984
982
978
977
979
983
981
983
980
980
980
984
985
982
979
975
981
984
985
982
981
981
983
984
983
983
977
977
982
984
984
983
978
981
984
982
984
980
977
976
981
986
985
984
977
979
984
986
983
983
982
980
984
984
984
983
979
981
984
988
986
983
981
980
980
986
987
987
982
981
984
988
986
984
980
984
985
986
985
981
981
983
983
986
986
985
983
982
988
989
988
985
982
983
984
988
987
986
986
986
986
990
987
985
986
984
986
987
989
988
989
988
987
988
987
990
986
988
988
994
1000
997
995
994
999
1002
1004
1003
999
1002
1005
1009
1008
1006
1003
1004
1008
1012
1009
1005
999
1001
1004
1006
1003
999
997
992
996
998
999
996
987
990
990
991
992
990
985
984
983
990
990
990
983
984
988
990
989
987
984
984
987
990
989
987
982
985
989
994
996
996
990
993
1000
1011
1021
1024
1035
1053
1078
1107
1132
1159
1183
1210
1237
1266
1284
1286
1265
1232
1188
1144
1101
1064
1034
1015
1003
1003
1003
1004
1001
1000
997
996
994
987
985
983
986
987
987
983
977
981
983
984
986
984
980
980
981
984
984
983
979
979
979
982
982
982
982
980
983
988
986
988
988
985
988
987
990
991
989
991
991
996
998
997
992
994
998
1002
1003
1004
999
1005
1007
1014
1014
1017
1015
1018
1021
1027
1030
1032
1031
1031
1038
1039
1041
1044
1050
1054
1059
1063
1066
1068
1068
1069
1076
1076
1080
1080
1077
1072
1072
1071
1066
1060
1055
1051
1049
1047
1042
1037
1028
1024
1020
1017
1009
1002
996
992
990
983
984
981
972
973
973
969
968
964
958
957
957
960
958
957
957
954
956
957
957
955
953
956
958
960
958
957
953
956
958
959
960
958
956
954
958
960
962
962
960
962
966
972
972
970
970
974
978
982
990
997
1007
1024
1056
1086
1109
1134
1153
1184
1216
1235
1245
1239
1219
1191
1152
1106
1058
1030
1011
998
988
985
983
979
974
967
960
963
964
961
956
957
956
959
958
953
951
948
952
953
950
948
942
947
950
955
950
946
946
946
949
952
952
949
947
946
951
954
953
955
952
951
953
957
958
956
954
955
959
962
963
966
964
965
967
970
973
972
969
967
974
980
982
985
982
984
987
994
996
998
995
996
1001
1007
1011
1008
1007
1010
1014
1019
1021
1021
1020
1019
1022
1024
1021
1014
1013
1007
1009
1007
1002
997
992
990
989
986
978
974
971
971
972
969
969
966
962
960
965
962
965
962
950
957
960
962
960
958
954
954
958
959
955
954
947
951
952
958
954
950
950
951
954
957
956
953
951
950
952
954
953
951
950
952
950
952
951
952
945
947
948
953
952
951
947
948
948
952
951
951
945
945
947
952
953
949
948
945
949
951
950
948
947
944
947
952
947
948
947
948
947
948
945
946
945
946
949
950
949
946
949
947
948
949
951
950
951
947
954
954
954
952
951
952
950
953
952
952
947
947
950
952
956
953
950
952
953
955
954
954
951
951
953
956
956
953
954
953
954
955
955
955
953
953
954
957
960
958
959
956
958
962
961
961
955
955
959
962
961
963
958
959
962
964
960
959
958
961
962
964
963
962
959
960
961
966
966
965
962
962
964
969
968
965
963
964
967
968
967
963
961
963
967
971
973
971
967
967
971
972
970
965
962
967
971
973
971
970
966
967
970
973
974
971
967
966
970
972
973
971
968
969
973
977
977
973
973
972
973
979
979
979
978
978
981
984
986
984
982
983
984
987
990
989
986
989
990
992
992
990
989
988
992
995
990
985
980
981
981
982
981
979
977
976
979
983
981
978
978
979
978
982
981
983
978
979
982
986
985
983
980
982
984
987
987
984
980
982
987
990
987
982
982
984
986
986
983
987
986
988
991
995
995
994
989
992
993
997
997
995
992
994
998
1003
1002
1000
1001
1002
1003
1005
1005
1003
1003
1000
1003
1009
1007
1006
1001
1001
1000
1005
1000
999
992
992
994
997
994
992
989
990
991
993
990
990
985
984
988
992
992
990
987
987
989
993
992
991
989
988
992
995
996
991
993
991
997
998
999
999
995
1000
1003
1010
1014
1022
1023
1031
1045
1063
1083
1102
1121
1147
1173
1197
1219
1237
1257
1278
1282
1268
1236
1194
1149
1111
1082
1056
1033
1016
1006
1006
1007
1011
1010
1006
1000
997
997
998
994
989
987
984
990
991
991
983
985
983
986
991
989
986
980
982
986
990
990
988
986
984
987
992
991
989
988
987
991
996
997
994
994
998
999
1001
1002
1002
1001
999
1006
1009
1009
1012
1008
1011
1015
1020
1021
1018
1017
1018
1023
1030
1031
1030
1028
1030
1033
1040
1041
1042
1041
1043
1047
1054
1057
1055
1052
1054
1060
1064
1066
1066
1063
1062
1068
1072
1072
1068
1068
1068
1070
1073
1074
1070
1065
1062
1059
1062
1059
1055
1049
1045
1042
1046
1043
1036
1032
1030
1031
1033
1029
1025
1019
1016
1020
1020
1021
1019
1013
1009
1009
1010
1010
1005
1004
1002
1004
1010
1009
1004
1000
1000
1003
1005
1005
1002
1001
1000
1003
1006
1007
1007
1002
1003
1005
1006
1004
1002
998
1000
1004
1005
1005
1005
1005
1004
1006
1007
1008
1007
1004
1003
1003
1006
1008
1005
1001
1002
1003
1004
1004
1002
998
994
997
999
1001
997
995
995
998
999
996
996
994
994
997
997
995
996
994
993
994
996
995
994
991
992
996
996
992
992
991
993
995
998
997
995
987
992
992
995
996
989
990
990
993
994
993
991
989
987
992
994
994
993
989
989
992
994
994
993
987
985
987
992
993
990
988
987
989
992
989
991
987
985
988
990
989
991
987
985
987
990
989
988
989
988
989
989
989
990
989
986
988
991
991
993
990
989
989
991
990
990
987
989
990
991
993
991
988
989
986
987
989
990
986
987
988
990
989
987
983
987
988
990
993
990
988
986
991
993
995
993
987
991
996
998
995
996
996
996
1001
1002
1004
1002
1000
1003
1005
1007
1005
1002
1002
1002
1004
1004
1001
996
995
994
999
999
1000
998
994
992
989
992
991
990
985
981
982
986
985
983
981
979
983
982
983
983
980
982
984
983
981
982
981
981
981
983
980
980
979
979
983
986
986
984
984
985
989
995
999
1003
1008
1012
1029
1047
1068
1092
1112
1139
1169
1199
1222
1242
1260
1268
1260
1238
1204
1161
1118
1080
1052
1033
1013
1005
995
997
997
1001
998
992
987
984
985
982
983
979
978
974
975
978
974
973
972
971
976
978
977
975
970
972
978
980
977
977
974
973
978
982
982
978
977
975
980
986
987
984
980
981
986
991
991
989
987
988
991
998
994
996
996
995
1001
1002
1003
1000
998
1002
1009
1012
1013
1011
1011
1012
1019
1021
1022
1022
1020
1025
1030
1033
1033
1032
1029
1031
1035
1041
1038
1038
1034
1036
1039
1041
1046
1039
1037
1032
1035
1031
1031
1022
1014
1013
1011
1012
1007
996
994
989
991
990
986
979
975
975
977
978
975
970
965
965
968
968
970
965
962
959
963
967
965
962
958
959
963
966
964
960
957
957
962
967
968
965
959
960
965
965
966
963
959
960
961
966
967
965
959
960
963
967
965
963
959
958
964
966
965
962
958
961
963
969
967
965
959
960
963
962
961
961
956
955
961
965
968
966
960
960
965
967
967
963
959
958
964
969
967
963
959
960
963
967
967
965
960
956
963
968
967
961
960
960
962
967
966
965
959
958
962
965
966
964
961
957
962
963
964
962
958
956
960
965
962
962
956
955
960
962
962
960
957
959
960
964
964
956
953
957
959
964
965
960
954
957
962
964
962
957
955
957
962
966
966
961
957
954
960
964
963
961
958
959
960
966
964
958
956
958
961
965
963
959
955
957
962
966
963
960
958
958
960
965
961
957
956
957
961
964
965
962
960
961
964
968
966
962
960
963
968
968
970
967
960
967
975
978
981
976
975
979
985
989
988
981
982
983
989
993
992
985
982
980
983
984
983
979
978
977
979
977
975
970
966
966
969
967
965
960
961
962
964
962
963
960
958
962
964
968
965
960
959
962
965
966
965
963
964
967
968
970
971
971
974
976
978
986
992
996
1006
1020
1044
1067
1091
1114
1139
1166
1183
1208
1234
1244
1239
1214
1183
1140
1096
1057
1025
998
982
976
980
979
974
969
967
967
965
961
956
953
954
956
956
956
952
950
952
957
957
957
953
954
955
957
960
955
954
954
956
962
961
959
957
959
964
965
967
962
960
965
967
971
971
968
967
971
974
978
978
976
