982
982
980
974
973
973
975
975
977
972
970
972
974
976
974
970
969
968
969
974
971
970
969
968
973
976
976
973
970
971
972
974
973
973
973
976
980
981
981
976
975
976
982
984
982
982
981
983
983
989
989
986
985
986
987
991
995
994
996
999
1003
1005
1006
1005
1004
1011
1017
1017
1019
1021
1020
1024
1027
1027
1023
1020
1014
1011
1011
1008
1006
1003
1000
999
999
999
1000
992
992
989
989
989
987
982
979
978
980
983
981
978
975
976
974
975
976
970
969
971
973
974
970
967
968
968
969
973
975
971
969
966
970
975
972
970
968
969
972
974
973
971
969
971
974
976
975
973
972
974
974
977
979
975
978
981
981
986
987
986
990
996
1004
1015
1025
1042
1067
1094
1128
1156
1191
1220
1251
1283
1311
1337
1344
1336
1309
1271
1218
1169
1123
1086
1056
1033
1017
1013
1010
1008
1002
998
997
994
987
981
974
974
974
974
966
962
960
960
960
958
957
956
953
955
958
960
958
958
958
957
958
960
958
957
955
958
957
961
957
956
953
959
957
960
958
956
954
956
960
959
960
957
956
960
965
966
966
963
964
963
969
971
972
969
969
972
977
980
978
978
976
979
983
987
986
984
984
986
993
997
996
996
994
994
997
998
997
992
988
989
988
988
985
981
979
976
977
977
973
970
966
966
965
967
965
962
960
960
962
961
961
960
958
960
963
964
965
962
959
962
966
965
963
962
964
965
966
968
970
970
968
973
977
982
985
986
990
998
1010
1027
1052
1083
1109
1142
1173
1208
1243
1275
1306
1335
1353
1360
1347
1321
1275
1221
1166
1120
1085
1056
1029
1007
996
993
990
980
971
968
966
965
956
954
947
948
949
949
945
943
938
939
938
938
936
937
933
935
936
937
937
932
935
933
935
935
932
931
930
931
932
937
936
932
929
933
937
937
937
938
937
938
940
940
938
938
935
940
944
944
942
942
942
943
946
947
946
946
944
946
953
953
952
950
948
949
956
959
960
957
956
959
965
969
970
969
967
971
973
975
981
977
974
974
975
972
975
970
967
966
966
967
964
963
956
956
959
961
959
956
955
958
958
957
956
954
950
954
953
958
955
951
950
953
954
959
957
954
954
955
959
959
958
953
954
954
958
959
956
955
953
954
955
956
956
955
954
953
954
960
956
955
954
952
956
954
953
948
948
948
953
953
956
950
948
951
955
955
951
950
949
949
953
954
954
953
952
949
955
957
956
952
953
952
952
954
955
954
952
954
955
958
954
954
953
954
956
959
958
956
954
956
957
958
956
954
955
957
960
959
958
955
952
951
957
959
958
953
952
951
957
956
959
957
954
958
960
961
960
956
956
956
962
965
961
956
956
958
961
960
958
956
955
958
962
963
959
956
957
959
961
965
960
959
955
957
962
963
962
957
958
959
963
967
963
960
958
959
960
963
961
960
959
958
963
966
965
962
959
961
961
967
966
961
961
960
963
966
967
963
962
965
966
971
970
965
963
964
968
969
965
964
963
965
969
969
970
967
964
963
968
970
969
970
968
967
974
976
974
970
968
968
970
972
974
971
971
975
976
978
978
973
975
977
979
983
982
981
979
981
986
988
990
986
984
986
986
992
992
989
988
991
993
991
991
987
984
984
987
993
991
988
985
985
985
988
985
982
980
978
981
983
981
978
975
975
975
975
975
974
976
976
978
977
978
973
975
976
978
980
981
978
975
975
982
985
984
981
980
981
981
988
988
990
987
992
1000
1006
1012
1021
1031
1058
1083
1118
1153
1186
1219
1255
1291
1328
1355
1366
1355
1326
1289
1237
1178
1130
1085
1046
1016
1006
998
1000
997
996
997
995
991
985
979
978
979
979
976
973
971
971
970
973
970
967
963
966
967
968
969
965
964
964
966
966
966
966
964
967
970
972
968
967
967
969
970
973
971
969
969
967
971
975
974
972
971
974
976
979
979
977
978
979
982
984
984
982
983
986
991
994
992
991
990
994
1000
1002
1003
1007
1006
1012
1015
1020
1022
1021
1023
1025
1030
1034
1033
1034
1032
1037
1036
1039
1036
1030
1027
1024
1023
1023
1018
1015
1014
1014
1013
1015
1014
1008
1006
1007
1005
1002
1001
999
995
994
996
996
995
992
987
985
988
990
989
984
980
978
984
987
986
979
982
981
986
988
986
983
982
985
986
991
988
984
984
985
989
990
992
988
985
987
992
991
993
991
989
992
993
995
995
993
993
995
1000
1004
1009
1012
1017
1026
1043
1065
1097
1130
1168
1212
1255
1296
1330
1352
1363
1362
1342
1294
1228
1165
1111
1065
1024
999
983
978
985
994
998
998
996
992
988
985
987
987
985
979
973
972
974
972
971
965
965
965
965
967
969
968
967
967
971
971
966
964
965
966
967
970
969
968
964
970
969
974
973
969
967
967
971
972
975
971
970
972
970
976
979
975
975
978
981
984
983
984
982
986
990
994
993
992
988
990
994
999
998
1000
999
1003
1006
1009
1006
1005
1002
1003
1004
1005
1000
996
991
990
989
990
986
981
980
979
979
979
976
977
973
974
975
975
974
968
967
971
973
973
975
969
968
970
974
977
976
974
975
975
981
981
980
978
979
977
981
984
985
983
984
988
991
997
1007
1018
1033
1063
1098
1131
1162
1196
1239
1281
1321
1346
1362
1368
1359
1335
1293
1234
1168
1120
1082
1050
1023
1001
991
986
983
973
970
967
963
956
952
954
954
953
952
947
947
946
948
946
945
945
943
942
944
946
942
940
936
940
940
942
939
938
936
937
939
942
939
938
937
936
937
940
937
936
934
931
937
936
934
933
931
931
934
934
931
929
930
929
932
933
934
931
928
932
935
936
935
934
932
938
940
947
950
952
953
954
958
962
961
960
963
962
965
964
964
963
960
960
959
961
959
957
956
957
959
962
960
958
955
955
959
960
960
956
955
956
959
962
960
957
952
952
956
957
956
958
956
955
958
960
960
957
954
952
958
957
959
957
952
953
956
958
956
954
951
951
953
956
957
951
949
953
956
958
955
953
951
952
954
954
956
950
945
949
951
953
953
948
949
950
948
954
953
950
947
945
951
950
950
948
947
949
952
954
952
948
948
949
951
954
953
952
949
949
954
954
952
953
949
949
950
956
954
950
948
951
953
956
954
951
951
952
954
958
954
952
949
951
956
957
957
954
951
954
957
961
957
956
953
956
956
960
958
957
955
956
958
959
958
955
955
955
959
961
961
956
955
954
960
962
961
958
958
960
962
962
961
961
960
960
962
962
963
959
958
961
963
963
962
957
961
959
966
966
961
960
960
960
962
962
964
962
959
960
961
967
964
964
961
962
964
965
966
963
962
965
965
966
962
965
965
963
969
970
971
972
968
973
974
976
978
976
975
973
976
977
980
977
974
975
980
981
978
978
975
974
976
979
977
972
968
967
968
970
968
963
962
964
965
966
965
962
959
961
965
966
967
963
964
965
963
968
967
962
963
964
968
968
968
966
965
968
969
971
973
970
968
974
978
985
988
991
996
1010
1032
1060
1089
1115
1153
1188
1228
1261
1295
1325
1343
1343
1323
1283
1226
1168
1115
1071
1038
1010
994
988
987
985
983
979
973
966
962
960
959
960
955
953
953
950
951
954
954
949
949
950
952
955
952
951
949
949
951
952
949
949
947
949
955
955
951
951
949
953
954
957
958
957
952
953
960
961
961
960
960
961
963
966
968
964
964
965
970
974
976
975
975
978
982
992
993
996
995
997
999
1007
1009
1010
1014
1018
1025
1031
1033
1034
1031
1030
1027
1027
1023
1018
1014
1011
1010
1010
1007
1005
998
998
998
997
994
987
983
981
979
978
976
973
970
969
970
968
965
964
958
957
958
962
959
955
958
958
961
960
960
958
957
957
962
963
961
957
956
956
959
960
959
957
955
959
963
965
961
959
957
959
963
965
966
964
964
967
970
972
972
974
979
993
1005
1029
1055
1084
1118
1156
1199
1238
1273
1306
1330
1342
1339
1311
1258
1195
1129
1076
1034
1001
975
964
967
978
985
985
980
972
969
964
963
961
955
948
946
944
945
945
945
943
942
943
946
949
948
943
944
945
946
950
947
946
942
944
947
948
947
946
943
944
944
945
945
944
944
947
948
951
952
951
949
950
953
955
958
957
956
958
960
964
964
964
964
967
969
974
974
975
974
977
980
987
987
987
983
988
989
995
993
989
986
984
986
987
985
977
973
975
973
972
970
967
962
962
963
965
961
957
955
955
959
960
963
957
959
958
960
961
963
961
959
963
967
965
966
965
967
964
968
973
973
974
973
982
988
1002
1016
1045
1080
1114
1154
1193
1235
1278
1318
1353
1371
1382
1374
1339
1287
1217
1150
1099
1061
1028
1001
987
981
980
970
966
957
953
950
951
948
944
939
937
940
942
938
933
931
928
933
937
937
933
928
932
932
933
933
932
930
931
932
932
931
924
927
929
932
932
935
930
929
930
933
932
931
927
927
930
932
933
931
927
925
930
931
932
933
933
930
930
934
937
933
933
929
931
938
941
946
948
949
952
956
961
961
958
955
957
962
963
961
955
955
954
957
959
954
952
952
950
953
953
954
951
950
951
953
957
954
951
950
947
952
954
954
953
948
952
953
956
955
951
952
953
955
952
955
953
950
952
952
956
958
953
952
952
953
956
955
952
947
950
955
957
955
953
950
948
950
953
955
948
948
949
952
953
952
949
947
948
948
953
952
949
945
950
950
953
952
949
947
947
952
953
951
949
950
948
953
954
955
952
950
947
947
952
952
949
947
949
952
954
954
950
945
945
952
954
953
951
946
947
952
950
952
950
950
952
956
954
957
951
950
949
952
954
952
950
945
949
949
954
952
950
947
948
953
958
955
951
950
949
953
955
950
949
950
950
951
954
951
946
947
949
946
951
950
948
949
951
957
957
955
949
949
949
952
952
950
950
949
951
952
955
955
950
952
952
954
956
955
953
952
951
956
959
957
951
950
953
956
958
957
951
951
951
955
956
957
954
951
955
955
960
961
957
957
957
959
962
963
959
956
959
963
966
965
965
963
965
967
969
969
965
965
966
971
971
971
967
965
966
970
970
969
966
964
963
965
967
962
957
953
954
956
959
954
953
951
951
954
955
956
951
948
950
956
956
956
954
952
953
957
959
955
955
954
952
957
962
959
957
955
956
958
961
961
957
958
963
969
975
982
986
999
1022
1049
1081
1113
1152
1185
1223
1258
1292
1326
1342
1339
1318
1282
1228
1169
1117
1067
1025
996
980
971
968
969
969
968
963
957
951
949
947
948
946
942
936
939
941
939
940
939
937
935
934
940
939
939
934
928
931
936
941
939
935
932
936
938
940
941
937
936
939
941
941
939
939
936
939
940
944
942
944
943
944
949
953
950
949
951
955
958
961
959
959
958
961
965
967
972
972
974
981
987
991
987
991
988
994
999
1005
1006
1006
1010
1016
1020
1021
1023
1016
1014
1012
1010
1012
1009
1003
996
994
992
995
992
988
981
981
982
979
978
971
970
965
965
967
964
961
957
957
958
958
955
950
949
946
948
952
951
949
947
948
950
951
951
948
945
945
948
950
951
948
944
947
950
953
950
947
948
948
948
954
953
951
952
952
952
955
954
953
954
956
957
959
960
960
957
959
963
967
970
973
982
997
1017
1046
1079
1111
1141
1178
1213
1248
1277
1303
1320
1320
1306
1271
1217
1156
1104
1062
1034
1006
982
967
965
970
975
979
974
964
960
956
953
954
945
939
936
935
934
937
935
932
927
931
932
936
937
934
933
931
935
938
938
934
928
932
933
935
936
934
930
929
932
936
932
931
929
930
933
935
933
932
934
935
937
943
942
939
939
941
943
949
947
947
946
947
948
954
956
952
954
957
961
963
963
959
959
963
967
972
973
971
972
976
979
982
981
979
978
978
980
981
979
974
971
970
969
968
965
959
959
956
956
957
955
947
948
946
947
947
944
945
945
943
949
948
947
945
943
942
946
949
949
945
946
945
946
953
953
949
949
949
952
956
953
951
950
950
953
956
955
953
955
957
959
962
964
967
970
980
990
1011
1035
1064
1097
1131
1164
1201
1244
1277
1307
1332
1345
1344
1327
1290
1231
1167
1110
1067
1037
1010
988
971
968
967
965
957
951
944
942
943
934
931
928
930
930
931
928
921
921
926
926
928
926
926
921
928
929
930
928
926
925
926
928
928
926
921
919
922
926
927
928
927
920
923
927
931
928
926
923
927
929
933
931
928
927
926
928
931
931
929
925
927
931
933
933
929
928
931
931
933
932
929
928
931
936
939
941
940
943
946
950
955
957
955
955
956
959
959
960
957
952
954
952
955
957
953
950
951
951
955
949
946
947
946
946
948
948
943
942
946
948
950
947
943
940
939
947
948
945
946
944
943
943
948
946
944
942
942
946
950
946
942
942
944
947
950
949
944
943
944
947
950
949
944
943
941
947
950
949
948
942
944
945
948
944
943
941
942
946
946
946
944
940
940
943
944
946
944
939
942
946
950
944
944
942
943
944
950
946
943
940
941
945
946
950
947
947
945
947
948
946
945
944
945
949
950
950
947
946
948
948
948
951
947
942
945
947
950
951
949
943
949
950
952
951
949
947
946
952
953
952
952
951
948
950
950
949
948
948
949
952
955
953
951
947
947
953
955
954
951
951
952
953
958
954
952
949
954
954
958
957
954
951
954
955
957
952
953
951
953
957
959
955
953
950
953
955
956
957
953
951
953
953
955
955
954
949
954
955
953
953
950
950
951
954
954
956
952
950
953
957
958
959
953
951
953
958
959
960
958
959
963
967
968
964
961
962
965
970
972
974
973
969
970
971
973
971
966
965
965
969
970
966
961
961
958
960
960
960
956
954
954
957
960
958
953
952
951
952
955
955
954
951
952
956
957
958
953
954
954
957
958
960
957
955
957
958
959
957
955
952
953
960
965
964
964
960
963
968
972
976
978
982
988
1002
1029
1053
1081
1118
1156
1196
1232
1266
1299
1330
1355
1365
1352
1320
1271
1211
1157
1103
1058
1017
985
966
964
968
973
968
965
959
958
956
954
951
946
944
940
943
945
943
940
938
938
942
942
942
938
936
937
940
941
940
937
935
937
939
942
940
935
935
939
944
946
945
940
939
942
944
949
947
944
941
948
951
949
949
945
945
948
952
957
957
957
954
957
963
967
965
965
969
975
981
983
981
977
980
987
993
997
998
997
999
1004
1009
1008
1006
1002
999
997
996
996
992
990
988
989
992
993
990
985
981
982
982
985
980
974
969
971
972
971
968
964
960
960
961
961
958
954
952
952
953
955
952
950
948
949
952
953
953
949
947
950
955
954
952
950
950
954
958
959
958
957
954
952
960
961
961
961
957
960
964
960
963
961
961
962
964
970
967
970
971
980
987
1001
1015
1032
1055
1093
1131
1174
1211
1246
1277
1306
1329
1329
1303
1258
1192
1129
1075
1034
999
977
965
967
972
970
964
957
950
949
949
949
943
939
937
936
939
941
940
934
932
935
939
940
938
935
932
932
937
938
939
936
933
935
936
941
940
938
936
940
944
947
945
944
938
944
946
951
950
948
948
950
953
955
955
953
957
959
963
967
965
964
964
968
972
975
975
974
972
975
982
984
980
980
981
986
991
996
995
996
995
997
997
995
991
987
979
977
980
977
972
970
965
965
967
966
961
957
956
955
956
955
953
950
948
950
953
954
951
950
947
947
949
953
951
946
946
950
951
951
952
949
946
951
950
952
952
950
949
948
950
950
950
947
949
946
951
956
954
952
949
949
950
955
953
951
949
952
955
953
951
950
947
947
950
950
952
947
946
949
948
953
952
950
948
947
951
950
952
948
944
946
948
949
949
947
947
946
950
952
951
946
946
948
950
950
950
950
949
951
952
950
951
951
951
949
951
954
954
951
949
948
953
955
955
952
951
949
949
952
951
948
949
950
952
953
956
953
951
953
954
958
958
954
952
950
955
956
954
951
951
952
955
956
956
954
954
949
952
957
955
955
950
952
955
957
958
955
951
953
956
959
957
955
950
952
955
958
959
956
953
952
956
957
957
955
953
956
956
960
958
956
955
956
958
961
960
958
956
958
959
962
960
957
955
955
960
960
962
957
953
954
958
960
960
956
956
958
960
961
963
959
956
957
962
962
959
955
955
959
961
964
963
957
957
956
962
965
965
962
958
959
962
964
963
960
959
960
963
965
965
961
960
961
966
966
966
962
959
959
962
965
958
958
957
961
966
967
965
961
958
959
966
967
965
959
960
961
964
963
965
961
957
964
967
968
966
964
963
964
965
968
966
964
963
963
962
964
963
963
963
965
967
964
966
963
963
965
968
968
967
965
965
966
967
969
971
968
963
966
969
971
969
968
966
968
970
974
971
968
966
968
972
973
971
970
967
969
972
975
971
974
971
975
977
976
974
971
974
977
977
981
984
982
982
982
986
985
988
983
983
990
991
992
991
985
983
985
990
989
989
985
985
982
986
986
984
980
977
977
976
980
977
976
973
970
972
975
975
973
971
973
