881
881
884
885
885
883
883
881
882
881
884
883
880
877
880
884
882
882
881
876
882
885
886
886
880
883
885
886
888
886
882
881
883
885
885
884
883
880
884
886
888
887
885
886
885
887
886
886
883
881
883
885
886
888
885
883
886
889
888
887
885
885
886
888
887
889
885
886
883
892
890
888
886
887
889
890
890
888
883
883
887
885
885
884
882
882
885
884
888
885
883
884
886
888
888
888
882
885
883
888
890
888
886
884
888
892
891
887
885
884
885
889
890
890
888
887
888
892
893
893
891
891
890
894
896
895
894
892
894
896
899
898
896
894
895
900
902
903
902
903
905
910
908
907
905
908
910
911
913
911
908
905
908
907
909
907
903
902
905
908
904
905
901
898
896
899
898
896
894
893
898
899
899
900
895
893
895
899
904
900
897
896
901
905
902
901
901
902
904
907
909
911
908
912
920
928
937
942
954
971
998
1025
1048
1076
1096
1119
1146
1170
1195
1200
1186
1162
1126
1092
1045
1007
971
946
933
925
920
918
914
915
914
915
914
909
903
899
904
903
901
897
894
892
895
899
898
894
892
891
894
896
899
895
895
896
900
904
905
901
896
900
901
906
904
905
903
902
905
909
908
906
906
905
907
911
914
913
909
909
913
915
916
920
918
918
920
926
930
930
930
930
933
938
943
944
939
938
946
951
952
955
953
954
959
964
965
966
962
963
969
973
977
974
973
971
975
978
978
978
973
970
971
974
970
968
964
960
956
954
951
946
941
933
932
933
932
927
920
917
917
918
918
916
911
909
910
909
912
912
903
905
907
908
910
908
905
906
906
909
913
908
905
906
906
911
913
911
909
910
911
914
915
913
911
909
913
913
913
915
912
913
915
916
917
916
913
913
916
918
919
918
912
913
914
916
916
914
911
910
913
914
913
911
905
909
908
912
912
910
908
907
909
909
909
907
904
902
904
907
908
906
901
901
903
903
902
900
901
901
904
906
907
906
901
900
903
904
901
901
899
897
895
903
905
901
900
897
898
904
905
903
899
900
903
905
904
901
899
900
902
906
905
903
903
902
904
908
906
902
900
901
904
908
906
906
900
900
903
906
908
907
906
903
908
910
910
912
909
905
909
913
915
912
911
909
910
911
912
909
907
907
908
911
912
909
909
905
911
913
913
910
907
907
909
910
910
911
908
908
911
915
918
916
915
914
915
919
919
917
916
917
923
923
919
922
916
917
924
925
927
923
921
924
926
927
927
931
926
927
930
934
933
930
931
935
937
941
939
937
938
939
939
942
944
944
944
939
939
940
941
938
934
933
934
935
936
936
932
931
933
933
935
933
933
928
929
935
934
932
929
929
930
933
936
933
932
933
936
937
939
936
935
937
942
941
944
940
939
941
943
946
948
947
946
948
955
962
968
974
979
992
1010
1034
1060
1083
1106
1133
1161
1185
1210
1234
1252
1257
1245
1217
1177
1125
1076
1036
1003
979
959
950
951
951
952
954
952
951
946
944
946
945
944
944
940
937
938
940
940
940
941
940
940
942
940
938
936
938
941
944
943
940
939
939
941
944
941
943
940
940
941
943
946
947
945
947
949
953
952
952
949
951
958
958
958
960
955
960
964
967
969
967
966
971
973
977
979
980
980
981
987
990
994
992
993
995
1001
1006
1008
1009
1005
1009
1011
1018
1020
1021
1016
1017
1020
1023
1024
1022
1017
1014
1016
1017
1013
1009
1003
996
995
994
990
985
978
974
978
979
976
970
964
957
960
959
960
957
950
948
948
950
951
948
945
942
945
948
950
947
944
939
943
947
946
945
943
944
945
948
947
945
942
943
947
948
950
947
946
947
949
955
956
954
951
950
949
954
957
957
954
953
951
956
956
958
952
953
956
957
957
956
952
953
955
958
955
952
954
954
954
957
955
956
954
953
953
954
954
949
947
947
947
953
951
951
946
945
949
952
951
950
949
943
952
952
952
949
946
944
947
951
951
948
944
941
944
947
949
950
946
946
946
950
949
948
942
945
945
947
949
947
942
940
946
944
948
946
945
944
947
948
951
945
944
942
943
945
947
942
941
939
943
945
949
944
940
939
942
941
944
941
940
939
939
944
945
940
941
941
941
938
943
941
938
938
941
941
939
936
936
938
940
941
942
941
939
935
941
940
940
939
936
935
937
940
938
938
935
935
938
939
938
936
937
932
935
939
939
935
936
937
940
944
945
946
944
943
944
947
948
947
949
951
954
957
960
958
958
957
959
963
965
961
958
956
957
958
956
953
949
946
950
954
955
951
949
947
947
948
946
942
940
939
939
943
942
940
938
939
939
941
941
942
940
940
940
942
948
946
944
942
944
946
947
948
947
946
947
951
950
948
949
949
955
962
969
972
976
986
1005
1027
1053
1076
1100
1126
1155
1179
1202
1228
1247
1251
1232
1202
1159
1106
1055
1017
989
971
958
953
953
955
960
962
957
952
944
942
943
946
944
943
938
941
940
942
942
939
936
938
938
941
940
940
938
939
941
941
944
940
941
941
944
948
946
946
942
943
945
951
954
953
950
951
953
958
961
959
958
961
959
965
967
970
969
970
973
983
983
985
981
984
989
995
1002
998
999
1005
1009
1016
1022
1023
1024
1028
1033
1041
1044
1048
1047
1049
1054
1058
1061
1055
1053
1046
1042
1043
1036
1028
1022
1018
1017
1015
1008
1006
996
989
984
981
976
971
966
963
961
954
954
949
946
944
942
944
942
938
937
936
939
938
939
936
932
931
935
937
935
937
932
928
932
937
936
935
934
933
934
936
937
934
930
928
932
934
931
928
926
925
928
931
933
935
940
951
964
984
1012
1041
1067
1092
1122
1156
1186
1202
1206
1205
1191
1167
1124
1070
1019
987
973
969
963
947
939
936
935
937
930
923
922
922
919
920
919
917
915
912
911
918
917
915
908
910
912
915
915
916
910
909
911
914
917
916
912
914
917
919
920
922
919
918
924
926
928
926
925
927
931
937
936
936
936
936
938
944
945
944
944
945
951
955
958
963
959
965
969
973
976
977
978
979
983
990
992
994
993
992
999
1003
1004
1005
1003
1001
1002
1005
1002
998
991
987
985
985
980
975
971
965
965
962
960
956
949
950
950
950
949
947
942
941
941
945
942
942
941
940
941
945
943
944
940
940
940
946
946
943
941
939
941
944
945
941
942
940
945
945
947
943
940
938
940
945
946
941
941
939
940
941
942
942
940
938
939
939
939
941
940
937
935
940
940
937
931
929
934
937
941
938
936
935
938
940
940
937
934
935
936
940
943
941
940
941
946
949
948
949
945
943
946
950
952
948
945
946
948
950
949
949
949
946
950
952
953
948
947
950
952
954
952
954
951
952
954
957
958
957
954
954
956
959
962
956
955
955
955
960
958
956
953
956
959
963
963
960
960
958
958
959
961
959
956
956
957
960
958
961
959
955
958
962
962
963
959
959
960
961
960
962
959
957
958
963
965
965
962
958
962
965
966
966
962
959
965
964
967
965
962
960
964
966
969
966
962
960
965
969
967
965
962
961
966
969
968
965
962
962
967
967
967
968
968
967
968
973
974
972
969
971
970
974
973
972
969
971
974
975
975
976
975
975
974
973
974
973
971
971
972
976
978
976
973
971
973
979
978
978
975
976
978
981
978
978
975
976
976
979
981
981
975
977
978
981
980
979
978
976
979
981
982
979
977
982
983
983
985
987
984
983
982
989
990
989
988
987
993
997
998
997
993
994
998
1002
1005
1005
1003
1001
998
999
998
998
993
992
997
995
998
996
992
990
991
994
989
988
986
985
987
985
987
986
981
982
982
987
989
986
983
986
988
988
987
987
984
985
986
991
993
995
991
994
999
1012
1020
1027
1036
1060
1085
1116
1149
1178
1203
1229
1256
1290
1309
1309
1283
1244
1193
1141
1092
1054
1023
1001
996
999
999
997
991
989
990
992
990
985
978
976
978
982
981
980
977
977
979
977
980
979
977
973
975
978
976
975
973
974
975
979
981
981
978
977
984
982
986
984
983
982
985
991
993
991
988
992
994
999
999
999
999
1001
1003
1004
1011
1008
1009
1010
1016
1020
1019
1018
1018
1023
1026
1029
1030
1031
1029
1032
1035
1039
1042
1043
1041
1041
1045
1045
1047
1050
1049
1048
1050
1049
1052
1053
1055
1055
1059
1058
1055
1049
1043
1042
1041
1041
1038
1031
1024
1017
1011
1011
1010
1005
1000
999
1001
1000
1000
997
996
996
996
998
1000
997
994
994
996
998
999
999
997
998
999
1001
1002
1001
997
998
998
1001
1003
1003
1003
1000
1002
1006
1007
1009
1009
1009
1010
1014
1017
1013
1009
1009
1011
1013
1013
1013
1006
1008
1010
1010
1012
1006
1003
1003
1004
1005
1008
1005
1002
1003
1005
1007
1007
1006
1005
1002
1004
1007
1008
1004
1001
998
1005
1008
1009
1010
1006
1003
1006
1008
1011
1008
1005
1003
1008
1009
1009
1005
1001
1001
1005
1011
1012
1007
1003
1002
1005
1006
1006
1003
1000
999
1004
1005
1006
1006
1002
1003
1004
1008
1007
1007
1005
1003
1004
1005
1004
1005
1000
998
1001
1003
1004
1002
996
995
997
1004
1007
1005
999
996
1000
1005
1006
1003
1000
999
999
1001
1004
1003
996
997
1002
1005
1006
1005
1004
1003
1004
1004
1006
1004
1002
1001
1004
1006
1008
1006
1002
1002
1005
1008
1004
1002
999
1001
1005
1006
1007
1004
999
1001
1001
1008
1008
1003
1000
999
1004
1004
1006
1007
1001
1004
1005
1004
1006
1006
1007
1007
1009
1013
1013
1011
1009
1010
1014
1020
1019
1019
1018
1016
1020
1025
1026
1024
1022
1021
1024
1025
1026
1024
1021
1018
1019
1020
1017
1013
1011
1013
1013
1014
1014
1011
1008
1006
1007
1008
1008
1003
1002
1002
1003
1006
1007
1003
999
999
1002
1006
1000
1003
995
999
1006
1006
1008
1006
1003
1003
1005
1007
1005
1006
1005
1008
1013
1017
1019
1023
1026
1032
1043
1059
1072
1097
1119
1148
1176
1204
1228
1246
1269
1295
1313
1310
1284
1244
1197
1149
1109
1076
1047
1023
1008
1005
1009
1014
1015
1011
1007
1003
1000
1002
998
996
995
988
990
994
996
997
994
994
996
997
997
992
993
992
994
997
1001
996
996
997
1000
1003
1002
1001
1000
1001
1003
1006
1007
1005
1007
1006
1010
1012
1011
1011
1010
1007
1010
1017
1019
1018
1018
1020
1019
1022
1024
1022
1022
1021
1027
1033
1035
1035
1033
1032
1040
1047
1049
1046
1044
1044
1048
1054
1056
1056
1055
1059
1061
1065
1066
1065
1062
1063
1066
1070
1070
1069
1064
1066
1067
1068
1068
1063
1055
1050
1053
1052
1047
1040
1033
1029
1029
1026
1022
1019
1014
1008
1007
1010
1011
1006
1002
1000
1003
1003
1004
1001
997
996
999
1001
1001
995
994
994
995
998
999
998
993
995
992
996
999
997
995
996
997
1001
1003
1001
999
997
999
1003
1003
1001
997
998
998
1003
1005
1004
1002
999
1002
1004
1004
1004
998
999
1001
1000
1004
1000
1000
997
1002
1003
1005
1001
1000
996
996
1001
999
997
994
995
996
999
998
996
996
997
998
999
997
996
994
992
994
994
996
994
994
992
988
993
996
994
991
990
991
991
989
986
985
986
987
990
992
988
987
987
988
989
990
989
985
986
987
992
991
990
988
989
990
992
993
989
988
990
992
995
994
993
992
993
993
996
995
993
992
991
992
993
996
993
989
989
990
993
994
992
990
990
993
994
993
992
988
990
992
992
993
991
988
991
993
996
996
995
992
992
994
995
996
994
992
994
994
996
995
996
993
993
995
999
998
996
995
992
996
994
997
997
997
995
995
999
998
998
996
995
998
999
1001
1000
1000
1000
1006
1008
1009
1008
1008
1012
1016
1020
1019
1017
1016
1014
1015
1016
1013
1013
1013
1013
1014
1014
1013
1010
1007
1005
1009
1011
1011
1007
1004
1001
1002
1002
1000
998
997
996
995
998
999
998
992
993
995
1000
998
994
992
992
996
1001
1001
997
994
995
1000
1002
1003
1002
996
998
997
1003
1006
1001
1002
1008
1016
1025
1036
1042
1057
1079
1107
1135
1162
1185
1208
1232
1257
1285
1314
1324
1315
1288
1250
1209
1159
1118
1076
1045
1023
1013
1010
1013
1013
1013
1014
1016
1016
1013
1006
1002
1002
1004
1004
1003
999
995
993
994
995
993
991
989
990
991
993
992
989
990
992
997
997
998
993
995
1000
1002
1006
1004
1001
1003
1005
1008
1012
1011
1011
1011
1015
1016
1019
1016
1016
1018
1020
1024
1024
1025
1024
1024
1028
1031
1032
1033
1031
1033
1036
1039
1042
1042
1044
1047
1050
1055
1057
1056
1054
1057
1061
1063
1067
1068
1067
1066
1071
1073
1075
1076
1075
1073
1073
1077
1079
1073
1073
1067
1065
1068
1064
1060
1052
1046
1043
1043
1042
1038
1029
1025
1022
1023
1022
1016
1010
1006
1004
1008
1008
1000
1000
999
997
1000
999
1000
995
994
995
998
1001
999
995
994
997
999
1000
998
996
995
997
1002
1001
997
995
993
994
1001
999
999
996
996
998
1002
1000
1000
999
995
997
1004
1003
1001
1001
1001
1002
1004
1004
1000
997
997
997
1000
1002
1001
998
997
998
997
1000
996
995
992
997
999
999
998
999
996
995
999
999
998
996
995
993
999
998
995
989
990
992
993
992
993
990
988
989
992
993
989
987
986
986
989
988
986
983
981
984
987
986
985
984
983
984
987
983
985
981
978
984
987
987
987
982
983
983
987
990
989
985
983
984
988
989
991
983
983
983
991
992
990
987
988
988
994
990
991
989
988
990
992
993
989
990
988
989
993
994
992
988
986
987
991
990
990
985
987
986
990
995
992
987
986
987
992
990
990
985
984
982
991
991
988
986
984
984
989
989
984
982
982
985
988
988
988
981
981
983
987
990
990
985
984
987
990
988
988
985
987
992
995
996
996
993
992
997
1002
1004
1002
1001
997
998
1001
1002
1002
997
987
990
996
996
995
988
986
988
988
986
985
979
980
979
980
978
979
973
970
973
975
975
972
972
972
972
976
978
976
972
969
968
976
977
977
972
972
972
976
981
984
981
978
982
988
989
993
996
999
1006
1015
1027
1048
1067
1090
1120
1150
1179
1204
1223
1248
1277
1299
1303
1285
1248
1202
1151
1107
1068
1033
1003
986
984
989
990
988
981
979
977
977
973
974
969
963
967
968
970
969
966
965
966
969
969
966
965
964
967
969
973
973
971
969
971
974
977
977
973
974
975
979
975
975
975
975
979
982
984
987
982
982
985
987
991
993
989
992
992
997
1000
1002
1000
1001
1002
1007
1010
1013
1012
1015
1018
1023
1026
1027
1027
1027
1033
1036
1042
1041
1042
1041
1045
1051
1053
1053
1056
1053
1053
1057
1058
1059
1055
1056
1054
1055
1053
1046
1041
1039
1039
1034
1029
1025
1017
1009
1007
1006
1003
997
990
987
984
986
986
982
980
977
975
978
980
976
974
973
976
979
979
978
974
972
973
978
978
976
972
970
974
975
977
974
972
970
973
977
978
976
972
974
977
980
978
978
975
976
978
982
982
981
974
976
979
984
985
983
982
980
981
981
985
980
979
979
979
985
984
982
977
977
981
983
986
983
981
978
980
980
982
980
974
974
977
981
980
976
973
972
974
978
980
975
970
970
973
976
973
970
969
966
971
974
975
971
969
966
969
973
974
971
967
968
970
975
975
971
968
970
970
976
975
974
969
968
969
975
973
972
969
967
969
971
972
972
966
966
969
971
971
970
967
971
974
974
976
974
970
971
974
974
977
974
970
970
975
975
975
973
970
972
970
975
974
971
970
974
971
975
975
973
970
971
970
973
973
972
968
970
971
971
975
972
971
969
971
976
975
975
972
971
973
977
975
975
973
971
971
975
976
977
976
975
980
984
981
981
982
983
986
991
990
984
988
992
994
996
998
995
991
990
993
995
998
994
987
985
990
990
990
988
983
981
983
984
982
981
978
977
976
976
977
974
970
972
975
977
976
973
969
969
973
977
974
973
972
972
975
980
979
978
976
973
975
982
985
983
982
982
986
994
1001
1006
1010
1019
1035
1059
1080
1105
1129
1159
1187
1214
1241
1265
1286
1293
1278
1249
1205
1153
1104
1064
1032
1009
997
987
982
987
987
988
989
986
981
980
977
979
977
980
972
971
975
977
973
973
971
971
973
976
976
975
973
972
972
975
977
976
971
975
977
981
981
980
980
978
980
983
987
984
982
983
986
987
989
991
989
992
993
994
997
999
996
997
1004
1006
1011
1009
1011
1011
1013
1021
1023
1025
1024
1029
1033
1038
1042
1043
1040
1043
1048
1053
1061
1063
1063
1067
1074
1076
1082
1081
1078
1079
1084
1086
1084
1079
1069
1062
1057
1054
1049
1043
1038
1033
1030
1028
1023
1019
1012
1008
1002
1002
1000
994
985
983
983
986
984
981
977
977
975
976
976
973
969
966
969
971
970
966
966
964
966
969
968
968
966
968
967
969
971
968
969
968
972
976
974
972
969
971
975
977
979
979
979
983
988
998
1008
1020
1033
1063
1097
1130
1155
1187
1216
1246
1273
1287
1284
1262
1213
1158
1102
1058
1027
1006
987
981
982
986
988
982
974
970
970
970
967
967
963
961
959
962
964
963
959
956
957
960
961
961
959
959
959
963
964
963
961
961
963
965
968
967
966
965
967
970
973
973
971
969
972
976
979
978
977
975
978
983
989
989
986
988
991
996
995
999
998
1002
1006
1012
1015
1015
1016
1014
1018
1026
1030
1029
1029
1033
1035
1041
1041
1043
1040
1039
1042
1042
1039
1034
1029
1023
1021
1022
1019
1012
1007
1002
1000
998
993
990
987
985
986
988
987
981
976
976
980
979
981
981
977
975
975
981
979
977
974
973
974
979
979
979
977
975
978
980
982
980
979
978
979
980
982
980
977
975
976
979
980
977
979
973
976
981
982
976
977
976
976
980
979
978
974
973
978
977
980
981
