974
975
977
982
982
979
977
974
974
981
980
979
977
974
976
977
982
979
974
975
976
980
979
975
972
973
975
981
980
978
973
972
974
977
978
975
971
974
978
978
980
977
973
970
973
977
979
977
974
973
973
979
978
976
972
970
970
976
977
976
972
972
972
977
975
971
971
972
973
977
975
977
976
975
976
978
976
975
975
976
978
980
979
979
975
975
978
979
979
979
974
975
976
977
980
980
977
981
979
983
985
981
979
978
980
984
988
986
984
979
981
985
986
985
983
981
984
987
986
984
983
981
981
985
985
987
985
981
983
987
987
990
988
984
983
988
990
990
988
985
982
989
992
986
987
986
987
991
990
989
985
986
987
988
991
988
985
986
985
989
992
989
988
985
987
991
990
986
985
984
987
991
989
988
986
987
989
989
990
990
985
982
987
989
990
994
990
986
989
992
992
992
989
987
989
992
992
992
989
986
989
993
991
988
985
985
989
993
995
991
990
988
993
994
1000
994
993
992
995
1000
1002
1004
1003
1004
1007
1011
1010
1008
1004
1005
1010
1014
1017
1016
1013
1010
1008
1012
1008
1006
1004
1004
1004
1007
1005
1002
1000
996
999
1000
998
997
993
993
993
996
998
995
993
993
994
996
998
995
990
994
996
996
996
996
993
996
998
1001
1002
1001
997
999
1003
1010
1016
1019
1026
1032
1046
1069
1094
1115
1138
1163
1190
1216
1241
1264
1282
1290
1282
1251
1209
1160
1115
1079
1046
1023
1013
1007
1005
1006
1006
1006
1006
998
994
991
991
991
991
989
985
981
982
985
991
991
988
987
987
988
988
985
986
985
983
986
990
992
988
990
994
995
995
994
993
993
992
995
996
996
994
994
997
1000
1003
1002
1002
999
1002
1007
1009
1010
1009
1009
1012
1020
1022
1021
1021
1024
1026
1032
1038
1039
1036
1037
1044
1047
1049
1050
1048
1052
1057
1061
1064
1064
1062
1064
1066
1070
1070
1071
1070
1068
1070
1071
1069
1066
1060
1056
1055
1054
1052
1044
1039
1037
1035
1033
1030
1023
1019
1014
1014
1011
1009
1010
1007
1007
1007
1006
1006
1004
1001
1000
1001
1003
999
1001
999
999
999
1003
1004
1003
1002
1002
1003
1007
1008
1008
1005
1003
1005
1009
1009
1006
1006
1006
1008
1009
1011
1009
1009
1006
1009
1011
1010
1009
1008
1004
1005
1010
1015
1012
1007
1006
1008
1007
1012
1010
1005
1004
1004
1006
1009
1008
1003
1002
1002
1004
1006
1006
1004
1000
1002
1006
1007
1005
1001
999
1000
1005
1005
1002
1001
999
1000
1004
1005
1004
1000
999
1001
1004
1003
1001
997
1000
999
999
1005
1004
1001
996
1000
1003
1004
1001
999
998
996
1003
1002
995
995
992
998
1000
1002
1000
998
996
998
999
998
1000
995
996
996
1000
1002
996
998
993
999
1000
1001
997
993
994
995
998
1000
999
993
992
993
995
999
996
994
993
993
999
998
995
993
995
994
997
1000
996
995
994
994
996
997
998
993
994
994
997
999
997
995
992
995
999
999
997
994
992
992
995
998
997
993
993
994
998
1002
1002
998
996
998
1004
1006
1006
1007
1005
1009
1014
1017
1011
1011
1009
1010
1012
1013
1010
1009
1008
1008
1010
1010
1008
1001
999
1004
1006
1007
1004
999
997
1000
1001
1001
998
995
991
994
997
996
994
992
993
992
996
996
997
993
993
994
997
997
995
993
991
996
997
999
998
995
995
1001
1003
1005
1005
1006
1014
1021
1031
1038
1052
1068
1092
1121
1149
1177
1205
1227
1246
1275
1304
1317
1304
1271
1225
1173
1127
1087
1050
1020
1004
999
1004
1008
1008
999
995
996
996
995
992
986
987
988
992
992
989
982
981
982
987
988
987
984
984
985
989
989
988
982
982
984
986
988
988
985
989
989
992
994
992
989
989
990
994
995
997
993
996
998
1000
1003
1000
999
1002
1005
1010
1013
1012
1011
1010
1011
1016
1020
1021
1022
1023
1028
1031
1035
1033
1032
1033
1038
1042
1045
1047
1045
1047
1051
1054
1057
1058
1055
1055
1058
1060
1058
1057
1056
1053
1053
1053
1047
1042
1036
1030
1027
1028
1026
1021
1015
1011
1006
1009
1006
1001
998
994
993
996
995
991
989
987
988
990
989
985
980
982
983
988
988
986
983
981
983
986
987
984
980
979
982
984
985
983
982
984
985
988
989
989
987
985
988
988
989
991
985
988
989
990
992
992
990
989
991
992
993
992
985
984
989
991
991
990
985
985
984
988
988
982
980
979
981
986
987
987
983
975
980
981
984
981
979
979
980
985
986
983
980
977
975
982
980
980
976
973
977
978
978
978
978
972
974
979
977
979
977
975
977
979
983
980
978
974
978
983
984
980
976
978
980
982
983
983
977
974
976
983
985
984
980
976
978
983
981
982
978
978
981
982
982
982
978
979
980
983
983
983
981
980
978
983
983
981
980
979
980
981
984
980
979
978
979
983
986
986
984
982
983
983
987
986
983
979
980
981
982
984
978
978
979
982
981
984
980
978
981
984
985
985
981
979
980
982
983
986
984
980
982
985
986
984
981
980
984
989
989
989
988
991
996
997
1001
1003
998
1000
1002
1005
1007
1006
1004
1000
1001
1004
1006
1006
1000
1000
1003
1002
998
996
996
996
996
998
999
995
988
987
990
991
993
990
983
981
981
982
982
981
980
979
980
984
983
979
978
977
977
981
981
982
981
978
981
986
985
987
982
983
986
988
993
990
989
989
995
1001
1009
1016
1020
1026
1039
1057
1080
1100
1120
1144
1169
1193
1216
1237
1261
1279
1283
1271
1243
1205
1159
1112
1074
1043
1022
1004
996
994
995
1000
1002
996
987
981
981
985
984
982
978
975
977
979
981
978
976
976
974
978
980
977
974
975
978
979
979
977
976
975
978
983
982
980
981
977
979
984
983
979
981
983
986
992
993
990
988
990
994
996
995
998
996
997
999
1005
1007
1004
1003
1004
1010
1014
1016
1018
1016
1018
1021
1027
1033
1032
1034
1035
1042
1047
1051
1053
1054
1055
1063
1070
1075
1071
1074
1075
1083
1088
1088
1090
1088
1086
1084
1080
1077
1070
1062
1056
1054
1051
1047
1040
1033
1031
1027
1028
1020
1014
1005
1000
997
997
994
992
985
983
983
982
985
979
975
971
975
975
975
974
970
968
970
974
973
972
968
968
970
972
972
972
971
969
971
974
975
975
971
970
970
974
976
975
971
971
974
981
981
977
976
978
985
992
1000
1009
1017
1027
1053
1082
1106
1131
1149
1176
1209
1236
1252
1259
1251
1228
1192
1147
1094
1048
1020
1001
991
988
983
982
983
982
981
979
977
974
966
966
967
968
967
966
964
960
965
969
969
967
964
967
966
968
971
970
968
967
967
972
971
971
969
968
968
971
976
974
974
973
976
980
978
980
977
978
980
985
986
988
986
986
989
994
994
995
996
996
1000
1003
1005
1006
1006
1006
1011
1014
1021
1021
1019
1020
1022
1028
1032
1036
1034
1033
1038
1045
1045
1045
1045
1043
1043
1048
1048
1042
1039
1038
1036
1036
1029
1030
1022
1017
1015
1015
1012
1010
1003
1000
996
1001
1000
996
992
989
989
988
989
989
984
985
985
987
988
985
984
982
982
984
984
980
979
979
981
984
985
986
980
978
979
984
984
980
980
977
979
982
979
980
975
978
981
981
980
977
976
970
972
979
979
975
973
971
973
975
975
974
967
969
970
972
973
972
970
968
969
973
973
973
969
967
964
968
970
970
966
964
964
971
971
971
967
965
968
969
972
973
968
967
967
970
971
968
966
965
967
968
966
969
968
965
969
970
968
968
966
966
969
972
974
970
966
966
967
971
970
970
966
965
968
971
971
968
968
965
970
969
972
969
968
965
968
970
970
970
966
966
967
969
970
968
964
963
967
969
971
969
968
966
967
969
970
968
966
966
967
970
974
970
965
967
969
974
974
971
966
963
964
970
969
970
966
964
965
973
972
972
969
968
967
972
973
972
967
963
969
971
971
975
971
968
970
969
972
970
966
968
970
972
974
970
970
969
968
971
970
970
964
965
968
973
975
972
969
966
968
972
974
973
972
969
972
974
974
972
971
971
972
975
975
972
968
968
971
971
974
972
972
970
972
976
977
975
973
970
972
974
971
971
971
967
970
971
974
974
972
970
970
974
976
975
972
970
971
975
974
973
970
969
972
975
979
974
973
971
973
977
977
977
975
974
976
982
981
980
980
977
981
988
990
991
988
987
992
990
993
991
988
989
994
995
996
992
989
991
990
993
992
992
991
989
987
988
993
987
986
984
982
984
985
982
978
981
981
983
985
982
982
977
979
981
983
981
978
977
979
981
982
980
978
979
978
984
983
983
981
984
985
993
998
1002
1005
1012
1026
1041
1066
1087
1104
1129
1158
1185
1210
1228
1249
1273
1281
1271
1246
1207
1159
1109
1076
1043
1019
1000
986
982
983
988
988
986
979
977
974
973
976
971
967
967
966
968
965
964
962
962
963
967
967
964
961
959
962
966
965
963
959
962
962
965
968
969
965
964
967
969
972
972
970
968
968
972
974
970
967
969
970
971
973
975
976
975
979
980
984
983
981
982
984
988
994
991
992
992
996
998
1002
1006
1005
1003
1008
1012
1015
1015
1014
1015
1018
1021
1025
1025
1024
1023
1027
1031
1034
1033
1031
1032
1035
1038
1039
1039
1035
1032
1032
1034
1032
1028
1023
1016
1015
1014
1009
1007
1000
997
997
997
995
990
984
980
981
981
981
978
975
973
975
977
979
977
973
970
976
978
977
977
975
975
976
977
980
977
976
976
978
982
982
981
979
979
980
984
985
984
982
981
982
985
986
985
983
982
984
988
991
990
987
985
987
991
987
986
986
985
981
987
988
984
984
982
983
984
985
983
983
981
981
983
982
980
977
977
976
979
980
979
977
975
977
978
980
977
976
973
975
978
979
978
973
972
974
979
980
977
976
974
975
981
980
980
978
974
978
978
980
979
974
978
977
978
981
977
975
975
976
980
979
981
976
978
978
983
981
980
975
976
978
980
978
978
978
975
976
979
981
981
976
975
981
980
981
976
976
976
978
978
983
979
976
975
978
979
983
981
979
978
977
979
984
983
979
976
982
983
985
984
983
979
979
980
983
985
981
978
983
985
987
984
982
981
982
986
989
984
983
985
987
990
990
986
987
985
984
990
993
994
994
996
1000
1000
1000
1002
1002
1004
1006
1006
1007
1002
1003
1006
1004
1007
1007
1001
999
997
1001
1004
1002
1002
996
993
994
996
995
992
989
985
986
990
992
990
987
986
985
990
993
992
990
990
990
994
994
995
991
989
993
998
995
996
994
993
998
1003
1003
1004
1008
1015
1024
1034
1044
1064
1086
1111
1137
1164
1193
1214
1234
1262
1286
1295
1283
1246
1198
1150
1106
1071
1040
1017
1002
996
1000
1006
1004
1002
1000
993
992
992
994
992
988
986
988
987
989
987
984
982
986
986
989
990
987
986
987
989
994
990
988
986
988
994
991
994
988
992
994
999
997
996
993
993
997
1001
1003
1004
1004
1004
1005
1010
1012
1014
1012
1012
1018
1023
1024
1023
1024
1023
1026
1031
1038
1039
1038
1041
1046
1052
1055
1057
1058
1061
1065
1071
1077
1079
1080
1081
1086
1089
1094
1095
1094
1092
1093
1087
1082
1078
1068
1068
1066
1063
1060
1053
1049
1042
1038
1036
1033
1026
1020
1015
1010
1010
1009
1006
997
1000
998
994
997
992
992
989
986
985
987
986
986
982
984
986
984
987
986
984
985
988
987
986
984
986
987
990
991
987
990
986
991
991
995
995
993
991
995
1003
1009
1014
1016
1030
1049
1073
1104
1130
1151
1178
1211
1246
1268
1279
1281
1266
1244
1210
1162
1110
1066
1041
1026
1018
1012
1004
1001
996
998
994
990
988
982
983
984
985
984
982
975
974
976
977
980
980
972
975
974
977
980
978
974
976
978
981
983
978
979
980
981
985
987
987
984
983
987
991
993
992
990
991
994
1001
1000
1001
996
998
1002
1005
1008
1008
1008
1009
1013
1016
1017
1017
1017
1019
1023
1025
1027
1027
1026
1023
1030
1036
1034
1036
1038
1037
1041
1045
1044
1043
1038
1037
1032
1033
1029
1023
1016
1013
1011
1011
1010
1009
1002
996
996
994
994
994
987
983
984
985
989
985
982
981
981
985
984
985
981
979
980
983
988
985
982
982
983
985
985
981
981
978
980
983
981
979
977
975
977
980
983
978
973
968
975
975
976
976
969
968
971
973
975
972
965
965
966
969
970
965
963
963
967
966
967
966
962
962
964
966
966
964
962
959
961
960
963
960
960
962
964
964
965
960
960
961
963
963
961
963
959
958
960
962
961
960
958
957
961
961
962
959
958
959
959
960
960
958
958
956
959
960
960
961
957
955
956
958
960
960
958
955
955
958
960
959
952
952
954
956
959
955
954
952
952
956
960
955
951
952
954
958
962
958
954
951
953
955
956
956
953
950
954
959
957
955
949
951
951
956
956
954
950
951
953
956
959
952
953
949
954
958
957
956
954
954
956
957
958
954
950
951
952
955
955
955
955
951
952
953
956
957
954
953
953
952
958
958
953
953
953
954
958
957
955
952
952
955
957
956
955
953
951
955
956
954
955
953
953
955
959
958
956
955
955
959
960
961
957
954
957
959
963
962
959
959
953
956
961
960
957
955
955
960
960
958
953
951
953
960
956
959
957
955
956
962
962
958
955
952
957
964
967
967
965
965
964
966
966
965
966
969
975
981
987
984
980
976
981
987
990
989
983
981
989
992
993
987
983
983
984
990
991
990
982
980
985
989
988
983
978
977
980
986
984
983
978
975
977
981
979
978
974
974
975
977
979
977
973
974
979
981
981
979
974
976
981
988
991
993
998
1004
1013
1023
1036
1055
1072
1096
1122
1154
1178
1197
1216
1242
1269
1279
1262
1230
1189
1147
1106
1070
1040
1013
996
988
992
993
989
985
983
982
983
982
981
976
971
973
972
971
972
969
965
966
972
975
975
970
967
970
973
976
977
973
973
974
973
973
974
974
974
977
978
979
980
981
977
977
976
981
982
980
981
980
984
988
989
993
991
992
994
995
996
998
999
999
1001
1003
1003
1005
1003
1004
1007
1009
1016
1019
1018
1020
1021
1023
1023
1025
1028
1026
1027
1031
1032
1033
1033
1030
1031
1036
1039
1037
1034
1032
1032
1032
1033
1030
1026
1021
1017
1018
1020
1013
1009
1002
997
998
998
996
988
985
981
984
983
982
977
974
974
979
980
978
973
967
972
975
978
975
972
971
972
977
980
980
974
972
975
980
981
982
977
977
978
980
985
983
980
975
978
983
985
987
983
983
984
990
990
987
984
983
984
987
985
982
977
974
975
975
976
972
971
966
967
973
970
971
967
967
971
972
971
970
965
958
963
968
967
963
961
959
957
959
960
959
956
954
957
959
962
958
953
951
956
959
960
956
951
948
952
955
955
953
951
952
950
955
955
954
952
950
949
953
955
954
952
950
954
958
955
954
952
950
952
957
957
955
953
951
952
959
958
958
951
952
955
958
960
959
957
955
959
960
963
963
958
955
957
964
968
970
962
959
962
965
969
968
966
961
963
967
969
969
963
959
962
964
967
965
961
960
960
965
967
964
962
959
958
963
965
964
962
964
964
968
968
967
965
965
965
970
970
971
966
968
972
976
977
977
980
980
983
989
990
986
991
993
996
996
997
997
996
997
1000
1003
999
997
993
993
996
998
999
995
994
988
992
996
993
992
989
989
988
987
988
986
982
987
990
990
989
983
981
983
987
993
990
990
986
986
986
988
988
986
984
986
986
991
992
989
987
987
988
998
1003
1004
1007
1010
1023
1037
1056
1075
1094
1116
1143
1171
1194
1217
1237
1263
1285
1289
1269
1233
1190
1139
1099
1065
1035
1007
985
976
977
982
984
984
977
977
975
976
975
970
965
966
965
970
973
970
965
965
967
970
973
971
968
967
965
970
973
974
968
968
967
973
975
977
976
972
973
975
979
978
979
980
977
981
982
982
979
984
984
989
992
993
991
987
986
996
998
999
997
998
999
1004
1006
1009
1009
1010
1010
1014
1016
1020
1019
1020
1021
1022
1028
1030
1027
1027
1030
1033
1033
1037
1035
1032
1039
1040
1041
1039
1035
1033
1035
1037
1036
1033
1026
1023
1021
1021
1015
1014
1007
1000
1001
999
1002
998
991
987
985
986
988
985
981
978
978
980
981
978
977
974
975
976
978
977
972
971
972
974
979
978
974
972
971
975
976
977
976
974
974
978
980
981
980
980
979
982
983
985
982
980
981
981
981
982
978
978
979
980
983
983
980
978
979
978
980
979
973
973
970
977
978
975
975
973
975
974
977
974
974
970
970
972
973
973
968
967
968
968
970
968
967
965
965
969
969
968
968
962
965
964
968
966
967
966
963
963
967
966
962
963
964
967
967
966
965
964
967
969
968
968
965
963
968
972
971
971
968
968
966
971
973
969
969
971
975
978
979
977
973
973
973
973
973
970
966
963
964
967
963
957
955
954
958
963
964
960
959
962
966
971
974
971
966
966
966
973
975
975
970
967
966
969
969
967
964
967
968
973
976
977
973
970
972
975
978
978
974
972
971
978
979
980
972
972
974
976
979
981
978
975
977
985
990
986
984
982
986
991
994
996
991
991
993
995
998
997
997
994
994
999
1003
1002
998
996
990
994
993
995
992
988
989
987
988
986
983
981
982
982
980
977
975
973
973
973
974
975
970
973
975
976
975
974
976
976
975
977
978
974
978
977
978
979
983
981
980
982
984
985
983
984
984
991
1000
1008
1013
1017
1026
1044
1070
1096
1121
1145
1166
1192
1219
1244
1274
1293
1294
1275
1245
1206
1162
1115
1073
1035
1013
996
985
982
978
981
986
989
986
981
970
969
972
976
975
972
969
963
967
972
972
971
966
963
965
968
970
970
966
963
961
966
969
966
