936
937
935
933
933
934
935
936
933
930
925
929
934
935
935
931
933
935
936
941
942
940
938
936
939
941
938
939
936
939
942
943
941
939
937
934
940
945
946
943
940
941
934
936
936
936
934
935
930
934
934
936
934
934
934
935
935
934
933
931
935
935
936
934
935
938
939
940
938
936
935
937
939
941
938
936
938
940
940
944
945
945
947
951
954
954
956
953
953
957
963
965
963
959
956
961
962
963
965
961
959
959
960
961
958
950
946
951
953
956
956
953
954
956
957
956
953
946
942
939
938
936
936
932
932
931
934
935
931
930
933
937
943
947
943
940
936
934
938
938
941
934
930
931
934
945
957
977
1002
1039
1085
1135
1176
1199
1194
1161
1114
1054
978
899
845
828
837
850
862
874
894
909
918
926
923
928
929
934
934
935
937
937
941
943
945
946
949
946
943
942
942
945
945
947
946
950
952
957
960
956
952
955
958
962
962
959
958
965
970
969
969
967
966
968
973
977
979
980
980
988
993
996
996
998
1000
1002
1006
1008
1008
1007
1008
1010
1014
1018
1019
1019
1018
1018
1027
1033
1029
1027
1026
1029
1027
1028
1026
1021
1017
1020
1024
1023
1021
1015
1015
1014
1012
1011
1008
1000
999
997
999
1000
998
993
989
988
986
987
983
980
981
980
979
982
981
979
977
977
975
976
972
971
973
976
981
985
984
982
984
986
988
986
987
988
988
990
992
997
994
994
991
994
997
999
1002
996
988
986
996
997
995
993
993
995
1000
1003
1003
1003
1003
1003
1004
1004
1003
1000
1002
1005
1007
1009
1010
1005
1005
1003
1007
1009
1005
1003
999
1001
1006
1009
1011
1011
1006
1006
1007
1008
1003
997
994
997
1001
1002
1001
1002
1000
995
994
991
988
989
988
983
988
990
995
994
990
988
987
987
983
982
976
979
983
989
990
986
985
985
986
985
984
980
981
987
985
984
979
976
982
999
1022
1054
1094
1138
1184
1224
1245
1235
1190
1130
1060
982
909
875
879
889
899
913
932
951
964
968
969
974
982
990
995
995
994
993
991
996
997
994
991
984
988
991
992
991
994
994
999
1004
1001
999
992
995
1005
1009
1007
1005
1006
1007
1008
1008
1004
1006
1003
1005
1012
1017
1021
1021
1020
1020
1024
1027
1032
1031
1030
1030
1037
1045
1047
1042
1042
1044
1048
1051
1047
1042
1044
1051
1056
1058
1056
1051
1051
1050
1054
1057
1057
1055
1051
1048
1048
1048
1045
1042
1039
1039
1039
1036
1031
1023
1019
1016
1016
1013
1008
1002
1001
998
1000
1002
999
996
994
994
995
996
996
995
993
994
993
991
989
983
986
987
987
989
989
989
987
986
989
994
992
992
989
988
991
991
988
985
984
984
984
986
988
988
984
989
992
989
989
988
987
988
988
989
986
984
984
981
983
986
986
986
988
994
998
1000
996
991
990
993
995
996
995
991
987
990
994
994
996
997
995
992
992
992
990
992
986
988
987
989
988
986
978
974
976
984
987
982
976
976
975
975
972
970
975
978
976
974
975
972
972
971
969
969
970
971
970
966
967
967
967
964
963
961
956
955
959
969
990
1020
1057
1106
1158
1205
1236
1234
1198
1144
1065
973
890
853
858
872
884
896
912
928
950
959
961
961
963
962
964
969
968
966
966
969
973
971
968
968
969
972
975
981
978
978
974
975
980
980
976
974
975
980
980
979
982
982
982
986
987
992
991
991
988
992
994
997
1000
998
1003
1008
1017
1022
1021
1018
1019
1021
1026
1029
1029
1027
1025
1026
1030
1036
1040
1042
1041
1043
1048
1049
1045
1043
1041
1038
1039
1047
1046
1045
1040
1039
1037
1037
1031
1025
1020
1012
1010
1009
1004
1001
992
991
989
986
981
980
980
975
973
974
968
969
970
969
971
974
973
967
962
960
962
969
971
969
970
971
973
974
973
969
966
966
972
974
973
970
966
967
971
971
972
966
963
963
967
970
971
971
966
967
966
965
966
964
965
965
964
968
972
973
972
967
963
962
966
975
995
1023
1066
1113
1167
1212
1243
1240
1201
1136
1065
980
901
855
857
882
907
927
946
956
965
969
969
969
968
969
974
973
971
971
967
966
967
971
969
967
968
966
967
966
968
968
967
966
968
971
969
967
965
968
972
973
975
980
976
976
978
981
985
985
985
987
988
992
994
996
998
1001
1005
1009
1009
1009
1010
1011
1014
1017
1018
1018
1018
1016
1020
1023
1023
1020
1017
1019
1021
1023
1021
1016
1013
1012
1012
1014
1010
1005
1003
1001
998
994
989
984
977
973
976
977
975
970
968
963
966
964
963
961
959
959
958
959
960
958
956
954
957
960
959
955
950
951
954
957
955
956
957
956
957
960
958
957
954
955
958
960
958
954
951
951
956
955
952
950
952
950
953
954
950
949
943
945
949
949
948
945
944
946
948
952
950
946
944
941
943
942
944
944
942
943
946
949
945
945
943
943
941
947
946
942
943
946
951
952
951
948
947
948
953
959
966
968
965
962
966
967
970
973
969
967
968
970
970
965
966
965
964
965
963
958
955
952
955
958
958
956
957
954
958
962
960
957
954
951
949
950
949
947
944
945
949
949
947
945
943
940
944
945
948
947
944
945
947
952
950
941
933
926
929
940
954
977
1007
1044
1094
1148
1197
1230
1240
1209
1146
1073
980
884
830
824
846
873
896
912
924
928
932
937
937
938
935
935
939
941
940
937
937
937
941
941
939
937
935
935
936
941
940
942
940
940
943
943
944
945
945
943
947
949
952
952
952
954
957
958
956
959
960
958
965
969
967
970
971
972
978
983
983
986
987
990
995
999
1000
998
998
999
1003
1005
1002
1004
1006
1008
1010
1015
1016
1013
1013
1013
1016
1015
1014
1011
1009
1008
1009
1013
1005
998
994
993
992
991
986
980
976
976
975
974
971
968
964
964
962
966
962
955
953
958
959
961
959
957
956
954
959
959
958
957
956
955
958
963
959
954
953
950
952
956
956
957
956
958
960
959
956
955
952
950
952
953
954
954
951
955
956
959
960
959
955
953
955
957
958
955
955
957
961
965
962
960
960
963
965
969
969
968
966
966
971
974
972
973
970
967
968
969
970
968
963
962
967
969
967
965
962
958
957
960
960
959
954
954
956
962
960
958
953
947
946
944
943
942
942
947
948
948
944
946
943
940
941
942
944
943
943
942
945
945
948
944
941
933
930
930
933
941
957
982
1019
1062
1113
1165
1203
1216
1190
1130
1049
956
865
819
823
848
875
899
912
924
931
939
941
940
940
935
939
943
937
938
938
937
938
942
941
939
934
936
941
944
945
945
942
944
946
950
951
950
950
952
957
959
960
963
963
961
965
970
973
973
974
976
979
984
985
983
984
986
991
996
999
995
995
997
1000
1004
1002
1003
1002
1002
1007
1012
1011
1008
1006
1005
1005
1008
1007
1004
1001
999
1001
1002
998
997
991
989
986
987
982
979
973
970
969
968
967
962
959
959
961
962
959
956
954
950
955
958
954
951
947
948
952
954
953
948
945
950
953
954
952
948
948
947
951
954
952
947
950
948
951
954
955
953
951
948
953
957
956
951
952
947
949
951
953
951
950
946
950
952
952
952
951
954
957
958
956
958
959
959
965
970
966
962
960
957
959
960
960
958
957
957
965
966
963
954
951
951
953
956
953
954
950
950
953
952
949
943
936
933
933
935
935
934
934
935
938
940
941
940
940
938
937
940
939
936
935
935
938
938
933
926
921
920
929
942
964
992
1035
1082
1139
1182
1197
1173
1123
1055
972
887
826
815
829
847
870
892
907
917
918
918
924
928
927
923
924
923
924
930
927
922
924
926
928
932
933
932
931
932
935
937
937
936
937
936
938
943
947
944
945
944
947
950
954
953
952
955
958
965
965
967
966
966
969
974
978
978
977
975
977
983
987
983
984
983
987
992
994
997
995
995
998
999
999
997
992
986
987
991
989
985
981
979
977
975
972
964
958
953
953
955
951
946
940
934
932
936
935
931
930
928
928
930
930
925
926
927
929
931
931
928
928
925
927
930
927
932
930
932
934
935
933
928
925
923
927
928
928
926
925
923
925
929
925
923
924
931
934
939
935
931
928
928
929
927
928
923
919
919
924
931
930
930
931
936
940
943
943
942
943
943
944
944
942
937
936
936
939
940
935
926
923
925
928
921
919
917
915
915
921
931
933
935
932
927
921
918
915
917
915
916
918
914
912
910
913
911
912
916
919
921
923
923
922
919
916
915
910
907
911
918
930
957
994
1051
1111
1167
1191
1170
1122
1051
960
869
819
816
828
842
861
884
898
901
904
901
906
913
919
922
916
910
909
913
920
920
917
915
917
919
918
917
920
919
924
927
927
928
929
933
936
940
942
941
940
939
942
943
946
944
945
952
958
961
960
959
963
965
972
977
979
977
981
985
992
995
996
994
993
994
996
1002
1000
997
1001
1002
1002
1003
1000
999
999
999
999
999
997
994
991
992
990
989
983
977
973
967
969
969
964
958
956
958
959
963
961
961
958
953
958
961
960
959
956
952
952
950
949
949
947
947
947
949
952
952
950
951
956
957
956
953
953
958
959
958
957
953
955
955
956
958
959
958
957
954
954
954
956
958
957
960
963
967
968
966
968
967
969
969
968
969
969
971
969
972
970
973
973
973
973
975
975
969
968
966
973
974
975
970
969
969
970
970
966
964
959
954
956
958
957
954
951
953
955
957
953
950
955
953
956
957
957
955
955
957
959
961
956
949
945
949
958
978
1006
1037
1080
1133
1188
1233
1249
1226
1171
1095
1007
918
856
838
856
874
899
923
936
944
949
954
961
961
962
962
963
962
963
963
966
963
960
961
964
969
971
970
970
969
973
977
978
975
972
972
979
983
983
980
980
982
985
989
990
987
992
994
1000
1003
1005
1003
1003
1006
1008
1013
1014
1020
1021
1027
1027
1032
1036
1034
1035
1033
1037
1039
1045
1044
1039
1044
1046
1049
1050
1048
1047
1048
1051
1053
1052
1049
1047
1045
1048
1046
1045
1043
1038
1032
1028
1028
1025
1020
1013
1009
1009
1012
1010
1007
1006
1000
1001
998
998
997
993
994
995
995
995
995
995
994
996
996
996
993
993
993
994
995
996
994
994
992
994
996
995
992
989
991
990
993
992
993
995
996
997
997
994
991
992
994
997
1001
1002
998
995
993
994
998
996
995
997
998
1004
1003
1005
1005
1007
1008
1011
1013
1015
1016
1015
1016
1017
1018
1017
1014
1012
1014
1015
1018
1017
1011
1011
1011
1011
1010
1007
1001
998
1001
1004
1005
1004
1005
1003
1000
1002
1000
1002
994
992
988
991
992
990
985
985
987
990
990
992
991
992
994
993
996
995
991
991
990
990
993
990
983
976
971
974
985
998
1024
1053
1092
1138
1185
1238
1271
1283
1258
1206
1145
1065
975
896
866
876
898
923
943
957
970
980
986
990
989
986
986
989
992
995
991
992
990
993
994
995
990
988
991
993
992
995
998
998
997
996
997
997
997
1001
1001
1004
1005
1004
1004
1003
1007
1009
1010
1011
1012
1013
1012
1015
1019
1018
1021
1021
1026
1030
1032
1032
1033
1033
1036
1044
1049
1050
1048
1048
1049
1052
1054
1056
1053
1050
1053
1056
1061
1063
1062
1060
1055
1056
1058
1055
1054
1049
1046
1044
1043
1038
1035
1031
1028
1026
1025
1022
1015
1010
1009
1012
1013
1013
1010
1008
1004
1007
1009
1007
1007
1002
996
998
1001
1001
998
993
995
997
1000
1001
998
997
995
994
997
994
997
995
994
997
997
993
992
992
993
994
995
992
990
991
989
993
997
997
995
996
994
996
999
999
997
994
993
996
997
998
995
993
993
992
996
998
998
1000
1000
1007
1008
1012
1014
1011
1010
1009
1012
1014
1017
1018
1019
1020
1018
1016
1011
1008
1013
1012
1009
1008
1009
1009
1006
1006
1006
1002
997
999
997
996
996
998
1003
1002
1002
1002
997
995
991
989
984
985
988
991
991
988
985
990
988
988
987
987
989
991
992
992
989
986
985
988
989
986
982
974
969
973
985
1003
1025
1056
1095
1140
1195
1236
1263
1256
1215
1152
1078
988
904
856
858
883
915
938
956
965
970
977
988
990
988
984
983
986
987
985
984
984
982
988
988
986
983
981
979
978
985
983
987
986
986
990
996
997
998
996
997
995
999
1001
998
999
999
1001
1005
1007
1010
1010
1007
1008
1014
1017
1020
1021
1021
1024
1027
1031
1031
1029
1032
1039
1042
1043
1045
1044
1044
1044
1048
1042
1044
1050
1049
1056
1056
1054
1049
1047
1047
1047
1049
1045
1041
1038
1032
1030
1031
1028
1019
1015
1011
1011
1010
1005
1001
999
994
992
996
993
988
984
982
988
989
989
985
982
982
986
986
987
986
984
986
987
989
987
986
986
988
987
990
987
984
984
985
987
987
989
985
986
982
981
985
985
983
983
982
982
986
987
986
983
981
985
991
990
988
984
984
989
988
987
988
990
994
996
998
1001
995
994
995
1000
1005
1004
1003
996
994
1000
1002
1001
999
997
995
995
994
992
989
986
986
986
986
989
988
986
983
986
991
991
989
982
981
982
982
981
977
975
972
975
977
979
977
975
971
971
974
973
970
969
971
974
977
976
973
970
964
962
959
959
961
970
990
1017
1059
1110
1159
1203
1229
1230
1198
1140
1075
997
915
858
848
869
891
911
932
952
961
967
965
967
970
972
973
973
974
971
973
975
976
974
970
971
973
975
977
975
976
973
975
977
981
978
977
977
979
978
979
980
982
983
987
990
992
993
991
993
993
997
1000
1001
1002
1004
1008
1014
1018
1021
1019
1020
1022
1023
1025
1030
1031
1029
1031
1032
1038
1038
1037
1035
1036
1038
1041
1041
1038
1036
1034
1036
1036
1038
1036
1033
1030
1030
1031
1029
1024
1021
1020
1018
1017
1013
1006
1005
1002
1001
999
998
995
993
989
989
991
989
984
983
983
985
988
984
982
978
977
978
979
982
981
980
977
979
979
981
978
976
977
978
978
978
973
971
972
974
974
973
974
974
973
973
973
971
972
969
976
980
982
985
982
979
976
982
980
982
978
976
977
978
981
978
980
979
980
982
987
992
990
985
982
981
986
989
987
985
986
987
988
985
985
984
985
988
985
988
987
978
974
976
980
981
978
976
977
980
983
982
974
973
969
967
967
966
962
960
960
963
966
967
966
964
961
965
968
963
962
960
960
964
968
965
962
955
951
949
952
955
962
976
1001
1035
1081
1130
1178
1211
1212
1181
1132
1072
994
904
844
836
858
883
901
919
933
943
950
951
954
956
957
960
961
963
963
962
962
961
961
962
962
959
959
955
958
960
967
966
969
974
976
977
977
979
977
983
987
985
985
981
982
984
991
997
997
997
997
999
1000
1001
1005
1009
1010
1011
1013
1018
1017
1017
1018
1020
1026
1030
1030
1030
1030
1029
1031
1029
1032
1031
1033
1035
1035
1031
1028
1026
1021
1019
1019
1016
1011
1007
1005
1003
998
995
990
986
983
980
978
977
973
972
971
973
971
969
971
971
973
975
976
974
970
968
969
968
974
976
975
969
970
970
974
975
976
974
975
977
977
976
977
975
976
977
974
976
976
977
974
976
978
979
979
978
976
975
980
976
975
975
977
978
986
988
989
988
988
992
991
990
990
990
989
989
992
991
991
987
985
990
993
991
986
981
979
980
980
981
979
977
975
979
983
987
985
980
977
974
978
976
972
967
966
966
965
966
966
965
963
969
970
972
968
965
963
967
966
964
963
962
965
965
961
953
946
942
941
954
975
1002
1040
1085
1135
1182
1211
1209
1174
1122
1058
983
902
859
852
862
872
889
910
930
942
943
941
945
954
956
957
956
956
957
958
956
955
955
954
957
961
965
962
960
962
965
970
970
971
969
970
974
981
979
979
980
979
984
986
987
986
983
987
989
994
998
1000
998
1003
1006
1010
1014
1011
1011
1013
1017
1021
1021
1021
1021
1022
1024
1027
1027
1027
1026
1029
1033
1033
1033
1035
1030
1033
1033
1036
1035
1032
1027
1022
1023
1018
1016
1008
1008
1005
1005
1004
1000
996
987
987
986
983
984
980
977
973
976
977
977
977
974
974
975
976
975
971
971
970
973
976
973
968
968
970
973
973
972
972
971
969
972
971
972
970
965
967
971
972
973
972
969
966
971
972
972
968
966
971
971
972
974
971
970
971
973
977
982
983
981
979
978
978
977
976
975
975
977
979
979
980
978
976
974
978
979
974
969
965
966
969
970
968
968
970
969
971
971
969
965
961
958
959
957
958
954
952
952
954
955
952
950
953
955
958
953
952
949
951
949
952
950
945
940
936
938
945
962
988
1020
1056
1104
1159
1203
1225
1210
1165
1099
1021
931
854
823
833
855
880
902
919
930
938
943
948
951
952
952
948
947
949
952
952
950
949
956
957
959
955
952
955
959
960
961
959
958
960
964
968
968
969
970
971
973
974
973
973
973
972
976
979
981
981
983
981
984
993
998
1002
999
1003
1009
1010
1012
1014
1012
1015
1016
1016
1022
1019
1019
1019
1019
1023
1026
1023
1020
1018
1018
1020
1022
1020
1015
1011
1012
1011
1012
1006
997
995
993
991
989
986
981
977
978
978
977
971
968
966
968
969
968
965
962
963
963
963
964
961
957
958
959
964
964
963
961
960
960
960
960
961
957
956
958
958
960
958
958
956
958
958
961
959
955
953
952
957
956
957
956
956
960
958
960
957
954
953
952
956
955
953
955
955
962
968
970
965
961
959
968
973
972
971
968
966
963
966
966
963
959
960
962
964
964
960
954
954
953
963
961
962
960
959
958
955
956
950
946
941
940
943
944
941
937
936
937
941
941
939
938
936
936
939
939
936
934
936
935
935
931
925
923
928
941
965
998
1037
1083
1133
