995
992
987
986
984
986
988
988
983
981
978
982
986
984
983
980
980
982
983
985
982
982
983
987
990
988
983
980
982
982
987
988
985
983
986
988
989
987
986
985
987
987
990
988
987
985
991
996
1000
998
997
997
996
1001
1004
1004
1002
997
997
999
1002
1001
1000
998
996
995
996
992
991
988
988
987
991
991
988
989
990
990
988
986
978
972
973
972
975
973
972
968
970
971
975
975
974
973
972
976
977
977
974
974
973
972
970
967
956
954
960
974
999
1034
1074
1123
1176
1223
1248
1240
1192
1126
1045
954
881
849
859
878
901
922
941
953
956
958
962
968
972
975
973
972
973
974
978
977
974
975
972
973
974
977
979
978
977
983
985
986
987
985
986
986
990
990
991
989
993
994
996
997
1000
998
999
1003
1008
1010
1008
1005
1009
1014
1018
1019
1018
1020
1022
1029
1031
1034
1034
1033
1035
1038
1040
1039
1041
1039
1040
1042
1045
1045
1044
1040
1041
1044
1044
1044
1042
1037
1036
1035
1033
1033
1028
1021
1020
1016
1016
1015
1010
1008
1006
1005
1003
1003
999
995
997
997
1001
997
998
995
992
992
996
996
998
1000
1005
1009
1010
1010
1004
1000
1001
1004
1011
1012
1012
1011
1009
1009
1009
1012
1008
1008
1007
1004
1009
1014
1007
1005
1003
1001
1002
999
996
993
992
993
993
992
992
988
986
988
991
992
986
983
985
987
991
992
985
985
982
987
988
989
981
977
969
967
969
977
992
1018
1055
1107
1160
1213
1244
1242
1200
1131
1050
956
884
863
880
910
933
951
962
965
971
976
983
983
977
977
980
980
984
984
983
983
980
984
986
987
985
985
988
990
993
991
986
986
987
990
994
995
993
992
995
999
1002
1003
1002
1001
1005
1007
1013
1018
1018
1021
1023
1030
1029
1031
1032
1033
1034
1038
1039
1041
1037
1035
1036
1041
1043
1041
1038
1035
1033
1037
1034
1031
1027
1025
1021
1020
1018
1016
1011
1005
1005
1005
1006
1000
997
993
994
996
996
994
992
989
992
992
996
993
989
986
987
990
990
986
985
985
985
987
990
988
987
984
984
986
989
988
985
986
989
990
993
994
992
989
989
993
996
995
992
990
988
987
990
991
987
985
984
987
986
990
985
985
985
986
988
987
986
985
985
988
990
988
986
987
986
986
989
988
984
982
985
986
989
988
983
985
984
988
995
995
996
999
998
999
1001
1002
1002
999
1000
998
1001
1002
1002
999
1002
1001
998
996
995
993
992
993
992
990
989
988
991
995
999
999
994
992
986
989
988
984
981
977
981
981
984
984
982
982
979
982
987
986
984
982
979
980
984
981
976
970
968
970
978
987
1007
1034
1067
1112
1163
1211
1242
1247
1217
1158
1088
1000
908
860
856
885
910
930
946
956
959
966
970
972
972
971
974
977
978
977
974
972
970
974
976
977
976
975
978
979
981
981
981
981
982
985
985
986
983
987
988
988
991
993
993
992
991
996
999
999
999
998
1004
1009
1010
1012
1010
1010
1013
1019
1023
1022
1022
1021
1024
1027
1029
1028
1028
1030
1033
1039
1040
1040
1037
1038
1044
1044
1049
1047
1046
1041
1040
1046
1048
1046
1039
1038
1037
1035
1037
1034
1028
1021
1021
1019
1017
1012
1006
1004
1001
1004
1001
1000
997
993
992
995
997
996
994
990
987
992
997
998
997
992
993
994
994
996
995
995
994
996
997
996
995
992
994
994
997
1001
998
996
996
994
996
997
992
991
991
991
996
996
996
995
993
993
994
996
996
995
992
996
999
1003
1003
1002
1001
1002
1005
1007
1007
1005
1005
1005
1003
1003
1000
1000
1003
1005
1001
1002
999
993
990
991
988
987
987
988
988
989
991
993
990
987
987
986
983
979
975
973
970
973
977
976
969
971
972
975
979
976
976
974
975
977
978
978
977
974
974
973
972
966
958
955
961
975
995
1024
1056
1099
1152
1200
1228
1227
1195
1143
1080
1004
927
869
852
864
886
906
927
941
948
952
957
964
968
970
969
968
969
971
972
974
972
969
971
974
975
973
973
972
974
975
977
977
975
973
974
977
979
979
977
981
981
986
988
990
988
989
989
992
995
995
994
997
997
1003
1006
1006
1004
1005
1007
1014
1017
1017
1014
1018
1017
1020
1027
1027
1026
1025
1025
1029
1031
1033
1030
1027
1024
1029
1028
1031
1028
1026
1027
1030
1030
1031
1029
1023
1021
1022
1024
1023
1015
1012
1011
1010
1011
1008
1004
1002
994
995
993
993
988
983
981
984
983
984
983
979
981
980
981
980
979
979
976
974
977
978
976
976
974
976
976
976
976
977
979
981
982
979
976
976
977
982
984
981
978
977
978
980
981
982
980
977
978
981
984
983
980
975
975
979
983
983
980
981
984
987
994
997
993
993
991
992
994
997
995
992
989
992
997
997
992
989
988
993
992
990
987
982
979
980
985
985
982
980
984
988
991
989
986
983
980
975
972
970
967
964
962
966
970
970
970
968
966
969
967
969
970
970
972
974
971
970
965
965
965
967
964
958
952
952
961
984
1012
1051
1097
1147
1190
1223
1231
1209
1169
1115
1050
977
907
866
858
863
871
883
902
922
937
945
949
954
959
962
965
965
966
969
971
969
969
969
968
969
968
966
967
965
966
967
972
978
975
978
979
980
982
980
978
979
981
985
991
990
990
991
994
996
995
991
991
992
991
997
1000
1002
1001
1003
1006
1010
1013
1014
1014
1016
1020
1023
1029
1030
1025
1027
1027
1031
1034
1037
1035
1034
1032
1038
1041
1043
1040
1039
1039
1041
1045
1046
1042
1036
1031
1031
1029
1023
1022
1022
1022
1027
1024
1020
1011
1003
999
1000
1001
1000
996
994
992
994
995
995
991
989
988
985
986
985
981
980
982
984
986
988
989
985
984
983
983
988
988
987
989
990
993
995
994
990
987
989
993
989
987
983
985
987
991
994
998
1000
997
996
993
989
984
985
988
992
999
1000
1002
1000
999
1000
1003
1006
1006
1008
1004
1006
1005
1007
1000
999
998
1000
997
993
995
998
994
993
988
985
987
987
991
993
993
987
983
979
980
981
982
981
980
981
978
974
976
980
979
981
976
975
975
975
978
973
970
969
968
969
967
970
979
979
975
969
965
963
962
963
974
993
1022
1058
1100
1148
1197
1231
1242
1220
1180
1123
1042
954
884
865
869
879
894
918
940
953
959
956
960
966
970
968
966
965
965
966
965
968
967
970
972
969
967
971
975
970
966
971
976
981
978
978
979
979
982
984
985
983
982
987
988
986
987
988
996
996
993
988
990
997
1004
1003
1006
1003
1006
1009
1013
1015
1013
1015
1018
1020
1024
1023
1021
1019
1020
1024
1028
1031
1027
1024
1028
1029
1033
1028
1028
1022
1022
1025
1027
1025
1020
1016
1013
1011
1012
1010
1002
999
993
992
990
991
989
986
985
984
980
979
976
972
969
970
973
977
975
973
969
971
973
970
970
968
967
971
973
969
962
958
958
957
956
948
936
930
937
943
947
945
946
959
974
983
985
987
989
990
992
990
992
991
992
993
994
993
997
997
1002
1000
1000
1004
1007
1009
1007
1006
1007
1011
1016
1018
1015
1011
1010
1015
1018
1020
1017
1014
1013
1013
1010
1006
1000
1000
998
1002
1009
1007
1006
1008
1005
1004
1003
1003
1004
1002
998
999
1002
1001
1001
1001
1001
1005
1006
1005
1004
1000
1004
1009
1008
1008
1009
1006
1009
1010
1011
1008
1002
994
991
997
1011
1030
1060
1102
1152
1205
1251
1282
1278
1241
1178
1096
1011
930
892
900
920
942
963
979
989
992
1000
1009
1012
1013
1009
1006
1002
1004
1006
1008
1005
1005
1003
1005
1008
1009
1008
1011
1016
1018
1021
1017
1016
1019
1021
1024
1027
1024
1025
1025
1029
1032
1034
1033
1032
1036
1035
1039
1042
1042
1039
1042
1044
1050
1053
1054
1050
1051
1054
1058
1063
1064
1066
1064
1067
1068
1071
1070
1069
1069
1073
1073
1075
1075
1073
1070
1070
1073
1071
1069
1067
1065
1063
1064
1065
1061
1054
1052
1048
1048
1048
1045
1041
1035
1031
1031
1033
1030
1027
1021
1024
1028
1028
1028
1025
1023
1023
1027
1029
1028
1026
1024
1024
1023
1023
1024
1025
1022
1024
1026
1027
1026
1022
1022
1020
1021
1023
1023
1026
1025
1022
1021
1024
1024
1023
1024
1021
1019
1022
1021
1021
1022
1021
1022
1020
1023
1027
1026
1025
1025
1030
1033
1029
1024
1025
1031
1034
1033
1030
1026
1023
1023
1028
1029
1024
1022
1022
1024
1026
1023
1020
1015
1015
1020
1020
1020
1019
1016
1017
1017
1019
1013
1008
999
998
1000
1004
1004
1001
998
999
1000
1000
998
998
998
996
996
999
1002
1002
998
998
998
997
989
984
984
993
1013
1040
1073
1114
1159
1213
1265
1286
1258
1189
1109
1019
933
885
880
903
932
953
968
979
985
987
990
989
990
995
994
991
988
988
991
994
991
986
988
988
989
992
994
994
993
992
996
998
998
998
1000
1001
1001
1006
1005
1004
996
998
1004
1004
1004
1006
1007
1008
1011
1018
1018
1019
1018
1017
1021
1025
1026
1023
1026
1027
1029
1034
1035
1033
1037
1034
1037
1038
1038
1037
1036
1034
1040
1043
1045
1044
1044
1041
1042
1045
1045
1043
1041
1036
1035
1036
1033
1030
1023
1018
1016
1019
1018
1014
1012
1007
1008
1008
1004
997
993
991
993
995
992
990
989
989
987
986
985
985
987
985
986
985
983
984
983
984
986
988
987
987
984
984
988
990
990
986
984
982
981
986
988
984
986
982
986
989
989
987
983
986
990
989
986
982
980
985
986
988
992
993
993
993
994
996
996
997
998
996
999
1001
999
996
995
993
993
1001
1000
995
988
985
987
988
987
987
985
985
986
989
987
983
978
977
972
970
966
966
964
965
967
968
969
969
968
967
966
968
969
966
967
968
969
972
968
966
962
954
953
957
968
984
1011
1042
1091
1142
1191
1225
1234
1206
1154
1088
1002
911
846
831
858
889
912
931
943
948
958
965
962
964
962
964
964
965
967
966
966
965
967
969
969
970
970
970
972
976
970
968
966
971
972
974
978
977
976
976
982
983
984
981
984
987
989
991
995
996
995
996
1000
1004
1008
1008
1010
1012
1017
1018
1017
1020
1021
1021
1025
1027
1029
1026
1025
1025
1027
1030
1029
1030
1030
1031
1034
1034
1032
1031
1027
1027
1028
1028
1026
1023
1019
1013
1012
1009
1006
1002
998
996
997
996
992
989
983
981
984
986
985
983
978
978
979
983
986
982
981
980
982
986
986
985
983
982
984
985
985
984
982
981
982
984
982
979
978
980
981
983
984
982
980
981
982
985
983
981
978
978
983
984
979
979
979
982
987
992
991
990
991
989
992
997
1000
999
998
997
998
1000
999
997
991
994
995
993
992
984
988
985
985
986
982
980
979
978
986
988
984
981
976
973
969
969
971
970
969
969
972
973
972
971
972
970
970
969
971
966
964
960
963
965
963
961
958
951
946
949
954
964
987
1017
1059
1108
1158
1200
1223
1217
1183
1127
1049
954
868
829
836
865
888
907
923
934
943
952
955
958
957
957
959
960
959
958
957
957
960
965
964
961
958
957
960
960
964
965
963
967
969
972
974
971
973
973
979
984
985
982
980
982
987
991
995
995
994
990
989
996
999
1002
1000
1001
999
1001
1006
1008
1014
1015
1023
1029
1027
1023
1019
1022
1024
1030
1028
1024
1025
1025
1028
1031
1028
1024
1024
1018
1023
1023
1021
1015
1014
1010
1010
1010
1008
1005
1003
999
998
995
988
986
982
982
987
982
979
977
976
974
978
978
976
975
971
972
976
978
977
975
974
974
977
980
979
975
971
969
973
975
978
974
972
971
972
977
976
972
969
965
971
976
974
974
972
970
976
978
980
980
984
985
987
989
992
989
988
983
988
986
987
987
987
983
980
980
981
979
974
973
973
973
972
972
972
974
976
974
970
966
961
955
954
957
955
956
956
961
962
961
958
959
958
959
960
961
958
954
950
951
953
955
956
953
947
941
937
947
957
977
1002
1048
1102
1159
1204
1221
1207
1160
1096
1018
927
857
836
846
863
886
907
923
928
934
943
952
954
951
946
944
951
956
957
951
945
947
951
955
953
951
952
949
954
958
958
957
961
962
966
971
967
967
968
969
975
977
974
973
976
979
981
984
987
988
987
988
994
994
996
994
995
999
1004
1009
1011
1011
1012
1013
1012
1016
1017
1017
1019
1022
1025
1025
1023
1014
1010
1008
1014
1017
1016
1016
1012
1011
1014
1013
1005
995
989
990
989
984
979
977
970
970
969
968
970
967
966
963
966
966
969
966
964
962
962
968
965
963
965
968
977
980
978
971
970
970
972
974
971
969
966
963
964
969
973
970
967
965
966
973
975
970
968
967
973
976
976
971
974
975
981
985
981
977
977
978
976
976
976
973
972
971
973
977
978
974
971
966
964
966
970
968
967
967
968
971
970
968
963
961
958
956
950
951
952
952
955
960
961
959
953
950
956
961
958
955
955
953
955
952
949
941
937
942
955
977
1008
1045
1089
1140
1190
1221
1219
1181
1122
1047
953
874
841
846
859
875
894
917
932
940
946
948
951
954
952
951
946
946
951
955
955
953
951
954
958
962
962
960
961
958
962
963
961
958
959
960
964
966
968
967
966
964
965
971
974
976
978
978
982
981
983
985
990
991
993
995
997
1000
1000
1004
1007
1016
1018
1015
1012
1008
1014
1017
1015
1014
1015
1016
1015
1019
1018
1017
1016
1013
1016
1015
1016
1012
1008
1009
1007
1009
1004
998
995
990
988
986
983
982
977
975
975
976
973
972
966
963
963
966
966
962
964
962
965
963
965
961
961
959
962
964
962
963
961
962
963
966
966
963
959
958
965
965
967
963
963
964
966
971
972
969
967
965
970
970
969
968
963
963
965
970
973
973
976
974
975
978
978
977
977
976
976
979
977
975
971
970
973
978
976
975
973
972
971
969
970
969
966
967
969
971
974
975
971
970
969
967
966
959
955
952
953
954
957
953
955
951
952
957
958
955
955
954
957
959
960
956
957
955
956
954
952
944
939
942
952
971
995
1026
1066
1114
1166
1216
1246
1251
1220
1163
1087
1003
914
851
837
848
872
890
906
921
933
937
951
955
954
953
951
951
955
957
954
952
951
950
955
956
958
954
957
957
959
960
960
957
957
957
962
965
963
963
964
964
967
970
971
969
969
971
974
975
974
975
975
973
978
985
987
987
988
989
993
996
997
995
999
1000
1003
1002
1006
1004
1007
1008
1011
1013
1012
1011
1013
1013
1016
1021
1021
1017
1014
1015
1017
1015
1013
1012
1013
1013
1012
1013
1013
1008
1006
1000
1001
1002
997
991
985
981
981
984
986
982
977
973
970
975
979
975
973
969
974
977
975
975
969
969
969
974
974
970
969
968
969
972
971
968
966
970
971
974
971
970
970
969
971
972
971
969
969
971
975
972
977
978
976
971
971
977
974
975
975
976
975
980
979
979
976
979
982
988
987
983
983
983
986
989
984
981
979
977
978
982
983
980
981
977
977
977
975
971
967
967
969
971
975
973
972
971
968
968
963
959
958
956
957
958
959
959
958
957
963
961
960
958
956
956
962
965
964
959
956
955
957
959
952
947
942
949
962
986
1009
1045
1084
1131
1181
1226
1250
1242
1202
1132
1048
956
876
842
851
875
902
922
936
942
948
952
956
962
959
959
958
958
958
964
962
961
958
959
958
965
965
965
964
963
967
969
970
967
965
966
967
971
974
970
970
972
975
979
980
977
980
979
985
989
987
987
987
986
990
997
998
1001
999
1000
1003
1008
1010
1011
1010
1010
1015
1020
1020
1016
1016
1014
1019
1024
1021
1018
1018
1016
1018
1022
1024
1023
1020
1021
1022
1020
1020
1017
1012
1009
1009
1012
1010
1003
1001
995
993
994
992
989
989
987
986
985
983
982
979
976
982
982
981
979
977
976
977
977
979
977
977
976
978
978
979
978
980
980
983
983
982
979
977
978
979
981
977
978
975
977
979
980
983
980
981
978
978
980
982
979
976
978
982
986
986
984
983
981
987
994
993
993
990
988
992
996
995
996
995
994
992
997
997
995
990
991
993
993
993
992
988
984
983
984
983
982
980
979
983
985
985
986
981
979
979
979
978
975
970
967
969
972
970
969
969
966
969
973
973
973
972
971
973
974
975
973
972
968
969
966
961
958
957
962
979
1003
1035
1076
1122
1173
1221
1251
1243
1198
1131
1054
965
890
854
857
878
900
922
941
949
956
957
960
965
970
967
968
967
968
970
971
973
971
968
969
972
974
971
971
969
969
973
979
979
977
976
977
980
982
980
984
983
983
983
989
990
989
988
991
992
999
1002
1000
1000
1001
1008
1010
1011
1010
1009
1013
1018
1022
1026
1027
1026
1029
1030
1034
1035
1035
1033
1033
1035
1037
1037
1038
1038
1037
1041
1045
1042
1037
1036
1035
1036
1037
1035
1031
1024
1021
1021
1021
1018
1014
1011
1007
1007
1007
1006
1001
996
996
996
999
997
994
993
987
991
995
993
991
991
989
993
1001
998
996
991
989
994
998
995
995
991
991
995
996
995
995
993
987
994
997
997
998
995
993
997
996
997
994
990
989
992
994
997
997
996
994
999
1004
1006
1002
1001
1002
1004
1006
1007
1006
1005
1005
1005
1008
1008
1003
1001
1002
1002
1003
1006
1001
996
991
993
994
995
995
993
992
994
997
1002
997
994
988
984
985
983
980
980
979
981
983
979
979
977
978
980
981
980
978
979
976
980
982
984
977
978
975
970
971
965
965
969
983
1009
1045
1087
1132
1180
1219
1241
1229
1185
1122
1050
966
893
859
862
880
899
918
939
958
964
966
969
972
974
976
977
974
971
971
974
977
979
978
976
974
976
980
979
980
979
979
983
984
984
983
984
983
987
986
988
988
988
991
994
999
1003
1000
1001
1001
1005
1008
1009
1007
1007
1005
1011
1014
1022
1020
1019
1022
1024
1031
1030
1031
1030
1030
1035
1036
1035
1034
1034
1033
1038
1040
1036
1041
1040
1035
1041
1042
1040
1037
1031
1030
1030
1030
1028
1025
1017
1017
1017
1015
1010
1007
1001
998
999
1002
997
995
991
992
992
995
991
987
984
985
988
991
992
987
987
987
988
