998
996
1000
1005
1009
1009
1007
1016
1026
1027
1018
1009
1011
1017
1023
1028
1035
1036
1027
1016
1010
1011
1009
1007
1009
1013
1017
1017
1010
999
987
978
980
979
982
979
978
979
979
974
972
973
971
971
975
970
961
945
938
945
954
962
963
956
950
952
953
950
949
954
962
964
962
959
958
957
958
955
961
962
964
969
974
979
977
967
957
954
954
961
967
972
963
958
952
951
955
962
965
960
959
963
963
962
959
958
955
957
963
968
972
973
972
979
985
986
986
985
990
996
997
991
985
975
972
969
968
959
945
945
948
957
964
968
970
972
973
967
966
967
967
963
955
950
950
954
958
958
957
959
964
965
958
954
951
950
947
948
950
949
951
949
950
949
953
948
948
951
953
959
981
1013
1050
1095
1147
1204
1252
1277
1271
1231
1164
1082
987
903
861
868
890
915
928
935
933
929
938
949
953
950
952
958
967
970
972
964
950
946
947
951
961
964
958
954
956
959
964
965
967
970
973
974
970
969
972
982
991
994
989
982
979
975
978
974
971
974
977
977
978
985
989
992
1000
1003
1000
998
996
1000
1005
1013
1021
1026
1027
1027
1032
1037
1040
1043
1044
1043
1044
1054
1062
1058
1044
1029
1020
1024
1032
1032
1023
1013
1009
1013
1019
1017
1012
1010
1011
1011
1010
1011
1009
1006
1002
997
989
980
979
985
989
993
991
978
966
960
963
969
980
990
989
984
980
978
976
973
967
966
967
970
973
972
972
975
978
982
985
980
977
978
981
981
979
974
975
977
983
991
999
998
990
981
975
981
986
987
974
963
964
971
974
971
967
970
972
970
975
982
981
981
984
995
1001
1002
998
996
994
991
993
998
1000
1002
999
1001
1003
1002
1000
995
986
982
984
990
992
989
986
985
985
984
979
976
982
987
988
989
991
992
990
983
978
973
968
967
965
973
981
984
982
979
980
987
992
988
980
966
966
974
988
985
975
967
967
967
967
956
950
960
982
1009
1043
1084
1133
1189
1243
1277
1281
1250
1195
1131
1053
967
913
901
900
902
912
934
959
972
971
965
958
952
950
955
960
961
966
972
979
986
981
967
955
952
958
964
966
968
975
974
971
967
969
974
979
989
994
994
985
979
978
981
984
989
990
992
995
1001
1009
1013
1010
1008
1006
1000
1003
1009
1014
1012
1009
1015
1019
1023
1023
1026
1031
1040
1049
1053
1052
1053
1056
1067
1076
1078
1065
1048
1042
1038
1038
1031
1026
1030
1028
1031
1034
1035
1031
1028
1020
1016
1012
1011
1013
1016
1010
1002
997
995
991
986
983
985
990
997
1002
993
987
983
983
986
987
985
981
975
968
966
971
977
981
986
984
978
969
967
971
985
987
984
977
978
980
982
984
985
988
992
991
995
998
995
992
996
1007
1006
999
985
972
970
977
982
981
979
979
979
978
980
984
989
987
984
986
988
989
995
995
988
987
986
990
992
994
996
997
1001
1004
1007
1012
1013
1016
1012
1008
1003
998
1001
1001
999
990
980
976
978
986
991
992
987
976
971
970
973
976
979
979
980
976
978
980
981
979
984
986
986
987
987
983
978
965
958
955
957
961
969
969
966
966
969
982
1013
1050
1100
1156
1209
1252
1270
1262
1229
1178
1112
1023
933
881
869
879
888
896
913
935
952
960
957
953
952
959
974
985
990
993
986
974
957
946
946
956
968
971
971
973
977
981
979
969
967
971
978
981
977
978
979
984
988
988
985
980
989
997
1005
1005
1005
1005
1004
1009
1008
1000
996
995
1003
1009
1009
1003
1003
1012
1019
1026
1035
1031
1021
1016
1022
1036
1044
1050
1048
1046
1039
1037
1035
1035
1029
1034
1038
1043
1047
1052
1051
1047
1043
1044
1047
1042
1031
1024
1028
1031
1030
1014
994
984
990
1000
999
983
972
972
981
987
987
985
980
984
992
997
992
986
986
990
992
992
990
994
995
990
977
974
968
971
974
983
996
1002
1003
996
988
982
986
994
1001
1001
995
986
987
995
1002
1008
1001
988
982
984
995
997
999
997
992
988
983
985
983
980
979
984
988
984
975
973
979
981
985
990
988
979
970
969
974
977
980
981
983
986
988
980
978
974
962
949
946
954
972
1000
1039
1083
1137
1200
1247
1272
1266
1229
1180
1109
1021
929
874
875
898
925
945
955
962
972
977
970
965
968
974
982
983
982
976
973
975
976
970
965
968
977
981
985
980
977
976
984
988
991
993
991
987
991
1001
1004
1002
996
993
1003
1009
1005
991
985
987
1002
1014
1021
1018
1011
1007
1011
1018
1028
1033
1038
1043
1047
1051
1050
1045
1039
1039
1047
1062
1077
1080
1068
1057
1044
1039
1036
1040
1041
1040
1039
1040
1035
1032
1024
1021
1020
1020
1018
1014
1014
1015
1014
1012
1009
1007
1005
996
994
990
996
1006
1005
995
987
986
990
995
993
990
993
997
1003
1002
1006
1004
1003
999
994
986
979
974
974
977
986
985
980
978
981
991
997
999
995
994
991
992
995
1000
999
994
993
994
998
999
990
983
980
982
985
984
984
986
990
995
995
992
987
983
987
991
991
994
994
997
997
995
992
992
995
1004
1012
1014
1010
1005
1002
997
994
989
982
981
989
996
995
1001
997
989
990
994
1001
1003
1008
1011
1011
1009
1010
1016
1015
1012
1011
1010
1013
1017
1021
1021
1011
997
985
982
987
992
995
996
996
996
996
996
997
987
976
970
972
981
987
992
990
988
984
982
984
987
987
987
991
992
992
988
987
995
1000
996
988
985
991
1002
1016
1040
1076
1116
1161
1208
1259
1291
1276
1223
1145
1054
956
895
882
888
909
930
950
961
963
968
976
985
992
987
977
968
966
966
967
970
970
967
971
979
981
975
972
978
983
986
983
979
976
972
971
971
978
983
984
981
975
981
983
982
981
989
996
1002
1007
1009
1011
1011
1013
1025
1033
1033
1029
1023
1019
1022
1028
1035
1035
1032
1029
1036
1046
1051
1047
1039
1038
1043
1050
1052
1056
1057
1061
1060
1062
1060
1058
1054
1047
1041
1041
1041
1035
1020
1014
1009
1016
1015
1010
1001
1000
1007
1019
1017
1006
990
984
987
989
991
992
991
992
991
991
990
983
984
984
986
992
993
988
980
977
979
986
991
988
982
981
991
1002
1008
1005
996
987
980
982
991
988
983
980
982
984
985
988
991
1000
1000
994
987
979
977
980
983
980
984
993
996
993
995
997
999
998
996
993
994
999
1007
1011
1014
1016
1017
1014
1007
995
991
991
993
994
993
990
987
987
989
995
999
996
992
987
983
981
977
977
979
979
973
970
973
968
961
961
968
975
980
979
978
971
974
976
985
987
987
985
978
968
957
956
961
977
1008
1042
1086
1141
1195
1246
1281
1267
1216
1145
1062
974
903
880
877
890
906
931
950
961
965
965
964
966
971
971
966
963
965
971
974
970
961
959
964
969
975
975
981
978
971
972
980
985
988
988
984
973
967
975
987
993
987
985
982
984
986
989
992
998
1003
1009
1009
1010
1006
1003
1007
1014
1023
1026
1036
1038
1031
1022
1022
1027
1035
1042
1041
1037
1037
1041
1048
1050
1050
1050
1043
1030
1021
1018
1023
1032
1034
1030
1026
1028
1026
1021
1012
1005
996
988
988
993
997
994
988
984
985
988
987
987
986
984
976
971
974
981
997
1001
992
978
976
981
982
972
969
970
968
965
963
965
974
981
982
982
976
973
970
978
990
988
975
960
958
964
974
975
974
977
978
978
969
965
965
974
986
992
987
980
980
977
980
986
992
996
991
989
996
1009
1023
1019
1003
983
974
979
985
986
983
987
994
998
995
990
987
984
987
984
985
989
994
997
993
993
991
990
982
974
960
954
956
965
967
967
965
966
972
973
965
964
963
969
973
974
974
976
984
996
1011
1015
994
956
933
934
957
994
1038
1084
1133
1187
1237
1265
1260
1222
1162
1090
1000
920
879
880
896
909
930
956
976
983
981
974
964
952
942
939
944
953
962
967
972
970
971
975
975
977
973
966
963
965
968
971
975
984
994
1000
993
979
968
972
980
991
996
995
993
990
990
990
991
993
993
994
1000
1000
1006
1005
1009
1013
1020
1029
1033
1035
1035
1030
1027
1030
1039
1045
1055
1058
1059
1060
1054
1045
1034
1029
1034
1041
1041
1031
1026
1026
1028
1027
1029
1023
1019
1014
1018
1021
1022
1017
1010
1006
1004
1004
1002
1005
1001
987
976
975
982
984
984
983
982
983
984
982
987
986
990
990
987
984
984
992
998
997
989
978
974
974
981
981
988
985
976
977
985
991
990
985
976
976
981
988
985
981
979
985
994
995
992
983
972
967
978
992
1000
998
987
984
987
995
997
994
988
994
998
998
996
992
994
998
1005
1017
1018
1012
1001
988
982
983
983
981
975
974
981
990
993
998
992
982
978
980
982
982
977
978
979
984
989
990
989
984
981
979
978
971
963
966
974
983
980
977
968
968
972
974
974
969
962
956
958
966
984
1013
1048
1095
1147
1197
1240
1264
1262
1228
1172
1100
1011
927
879
873
881
896
915
935
952
960
961
960
954
946
948
956
965
970
969
963
959
958
965
971
979
981
978
973
972
978
979
973
969
965
968
973
980
985
985
982
987
992
994
992
991
989
987
992
998
1000
1002
995
989
989
990
998
1009
1019
1027
1040
1046
1041
1031
1033
1040
1047
1054
1052
1044
1046
1047
1048
1044
1048
1054
1059
1054
1035
1028
1035
1044
1037
1029
1019
1015
1009
1005
1001
996
998
1005
1011
1006
994
987
987
986
990
992
993
991
986
985
987
990
989
987
984
986
988
985
982
980
986
999
1008
1006
994
983
984
988
989
985
983
985
990
993
995
995
997
1002
1000
999
993
995
1001
1002
994
985
980
987
994
998
1001
1006
1003
997
994
995
1005
1012
1017
1011
1012
1020
1029
1029
1011
997
997
1001
1007
1007
998
994
999
1002
1004
1003
998
997
994
988
989
997
989
976
972
975
979
978
980
982
990
997
995
998
998
992
991
995
992
981
974
975
979
992
1013
1047
1105
1173
1235
1279
1293
1273
1218
1146
1056
959
901
894
915
934
949
957
967
968
971
968
977
986
993
988
976
973
973
977
985
989
988
992
994
997
998
995
987
988
991
991
991
990
993
995
998
999
999
999
993
989
999
1009
1015
1011
1002
1000
1004
1013
1019
1021
1014
1007
1006
1013
1023
1032
1038
1037
1036
1040
1045
1048
1051
1053
1056
1060
1061
1063
1060
1061
1062
1069
1074
1076
1075
1071
1062
1049
1042
1039
1035
1036
1037
1035
1042
1043
1037
1034
1030
1027
1025
1022
1013
1005
1005
1009
1007
1001
997
999
1001
995
989
981
986
990
995
1000
1002
1001
996
992
987
988
997
1003
1002
997
995
996
999
1001
1003
1004
1007
1004
1002
991
986
984
986
983
988
997
1005
1001
997
989
989
989
989
985
987
997
1003
1005
1000
991
986
993
1002
1009
1000
988
980
984
988
993
1001
1007
1014
1022
1023
1023
1020
1012
1001
994
992
999
1004
1012
1014
1016
1018
1019
1011
1005
1005
1011
1019
1018
1009
993
989
994
1005
1010
1004
988
985
988
998
998
996
993
992
991
993
1000
1006
1008
1010
1008
1007
1004
992
975
960
959
965
973
975
973
973
974
976
978
982
980
984
985
988
985
976
967
963
968
978
993
1014
1045
1088
1139
1189
1232
1266
1276
1262
1214
1149
1070
986
908
871
877
892
906
914
928
947
960
966
970
971
975
973
973
972
974
972
966
962
964
970
975
981
993
1001
1002
992
975
960
954
959
964
969
967
965
962
957
960
970
976
972
970
971
976
985
986
985
988
996
1006
1014
1022
1027
1024
1019
1010
1003
1005
1011
1010
1010
1009
1009
1014
1021
1027
1027
1023
1021
1029
1034
1034
1036
1040
1044
1049
1050
1046
1048
1051
1048
1044
1042
1045
1045
1040
1032
1023
1019
1019
1017
1019
1021
1019
1013
1002
1003
1006
1005
996
985
972
971
974
981
978
973
966
963
966
972
972
970
973
979
981
980
976
970
964
963
968
970
972
974
973
980
982
986
984
977
971
971
971
971
970
974
978
989
993
983
969
960
959
961
966
971
975
975
971
971
969
972
971
972
976
979
985
991
998
999
997
999
998
1003
1006
998
982
965
956
962
967
970
975
975
976
973
972
974
978
976
976
973
972
973
969
970
972
973
976
971
968
969
968
970
967
965
962
959
952
951
954
955
958
965
975
983
986
988
982
968
945
926
922
931
941
945
947
946
945
943
946
960
980
1008
1048
1097
1149
1196
1231
1257
1248
1199
1121
1030
938
873
855
868
883
893
904
914
926
931
933
934
939
941
945
951
954
955
955
956
961
957
959
963
974
983
988
989
985
979
966
951
941
941
939
940
949
956
961
955
948
947
956
966
973
971
964
961
962
968
976
985
989
993
991
982
977
977
983
989
998
1010
1024
1025
1020
1007
997
995
1002
1006
1013
1023
1031
1042
1041
1031
1021
1015
1014
1013
1016
1012
1010
1011
1013
1012
1009
1005
1001
1002
1000
996
993
991
984
975
968
968
968
963
964
968
971
961
950
949
948
947
947
949
948
947
946
948
949
956
964
963
962
960
964
964
961
952
943
939
939
949
954
955
954
959
961
955
948
944
942
948
947
950
953
953
954
956
958
961
964
963
966
962
957
955
957
959
965
968
971
975
973
964
956
954
959
972
983
987
984
978
978
972
964
960
958
955
948
943
946
949
951
952
956
962
960
959
952
951
952
954
953
952
951
956
959
961
966
972
978
975
967
951
928
917
919
927
935
944
946
945
942
943
939
936
935
929
931
936
940
947
948
943
933
923
922
929
944
965
992
1029
1073
1122
1173
1217
1238
1225
1184
1124
1054
967
884
848
850
866
886
901
911
917
928
947
968
990
1005
994
960
916
891
887
897
914
921
927
927
931
936
937
931
932
937
938
942
944
949
955
954
954
948
948
950
956
954
955
952
947
950
954
963
970
972
974
977
981
985
984
988
988
995
1000
1002
997
994
991
998
1008
1010
1012
1014
1021
1028
1028
1026
1021
1015
1011
1018
1021
1022
1019
1018
1020
1020
1015
1014
1014
1011
1013
1013
1010
1003
996
991
983
976
974
976
979
983
988
993
990
975
959
947
944
951
960
964
964
960
961
962
966
968
966
959
956
956
960
964
964
963
963
962
967
967
965
963
966
968
969
969
968
966
966
969
967
969
967
969
968
970
973
977
977
970
967
967
966
968
975
973
977
976
977
982
985
986
990
991
989
988
987
986
988
989
990
992
990
988
985
987
990
992
990
987
983
983
984
985
984
980
981
984
986
987
983
976
975
977
978
974
968
962
961
972
975
972
967
970
968
968
971
970
970
969
970
970
970
966
960
963
962
960
963
960
961
954
964
984
1013
1047
1084
1129
1177
1216
1231
1215
1169
1108
1036
962
901
879
880
892
901
916
933
945
954
953
953
957
958
960
957
954
954
957
960
964
962
960
960
963
963
967
967
969
968
969
969
974
974
971
970
974
974
979
980
982
980
981
985
987
988
989
985
989
990
993
999
1003
1007
1009
1020
1026
1026
1027
1028
1032
1033
1036
1036
1035
1036
1038
1043
1051
1054
1054
1053
1054
1055
1057
1053
1054
1052
1052
1047
1047
1047
1041
1038
1035
1032
1032
1028
1022
1020
1015
1011
1008
1003
999
997
998
1001
999
997
994
987
987
986
991
994
994
992
996
997
997
995
994
989
991
993
994
994
992
994
995
998
1000
999
997
993
993
995
1000
1003
1003
1002
1000
997
996
996
993
991
994
997
1001
1002
1003
1005
1004
1006
1008
1009
1009
1007
1003
997
997
997
1001
1007
1008
1008
1013
1010
1008
1006
1012
1019
1022
1019
1016
1014
1019
1018
1023
1023
1021
1017
1016
1018
1026
1027
1028
1030
1029
1027
1023
1018
1012
1006
1004
1001
998
996
999
1003
1004
998
992
989
988
989
996
1001
999
991
986
985
989
994
994
991
982
980
977
981
992
1007
1027
1056
1094
1142
1192
1244
1281
1289
1254
1190
1112
1027
948
907
904
915
928
944
965
982
995
998
1001
990
974
969
975
986
992
997
997
993
990
991
996
1000
1000
999
1000
1002
998
999
1003
1005
1013
1020
1024
1019
1011
1010
1015
1021
1024
1026
1018
1011
1003
1003
1006
1011
1009
1008
1011
1016
1020
1022
1020
1025
1028
1039
1044
1047
1043
1039
1040
1042
1046
1046
1046
1049
1053
1059
1063
1062
1063
1063
1064
1070
1070
1068
1067
1066
1061
1059
1062
1062
1062
1062
1059
1055
1051
1045
1042
1040
1037
1030
1027
1024
1019
1019
1018
1021
1016
1011
1008
1008
1000
987
976
976
983
993
1004
1005
1003
997
992
989
994
997
998
1002
1002
1000
997
995
993
992
991
995
1000
1007
1017
1014
1008
1003
998
993
986
988
990
994
997
1002
1011
1023
1027
1029
1024
1019
1012
1006
1005
1001
996
987
984
990
996
995
997
1003
1007
1011
1012
1011
1013
1016
1020
1022
1022
1021
1020
1019
1019
1020
1020
1019
1018
1015
1010
999
991
994
1001
1010
1010
1010
1001
994
989
984
983
982
983
985
984
987
986
988
984
984
984
992
1001
1008
1013
1010
1004
993
986
975
975
980
977
966
960
960
962
967
980
1000
1027
1060
1101
1147
1198
1237
1243
1220
1174
1110
1028
944
897
894
903
909
913
926
946
960
965
962
960
963
969
974
980
973
972
976
975
974
972
971
974
976
975
972
972
973
975
979
979
986
988
989
992
997
996
994
988
988
992
995
997
996
1000
997
993
993
997
1005
1011
1013
1019
1022
1023
1029
1031
1036
1044
1047
1040
1030
1024
1027
1033
1040
1050
1053
1055
1050
1043
1037
1040
1046
1048
1045
1048
1050
1048
1038
1027
1018
1016
1022
1029
1030
1026
1015
1002
995
992
990
987
983
982
979
981
983
984
985
986
990
992
990
987
984
979
980
982
985
986
980
975
972
967
962
961
965
968
973
973
977
982
984
981
984
981
982
981
978
978
981
979
979
981
981
988
996
1003
996
980
970
968
969
971
970
969
975
982
986
987
985
986
989
991
997
997
997
997
996
990
983
987
996
1006
1003
998
990
978
972
966
961
959
963
972
978
977
974
976
977
974
964
958
959
963
969
968
967
963
962
962
967
973
979
982
977
970
964
965
967
965
