974
968
969
974
979
981
977
980
985
986
990
995
993
988
991
1023
1074
1127
1171
1203
1206
1174
1111
1038
957
897
880
893
912
930
946
955
960
972
983
992
989
980
974
978
979
973
964
963
967
973
976
975
973
967
967
972
974
976
977
979
978
985
989
991
995
996
996
998
1000
1001
1001
996
995
994
995
1000
1001
999
1001
1006
1012
1017
1015
1017
1018
1023
1030
1034
1035
1036
1041
1051
1058
1063
1060
1053
1044
1037
1034
1039
1041
1035
1025
1024
1031
1040
1038
1035
1035
1043
1055
1056
1040
1011
998
1004
1008
1006
1004
1003
998
993
996
1000
1003
1010
1010
1003
988
979
978
982
986
988
992
995
992
993
991
994
997
996
994
992
992
996
1000
1001
1000
996
994
991
994
997
993
991
988
989
990
994
992
988
986
990
996
1000
998
993
993
996
1000
1002
1001
996
997
997
1001
1003
1003
1000
999
1006
1014
1015
1009
997
989
990
993
996
999
999
999
1001
1006
1002
1001
1001
1002
1003
1004
1004
1004
1006
1008
1008
1008
1005
1005
1001
998
999
1003
1010
1005
999
999
1000
1002
1005
1002
1000
994
994
993
990
990
988
987
986
990
993
997
996
994
993
998
1001
1000
1000
997
995
998
1003
1000
993
984
977
978
984
991
999
1014
1035
1069
1114
1156
1191
1208
1203
1175
1129
1066
992
928
904
911
928
941
953
966
976
986
990
989
990
992
993
998
1005
1002
997
989
992
995
995
995
994
992
991
992
988
990
992
994
995
997
1001
1004
1004
1002
1003
1009
1013
1011
1011
1006
1012
1016
1019
1023
1024
1022
1018
1022
1030
1032
1033
1035
1034
1034
1039
1039
1038
1037
1041
1047
1054
1057
1053
1052
1051
1056
1061
1063
1066
1064
1065
1065
1069
1067
1065
1062
1059
1058
1059
1053
1043
1033
1031
1033
1034
1031
1024
1020
1020
1024
1021
1021
1013
1010
1010
1011
1014
1013
1012
1015
1021
1026
1025
1017
1008
999
994
999
1006
1007
1008
1004
1006
1010
1009
1012
1011
1010
1007
1006
1008
1006
1006
1006
1009
1010
1013
1013
1011
1013
1012
1013
1014
1014
1012
1007
1012
1013
1015
1016
1019
1022
1022
1019
1011
1010
1013
1013
1013
1019
1023
1021
1019
1018
1017
1018
1019
1017
1014
1015
1016
1019
1020
1020
1020
1022
1025
1028
1027
1023
1020
1019
1020
1017
1018
1018
1019
1014
1010
1013
1018
1018
1016
1012
1012
1013
1017
1020
1013
1000
989
981
984
990
993
993
997
1003
1006
1000
1000
1000
1002
1001
999
997
990
990
989
989
991
988
992
1005
1029
1061
1099
1147
1192
1217
1225
1205
1170
1117
1045
966
921
919
927
939
947
958
971
977
979
975
977
985
991
997
996
991
993
995
999
1002
1001
997
997
1002
1001
1006
1011
1009
1004
1003
996
995
996
995
995
997
1002
1008
1009
1011
1013
1016
1017
1019
1018
1014
1012
1019
1023
1028
1030
1029
1028
1027
1029
1033
1040
1044
1042
1047
1053
1054
1054
1052
1051
1055
1057
1059
1060
1059
1056
1056
1060
1065
1066
1065
1056
1046
1042
1045
1044
1039
1032
1027
1027
1029
1029
1029
1022
1015
1012
1009
1010
1011
1007
1000
997
999
1006
1009
1009
1004
996
993
998
999
995
990
986
991
996
997
996
993
996
1000
1002
998
993
991
994
995
997
995
992
990
992
996
994
996
995
993
993
994
995
990
986
982
985
991
991
993
992
994
996
997
1000
998
988
979
976
979
986
989
990
985
988
993
994
996
996
997
997
996
994
994
994
993
989
988
989
989
984
984
981
981
982
985
986
984
982
982
987
988
981
976
969
960
960
960
963
962
961
959
956
960
960
957
958
961
961
963
962
961
964
966
967
958
948
940
941
947
953
968
992
1021
1057
1097
1143
1187
1212
1192
1145
1082
1013
938
884
866
871
884
900
918
928
934
935
937
943
948
945
942
943
947
958
958
946
937
935
936
941
943
950
949
947
946
950
953
950
952
953
954
954
953
955
954
953
962
966
968
973
973
968
963
963
964
965
966
972
979
987
990
983
984
989
1000
1005
1005
1005
1002
995
996
997
1000
1003
1005
1003
1006
1010
1011
1007
1005
1000
1000
1000
994
988
984
984
983
978
967
965
966
965
966
966
963
960
959
961
960
963
956
958
955
952
946
944
938
939
940
944
949
953
949
948
944
946
951
953
953
948
945
947
950
954
952
948
944
946
950
953
955
953
955
953
954
954
950
950
951
951
954
955
954
945
941
939
950
955
953
952
950
955
957
962
966
967
965
961
958
960
960
961
958
954
955
960
958
956
956
956
962
958
957
956
952
948
952
957
961
959
960
960
962
958
954
951
949
948
947
954
952
946
938
932
933
938
943
943
943
939
943
945
947
946
941
944
946
951
952
945
936
928
937
958
980
1008
1048
1098
1145
1187
1206
1192
1145
1078
1002
925
867
850
862
878
899
913
926
930
932
935
940
945
947
945
943
944
945
950
948
943
943
943
947
951
951
947
945
946
949
952
954
952
953
954
958
964
965
963
962
963
967
966
974
974
973
972
973
975
980
979
971
967
972
978
981
980
982
985
994
1001
1005
1006
1004
1007
1013
1018
1018
1016
1018
1019
1023
1027
1032
1028
1026
1024
1022
1019
1018
1015
1012
1007
1007
1007
1004
998
996
995
994
996
990
982
975
976
980
983
981
981
978
978
981
985
988
988
980
975
974
978
975
973
973
978
985
991
987
980
979
981
984
983
986
980
981
982
990
997
999
995
988
982
983
987
983
979
979
983
990
989
989
987
984
986
991
995
990
987
984
984
990
999
1005
1008
1007
1004
1003
1004
1000
996
994
1001
1005
1011
1009
1000
1000
1000
1003
1004
1000
1000
996
997
1000
1003
1001
1001
998
1003
1006
1006
1003
996
994
992
993
989
988
984
981
984
988
991
991
988
984
985
986
987
990
982
977
976
986
1007
1034
1072
1123
1176
1220
1244
1226
1173
1103
1024
946
901
900
914
929
945
966
979
983
984
984
985
989
992
989
992
993
994
998
998
996
997
994
991
991
995
997
1001
1006
1005
999
998
998
1000
999
998
1002
1005
1006
1002
1002
1006
1012
1017
1023
1025
1027
1028
1027
1027
1029
1033
1034
1036
1040
1054
1055
1052
1043
1042
1049
1059
1054
1049
1043
1044
1051
1058
1060
1063
1065
1066
1064
1064
1063
1064
1061
1051
1044
1040
1036
1035
1033
1031
1030
1031
1028
1026
1030
1024
1021
1014
1006
999
998
999
1010
1020
1022
1014
1002
1003
1008
1012
1011
1005
1000
991
992
1000
1003
1004
1003
1008
1013
1018
1016
1014
1013
1014
1018
1021
1021
1022
1022
1022
1019
1018
1011
1008
1008
1005
1003
1005
1008
1012
1010
1009
1011
1014
1014
1018
1017
1023
1025
1025
1019
1015
1014
1019
1023
1025
1025
1026
1031
1038
1039
1032
1024
1018
1017
1016
1019
1020
1023
1025
1023
1015
1018
1022
1022
1017
1015
1013
1015
1017
1018
1014
1010
1009
1011
1011
1008
1003
999
1000
1001
1006
1012
1008
1008
1004
1008
1010
1010
1006
1001
1000
1003
1004
1007
1010
1003
992
987
991
994
993
995
1005
1026
1053
1082
1124
1170
1210
1235
1235
1213
1166
1105
1031
961
920
916
926
932
936
949
965
980
991
992
984
981
984
991
996
996
995
989
989
993
994
993
997
1003
1009
1007
1002
996
999
1001
1000
988
986
985
991
996
1001
1003
1003
1003
1001
1003
1008
1013
1011
1013
1017
1022
1023
1024
1025
1030
1031
1027
1026
1027
1026
1025
1031
1039
1046
1048
1047
1041
1041
1047
1055
1053
1048
1047
1049
1051
1048
1050
1053
1054
1053
1054
1057
1047
1044
1040
1041
1039
1037
1033
1032
1027
1024
1024
1020
1014
1010
1008
1009
1012
1012
1009
1010
1013
1015
1016
1016
1016
1013
1008
1003
1006
1010
1008
1010
1008
1006
1009
1012
1013
1008
1005
1006
1007
1008
1001
998
997
999
999
1001
1000
999
999
995
993
992
990
985
987
988
987
988
987
986
986
989
992
991
993
995
999
998
999
998
994
991
988
983
985
989
994
988
977
974
971
970
971
964
962
969
987
1013
1045
1083
1131
1176
1217
1235
1221
1183
1132
1062
986
922
901
909
926
934
948
963
975
978
979
980
982
984
985
985
983
983
985
989
994
999
1001
1003
999
994
987
984
980
978
983
987
990
992
992
994
999
1004
1005
1004
1002
998
1000
997
997
999
999
1001
1003
1010
1011
1013
1012
1014
1024
1029
1035
1035
1033
1036
1043
1050
1055
1051
1047
1050
1053
1052
1056
1055
1056
1055
1058
1059
1057
1055
1056
1055
1056
1057
1057
1054
1052
1053
1049
1047
1043
1037
1034
1027
1029
1029
1026
1022
1018
1019
1021
1020
1016
1012
1007
1003
1005
1009
1011
1008
1006
1004
1004
1003
998
998
1000
1001
1008
1009
1010
1007
1007
1007
1008
1010
1010
1011
1010
1005
1004
1011
1012
1013
1008
1007
1009
1010
1013
1009
1006
1004
1004
1008
1010
1005
1001
999
1002
1008
1007
998
993
991
996
1000
999
994
991
992
996
1003
1003
1000
997
992
994
1002
1010
1013
1010
1007
1005
1005
1004
997
997
997
1004
1013
1020
1025
1026
1022
1013
1002
988
983
981
983
986
986
986
986
984
985
988
993
999
1005
1009
1011
1013
1011
1011
1001
997
993
995
1001
1004
1013
1018
1024
1026
1027
1023
1019
1014
1016
1015
1015
1012
1007
1006
1006
1008
1016
1022
1019
1006
1001
1000
1004
1003
1003
1005
1009
1016
1021
1020
1018
1016
1015
1017
1020
1015
1010
1009
1008
1007
1003
1000
1000
1002
1004
1006
1009
1007
1007
1004
1003
1007
1007
1009
1008
1006
1007
1006
1005
1000
999
999
1001
1006
1008
1014
1020
1039
1071
1116
1159
1207
1242
1251
1236
1198
1147
1078
993
938
924
935
947
951
954
967
983
995
996
993
988
986
991
998
1004
1007
1012
1020
1032
1042
1047
1033
1016
989
968
965
981
994
1000
1000
998
1006
1015
1015
1017
1012
1010
1015
1020
1025
1024
1020
1018
1016
1020
1023
1025
1029
1034
1038
1043
1044
1041
1040
1042
1044
1050
1053
1051
1048
1054
1070
1077
1076
1074
1063
1054
1058
1066
1073
1076
1075
1075
1076
1077
1080
1079
1079
1082
1094
1104
1107
1098
1082
1072
1069
1072
1070
1056
1048
1050
1062
1065
1060
1052
1044
1040
1043
1038
1035
1035
1035
1040
1043
1039
1033
1026
1024
1025
1029
1034
1034
1031
1030
1035
1036
1041
1037
1033
1030
1030
1028
1031
1028
1027
1026
1027
1027
1034
1041
1044
1044
1049
1051
1055
1061
1062
1061
1047
1035
1020
1011
1013
1025
1027
1021
1027
1037
1039
1032
1028
1030
1032
1034
1035
1034
1031
1032
1031
1032
1034
1037
1042
1051
1060
1059
1043
1027
1020
1024
1029
1033
1032
1031
1034
1036
1040
1037
1032
1024
1016
1008
1007
1009
1018
1019
1019
1021
1027
1026
1027
1028
1033
1037
1033
1021
1016
1015
1019
1020
1020
1023
1018
1005
993
994
994
1001
1005
1009
1005
1008
1012
1016
1018
1016
1017
1014
1009
1005
1011
1025
1043
1065
1095
1133
1183
1228
1263
1270
1252
1210
1147
1070
987
929
917
930
938
945
960
981
995
1002
1001
999
995
994
990
989
993
997
1001
1006
1018
1027
1036
1040
1034
1021
1010
1004
997
991
997
1005
1011
1006
1006
1002
1004
1009
1012
1016
1018
1017
1017
1021
1020
1022
1022
1023
1027
1032
1034
1039
1040
1035
1033
1032
1034
1035
1033
1037
1040
1049
1058
1062
1064
1064
1063
1067
1071
1070
1068
1068
1071
1077
1080
1081
1080
1081
1079
1079
1078
1073
1068
1068
1070
1072
1070
1064
1060
1053
1055
1054
1054
1051
1047
1046
1044
1041
1041
1038
1033
1030
1029
1030
1029
1026
1025
1022
1021
1025
1030
1029
1022
1015
1014
1016
1022
1023
1024
1017
1017
1020
1023
1022
1022
1022
1024
1026
1030
1031
1027
1021
1020
1023
1027
1030
1026
1026
1025
1024
1027
1032
1030
1026
1027
1025
1026
1025
1025
1025
1026
1029
1030
1033
1035
1037
1040
1039
1038
1036
1037
1037
1039
1040
1041
1040
1040
1037
1031
1030
1032
1030
1029
1027
1029
1029
1032
1031
1030
1028
1028
1029
1032
1031
1030
1028
1027
1031
1031
1027
1023
1021
1021
1025
1028
1023
1023
1019
1020
1019
1026
1028
1027
1022
1020
1018
1022
1020
1017
1014
1005
1004
1010
1025
1047
1079
1121
1174
1226
1271
1299
1291
1248
1185
1107
1022
948
917
919
931
942
953
966
979
987
993
996
999
1003
1003
1005
1006
1006
1010
1010
1007
1005
1004
1001
1002
1002
1003
1001
1006
1005
1006
1005
1006
1005
1003
1006
1007
1008
1011
1012
1013
1014
1014
1016
1014
1014
1018
1021
1025
1024
1023
1027
1029
1033
1035
1038
1037
1037
1044
1047
1047
1048
1048
1049
1052
1055
1056
1055
1052
1049
1050
1053
1054
1051
1048
1046
1047
1045
1039
1031
1027
1024
1024
1023
1016
1009
1000
1000
1000
1001
1001
998
994
990
993
994
995
994
989
988
989
990
991
985
979
977
980
981
983
980
976
977
980
983
984
980
980
978
984
986
984
979
979
977
977
980
981
982
980
979
977
983
982
979
977
978
981
984
984
985
982
975
977
981
984
983
980
981
980
983
981
981
981
984
984
984
985
983
980
978
977
979
981
980
976
974
974
975
974
970
967
968
971
971
970
970
967
969
967
967
969
965
957
951
950
954
955
952
948
946
951
955
955
952
946
946
946
949
952
950
947
946
947
947
943
939
935
940
955
980
1013
1051
1094
1148
1200
1236
1243
1215
1155
1079
993
908
856
844
854
869
885
903
915
926
931
932
927
930
932
931
932
932
932
932
932
932
929
929
931
933
933
934
933
934
936
940
940
939
937
938
936
941
943
943
943
942
942
943
943
944
947
949
951
954
956
955
954
958
961
965
968
970
973
977
977
983
985
987
985
989
992
997
997
994
988
990
993
999
998
996
997
997
997
996
995
992
988
987
984
983
984
980
975
968
967
968
969
965
960
957
953
956
954
954
952
952
952
953
954
949
952
951
953
956
953
953
951
952
954
955
954
954
956
954
954
957
959
955
954
956
958
958
957
958
957
956
958
961
962
962
960
963
963
965
965
963
962
964
966
968
968
970
969
972
977
983
981
984
981
981
984
982
985
980
981
983
982
982
982
983
981
982
981
982
980
977
975
974
977
980
980
979
979
981
981
982
984
982
973
967
970
973
974
975
970
969
972
973
970
970
972
974
975
977
976
975
977
975
973
974
974
969
968
973
987
1012
1044
1086
1132
1180
1235
1268
1271
1230
1157
1073
979
908
881
891
907
926
945
960
966
970
974
979
980
984
985
986
984
982
981
984
985
986
983
981
986
989
992
989
988
988
988
992
994
996
994
994
996
999
1001
1002
1002
1003
1006
1009
1012
1010
1007
1008
1008
1017
1020
1023
1027
1031
1033
1036
1044
1044
1041
1041
1045
1052
1059
1061
1060
1062
1065
1069
1072
1072
1070
1070
1073
1076
1074
1075
1069
1072
1073
1071
1068
1066
1062
1060
1055
1061
1059
1057
1050
1045
1043
1043
1041
1038
1033
1028
1025
1027
1026
1022
1021
1019
1020
1023
1025
1024
1021
1019
1021
1024
1022
1016
1012
1014
1014
1017
1020
1021
1017
1015
1014
1015
1016
1012
1011
1009
1011
1016
1017
1017
1015
1014
1017
1019
1020
1020
1019
1019
1021
1022
1021
1017
1014
1017
1021
1025
1028
1026
1021
1016
1020
1028
1035
1033
1027
1023
1025
1029
1037
1035
1032
1031
1029
1030
1031
1029
1025
1024
1029
1031
1031
1028
1024
1020
1020
1023
1024
1023
1025
1028
1027
1026
1022
1014
1010
1008
1005
1009
1013
1013
1012
1012
1013
1012
1010
1008
1006
1007
1010
1015
1018
1017
1015
1013
1011
1011
1005
1001
1000
1008
1022
1048
1076
1119
1161
1212
1263
1295
1294
1256
1189
1110
1017
945
917
922
930
942
961
983
993
998
998
998
1003
1009
1013
1009
1007
1009
1010
1017
1015
1012
1006
1010
1015
1019
1017
1016
1012
1012
1016
1018
1021
1019
1020
1023
1029
1031
1037
1031
1031
1032
1031
1036
1037
1040
1042
1041
1043
1044
1045
1048
1052
1058
1063
1064
1069
1071
1068
1070
1072
1080
1084
1084
1084
1083
1082
1084
1081
1080
1080
1082
1083
1083
1082
1079
1073
1070
1067
1067
1063
1055
1047
1043
1044
1046
1042
1040
1033
1030
1030
1033
1033
1029
1023
1019
1017
1019
1021
1023
1025
1022
1022
1021
1019
1016
1013
1016
1021
1023
1022
1019
1014
1011
1014
1020
1018
1020
1023
1022
1021
1022
1022
1026
1022
1018
1015
1017
1017
1016
1016
1015
1018
1020
1022
1021
1019
1017
1016
1018
1020
1020
1026
1030
1032
1036
1034
1032
1029
1026
1025
1025
1034
1033
1029
1027
1027
1030
1029
1025
1020
1019
1020
1020
1021
1015
1014
1011
1012
1013
1018
1018
1016
1012
1012
1011
1008
1007
1005
1001
1000
1003
1003
1003
1003
1002
1005
1003
1003
1001
1004
1005
1006
1001
1002
1002
1000
1001
1003
1000
993
987
987
998
1022
1058
1101
1149
1196
1240
1271
1278
1248
1192
1118
1031
950
912
910
921
925
937
957
976
983
987
981
980
986
994
996
992
987
983
986
991
998
1000
994
990
992
999
1001
997
993
991
997
998
999
999
995
999
1001
1005
1006
1004
1002
1003
1006
1008
1009
1012
1012
1014
1014
1016
1017
1020
1022
1024
1027
1031
1036
1037
1038
1038
1044
1047
1051
1049
1051
1052
1056
1055
1056
1054
1054
1053
1055
1059
1061
1056
1051
1045
1045
1046
1043
1036
1030
1028
1027
1028
1026
1021
1015
1008
1006
1006
1004
1002
1001
997
993
995
996
994
997
994
991
992
991
989
987
986
983
987
988
988
985
986
988
991
990
994
994
991
990
985
985
987
989
990
990
992
992
993
994
992
990
993
994
997
994
996
997
1004
1007
1005
1009
1004
1004
1006
1007
1009
1006
1003
999
1000
1000
1001
997
995
998
999
999
998
992
991
993
995
993
993
991
991
994
996
994
991
988
983
981
983
981
978
976
973
974
978
980
983
976
974
977
979
981
979
978
977
981
984
980
977
972
968
965
964
968
982
1008
1043
1091
1142
1194
1239
1266
1255
1215
1144
1067
977
903
876
884
897
911
926
942
956
962
965
967
967
967
967
969
971
974
974
971
968
969
968
969
969
968
970
971
973
975
974
973
972
974
981
980
979
975
975
980
984
985
986
989
991
994
996
987
986
990
993
998
1001
1006
1010
1010
1011
1013
1015
1021
1021
1023
1023
1029
1030
1037
1035
1035
1034
1036
1039
1043
1042
1040
1039
1039
1042
1042
1038
1035
1032
1029
1027
1024
1020
1019
1017
1012
1009
1010
1005
1001
995
994
992
997
995
989
982
981
983
987
989
985
983
981
981
981
983
982
978
980
981
985
983
979
977
979
979
978
977
972
974
976
979
982
981
980
977
978
979
981
977
975
978
979
982
983
981
976
977
981
986
990
993
990
990
990
995
997
993
987
985
989
993
995
996
994
991
988
986
987
989
989
988
986
991
990
990
986
984
985
982
983
980
976
977
974
976
975
978
976
976
976
976
978
978
980
976
973
974
974
971
969
972
972
972
967
961
958
962
971
993
1024
1058
1097
1140
1190
1237
