938
943
944
944
944
945
949
949
947
944
944
947
950
950
947
947
948
948
956
956
958
958
960
963
961
963
961
960
960
959
963
963
964
962
964
968
973
974
974
972
972
976
984
986
984
984
988
995
1000
999
1004
1008
1011
1011
1015
1018
1021
1022
1022
1026
1029
1031
1034
1035
1032
1032
1034
1034
1034
1034
1030
1034
1033
1030
1025
1019
1019
1019
1019
1013
1007
1001
998
995
990
988
985
983
984
982
982
981
977
977
976
975
979
978
978
973
974
975
976
975
971
968
967
970
970
973
973
971
969
971
972
969
967
962
966
968
973
975
972
970
970
972
976
979
977
978
978
979
983
982
982
983
981
981
980
977
976
976
975
975
977
974
973
972
971
978
981
982
984
987
986
987
987
990
988
988
987
989
993
994
992
991
994
995
1000
996
992
987
988
987
987
988
985
984
981
986
989
987
983
978
979
980
977
977
971
970
971
973
972
966
964
963
964
968
970
971
969
966
966
968
976
974
974
972
968
968
965
962
959
969
984
1007
1035
1076
1126
1180
1223
1244
1232
1191
1136
1065
982
909
874
877
886
895
906
926
942
955
960
959
961
963
973
978
974
971
973
977
979
977
977
973
974
976
977
973
969
970
970
971
974
975
973
974
973
979
984
985
984
984
984
984
989
991
988
990
993
998
1001
999
998
998
1002
1009
1013
1013
1011
1010
1012
1018
1023
1028
1030
1033
1034
1035
1039
1041
1038
1038
1038
1039
1042
1045
1045
1043
1041
1044
1047
1045
1046
1043
1042
1043
1043
1040
1035
1030
1027
1026
1025
1020
1015
1009
1004
999
1000
998
994
994
990
989
991
990
986
983
982
985
989
986
984
981
980
986
989
989
984
982
980
978
978
979
978
979
980
985
986
987
985
983
983
982
986
987
985
981
980
984
987
987
985
983
979
982
982
984
984
982
981
983
987
982
983
984
984
984
984
985
984
989
987
986
987
991
990
991
994
998
1000
999
1000
1001
998
1001
1002
1000
994
995
991
994
997
997
995
990
988
990
988
985
983
981
981
983
985
985
984
980
980
984
985
987
979
971
970
972
975
970
967
966
968
970
974
975
973
971
967
971
974
972
970
969
966
967
969
971
969
963
957
955
961
973
987
1010
1042
1085
1134
1183
1228
1251
1246
1213
1167
1103
1021
934
876
860
870
882
890
908
923
942
952
952
951
954
956
958
958
963
963
963
963
964
965
965
966
965
966
966
970
970
969
967
967
971
973
973
974
973
977
977
980
976
974
977
980
984
983
985
984
988
990
994
997
998
997
999
1001
1003
1010
1014
1015
1018
1020
1024
1030
1028
1028
1030
1031
1036
1038
1039
1036
1036
1039
1041
1042
1044
1040
1037
1036
1039
1041
1039
1036
1034
1030
1030
1031
1029
1026
1020
1015
1015
1013
1006
1001
999
998
996
994
989
988
984
982
983
981
982
979
978
977
978
977
978
975
976
974
976
978
981
983
983
985
985
988
984
981
978
981
986
991
994
992
991
987
984
985
988
987
983
985
983
988
990
990
986
984
984
983
977
972
972
972
972
973
973
972
970
972
973
979
976
973
973
971
973
973
974
971
970
971
971
969
970
966
965
966
966
968
963
955
945
940
947
959
979
1007
1041
1087
1141
1199
1241
1258
1241
1192
1125
1048
961
887
856
863
886
912
928
945
952
956
962
967
968
969
967
966
972
971
971
968
969
968
970
972
971
970
969
966
972
975
975
973
972
970
975
977
977
976
978
978
980
983
986
986
985
985
991
996
997
995
994
994
998
1000
1004
1004
1007
1008
1012
1012
1015
1017
1023
1024
1027
1033
1030
1032
1031
1031
1033
1037
1037
1035
1035
1034
1036
1037
1036
1034
1033
1031
1034
1032
1027
1022
1019
1016
1019
1015
1010
1005
1001
995
994
990
988
985
979
978
978
979
975
973
972
969
972
973
971
969
970
971
978
982
980
978
974
973
974
977
978
978
976
977
977
979
978
977
976
974
974
974
975
973
972
972
974
974
971
971
969
969
974
976
974
972
972
971
972
973
976
976
977
974
975
977
976
973
972
969
975
976
976
975
971
971
970
972
975
973
970
968
970
971
971
969
968
968
971
970
970
968
967
966
970
966
970
972
972
968
972
975
981
977
979
982
985
987
988
986
987
985
990
992
993
990
989
988
986
990
986
985
982
979
984
986
984
981
978
975
978
982
983
983
983
983
982
984
982
979
972
970
967
970
971
969
965
966
970
972
974
972
970
970
972
972
973
972
970
969
970
964
962
962
970
988
1018
1052
1093
1144
1196
1244
1273
1263
1213
1142
1063
978
900
864
864
881
899
917
937
953
962
961
963
963
964
966
966
968
966
967
967
970
967
966
966
967
966
969
976
974
973
970
971
977
976
977
977
975
980
980
980
981
982
980
979
984
987
988
988
986
988
992
998
999
1002
1002
1004
1004
1010
1010
1013
1016
1021
1024
1025
1026
1025
1027
1032
1039
1038
1037
1035
1036
1044
1047
1048
1045
1041
1047
1048
1050
1050
1046
1045
1043
1040
1041
1039
1034
1030
1028
1027
1021
1018
1014
1011
1006
1004
1004
1001
996
990
986
985
984
982
978
973
975
977
977
978
977
976
974
974
975
972
973
969
968
972
974
976
975
971
973
977
977
972
974
970
970
973
972
972
968
967
967
970
969
971
970
970
972
970
976
973
968
968
969
971
970
969
964
961
959
965
969
970
970
968
972
975
977
979
974
975
975
978
979
981
977
972
969
971
974
974
971
972
970
970
970
967
962
958
954
960
962
963
960
957
959
957
957
953
953
949
944
944
943
942
940
939
938
937
935
935
933
931
932
936
938
936
931
931
929
932
938
940
937
932
928
931
936
943
953
975
1012
1064
1122
1176
1207
1197
1153
1093
1019
928
849
818
825
846
862
884
900
909
912
914
917
919
921
920
919
920
921
919
914
916
918
921
922
921
921
921
927
928
927
924
925
923
926
929
932
932
933
932
935
941
942
942
938
940
943
948
950
947
944
942
942
946
953
955
956
957
957
966
968
971
974
973
971
975
975
974
975
977
977
979
979
977
974
967
964
965
965
967
970
968
965
964
962
958
957
954
948
945
939
937
934
930
925
924
928
927
922
916
914
915
914
913
912
911
911
910
914
918
917
913
911
911
913
914
911
911
909
914
917
914
911
909
913
917
920
919
915
917
917
915
917
916
916
916
917
922
923
916
916
915
915
920
924
923
922
918
919
926
933
939
936
933
932
935
940
943
939
938
937
934
936
937
933
935
936
939
939
937
936
933
931
931
934
932
932
933
935
939
942
944
942
938
937
936
933
930
929
928
929
930
932
933
932
928
929
930
931
929
928
926
924
929
931
931
929
927
926
927
926
928
936
952
976
1012
1061
1117
1172
1214
1229
1208
1166
1103
1020
930
862
842
849
859
868
881
903
923
933
938
933
932
939
947
947
950
944
947
948
952
955
955
956
955
955
959
959
961
958
959
960
962
965
971
969
973
973
975
976
977
974
975
978
980
984
987
984
985
987
993
998
996
999
1001
1004
1009
1015
1019
1018
1020
1023
1030
1032
1036
1035
1034
1035
1038
1042
1038
1039
1039
1040
1044
1045
1044
1042
1036
1032
1030
1033
1032
1028
1025
1019
1016
1016
1014
1009
1003
1002
1004
1004
1005
999
996
994
993
995
997
995
993
992
992
992
993
991
987
988
990
992
992
992
990
988
988
991
993
994
992
994
995
1001
1002
1003
1005
1006
1008
1008
1010
1012
1009
1009
1011
1013
1012
1010
1005
1007
1011
1010
1008
1007
1007
1008
1012
1013
1014
1015
1018
1018
1021
1024
1024
1022
1017
1023
1030
1031
1031
1029
1024
1026
1026
1028
1029
1026
1023
1023
1025
1024
1024
1023
1022
1022
1022
1025
1028
1026
1023
1020
1022
1023
1019
1012
1012
1010
1010
1012
1012
1006
1006
1009
1008
1012
1010
1009
1006
1005
1009
1014
1015
1014
1013
1012
1009
1007
1003
1004
1014
1035
1066
1107
1159
1216
1271
1304
1297
1244
1157
1057
963
906
902
923
948
965
980
992
998
1004
1009
1009
1009
1007
1010
1012
1015
1012
1012
1012
1011
1012
1015
1014
1016
1012
1018
1019
1022
1021
1019
1020
1021
1022
1026
1024
1022
1023
1026
1030
1034
1031
1030
1033
1037
1039
1041
1038
1041
1043
1048
1052
1051
1050
1051
1056
1060
1065
1068
1067
1069
1067
1070
1076
1080
1079
1080
1077
1079
1086
1086
1085
1083
1084
1084
1090
1088
1084
1080
1077
1076
1079
1074
1071
1066
1062
1061
1061
1058
1052
1044
1040
1039
1035
1037
1032
1031
1029
1026
1028
1027
1023
1019
1020
1023
1025
1025
1019
1020
1018
1021
1024
1024
1021
1019
1019
1020
1022
1023
1021
1023
1022
1023
1028
1029
1025
1021
1023
1020
1023
1023
1020
1016
1018
1019
1022
1021
1019
1017
1012
1015
1019
1018
1019
1013
1012
1017
1020
1021
1020
1018
1016
1020
1026
1026
1029
1031
1030
1029
1037
1037
1038
1034
1035
1035
1039
1040
1034
1031
1028
1033
1034
1037
1035
1030
1029
1028
1028
1024
1022
1016
1016
1021
1024
1023
1020
1016
1013
1011
1009
1009
1004
999
1000
1002
1004
1004
1004
1002
1005
1008
1012
1010
1008
1010
1009
1011
1013
1013
1007
1002
1000
1000
1008
1024
1049
1086
1134
1191
1248
1288
1290
1248
1174
1085
990
917
892
903
928
955
977
990
996
995
998
999
998
999
998
996
997
1003
1004
1008
1004
1001
1002
1005
1007
1007
1005
1007
1009
1010
1015
1015
1012
1010
1011
1016
1021
1025
1027
1024
1026
1028
1036
1040
1042
1038
1042
1044
1047
1052
1052
1053
1057
1061
1062
1061
1059
1059
1061
1067
1071
1070
1068
1066
1067
1072
1076
1075
1074
1072
1069
1065
1061
1056
1046
1041
1034
1035
1032
1028
1023
1017
1014
1015
1013
1012
1010
1007
1005
1007
1010
1008
1006
1004
1002
1002
1001
999
998
993
994
995
1001
1004
1002
1000
1002
1003
1001
998
998
997
999
999
1002
1002
999
999
997
996
996
995
991
988
986
989
993
995
997
994
998
998
1005
1005
1002
999
997
997
999
1001
999
998
1002
1004
1011
1012
1011
1003
1005
1004
1009
1010
1009
1005
1001
999
1002
1003
1004
1000
999
1001
1003
1005
997
992
989
990
992
994
994
993
992
991
992
988
987
982
976
975
974
976
978
976
972
971
972
973
968
967
968
970
975
973
974
968
967
967
969
970
966
961
957
960
974
994
1015
1043
1087
1146
1202
1243
1255
1239
1199
1146
1077
996
921
883
880
887
895
906
921
935
947
955
960
958
961
961
963
961
964
963
963
964
963
965
969
967
964
964
966
971
973
975
972
975
976
979
981
980
977
974
971
974
976
978
980
980
981
984
985
989
992
994
994
998
1000
996
996
998
999
1003
1004
1006
1008
1011
1014
1020
1024
1027
1027
1028
1028
1032
1036
1037
1036
1031
1033
1036
1039
1036
1034
1030
1030
1034
1034
1028
1023
1020
1018
1016
1015
1016
1014
1011
1007
1004
1000
998
993
990
984
985
983
980
978
975
972
971
971
969
966
962
957
962
965
966
964
963
962
963
962
962
963
961
962
960
961
960
958
955
953
956
960
963
959
957
958
958
963
964
963
960
959
960
964
964
959
954
955
958
961
959
960
957
956
957
962
959
961
963
965
968
971
972
967
965
966
968
972
974
973
968
967
969
970
970
968
964
961
961
957
956
951
949
952
953
957
954
953
952
948
952
957
957
957
952
948
941
940
941
938
937
937
940
943
940
938
936
934
935
938
937
936
936
934
935
935
935
933
928
923
923
924
929
941
957
988
1029
1075
1130
1180
1214
1221
1195
1145
1078
997
909
847
826
833
843
852
865
884
902
912
914
912
919
922
925
927
929
927
925
925
930
933
932
928
927
924
927
929
930
930
927
926
930
935
936
936
935
932
938
946
946
944
941
940
944
946
950
945
946
949
949
952
954
954
957
957
960
966
969
970
969
974
976
981
987
987
985
984
990
996
997
993
990
990
992
999
1001
1001
999
996
999
1005
1005
1001
998
997
997
994
992
986
980
978
976
976
970
964
961
958
956
957
955
951
946
946
946
947
948
944
939
941
939
944
945
943
940
940
941
943
941
940
940
940
939
940
940
943
941
942
946
949
949
945
943
941
943
946
946
947
943
943
944
948
948
945
943
944
945
950
949
948
946
945
946
949
949
948
944
944
947
950
948
944
945
946
956
961
961
959
954
958
962
966
964
963
962
961
965
964
965
961
961
959
962
963
962
957
953
951
954
953
956
953
951
951
951
956
954
952
948
946
943
939
939
934
935
932
933
934
934
932
934
936
939
942
944
938
941
941
946
947
944
942
941
938
938
937
936
939
948
963
989
1016
1059
1103
1152
1198
1240
1256
1228
1174
1102
1021
931
865
837
837
850
867
888
908
922
925
929
931
938
942
945
942
942
944
950
953
954
952
949
949
951
953
953
955
953
952
952
958
957
958
957
958
962
964
964
964
964
965
967
972
973
972
975
975
978
984
989
984
980
982
988
994
999
999
999
1004
1008
1015
1019
1018
1019
1018
1022
1026
1028
1029
1028
1027
1030
1033
1036
1033
1033
1032
1032
1037
1032
1033
1029
1025
1025
1023
1024
1020
1013
1010
1007
1004
1000
994
992
988
986
987
983
978
979
979
981
982
982
978
974
974
975
976
978
976
972
972
975
975
976
974
971
970
971
979
976
975
972
973
975
974
976
974
971
973
973
973
975
976
973
970
974
974
971
975
977
979
983
985
988
991
990
992
993
996
992
994
991
992
996
1000
993
993
988
984
986
987
986
983
984
986
987
988
985
982
976
973
973
974
976
974
971
972
978
982
981
980
980
977
977
976
977
978
973
972
973
976
978
976
973
968
967
960
961
964
973
992
1022
1063
1119
1175
1223
1255
1250
1210
1142
1056
962
889
868
885
908
924
941
954
963
970
974
975
975
976
976
980
978
979
977
976
978
982
981
978
977
975
977
979
976
978
977
973
975
980
984
983
984
986
992
995
996
992
996
996
999
1003
1004
1002
1003
1006
1010
1013
1016
1017
1016
1018
1023
1026
1027
1030
1030
1033
1035
1041
1042
1043
1044
1045
1045
1045
1045
1046
1043
1045
1050
1048
1053
1053
1051
1049
1051
1054
1055
1053
1049
1044
1045
1044
1042
1039
1033
1028
1024
1023
1021
1019
1012
1008
1008
1008
1008
1005
1004
999
998
999
999
998
998
997
999
1002
1001
999
997
997
996
995
999
1002
1002
1000
998
1001
1002
1001
999
1000
1006
1008
1005
1006
1005
1003
1007
1007
1008
1007
1004
1002
1007
1006
1006
1005
1003
1004
1005
1005
1002
999
999
999
1000
1000
1006
1003
1001
998
1004
1003
1004
1003
1005
1004
1003
1005
1006
1008
1005
1005
1005
1010
1014
1012
1008
1014
1017
1022
1024
1022
1020
1018
1022
1022
1027
1024
1022
1021
1023
1022
1022
1024
1022
1022
1026
1028
1025
1021
1014
1014
1016
1019
1019
1020
1020
1020
1020
1021
1020
1020
1018
1009
1009
1008
1011
1008
1007
1006
1007
1007
1008
1005
1003
1006
1006
1008
1011
1008
1009
1010
1010
1009
1003
999
997
1005
1021
1045
1078
1125
1181
1238
1281
1295
1265
1203
1122
1031
943
899
898
913
927
942
961
978
988
989
992
997
1002
1004
1003
1004
1004
1009
1010
1013
1009
1011
1008
1012
1013
1016
1019
1017
1015
1014
1016
1018
1015
1015
1016
1017
1017
1019
1020
1020
1016
1017
1022
1026
1029
1031
1032
1034
1040
1046
1051
1053
1050
1051
1056
1062
1066
1068
1070
1071
1075
1077
1080
1078
1074
1077
1077
1079
1084
1083
1082
1082
1085
1085
1085
1079
1077
1074
1072
1073
1073
1068
1062
1059
1058
1057
1054
1049
1043
1041
1039
1041
1037
1029
1023
1020
1022
1024
1020
1016
1013
1012
1015
1015
1014
1014
1013
1015
1019
1020
1021
1021
1018
1019
1023
1024
1024
1022
1021
1019
1020
1020
1023
1020
1019
1018
1013
1016
1018
1018
1012
1014
1015
1018
1018
1021
1015
1014
1013
1015
1015
1017
1019
1023
1023
1023
1022
1022
1022
1025
1030
1038
1038
1034
1029
1029
1031
1035
1034
1032
1028
1025
1023
1028
1029
1027
1023
1022
1022
1027
1027
1025
1022
1025
1023
1023
1026
1029
1027
1025
1021
1019
1015
1009
1004
1002
1002
1004
1005
1000
1001
1001
1002
1003
1004
1001
1000
1001
1002
1002
1004
1000
999
1000
1001
998
995
987
985
989
1001
1025
1055
1095
1145
1199
1254
1284
1273
1222
1146
1054
958
898
887
903
925
943
963
977
988
993
994
994
1000
1001
998
998
996
997
998
998
997
995
997
998
1002
1003
1002
1003
1006
1007
1011
1012
1013
1013
1010
1013
1012
1017
1011
1012
1013
1010
1012
1014
1016
1018
1016
1014
1018
1020
1023
1021
1024
1024
1026
1031
1032
1034
1035
1040
1047
1052
1052
1054
1056
1057
1059
1061
1063
1062
1058
1059
1059
1062
1068
1069
1066
1066
1065
1066
1062
1060
1054
1052
1050
1048
1044
1044
1041
1036
1033
1030
1026
1021
1017
1014
1014
1013
1013
1013
1011
1008
1008
1011
1011
1008
1008
1006
1006
1008
1010
1007
1003
1002
1001
1003
1004
1001
997
994
996
1000
1000
1001
994
991
993
994
994
995
990
994
998
1001
1002
1001
998
999
1001
1002
1000
999
999
997
995
1000
1002
1004
1004
1004
1007
1011
1013
1011
1009
1007
1009
1011
1013
1012
1011
1007
1009
1010
1011
1006
1007
1006
1007
1002
1000
997
998
998
1001
1004
1007
1004
1000
999
1002
1004
1006
999
996
991
988
988
988
984
981
980
981
983
984
980
977
977
978
980
979
977
974
973
973
978
975
973
964
962
962
970
981
997
1021
1058
1104
1160
1213
1253
1260
1233
1175
1099
1015
925
869
866
881
899
916
934
949
956
963
965
967
967
967
966
965
966
967
966
963
961
964
960
961
962
963
965
963
968
967
966
965
969
970
975
976
976
975
977
976
978
981
981
979
979
981
985
988
988
987
990
996
1001
1004
1006
1002
1001
1005
1009
1014
1016
1016
1017
1019
1024
1025
1027
1028
1028
1027
1028
1028
1030
1028
1029
1029
1029
1029
1024
1026
1022
1018
1017
1016
1011
1006
1001
999
998
993
988
981
978
975
976
971
970
965
965
966
966
965
962
959
958
958
956
957
954
955
953
955
955
956
955
953
953
956
957
955
951
951
946
948
951
956
961
958
956
953
952
953
952
950
949
947
952
952
949
949
949
950
950
950
946
947
946
949
953
955
954
954
956
960
