970
968
973
977
975
974
972
971
973
973
975
978
974
974
976
977
980
979
976
979
982
984
984
981
977
973
970
975
975
973
975
975
978
977
975
972
971
966
967
970
970
966
967
967
966
967
967
959
957
956
958
960
958
953
953
952
956
960
959
956
954
952
954
955
956
956
957
953
954
955
950
940
933
935
944
963
984
1016
1056
1109
1165
1213
1231
1215
1175
1114
1039
950
875
849
851
862
878
897
917
929
935
938
942
949
946
949
945
944
949
953
951
952
948
950
952
955
954
953
953
955
959
962
963
963
962
962
965
968
966
966
964
965
967
968
973
974
975
977
979
984
984
982
981
985
990
995
1000
999
1000
1002
1007
1011
1016
1016
1015
1018
1023
1025
1025
1023
1021
1019
1025
1026
1025
1023
1022
1019
1016
1019
1015
1013
1009
1009
1009
1005
999
997
991
987
986
984
981
975
970
971
970
970
970
968
964
963
967
965
961
959
957
955
957
957
956
953
954
956
956
957
957
958
952
950
954
957
958
955
957
958
961
965
964
956
956
957
960
963
963
960
957
960
961
966
966
962
964
962
967
968
967
966
964
967
971
977
978
978
977
981
982
982
984
985
984
983
986
986
984
979
977
975
976
977
979
979
976
973
970
970
971
970
970
970
969
974
973
972
968
967
968
968
963
958
955
955
953
957
957
957
957
958
958
960
957
958
956
959
960
964
965
964
960
959
956
954
956
960
972
994
1027
1070
1124
1180
1231
1257
1248
1206
1134
1045
949
880
854
869
892
912
931
946
957
964
966
967
965
967
963
967
972
967
965
967
971
972
973
971
970
971
973
975
979
978
975
975
976
980
980
979
980
978
985
991
992
992
987
988
990
994
997
997
997
995
1001
1009
1016
1013
1016
1020
1024
1031
1031
1030
1029
1034
1037
1043
1042
1046
1045
1045
1050
1050
1054
1050
1050
1050
1053
1057
1054
1051
1048
1047
1042
1041
1044
1039
1035
1029
1027
1025
1018
1013
1011
1004
1006
1008
1006
1000
995
993
994
994
995
995
992
991
992
997
996
995
991
989
989
994
992
991
990
989
989
991
988
984
985
984
986
989
989
987
986
982
985
987
987
985
984
984
986
986
987
987
983
981
984
987
989
986
985
984
986
988
991
993
994
993
999
1002
1003
1000
999
1004
1008
1010
1008
1006
1003
1002
1003
1005
1004
1002
998
994
994
997
997
994
992
990
994
996
994
995
996
996
995
998
992
990
984
977
980
980
983
979
975
974
976
977
976
979
977
980
981
982
983
983
982
981
980
981
983
980
971
966
969
971
989
1007
1036
1075
1125
1179
1226
1259
1254
1210
1140
1053
958
883
858
872
893
918
940
952
959
961
969
975
978
974
973
973
975
978
977
975
976
976
976
977
979
979
979
978
981
986
985
986
987
985
989
994
993
990
992
992
993
995
994
993
994
995
997
1001
1004
1003
1005
1003
1006
1008
1013
1019
1021
1024
1026
1031
1035
1036
1038
1038
1040
1045
1046
1047
1044
1046
1044
1050
1047
1049
1048
1046
1049
1048
1049
1047
1042
1039
1034
1032
1025
1021
1016
1011
1009
1008
1001
998
995
990
990
989
990
986
983
983
985
985
985
983
985
986
989
993
987
985
981
980
984
983
986
985
981
979
980
980
980
977
975
977
979
982
982
982
979
976
976
979
979
978
979
976
976
980
978
977
975
973
979
981
983
984
986
987
994
993
992
992
993
993
996
1001
1003
997
995
992
997
998
995
992
993
992
990
990
986
985
990
987
987
988
988
986
983
982
979
979
975
969
963
958
964
972
972
973
970
970
970
973
972
970
970
967
970
971
969
968
966
962
962
960
959
965
974
993
1025
1061
1109
1166
1213
1243
1233
1185
1112
1022
932
864
842
859
890
913
931
940
950
954
961
964
964
963
966
970
969
969
966
967
969
973
973
970
968
969
970
971
973
972
970
967
967
970
973
977
974
973
976
980
982
984
985
985
988
991
991
993
990
991
997
1004
1005
1003
1004
1009
1015
1016
1025
1029
1031
1036
1039
1038
1042
1041
1041
1040
1041
1044
1044
1046
1045
1042
1046
1051
1051
1050
1043
1037
1039
1039
1035
1030
1027
1020
1016
1017
1017
1013
1008
1001
998
993
991
984
983
981
980
985
984
982
982
981
980
980
982
981
980
977
981
982
985
984
984
984
986
987
985
980
979
977
982
985
984
982
980
979
981
981
982
981
982
983
983
983
982
980
980
979
979
980
978
980
977
980
983
989
989
991
989
987
986
998
998
995
992
995
999
1002
1002
1001
998
993
994
995
993
992
989
990
995
998
997
993
988
983
987
989
986
983
983
979
984
983
982
978
977
972
969
968
968
967
969
971
975
977
975
971
969
968
968
969
966
967
969
973
976
977
973
969
966
961
956
959
965
974
991
1024
1067
1120
1176
1222
1248
1238
1201
1145
1069
978
901
868
874
888
902
920
944
957
963
964
959
962
964
966
971
978
982
978
977
976
978
978
974
976
975
976
981
983
985
982
979
979
981
988
991
989
989
989
991
990
992
995
999
997
1001
1005
1012
1012
1010
1007
1011
1018
1026
1030
1030
1028
1027
1031
1034
1038
1041
1046
1050
1051
1053
1049
1049
1053
1058
1064
1063
1059
1056
1052
1053
1050
1051
1049
1049
1045
1044
1043
1034
1027
1020
1019
1016
1013
1010
1002
999
997
1001
1001
1000
999
996
990
987
989
989
990
989
984
985
989
989
987
985
985
990
994
995
991
987
985
987
992
992
991
989
988
994
997
998
993
989
987
987
991
991
992
990
987
987
990
989
992
991
990
993
995
999
997
998
1000
1005
1009
1014
1009
1004
1002
1008
1015
1015
1016
1011
1008
1009
1008
1008
1007
1002
1004
1008
1010
1006
1003
997
993
995
998
1002
1000
998
996
995
997
995
991
983
981
983
984
986
985
983
983
987
991
988
990
990
989
990
995
992
986
984
980
974
975
980
990
1011
1042
1088
1140
1194
1241
1261
1243
1198
1130
1041
949
887
875
887
902
916
933
950
958
969
973
975
979
982
983
985
986
987
985
982
981
984
991
990
992
987
985
988
991
992
992
990
990
992
996
1000
1000
998
1000
999
1005
1005
1005
1006
1003
1006
1010
1011
1010
1010
1013
1016
1022
1024
1027
1028
1029
1033
1032
1037
1039
1041
1044
1048
1052
1055
1057
1054
1055
1057
1056
1059
1059
1059
1056
1058
1061
1062
1060
1056
1051
1051
1052
1049
1042
1039
1035
1036
1035
1031
1023
1016
1012
1012
1016
1013
1010
1007
1002
1004
1004
1003
1001
997
995
994
993
994
993
993
992
993
995
998
996
994
992
995
996
995
992
993
994
993
998
1000
1000
1002
1005
1010
1015
1014
1010
1005
1005
1004
1007
1006
1007
1011
1013
1010
1013
1008
1008
1008
1009
1014
1017
1016
1011
1013
1012
1008
1009
1003
996
995
995
1001
999
999
995
995
992
995
996
997
994
993
992
992
993
996
992
991
992
992
995
995
988
981
975
971
972
981
1003
1033
1073
1124
1181
1234
1270
1271
1233
1174
1101
1015
933
889
889
909
935
956
970
979
983
992
995
994
996
996
994
995
997
996
997
995
994
994
996
997
997
996
995
999
1001
1002
1001
999
998
1003
1006
1004
1001
1003
1006
1011
1015
1014
1012
1014
1014
1017
1022
1025
1024
1028
1029
1035
1039
1040
1039
1043
1044
1049
1053
1056
1058
1054
1055
1056
1059
1061
1063
1063
1063
1065
1065
1066
1063
1063
1064
1064
1063
1059
1056
1055
1055
1052
1053
1052
1047
1041
1035
1038
1035
1030
1024
1019
1018
1018
1017
1016
1012
1009
1007
1009
1009
1006
1003
1002
1000
1001
1006
1002
1003
999
997
999
1001
1000
994
992
994
997
1000
998
998
995
995
995
998
1000
998
997
996
995
999
1002
999
996
996
998
997
1000
997
996
995
997
1001
998
999
998
997
999
1002
1003
1001
999
998
998
1001
1005
998
999
994
999
1000
1000
996
996
998
1000
1002
1002
997
994
995
997
1000
1001
999
995
997
1004
1006
1008
1011
1010
1010
1012
1015
1016
1015
1016
1014
1015
1016
1013
1012
1010
1008
1010
1014
1014
1008
1007
1006
1005
1005
1005
1002
1002
1003
1002
1005
1005
1006
1004
1005
1004
1005
1001
995
992
990
990
992
991
989
988
986
986
990
993
994
991
992
994
996
997
997
995
994
997
995
990
983
980
988
1006
1029
1053
1084
1128
1178
1230
1270
1286
1260
1207
1132
1049
963
897
871
877
899
919
935
955
968
975
981
985
992
989
989
985
983
988
990
990
990
985
986
988
990
994
991
989
990
991
995
997
996
996
993
997
1000
999
998
997
999
999
1004
1007
1003
1005
1006
1008
1013
1015
1016
1017
1016
1021
1026
1029
1029
1028
1029
1035
1038
1043
1043
1045
1047
1052
1057
1057
1055
1056
1057
1064
1067
1069
1071
1070
1071
1074
1074
1077
1074
1073
1073
1075
1077
1073
1071
1067
1062
1061
1061
1055
1049
1043
1036
1035
1033
1028
1024
1021
1019
1020
1015
1013
1010
1007
1005
1009
1008
1006
1005
1004
1003
1003
1005
1005
1001
999
999
1000
1002
1002
1001
999
999
1002
1002
1001
996
994
992
994
995
993
992
992
993
998
997
997
998
996
997
998
1000
997
995
993
992
998
1000
1000
1000
1001
1002
1001
1003
1001
1003
1001
1004
1008
1007
1010
1007
1011
1010
1016
1019
1020
1014
1012
1011
1009
1009
1012
1010
1012
1010
1010
1010
1008
1004
1001
999
1001
1005
1006
1003
1002
1000
998
998
997
989
986
982
980
980
981
977
975
977
978
984
981
980
978
982
986
986
985
984
983
985
986
990
987
983
975
970
970
973
983
1000
1020
1046
1091
1141
1192
1231
1250
1237
1196
1141
1069
979
902
865
872
888
902
917
934
948
962
972
972
974
974
976
977
981
983
987
984
984
983
987
985
985
986
984
990
992
990
986
980
982
985
988
993
994
995
996
998
999
999
996
999
999
1000
1010
1010
1011
1012
1014
1016
1019
1021
1021
1021
1022
1027
1028
1033
1035
1033
1036
1043
1049
1051
1047
1046
1047
1049
1055
1053
1047
1045
1049
1054
1057
1057
1055
1055
1058
1057
1055
1053
1050
1047
1044
1044
1043
1037
1032
1028
1023
1021
1018
1015
1008
1006
1005
1004
1003
999
993
994
993
995
996
995
991
990
988
988
994
995
995
993
993
994
996
992
986
985
987
988
990
995
990
985
987
990
995
996
995
989
989
989
992
992
991
993
996
1000
1002
998
999
997
996
999
1002
1000
994
992
991
994
999
1002
1006
1008
1009
1011
1011
1008
1005
1003
1000
1006
1013
1016
1015
1014
1010
1008
1014
1013
1014
1013
1011
1015
1015
1016
1012
1009
1000
1000
1004
1005
1003
998
998
1000
1001
1006
1004
997
992
991
989
986
987
985
985
986
988
987
982
979
979
981
984
981
981
983
983
984
986
984
982
983
978
980
978
975
976
983
999
1029
1063
1105
1152
1197
1237
1255
1240
1198
1134
1055
971
903
885
893
905
913
924
943
959
971
970
967
970
974
983
990
987
984
988
989
996
993
988
981
980
984
990
995
994
992
992
994
999
997
993
991
994
994
999
996
1000
1000
1000
1006
1008
1006
1004
1002
1006
1010
1014
1016
1013
1016
1017
1024
1028
1031
1031
1030
1033
1039
1044
1049
1052
1055
1058
1062
1064
1066
1063
1065
1063
1067
1068
1071
1072
1069
1068
1069
1071
1070
1065
1061
1057
1057
1055
1052
1046
1041
1039
1040
1039
1035
1029
1026
1019
1019
1019
1018
1014
1006
1006
1007
1004
1004
1000
997
998
997
1002
1003
1000
998
996
1001
1005
1005
1003
999
1000
1002
1002
1005
1004
1003
1001
1000
1004
1004
1003
1001
1000
1003
1005
1006
1003
1001
1002
1006
1006
1003
1002
1001
997
1002
1005
1006
1004
998
998
1004
1002
1005
1004
1008
1008
1012
1014
1012
1008
1008
1009
1012
1016
1015
1017
1012
1011
1013
1014
1015
1012
1007
1010
1011
1010
1008
1004
1000
1001
1004
1004
1003
1000
1001
1001
1001
1001
998
992
986
983
982
985
985
979
978
979
981
991
989
985
983
978
981
985
986
986
982
982
986
985
979
973
968
967
974
993
1014
1043
1080
1126
1179
1228
1258
1253
1213
1151
1069
982
906
867
870
887
907
927
944
959
967
970
973
977
980
977
978
978
979
982
984
982
981
980
984
985
986
983
983
984
984
990
990
988
988
989
992
994
996
991
992
992
996
1000
1001
999
999
1000
1001
1006
1008
1011
1011
1011
1014
1017
1023
1022
1023
1023
1027
1030
1033
1032
1034
1037
1039
1043
1047
1048
1052
1052
1056
1060
1063
1060
1056
1054
1058
1058
1059
1056
1056
1054
1055
1056
1051
1045
1042
1042
1042
1042
1036
1035
1032
1026
1022
1022
1017
1012
1006
1005
1005
1006
1004
998
998
999
1001
1002
1001
995
992
994
994
995
993
991
988
990
995
998
997
991
988
988
990
994
994
992
991
989
993
997
997
995
992
991
993
995
999
999
993
993
994
998
999
997
995
997
999
1002
1000
999
996
994
999
1001
1005
1003
1005
1006
1011
1012
1012
1011
1013
1016
1016
1020
1021
1013
1013
1011
1012
1015
1015
1012
1008
1008
1008
1008
1005
1007
1002
1000
1002
1006
1008
1006
1002
1000
1001
1002
997
991
986
985
987
991
989
988
986
985
988
991
990
989
987
984
990
993
994
992
985
984
984
984
981
971
973
989
1009
1045
1085
1133
1189
1239
1281
1287
1245
1172
1083
988
907
873
881
903
922
944
964
975
981
983
986
987
987
991
988
988
989
988
991
993
993
993
990
989
990
991
996
998
996
994
994
998
999
999
996
999
1001
1006
1010
1008
1010
1008
1011
1015
1016
1016
1014
1016
1020
1025
1025
1029
1027
1025
1030
1035
1037
1040
1038
1040
1045
1051
1051
1057
1055
1055
1059
1063
1062
1062
1063
1062
1065
1068
1068
1067
1065
1062
1065
1067
1067
1061
1055
1053
1052
1050
1048
1044
1039
1031
1028
1028
1025
1021
1018
1012
1010
1013
1013
1012
1010
1005
1003
1004
1002
1001
999
998
1000
1001
1001
998
996
997
995
998
995
995
992
993
999
1004
1005
1001
997
995
998
1003
1001
1001
996
994
997
1001
999
998
995
997
999
1002
1002
999
998
997
999
1004
1004
1004
1001
1002
1006
1010
1012
1011
1008
1008
1011
1017
1018
1018
1014
1014
1012
1017
1016
1012
1011
1008
1011
1017
1012
1006
1004
1003
1001
1003
1004
1002
999
1002
1006
1007
1004
1002
999
995
992
991
989
986
987
986
985
986
989
987
985
986
989
993
990
989
989
989
990
991
989
986
987
983
978
975
978
981
992
1011
1047
1091
1141
1194
1240
1267
1260
1217
1149
1070
980
900
870
879
900
923
940
956
972
983
985
987
986
981
983
988
989
987
984
985
986
990
992
994
992
992
992
993
994
992
991
992
997
1003
1006
1005
1000
1001
1008
1008
1010
1005
1004
1007
1010
1014
1018
1016
1016
1014
1021
1024
1028
1027
1031
1033
1037
1043
1044
1044
1048
1048
1051
1056
1059
1058
1059
1058
1062
1063
1066
1063
1066
1065
1067
1069
1071
1071
1068
1063
1063
1064
1060
1054
1050
1048
1047
1042
1039
1036
1030
1026
1027
1023
1021
1017
1015
1013
1014
1014
1008
1007
1004
1003
1004
1006
1007
1003
1001
1002
1005
1008
1008
1005
1000
1000
1002
1006
1010
1009
1006
1008
1009
1009
1009
1008
1007
1006
1005
1007
1010
1007
1005
1003
1008
1009
1008
1008
1005
1002
1003
1008
1008
1007
1003
1004
1004
1007
1012
1012
1014
1017
1021
1022
1021
1022
1020
1021
1025
1027
1026
1026
1019
1019
1022
1027
1025
1021
1021
1016
1018
1018
1017
1014
1010
1009
1011
1013
1014
1012
1010
1008
1007
1008
1003
999
998
995
995
997
995
995
994
994
996
998
996
993
993
994
997
1001
996
993
984
980
981
988
1001
1024
1059
1104
1158
1214
1257
1277
1256
1201
1132
1047
953
889
874
888
911
934
955
971
981
986
987
991
995
991
993
991
992
997
997
997
996
999
1001
1002
1006
1003
1002
999
998
1005
1007
1005
1003
1004
1006
1010
1012
1011
1009
1011
1016
1021
1023
1024
1021
1024
1023
1028
1029
1030
1030
1034
1037
1046
1049
1047
1048
1051
1055
1061
1063
1062
1061
1060
1062
1068
1070
1070
1070
1070
1071
1074
1072
1070
1066
1067
1067
1070
1066
1063
1058
1050
1049
1046
1042
1038
1029
1030
1024
1025
1024
1018
1014
1010
1012
1010
1007
1003
1000
1001
1003
1005
1004
1003
1002
1001
1002
1005
1005
1004
1005
1003
1002
1002
1001
1000
1001
1002
1004
1007
1003
1005
1002
1000
1000
1001
1006
1005
1003
1002
1004
1007
1005
1002
998
998
1000
1003
1003
1001
997
999
1005
1011
1010
1006
1006
1003
1012
1018
1022
1018
1015
1014
1019
1024
1024
1019
1016
1013
1013
1017
1019
1017
1010
1008
1009
1011
1008
1003
998
997
1004
1010
1009
1003
1001
1000
1001
1001
999
999
997
991
993
993
990
989
989
990
990
989
986
986
984
984
984
986
987
985
985
986
989
991
983
976
970
977
989
1007
1036
1077
1131
1188
1238
1258
1232
1178
1103
1012
925
881
882
897
916
937
958
970
975
973
975
978
986
988
987
985
982
981
982
983
981
983
982
983
984
989
992
988
987
987
988
989
989
995
996
995
1001
1005
1004
1003
1005
1007
1011
1010
1012
1011
1013
1015
1022
1024
1033
1034
1034
1036
1041
1043
1047
1045
1046
1046
1050
1058
1061
1058
1057
1059
1063
1063
1067
1067
1064
1063
1056
1054
1052
1048
1039
1038
1035
1033
1029
1020
1012
1007
1006
1008
1006
1004
1002
1001
1001
996
995
991
993
994
995
1001
998
995
993
993
999
1000
999
996
992
991
995
993
992
992
992
992
995
995
992
992
989
992
994
995
995
993
993
996
999
1001
998
997
994
995
1000
1002
1006
1005
1004
1004
1008
1011
1014
1015
1014
1013
1011
1016
1018
1017
1015
1015
1014
1017
1014
1014
1012
1010
1012
1011
1014
1011
1011
1006
1005
1004
1005
1006
1010
1007
1008
1012
1010
1008
999
1001
1001
997
996
992
991
991
992
994
995
989
988
985
987
991
992
990
989
989
991
994
993
989
986
985
982
981
978
980
989
1007
1037
1073
1116
1167
1214
1254
1274
1257
1213
1144
1063
975
906
880
888
901
913
933
954
970
978
978
978
980
987
991
990
989
988
988
991
993
994
992
987
987
993
999
1002
1000
1000
998
1002
1005
1003
1003
1000
1003
1005
1009
1013
1008
1009
1007
1009
1010
1015
1014
1018
1019
1021
1027
1030
1029
1029
1031
1038
1044
1045
1043
1044
1046
1050
1056
1055
1056
1058
1061
1064
1067
1069
1068
1063
1065
1070
1070
1074
1071
1071
1070
1072
1072
1071
1072
1068
1065
1063
1064
1062
1055
1049
1045
1045
1043
1037
1034
1025
1025
1024
1025
1022
1017
1013
1011
1010
1012
1011
1009
1006
1004
1005
1005
1005
1003
1001
1002
1005
1005
1003
1004
1004
1003
1000
1002
1004
1003
998
1001
1005
1009
1009
1006
