980
987
989
987
981
978
977
977
978
981
976
974
973
979
984
980
970
965
965
966
971
974
971
971
973
978
978
977
971
967
966
972
980
983
981
972
970
972
977
979
980
982
981
982
984
984
983
979
975
977
982
987
985
980
975
973
971
971
973
977
981
985
985
981
980
975
969
971
975
977
973
971
974
979
980
978
971
963
958
954
954
951
952
954
956
954
957
960
958
956
953
953
958
962
961
958
954
952
952
953
951
946
947
959
978
1003
1035
1076
1127
1185
1237
1264
1246
1194
1116
1025
933
869
852
860
875
889
910
926
934
935
938
940
948
956
956
951
949
949
952
952
952
950
950
952
955
956
957
953
952
951
952
953
953
952
950
955
961
964
963
964
963
965
970
973
972
972
971
974
975
981
980
979
978
978
983
985
988
986
990
995
997
1000
1000
996
1002
1006
1012
1018
1017
1017
1014
1016
1016
1021
1023
1024
1026
1027
1030
1030
1027
1023
1022
1021
1018
1014
1009
1009
1010
1008
1001
999
993
991
987
987
986
985
984
979
975
974
977
980
979
974
972
970
971
969
969
966
963
961
964
964
960
958
958
961
963
964
960
956
958
961
964
962
960
956
955
959
965
967
964
962
959
960
961
961
961
961
963
963
965
969
969
965
959
963
965
971
979
982
985
985
982
981
975
977
978
983
990
991
986
983
984
986
989
990
988
983
979
984
986
988
985
983
983
982
984
988
988
981
976
974
976
981
979
971
966
964
968
964
962
957
956
964
971
979
979
978
976
974
973
976
976
969
961
958
958
961
960
961
959
965
974
1000
1026
1060
1099
1145
1198
1243
1262
1243
1194
1121
1040
959
896
868
872
891
910
930
944
951
952
955
959
964
967
963
960
960
962
964
966
967
973
977
978
973
965
957
955
957
964
966
966
964
964
967
971
974
977
975
972
975
980
984
981
976
972
975
979
985
984
981
983
990
1005
1013
1012
1006
1005
1013
1020
1024
1027
1023
1020
1020
1026
1031
1031
1026
1022
1021
1023
1027
1023
1019
1016
1013
1022
1020
1011
1008
1004
1006
1008
1006
995
986
978
977
980
980
973
970
972
975
983
985
980
971
962
960
962
963
963
959
957
958
960
960
954
948
945
950
957
962
961
960
961
960
963
966
967
961
960
962
966
968
971
971
966
959
955
953
953
951
950
948
952
954
956
957
962
963
962
963
962
964
963
966
970
973
973
965
961
960
962
965
961
959
957
959
960
964
963
960
954
952
948
950
952
951
948
952
955
958
953
948
943
943
945
946
941
940
939
940
946
939
935
934
934
934
940
949
946
936
931
933
939
943
941
937
931
925
925
926
937
947
965
996
1035
1079
1124
1168
1208
1225
1216
1178
1113
1024
926
854
832
844
849
853
862
887
908
922
922
916
913
915
920
925
925
920
919
922
926
929
927
925
925
925
925
923
920
918
923
925
931
930
929
923
924
924
926
934
938
940
941
942
947
953
955
954
950
954
956
959
954
946
946
950
956
961
962
963
968
973
977
985
981
978
974
974
983
987
987
984
984
986
990
994
992
991
987
987
986
990
988
986
985
983
977
969
961
959
958
954
946
947
945
943
940
936
937
939
941
941
941
937
930
927
927
927
928
927
930
930
927
924
922
920
920
924
927
926
925
930
938
952
952
936
924
919
925
932
932
929
927
928
931
934
932
930
925
924
927
933
934
934
937
936
937
939
942
947
952
953
950
950
949
955
957
959
965
961
950
942
937
934
936
936
938
937
938
937
938
941
937
934
931
932
933
936
939
937
934
934
934
932
930
928
928
925
921
921
922
921
917
917
915
917
917
909
907
908
913
919
919
920
918
917
921
921
918
914
910
899
897
907
917
936
967
999
1038
1089
1144
1194
1219
1205
1153
1077
981
886
826
817
834
846
863
873
883
886
889
900
912
919
917
919
914
909
901
901
902
901
907
908
910
909
908
911
917
917
918
920
918
922
923
927
925
929
926
927
933
938
933
930
929
930
935
935
932
934
933
940
952
960
966
969
966
968
969
974
982
982
982
987
990
994
993
991
991
994
999
1004
1000
995
995
995
998
998
995
993
992
990
997
999
997
988
984
981
981
982
981
982
977
970
964
965
967
965
961
954
945
948
949
952
951
951
957
960
954
941
936
937
945
950
951
948
947
949
954
960
959
959
957
957
959
960
961
959
960
960
959
964
963
964
965
967
966
970
971
968
963
959
963
964
962
956
950
953
959
965
970
974
975
972
971
974
973
972
966
967
964
967
965
962
965
966
966
967
964
957
956
955
953
958
956
956
953
953
963
967
967
964
959
957
957
959
960
957
949
948
948
954
956
956
959
958
964
965
964
959
955
950
952
958
960
955
947
941
941
941
936
940
951
967
1000
1033
1080
1132
1179
1224
1257
1255
1212
1142
1060
971
894
857
850
865
883
900
914
927
933
937
941
940
942
945
944
945
941
942
944
945
944
947
949
950
955
961
967
975
978
973
970
963
956
949
946
945
951
954
962
959
956
958
962
965
966
967
970
970
977
983
986
985
984
986
994
998
1002
1005
1007
1005
1010
1017
1022
1024
1025
1025
1023
1023
1024
1027
1029
1034
1044
1048
1049
1044
1037
1028
1024
1023
1016
1017
1016
1020
1023
1019
1012
1002
999
998
1002
1000
996
996
991
989
988
987
987
983
984
986
987
990
990
987
985
984
985
985
984
976
978
981
989
992
995
995
995
997
998
997
992
985
989
992
998
1004
1006
1005
1004
1001
1004
1008
1012
1009
1004
999
998
998
992
990
987
984
984
984
979
975
976
978
980
977
977
975
974
969
969
970
974
976
982
989
995
996
995
989
988
988
985
983
977
983
996
1014
1042
1082
1129
1179
1224
1249
1248
1214
1145
1060
967
903
887
903
924
944
960
969
980
983
989
987
984
984
987
988
987
985
985
978
973
971
975
988
995
990
991
990
993
991
992
996
999
1007
1009
1011
1009
1006
1006
1007
1002
1005
1004
1010
1016
1022
1025
1023
1019
1015
1013
1019
1024
1027
1031
1036
1043
1045
1048
1047
1050
1047
1045
1046
1047
1046
1046
1049
1056
1056
1052
1050
1054
1059
1060
1057
1057
1059
1065
1066
1059
1057
1056
1056
1050
1029
1011
999
992
995
999
997
993
993
996
996
999
1000
999
997
999
1003
1005
1002
1004
1006
1003
996
995
996
998
1000
1005
1006
1002
999
994
992
990
984
979
975
982
992
1002
1007
1006
1005
1008
1011
1013
1015
1016
1011
999
995
994
997
1001
1004
1006
1012
1008
999
994
993
997
1004
1006
1002
998
992
989
991
989
993
995
1000
998
999
994
992
996
997
1000
1001
1000
998
998
1005
1010
1016
1018
1017
1010
1010
1021
1032
1030
1021
1017
1021
1027
1028
1015
997
990
989
996
1002
1005
1006
1005
995
1002
1006
1009
1009
1006
1003
1003
1005
1002
1001
1001
1002
1002
1004
1007
1010
1009
1010
1007
1000
995
987
980
975
980
990
994
991
988
988
992
995
997
998
1004
1006
1011
1006
1001
995
992
1007
1036
1068
1101
1144
1196
1246
1275
1265
1221
1151
1062
965
906
898
913
916
919
932
953
971
980
984
988
995
998
1001
1005
1004
995
988
986
995
999
998
995
995
1006
1009
1012
1008
998
984
980
981
987
991
994
997
994
994
994
993
998
1003
1008
1009
1014
1017
1020
1019
1017
1016
1015
1017
1019
1024
1026
1034
1037
1044
1051
1059
1067
1076
1084
1093
1086
1061
1027
1005
1017
1038
1050
1052
1052
1052
1052
1053
1053
1061
1067
1070
1069
1059
1049
1042
1037
1029
1016
1008
1001
1002
1004
1007
1007
1002
1001
1003
1004
1009
1012
1011
1012
1013
1019
1019
1014
1002
985
978
978
982
986
991
997
1001
1009
1012
1004
999
1004
1010
1011
1015
1009
995
981
977
983
992
998
996
996
994
1000
1002
1004
1002
999
999
1001
1003
1000
1005
1011
1017
1021
1022
1009
997
987
989
996
1004
1011
1019
1019
1018
1022
1017
1016
1014
1018
1015
1003
994
984
987
990
995
1005
1016
1027
1026
1011
992
988
995
1003
1006
1000
987
982
983
982
979
974
978
987
999
1007
999
985
978
978
986
988
989
984
974
967
966
967
972
990
1022
1068
1115
1166
1215
1249
1257
1233
1177
1103
1012
929
881
883
905
925
940
952
961
968
973
980
985
987
986
984
980
978
969
955
948
948
955
962
969
971
974
980
988
991
994
989
983
987
992
997
1000
1000
999
1000
1004
1000
992
987
984
995
1003
1007
1005
999
1002
1011
1020
1023
1019
1014
1012
1016
1018
1024
1032
1043
1054
1057
1060
1054
1050
1044
1043
1047
1053
1059
1062
1060
1067
1080
1096
1100
1081
1053
1026
1014
1014
1019
1018
1006
991
987
995
1008
1014
1009
1006
1008
1009
1003
999
995
993
993
996
998
998
997
991
987
988
988
989
986
982
980
982
990
995
997
992
993
995
997
994
995
996
988
970
960
961
974
989
994
995
995
998
983
966
953
953
960
966
968
973
978
984
985
986
982
988
994
1003
1008
1007
1000
989
982
990
1006
1019
1023
1014
1006
995
992
997
1002
1006
1015
1018
1018
1020
1009
999
997
999
1001
1003
1007
1006
1004
1003
1008
1006
993
983
980
984
990
986
988
989
992
999
1003
999
995
997
997
995
989
986
987
994
1000
1001
998
992
979
973
973
985
1009
1046
1091
1147
1202
1243
1261
1240
1195
1119
1027
938
889
889
911
937
963
978
994
1002
1003
993
985
990
990
979
969
967
975
982
986
987
986
986
988
990
993
998
998
1002
1006
1008
1012
1015
1011
1005
998
997
999
1010
1023
1031
1035
1031
1024
1014
1005
1008
1020
1033
1039
1043
1046
1052
1055
1050
1045
1043
1043
1043
1046
1053
1062
1070
1074
1070
1058
1054
1053
1048
1039
1029
1032
1037
1037
1036
1036
1036
1031
1024
1022
1022
1021
1013
1007
1003
1006
1008
1010
1011
1011
1015
1019
1018
1015
1015
1024
1028
1015
999
990
993
999
1001
1001
995
990
985
987
994
998
992
983
981
983
995
996
992
991
995
1005
1015
1017
1010
1003
1000
1001
1001
999
1000
1003
999
1002
1003
1006
1004
1000
997
1000
1013
1024
1025
1020
1019
1023
1027
1032
1032
1030
1023
1016
1012
1011
1017
1020
1026
1031
1036
1033
1019
1004
993
1002
1015
1024
1022
1014
1008
998
989
982
977
979
981
985
987
988
988
986
982
984
984
983
980
975
971
977
991
1000
1003
1003
1003
1002
1001
1001
993
983
975
969
971
982
998
1023
1050
1088
1141
1195
1235
1251
1236
1195
1134
1055
966
904
893
901
912
919
934
949
960
974
981
985
991
999
1004
1013
1019
1012
1003
993
992
985
980
979
983
987
989
993
995
996
1003
1002
1003
1007
1011
1015
1015
1018
1023
1029
1032
1031
1027
1021
1014
1008
1005
1005
1009
1012
1014
1018
1025
1026
1019
1020
1023
1032
1036
1039
1038
1038
1038
1045
1051
1057
1059
1057
1050
1046
1050
1051
1045
1043
1042
1049
1058
1061
1059
1052
1046
1038
1030
1024
1021
1020
1018
1020
1019
1017
1013
1009
1004
1004
1004
994
986
983
984
980
975
973
977
986
991
997
999
997
985
978
983
989
990
985
973
965
964
971
976
978
979
978
976
978
977
982
984
986
987
991
994
997
998
990
987
986
991
994
991
989
991
997
1006
999
985
975
974
983
988
991
990
988
991
999
1006
1011
1011
1008
1003
1005
1007
1007
1007
1001
1007
1013
1021
1018
1011
1007
1007
1011
1012
1008
1009
1004
993
979
979
985
994
996
996
999
1001
990
975
973
979
989
998
1000
988
970
955
954
959
963
965
971
975
979
985
983
981
978
974
970
969
971
976
990
1013
1048
1089
1136
1186
1228
1255
1262
1231
1172
1090
998
918
877
872
891
907
924
937
958
975
989
994
989
983
980
986
992
990
985
979
979
980
977
974
971
975
983
988
989
982
979
978
977
980
985
984
985
984
985
989
986
985
978
977
989
1002
1009
1014
1014
1016
1018
1018
1013
1010
1013
1018
1025
1021
1013
1004
1003
1010
1015
1019
1020
1022
1026
1026
1032
1033
1035
1036
1033
1031
1033
1030
1032
1028
1027
1027
1035
1044
1046
1042
1034
1028
1023
1018
1010
1005
1000
996
996
995
992
989
985
980
983
984
982
976
970
968
975
977
982
981
977
970
966
966
967
973
975
969
963
950
942
940
939
943
949
951
950
947
946
948
953
962
965
963
961
957
958
957
960
960
962
960
960
961
959
961
957
952
951
955
958
959
956
952
955
961
963
968
970
970
977
981
980
978
977
978
978
980
976
969
962
957
963
970
973
971
966
963
959
961
961
962
956
951
952
958
958
960
967
978
985
977
967
951
947
947
952
958
954
944
941
939
942
949
948
943
937
935
937
942
946
948
945
946
949
952
954
952
941
930
925
930
934
937
946
957
973
994
1022
1061
1108
1159
1205
1228
1220
1182
1128
1061
987
916
869
855
860
872
885
904
922
928
929
930
934
936
936
935
938
936
942
940
937
935
934
934
939
941
943
937
938
940
948
952
957
954
952
951
953
954
959
962
954
951
962
969
973
966
958
948
947
952
963
971
968
958
957
971
982
985
976
971
976
988
995
996
1000
1005
1009
1015
1019
1021
1021
1013
1007
1007
1010
1012
1011
1014
1015
1021
1024
1023
1024
1026
1027
1025
1013
993
981
981
983
988
986
974
966
961
964
967
962
961
955
961
965
968
971
971
973
966
963
953
945
940
942
945
952
958
963
964
959
958
957
951
956
960
953
959
970
979
978
970
959
952
947
951
954
955
953
951
951
953
953
954
955
957
963
967
973
978
984
988
988
989
993
994
988
979
966
962
967
978
980
978
974
966
967
971
974
972
972
976
981
980
978
979
978
976
970
967
971
983
986
974
959
952
957
965
973
976
980
982
978
970
964
960
960
955
950
952
956
960
959
952
949
941
941
947
953
954
955
961
962
969
973
974
961
947
948
965
992
1011
1036
1070
1120
1176
1218
1237
1224
1190
1139
1073
992
913
870
868
873
880
890
906
915
922
929
939
948
966
972
973
965
955
951
950
952
958
955
953
952
956
951
944
950
965
987
1002
1008
1000
987
972
958
954
953
954
957
960
967
969
973
969
962
965
969
975
974
975
974
971
977
982
996
1001
1007
1016
1024
1025
1026
1029
1029
1030
1032
1029
1023
1017
1025
1037
1038
1021
1004
1001
1006
1014
1013
1016
1014
1012
1010
1009
1006
1002
1007
1021
1037
1047
1038
1015
992
982
981
984
983
980
978
981
992
996
986
970
956
948
955
958
959
956
956
959
969
980
988
983
966
949
944
948
953
955
957
963
981
997
1008
992
955
932
931
950
964
965
954
946
941
939
940
937
935
940
951
964
980
1000
1011
1000
969
946
941
948
955
964
969
979
992
1009
1023
1020
1003
975
957
941
933
933
940
949
956
958
959
961
973
985
995
1006
1008
998
970
938
928
934
944
960
977
988
983
964
951
959
962
956
941
925
924
934
938
938
939
940
938
939
944
949
950
950
949
949
955
956
952
947
940
932
930
940
969
1010
1062
1126
1191
1230
1237
1205
1154
1083
991
896
837
828
848
870
893
912
927
934
936
935
941
946
946
942
939
935
938
944
948
948
943
940
943
947
947
948
949
948
946
952
955
960
960
958
953
953
958
971
985
1004
1011
996
976
956
945
943
942
950
966
982
988
990
995
994
998
995
991
984
993
1009
1020
1025
1025
1026
1041
1040
1023
1003
999
1006
1019
1028
1025
1020
1015
1005
1004
1005
1004
1001
998
1002
1003
1010
1011
1002
988
972
971
984
997
998
985
968
965
972
966
954
937
931
938
948
959
965
968
969
972
973
973
966
963
961
970
978
982
977
973
971
973
974
974
969
969
973
986
1001
1011
1009
991
973
962
963
969
970
966
966
973
986
1002
999
979
961
957
967
978
982
981
976
976
975
977
982
984
982
981
985
984
989
990
995
1002
1003
996
985
976
976
974
960
954
957
967
969
965
975
988
990
984
981
977
960
952
957
962
961
954
950
950
957
963
966
967
968
971
970
970
972
972
968
963
958
959
963
974
989
1013
1040
1075
1118
1171
1218
1250
1251
1213
1148
1066
975
893
848
844
865
887
905
923
936
943
952
961
965
961
958
958
955
958
962
968
973
981
983
994
1007
999
969
939
938
951
955
952
949
953
961
959
955
959
966
968
969
969
967
966
963
961
962
962
973
986
996
998
989
981
980
995
1012
1012
994
980
982
992
1002
1007
1004
1004
1008
1012
1013
1013
1013
1019
1023
1024
1025
1022
1022
1021
1025
1026
1023
1017
1015
1015
1012
1008
1001
998
999
999
1000
995
989
983
979
977
976
971
963
955
953
957
962
968
966
961
956
958
959
957
952
950
952
954
955
951
952
950
950
953
953
950
950
946
949
952
954
956
955
953
952
959
965
961
945
929
925
929
937
946
948
944
942
942
945
953
958
963
963
960
963
965
966
961
960
961
963
966
966
965
966
972
975
975
962
956
950
948
957
975
974
953
934
931
944
950
946
940
937
933
934
935
936
936
935
935
937
942
941
939
940
942
943
941
940
936
933
937
937
936
934
926
920
919
927
940
963
992
1035
1086
1137
1182
1207
1201
1160
1094
1011
922
854
833
846
864
879
894
906
915
914
914
920
921
923
925
925
932
939
938
934
934
932
930
926
924
925
927
924
920
923
924
922
921
924
932
940
939
936
933
935
944
947
951
953
951
950
954
958
968
965
971
973
985
989
978
965
966
972
980
990
1001
1008
1000
986
970
967
973
983
985
986
988
993
996
997
1000
999
998
988
979
974
973
974
976
982
980
968
956
953
953
960
969
977
974
960
941
927
917
915
918
926
932
935
931
925
925
928
934
940
942
940
941
947
954
947
930
918
916
926
932
933
931
929
927
927
927
934
943
946
943
939
934
931
931
936
943
943
943
946
952
956
960
962
962
955
951
951
957
965
978
987
986
975
959
951
952
958
961
963
