955
958
958
956
958
955
958
961
958
956
954
954
958
960
961
960
964
967
968
974
971
967
966
966
970
974
975
973
972
968
972
974
973
971
967
967
970
971
968
963
958
957
957
962
961
961
960
963
964
966
961
955
956
954
950
948
949
946
947
945
946
948
944
944
942
943
944
945
947
942
943
942
942
942
942
940
937
930
928
932
942
960
989
1029
1088
1146
1198
1222
1212
1170
1106
1028
928
845
812
816
840
863
885
907
920
925
926
932
930
930
935
938
941
944
941
939
938
940
943
946
943
940
942
941
941
948
946
948
951
953
955
958
955
954
952
952
954
958
959
960
963
966
969
971
971
973
978
978
984
989
992
993
993
991
993
1000
1001
1006
1006
1004
1004
1005
1008
1007
1007
1004
1010
1013
1014
1015
1014
1015
1016
1016
1014
1008
1007
1003
1003
1005
1002
997
987
986
986
986
984
981
979
978
977
976
970
967
964
962
964
962
960
961
963
961
958
960
957
957
958
958
961
967
965
962
959
958
961
965
967
967
964
964
963
966
962
962
965
965
965
965
967
966
968
967
967
966
968
961
963
961
962
966
967
965
965
967
966
970
971
969
968
967
975
983
983
981
976
975
979
981
985
984
983
982
983
983
981
979
976
976
979
982
983
978
973
969
967
972
972
970
968
968
973
976
975
970
969
962
960
960
962
961
959
958
961
963
959
961
957
956
958
959
961
959
957
957
958
961
959
954
949
945
947
958
974
996
1026
1063
1112
1167
1214
1246
1251
1220
1159
1086
993
896
840
834
859
885
905
922
933
939
949
957
959
956
954
951
954
960
960
962
955
955
958
962
961
963
960
959
960
965
967
965
964
962
966
971
974
973
971
972
974
976
976
975
973
971
978
983
985
987
986
983
990
995
999
1000
999
1000
1002
1008
1011
1010
1011
1012
1017
1020
1023
1021
1021
1020
1019
1025
1026
1024
1023
1023
1026
1029
1027
1023
1020
1021
1020
1022
1016
1015
1008
1006
1007
1005
1003
999
992
987
988
987
983
983
981
979
982
984
984
980
975
975
976
977
978
977
976
974
977
977
980
976
974
974
976
979
980
974
971
971
972
975
976
974
974
973
975
980
978
972
973
971
972
979
981
982
977
975
976
979
978
978
978
979
982
984
988
987
987
984
988
991
990
989
991
991
992
994
991
992
987
986
988
990
989
987
983
980
981
983
983
978
976
978
982
984
979
977
974
971
970
968
967
966
963
959
961
966
967
966
964
961
966
971
969
967
967
966
965
967
963
959
951
947
955
968
990
1019
1050
1093
1146
1200
1240
1251
1227
1168
1095
1010
917
849
832
854
879
906
923
936
945
952
958
964
966
964
965
962
964
966
966
966
962
963
962
965
965
967
963
963
968
973
972
971
968
969
975
981
983
979
979
977
982
987
988
984
986
985
991
996
999
998
998
999
1002
1006
1007
1010
1013
1014
1019
1022
1024
1024
1024
1024
1027
1031
1028
1028
1028
1030
1034
1037
1037
1034
1035
1034
1035
1036
1035
1034
1030
1027
1027
1028
1027
1023
1020
1013
1010
1010
1009
1005
1001
997
996
994
991
986
985
984
982
984
985
984
982
979
978
981
982
980
978
978
982
985
983
980
980
979
980
980
979
976
974
974
978
978
979
975
976
976
980
981
981
978
974
975
977
979
977
976
975
977
978
979
976
975
977
977
980
984
982
982
981
984
990
992
993
994
990
994
994
999
999
994
991
991
990
993
995
991
988
985
984
982
981
976
973
973
974
979
981
984
984
978
977
980
978
971
965
961
965
966
967
965
962
961
964
965
966
965
962
966
971
974
975
970
967
959
957
953
950
950
957
976
1000
1040
1087
1137
1187
1225
1233
1202
1139
1063
971
881
837
842
863
886
903
922
936
944
949
948
951
955
962
968
965
966
962
959
963
961
966
968
965
964
967
969
968
964
964
965
969
973
974
972
974
975
978
977
980
979
981
984
988
991
991
990
988
991
997
1006
1009
1012
1014
1016
1016
1015
1014
1014
1018
1021
1026
1031
1030
1028
1027
1029
1033
1036
1033
1031
1029
1030
1035
1036
1036
1034
1030
1030
1032
1031
1031
1029
1025
1017
1014
1011
1007
1004
1001
998
998
997
995
989
985
985
986
987
987
984
983
984
988
986
985
977
976
974
976
975
978
979
977
973
978
976
978
979
982
977
976
979
980
980
982
980
981
983
979
977
977
977
978
984
985
983
982
979
983
983
980
976
974
977
982
986
988
988
990
992
992
994
994
994
993
994
999
999
999
992
987
984
988
991
994
995
988
988
990
988
987
982
977
980
984
988
987
986
983
984
984
984
979
975
970
967
968
969
969
967
965
964
968
975
976
974
976
977
977
970
967
966
967
964
963
963
963
959
952
947
949
962
983
1013
1053
1101
1164
1216
1240
1229
1188
1121
1042
951
878
850
856
867
880
905
926
941
947
949
955
959
963
964
961
965
964
966
965
962
961
962
966
971
973
971
968
971
974
976
977
977
975
972
977
981
984
989
989
987
989
992
993
993
988
990
993
1000
1001
1003
1000
1005
1008
1014
1019
1021
1017
1015
1017
1022
1027
1028
1028
1030
1032
1034
1033
1033
1034
1035
1036
1037
1033
1031
1027
1022
1024
1025
1022
1012
1008
1002
999
996
990
987
983
982
983
983
979
978
976
978
977
974
975
972
972
974
975
979
982
977
976
974
977
978
978
975
973
972
977
979
982
982
977
977
978
980
980
980
977
974
978
984
985
986
980
978
982
979
980
976
973
975
979
989
990
992
989
986
989
994
995
993
989
991
994
996
997
991
985
984
987
987
986
981
979
976
981
982
984
982
982
981
983
988
985
981
976
973
971
973
972
968
968
966
965
967
968
966
963
964
966
971
971
969
968
970
971
970
966
966
958
951
948
955
966
984
1009
1047
1098
1156
1205
1247
1253
1218
1156
1077
986
894
845
842
863
889
911
928
940
950
960
967
970
969
966
966
971
974
973
969
967
971
973
975
975
970
972
971
973
976
978
977
974
979
980
984
982
982
980
980
985
991
992
991
993
991
997
1002
1003
1004
1002
1006
1009
1011
1016
1016
1016
1017
1020
1026
1027
1025
1025
1031
1034
1039
1038
1036
1034
1033
1038
1045
1045
1044
1043
1040
1042
1046
1046
1044
1045
1040
1042
1042
1040
1041
1037
1029
1031
1030
1028
1024
1020
1016
1015
1015
1014
1009
1006
1002
1001
1002
1000
999
997
993
997
999
997
991
989
989
991
994
993
993
993
991
994
996
999
994
992
991
992
996
995
989
991
991
994
992
993
994
995
994
995
994
995
996
993
990
992
994
990
989
989
989
989
993
994
994
993
992
995
998
998
993
992
990
993
998
1004
1005
1003
1003
1004
1009
1009
1008
1006
1004
1006
1009
1012
1008
1007
1003
1005
1006
1006
1002
1002
997
996
994
990
991
992
992
991
994
995
993
991
990
991
991
988
984
980
977
980
981
981
980
977
979
980
980
979
976
977
973
979
982
984
981
981
979
977
975
969
963
961
963
978
1002
1032
1067
1110
1157
1210
1254
1271
1250
1200
1130
1053
965
883
847
853
876
899
922
938
952
958
961
969
977
978
975
971
968
969
972
972
971
968
970
976
978
975
972
971
973
978
980
974
975
973
980
983
984
985
986
986
985
985
989
992
991
993
993
995
999
1001
1000
1001
1003
1006
1012
1015
1013
1014
1013
1019
1026
1027
1026
1027
1027
1031
1036
1041
1038
1035
1034
1037
1042
1040
1038
1040
1042
1045
1046
1044
1043
1042
1042
1040
1044
1044
1037
1031
1029
1030
1032
1031
1025
1021
1018
1014
1012
1008
1002
998
994
993
996
994
991
989
988
990
992
987
986
986
981
982
984
984
981
982
981
981
987
987
982
981
981
985
987
985
983
982
983
982
984
987
986
986
984
988
988
987
988
988
987
987
988
989
985
983
980
983
988
985
984
984
982
984
984
984
981
980
983
986
988
992
990
988
990
993
997
994
989
994
995
999
1000
998
996
990
993
998
1002
998
997
995
994
994
995
993
988
987
984
988
989
992
989
990
990
993
991
989
986
985
978
982
975
975
971
968
968
971
976
976
972
971
968
968
973
972
971
970
971
970
975
974
972
968
966
967
963
960
954
958
967
994
1026
1062
1109
1151
1197
1231
1245
1230
1187
1130
1059
977
899
852
847
863
885
914
937
951
953
954
955
963
968
975
974
967
964
964
966
967
965
966
964
968
972
971
971
969
967
970
973
977
976
976
976
980
981
983
982
982
984
985
988
985
983
984
986
989
987
990
989
992
995
1001
1005
1009
1008
1009
1010
1015
1019
1019
1021
1021
1021
1023
1027
1030
1029
1025
1023
1026
1031
1034
1035
1035
1033
1039
1039
1037
1033
1033
1035
1038
1039
1037
1034
1030
1025
1027
1025
1024
1025
1017
1008
1004
1004
1003
1000
993
991
989
990
988
984
984
983
983
981
978
972
971
973
974
977
976
979
977
974
980
981
980
976
973
973
975
979
981
980
979
981
980
978
976
972
971
969
974
974
975
975
974
970
972
973
976
975
975
975
978
982
981
979
975
974
976
978
981
979
975
976
981
984
989
988
988
986
988
989
989
990
991
992
993
992
992
991
987
986
986
985
989
987
982
980
981
982
982
978
978
978
984
985
981
977
976
974
974
973
970
966
967
966
969
968
970
967
965
962
964
969
968
962
963
962
963
968
965
963
962
956
949
952
953
962
976
1001
1038
1084
1135
1185
1222
1232
1214
1174
1115
1039
952
873
835
841
855
868
888
914
934
946
950
953
953
956
960
961
960
958
958
957
963
966
963
963
956
959
961
964
968
966
965
968
971
975
978
973
972
971
976
978
982
978
975
976
981
987
989
988
988
987
988
994
998
999
997
1002
1010
1015
1016
1015
1021
1020
1026
1028
1030
1030
1028
1029
1031
1034
1034
1033
1032
1031
1032
1033
1033
1030
1026
1026
1026
1030
1032
1028
1024
1022
1016
1018
1013
1011
1008
1004
1003
1003
1002
995
992
990
991
993
993
987
984
982
982
987
986
983
982
981
981
983
980
977
978
978
977
979
979
977
976
975
977
983
983
982
979
977
983
989
989
986
985
986
986
987
988
988
989
987
989
992
990
989
986
988
990
990
988
984
985
988
989
987
987
986
986
985
989
991
997
999
998
998
996
998
1001
1000
1000
998
999
1003
1001
998
998
1002
1007
1011
1010
1008
1003
998
990
989
987
983
984
984
987
993
994
991
989
984
985
982
979
974
973
974
976
981
981
977
975
974
974
978
978
976
974
973
981
988
986
978
973
970
965
965
966
971
984
1009
1041
1081
1129
1183
1230
1266
1274
1242
1180
1092
999
909
860
860
881
907
925
941
953
963
974
974
975
975
979
980
982
979
976
976
976
979
978
977
977
977
981
985
985
984
984
984
982
984
985
988
988
988
994
999
1002
1000
998
999
1000
1005
1008
1006
1004
1009
1012
1016
1017
1016
1017
1018
1025
1029
1028
1029
1030
1032
1031
1036
1036
1038
1036
1036
1041
1043
1044
1043
1042
1038
1044
1050
1051
1050
1048
1043
1043
1049
1048
1043
1038
1035
1040
1040
1039
1033
1029
1025
1022
1019
1012
1007
1004
1006
1005
1004
1002
998
995
989
993
991
993
992
990
994
995
998
996
996
993
992
996
1004
1003
1001
998
996
995
996
997
998
998
995
995
1000
998
996
989
991
995
998
1000
997
995
997
998
1001
1001
995
993
995
1001
1000
1000
995
996
998
1003
1007
1008
1005
1007
1008
1010
1014
1013
1008
1008
1007
1006
1007
1005
1005
1007
1003
1002
1003
1001
996
989
988
992
995
993
988
989
991
994
994
989
986
984
982
976
974
971
969
972
974
979
978
977
976
976
978
984
988
990
986
984
987
990
990
988
983
980
976
974
971
976
986
1007
1042
1089
1150
1206
1253
1281
1267
1215
1142
1053
956
884
857
869
891
916
934
950
960
971
981
983
981
975
975
979
985
987
984
979
981
988
989
990
987
988
989
991
993
994
994
992
991
994
999
998
997
998
1001
1005
1008
1010
1014
1014
1016
1018
1021
1022
1018
1015
1019
1024
1029
1030
1026
1023
1033
1038
1043
1045
1038
1044
1044
1049
1048
1050
1049
1051
1052
1057
1058
1058
1056
1061
1064
1070
1071
1068
1057
1044
1039
1035
1041
1041
1037
1035
1033
1035
1037
1036
1030
1021
1012
1012
1017
1015
1009
1004
1004
1006
1010
1008
1008
1004
998
1004
1012
1011
1007
1001
998
1001
1007
1011
1008
1009
1011
1013
1014
1015
1015
1009
1006
1008
1008
1006
1003
998
993
994
997
997
995
990
991
993
995
996
993
990
990
993
994
995
996
998
997
1000
1003
1003
1004
1001
998
1003
1012
1014
1011
1010
1009
1012
1013
1013
1014
1009
1006
1007
1010
1008
1003
997
995
997
1000
998
993
989
990
998
998
994
992
992
993
998
995
989
983
980
975
979
982
980
976
975
972
976
976
977
974
976
976
978
980
980
975
969
969
972
973
974
969
962
960
960
965
977
998
1028
1064
1113
1161
1203
1233
1234
1198
1133
1060
973
882
831
831
854
883
906
924
935
953
962
962
959
960
959
962
966
969
970
970
966
956
957
957
957
957
960
966
969
972
972
974
971
967
967
972
975
974
973
975
980
981
981
982
986
992
999
999
996
989
986
989
997
1002
997
1000
1006
1011
1014
1020
1026
1027
1025
1017
1016
1018
1020
1021
1019
1024
1028
1027
1023
1021
1020
1022
1029
1036
1039
1033
1026
1020
1017
1018
1017
1017
1014
1011
1017
1020
1018
1008
998
983
970
965
966
965
963
963
969
975
978
978
976
974
975
976
973
971
966
964
972
978
985
986
978
964
967
973
978
974
973
973
979
975
972
968
970
971
979
982
980
975
965
957
953
955
963
968
963
957
962
971
990
1003
1007
995
977
953
941
950
960
959
957
958
967
981
982
978
977
980
986
989
985
979
979
981
975
965
954
965
981
990
990
984
969
960
961
968
968
950
938
938
955
963
955
944
939
939
949
954
952
950
952
953
955
961
966
974
976
969
957
954
960
958
951
946
952
953
946
935
939
960
997
1033
1063
1082
1110
1151
1199
1209
1171
1099
1025
943
873
846
855
872
881
900
926
947
958
966
975
975
972
968
971
979
985
980
971
959
967
971
975
967
961
961
966
970
967
965
974
982
991
990
988
985
990
997
1006
1010
1008
1005
1007
1012
1014
1006
995
988
994
1001
1004
1007
1010
1010
1013
1018
1025
1027
1028
1029
1042
1049
1048
1048
1045
1046
1043
1043
1043
1048
1045
1047
1054
1064
1071
1067
1060
1055
1046
1033
1024
1029
1036
1048
1059
1059
1045
1033
1026
1033
1042
1046
1037
1020
1007
1006
1004
1003
1006
1009
1011
1012
1021
1030
1036
1036
1037
1038
1044
1048
1053
1057
1055
1047
1037
1033
1038
1042
1036
1018
1001
998
1010
1020
1025
1022
1018
1021
1026
1026
1027
1029
1029
1030
1027
1027
1033
1038
1039
1035
1036
1041
1041
1032
1031
1023
1014
1000
995
1000
1012
1025
1030
1026
1018
1018
1023
1028
1033
1032
1033
1037
1032
1021
1009
1007
1014
1035
1074
1124
1180
1234
1266
1256
1208
1144
1078
998
927
901
907
922
940
976
1016
1043
1045
1016
981
965
975
989
1000
1011
1032
1046
1040
1027
1024
1030
1033
1032
1038
1043
1043
1032
1024
1023
1017
1013
1007
1002
1005
1010
1019
1030
1041
1048
1058
1057
1055
1052
1048
1044
1054
1058
1059
1048
1040
1035
1039
1047
1059
1065
1062
1052
1044
1044
1054
1059
1060
1063
1063
1062
1062
1067
1074
1085
1092
1086
1072
1055
1045
1045
1051
1056
1057
1061
1066
1078
1076
1063
1054
1037
1021
1012
1013
1009
1004
1007
1021
1029
1030
1025
1022
1017
1010
1005
1009
1013
1011
1011
1011
1016
1013
1011
1011
1013
1011
1014
1010
1008
1009
1013
1026
1038
1040
1034
1035
1045
1047
1037
1029
1033
1044
1049
1042
1015
990
988
999
1010
1020
1027
1027
1023
1017
1017
1017
1021
1022
1020
1016
1019
1017
1021
1017
1016
1012
1015
1023
1028
1027
1017
1010
1004
1008
1011
1013
1009
1007
1006
1008
1015
1018
1017
1017
1017
1021
1024
1023
1021
1026
1026
1030
1028
1030
1034
1033
1030
1026
1027
1032
1029
1025
1030
1045
1048
1030
1013
1004
1003
1006
1009
1013
1012
1012
1014
1019
1022
1024
1021
1014
1014
1020
1023
1017
1007
1001
998
1003
1007
1006
1004
999
994
998
1001
1004
1003
1000
993
986
978
972
973
993
1026
1068
1117
1170
1217
1244
1238
1205
1148
1074
985
911
876
878
886
894
907
920
939
953
962
967
970
972
974
979
979
978
975
974
975
976
976
974
972
966
969
975
975
978
979
976
977
978
976
977
973
974
977
979
983
983
979
984
984
984
991
992
991
990
991
996
999
999
997
993
993
996
1001
1004
1009
1007
1008
1008
1012
1015
1015
1014
1012
1012
1014
1015
1014
1011
1011
1016
1020
1020
1019
1017
1015
1015
1018
1015
1014
1008
1004
1004
1003
998
995
994
992
992
991
987
984
977
973
975
978
978
974
970
965
965
968
966
966
964
962
962
960
960
962
964
963
961
963
961
960
954
955
957
960
961
966
966
965
967
968
967
964
958
953
953
952
960
956
953
952
959
961
962
962
960
959
961
963
965
962
963
968
976
978
970
960
949
949
955
964
964
960
952
944
943
944
943
940
941
939
937
939
940
938
936
936
937
938
937
931
930
927
932
942
950
943
928
902
892
903
910
912
910
909
905
897
894
896
903
911
918
919
919
913
910
912
920
926
943
976
1024
1076
1133
1179
1201
1205
1180
1133
1063
969
874
806
794
807
826
843
867
887
898
908
915
918
916
909
903
903
907
912
910
910
913
905
887
877
876
877
881
881
889
894
897
901
908
917
930
940
948
938
919
907
908
915
922
931
937
949
969
996
1026
1042
1041
1025
1015
1010
1002
994
992
995
993
988
980
979
979
982
984
965
944
937
943
953
967
986
1017
1049
1055
1019
967
930
915
914
917
929
942
952
953
947
947
946
933
914
904
910
915
917
921
925
925
915
908
911
916
923
925
921
923
928
947
966
974
969
972
979
975
954
932
916
910
917
936
947
944
935
929
929
