1212
1187
1137
1067
978
890
834
823
838
858
878
902
915
929
934
937
942
942
943
943
943
943
949
953
952
950
949
951
958
970
977
978
974
957
938
932
937
943
944
945
954
962
963
968
967
971
974
977
980
980
984
984
983
983
991
1000
1004
1003
1006
1010
1007
1007
1010
1009
1008
1010
1012
1015
1018
1021
1023
1026
1026
1024
1024
1025
1030
1032
1029
1021
1014
1008
1005
1006
1003
999
994
994
995
994
991
984
983
983
985
986
985
984
987
984
986
983
972
963
959
960
964
971
976
976
973
971
971
972
976
977
974
976
978
981
982
979
978
973
972
977
981
983
982
981
984
992
995
992
985
978
976
979
985
989
989
992
998
1000
1002
1000
995
993
992
992
994
998
995
994
993
991
993
994
997
995
993
993
989
984
986
983
985
989
988
988
987
990
992
997
992
981
970
966
972
978
975
971
969
969
968
968
966
966
961
964
969
973
972
971
968
965
963
956
957
956
965
980
1009
1039
1080
1125
1177
1227
1268
1288
1265
1201
1109
1007
919
869
861
875
893
908
923
940
951
959
963
961
964
964
961
956
955
953
956
959
960
961
958
956
957
961
962
967
966
965
964
965
966
966
964
966
969
971
975
977
978
976
982
982
980
982
983
986
991
992
993
986
983
986
991
1002
1006
1007
1003
1006
1010
1015
1017
1016
1011
1012
1018
1023
1026
1024
1020
1016
1012
1016
1016
1011
1011
1008
1006
1012
1009
1004
998
995
994
989
985
980
972
968
968
971
972
974
973
970
972
972
974
968
967
965
968
971
966
965
961
963
966
966
966
962
958
960
966
975
978
978
974
968
964
963
960
956
952
954
958
962
961
957
956
959
966
971
969
966
967
970
977
975
983
980
976
971
978
981
979
981
981
982
981
982
982
979
981
977
976
982
988
985
984
981
980
979
976
968
968
968
971
973
971
969
964
960
957
959
955
954
955
958
964
967
965
967
965
960
965
967
969
966
965
963
961
956
949
946
950
967
995
1029
1073
1120
1170
1220
1244
1235
1185
1112
1026
939
871
847
855
878
898
918
936
947
954
957
960
958
956
953
951
948
948
947
952
962
966
964
955
948
948
955
960
957
953
952
961
967
969
964
959
957
957
964
968
969
969
972
970
974
974
976
979
987
991
995
999
1008
1009
1010
1010
1016
1026
1029
1021
1007
1008
1018
1023
1021
1012
1013
1016
1021
1022
1017
1021
1023
1028
1033
1033
1028
1023
1022
1026
1024
1021
1018
1017
1016
1015
1016
1013
1003
986
974
973
981
986
990
992
985
977
976
980
977
970
960
957
959
959
963
968
973
978
978
975
973
977
979
990
999
1009
1009
1000
981
960
954
961
978
990
994
995
985
976
958
944
941
949
951
950
949
951
955
961
968
971
974
969
968
980
997
1008
1001
976
952
936
941
962
988
1013
1026
1017
990
975
968
961
957
962
969
969
962
951
947
954
964
973
984
992
995
987
972
955
935
920
904
894
895
916
943
960
963
953
932
913
904
905
915
925
932
943
952
950
931
919
940
986
1043
1093
1137
1185
1226
1244
1224
1180
1118
1041
957
897
878
886
898
913
932
943
954
953
953
957
962
969
967
970
972
975
977
970
967
958
953
953
953
953
952
953
950
954
957
959
959
954
955
958
962
963
965
967
970
975
977
978
975
980
988
999
1004
1010
1016
1019
1024
1032
1038
1042
1046
1052
1055
1057
1058
1058
1057
1060
1069
1073
1076
1071
1064
1056
1052
1045
1045
1045
1040
1034
1029
1031
1031
1028
1019
1009
1005
1004
1003
994
986
981
981
982
984
985
980
975
977
976
979
978
974
972
971
971
971
973
971
972
971
972
973
975
978
976
979
984
986
989
986
985
981
979
983
986
986
983
982
987
993
994
993
991
987
989
990
992
991
992
997
1003
1003
1000
994
991
990
995
1003
1006
999
997
1003
1010
1007
998
994
991
990
984
986
990
986
985
983
986
991
994
995
990
983
978
981
984
985
983
982
978
972
967
965
973
982
989
992
985
974
963
964
970
975
976
974
978
995
1021
1060
1114
1172
1226
1252
1239
1199
1134
1053
958
889
871
879
893
902
916
928
947
955
950
946
951
955
958
953
954
956
953
949
951
957
963
966
962
957
959
966
974
973
974
971
967
975
976
974
966
965
973
978
981
982
986
991
999
999
990
987
987
991
999
1007
1010
1014
1017
1025
1018
1013
1013
1023
1037
1043
1039
1038
1039
1036
1028
1028
1031
1034
1031
1027
1028
1029
1024
1022
1017
1014
1017
1014
1017
1014
1009
1001
994
991
990
991
987
979
972
972
971
970
972
975
972
965
965
968
974
976
965
957
958
963
967
967
961
959
964
975
981
978
972
969
970
972
976
978
979
979
980
985
981
975
970
974
982
991
1000
994
988
989
998
1004
1003
1000
1000
1003
1009
1012
1010
1011
1012
1009
1010
1012
1013
1008
1007
1008
1009
1010
1010
1001
997
998
1000
995
995
998
1000
999
1001
1000
998
996
993
988
985
991
995
995
989
989
990
996
996
992
991
990
993
997
999
993
992
991
997
1009
1034
1071
1120
1178
1238
1287
1296
1259
1186
1094
991
907
881
891
910
922
934
952
970
981
982
984
989
992
991
989
988
988
987
991
991
997
995
998
998
1000
998
996
992
995
1003
1006
1006
1003
1000
1001
1006
1012
1013
1011
1012
1014
1022
1025
1026
1027
1026
1029
1032
1036
1036
1039
1044
1045
1053
1059
1066
1069
1067
1066
1065
1069
1072
1070
1071
1078
1082
1081
1071
1063
1060
1062
1058
1055
1048
1040
1037
1036
1035
1033
1034
1028
1021
1015
1013
1010
1015
1017
1017
1018
1014
1009
1010
1011
1011
1007
1008
1011
1008
1006
1008
1009
1010
1009
1008
1004
1010
1011
1013
1015
1014
1017
1020
1020
1015
1021
1020
1022
1019
1016
1018
1025
1025
1026
1030
1034
1036
1036
1032
1030
1033
1037
1039
1039
1040
1037
1036
1034
1029
1026
1030
1035
1035
1037
1038
1035
1029
1024
1024
1022
1024
1025
1026
1027
1029
1026
1025
1022
1020
1015
1011
1003
1001
1005
1007
1006
1003
1003
1008
1010
1014
1018
1017
1014
1012
1011
1011
1009
1007
1002
1001
1005
1018
1041
1075
1120
1171
1234
1285
1320
1317
1271
1198
1100
994
910
883
895
916
934
955
971
979
990
997
1000
1001
1003
1001
1001
1004
1005
1009
1002
999
1001
1003
1009
1007
1003
1002
1005
1007
1007
1012
1011
1013
1014
1015
1014
1016
1013
1014
1016
1019
1019
1021
1020
1019
1020
1025
1031
1034
1037
1038
1040
1043
1052
1058
1061
1061
1059
1063
1067
1070
1071
1071
1074
1076
1078
1076
1076
1079
1081
1079
1081
1081
1078
1074
1070
1070
1074
1070
1062
1056
1053
1050
1046
1041
1039
1038
1040
1042
1035
1033
1027
1022
1022
1017
1015
1014
1014
1013
1009
1008
1012
1011
1013
1009
1005
1008
1006
1007
1008
1008
1006
1006
1006
1010
1009
1008
1008
1010
1010
1006
1000
1000
1005
1008
1008
1009
1007
1012
1010
1012
1015
1009
1008
1007
1008
1014
1018
1021
1017
1018
1020
1025
1023
1023
1025
1024
1026
1026
1027
1024
1021
1016
1020
1018
1021
1023
1026
1023
1018
1018
1016
1016
1013
1015
1013
1012
1014
1014
1013
1012
1016
1017
1012
1008
1003
998
1001
1005
1007
1003
996
995
998
1000
1002
1000
1003
999
995
994
995
996
997
996
993
991
989
986
987
995
1012
1040
1072
1111
1154
1203
1249
1296
1324
1319
1278
1205
1115
1018
931
882
875
887
905
920
945
962
971
975
979
984
985
984
984
982
980
986
990
993
994
992
990
992
993
993
993
990
989
992
994
996
994
994
994
997
997
1000
1000
1003
1003
1005
1006
1007
1006
1004
1006
1007
1014
1019
1020
1020
1019
1021
1026
1033
1036
1038
1038
1043
1051
1054
1060
1055
1057
1058
1064
1066
1067
1065
1067
1065
1071
1073
1073
1071
1071
1070
1070
1068
1061
1060
1058
1055
1053
1050
1046
1040
1037
1035
1032
1035
1027
1022
1017
1019
1018
1019
1017
1014
1016
1013
1012
1008
1001
998
999
1003
1005
1007
1010
1007
1006
1008
1009
1009
1006
1007
1007
1012
1013
1012
1009
1009
1008
1006
1007
1012
1007
1002
1004
1003
1006
1009
1006
1006
1004
1007
1009
1010
1009
1010
1012
1016
1021
1024
1024
1023
1022
1022
1027
1029
1033
1030
1028
1028
1028
1027
1024
1020
1022
1023
1025
1026
1029
1032
1032
1025
1024
1021
1023
1020
1019
1022
1023
1024
1023
1021
1020
1021
1022
1017
1013
1010
1004
1003
1004
1004
1005
1003
1001
1005
1004
1009
1003
1001
1001
1000
1003
1006
1005
1001
1002
1003
1004
998
991
985
988
997
1007
1025
1046
1078
1117
1166
1223
1273
1310
1320
1298
1243
1166
1078
982
906
876
885
904
920
934
949
963
972
984
988
986
987
985
981
984
986
985
984
980
981
987
989
988
984
985
987
990
990
990
989
988
990
993
993
992
994
994
995
999
1002
1003
1000
1006
1008
1012
1010
1008
1008
1008
1015
1024
1032
1033
1030
1027
1031
1032
1035
1035
1040
1042
1047
1051
1053
1055
1055
1054
1059
1065
1070
1064
1062
1063
1065
1065
1063
1059
1052
1045
1043
1044
1049
1047
1042
1035
1032
1033
1031
1027
1015
1006
1002
1004
1004
1004
1001
997
995
998
1000
1002
1001
999
992
991
993
993
991
992
991
991
990
988
987
988
991
991
994
991
986
988
990
990
992
987
983
981
981
982
988
984
986
982
983
985
989
985
984
987
994
1002
1005
1003
1001
993
990
995
999
1002
1004
1001
994
991
993
998
1004
1003
999
993
992
992
989
984
987
993
995
991
991
988
989
995
993
990
991
989
992
995
992
981
974
968
972
977
984
983
981
979
979
983
983
981
980
981
987
991
986
976
967
967
969
970
974
986
1011
1049
1099
1154
1203
1243
1252
1234
1190
1124
1034
935
875
864
873
882
902
927
942
950
955
964
969
971
971
969
966
969
972
971
971
972
976
988
990
984
972
963
963
968
974
975
969
969
972
978
981
981
975
977
977
979
987
989
992
990
990
996
1003
1009
1011
1015
1023
1029
1028
1023
1014
1015
1025
1039
1042
1041
1034
1028
1030
1036
1047
1052
1052
1052
1048
1045
1048
1048
1050
1050
1048
1049
1054
1057
1050
1038
1025
1020
1017
1018
1011
1006
1005
1010
1009
1003
998
994
991
993
994
999
998
994
991
987
986
985
986
985
982
977
978
976
972
972
970
971
971
975
977
978
977
981
983
982
985
987
987
986
980
973
964
963
968
972
974
979
982
983
982
979
972
968
969
976
993
1025
1069
1111
1163
1210
1254
1280
1275
1231
1161
1076
989
915
881
880
890
902
919
939
954
957
960
965
970
972
972
972
975
977
984
990
986
982
972
962
961
964
963
964
959
962
962
967
972
970
967
965
971
975
978
983
983
985
983
984
983
987
991
995
998
999
1005
1006
1007
1009
1015
1021
1022
1025
1030
1028
1034
1042
1046
1046
1040
1035
1032
1040
1051
1056
1054
1053
1052
1053
1055
1053
1042
1032
1020
1019
1024
1025
1021
1016
1014
1009
1009
1005
1002
998
997
998
999
995
991
989
985
983
984
982
984
985
986
987
996
991
983
975
972
976
979
980
979
978
973
974
978
981
984
986
984
985
981
980
977
977
981
986
989
988
985
985
985
987
989
989
982
989
992
991
988
978
980
984
988
989
984
977
974
972
976
978
977
972
968
970
975
978
983
982
981
980
983
984
987
985
981
978
982
985
990
991
990
983
983
984
982
977
977
978
982
990
995
995
992
988
987
987
995
997
996
993
997
999
1004
1006
1008
1006
1000
997
997
994
988
987
988
991
992
994
992
990
991
993
995
993
987
980
983
983
980
983
986
988
989
992
989
985
980
980
978
979
980
973
969
968
973
986
1011
1040
1078
1128
1192
1254
1295
1295
1241
1152
1042
939
881
877
896
913
935
951
962
968
968
966
971
976
977
977
973
970
970
973
978
982
981
975
972
974
980
977
978
978
980
984
984
988
991
990
985
984
986
985
982
981
986
992
994
1001
1004
1004
1004
1007
1008
1014
1013
1014
1020
1026
1034
1038
1041
1039
1045
1053
1058
1054
1057
1055
1053
1052
1052
1055
1059
1059
1056
1055
1051
1044
1039
1040
1045
1043
1041
1036
1033
1032
1030
1033
1027
1026
1022
1022
1016
1014
1010
1007
1005
1002
1004
1006
1009
1004
997
992
987
992
994
993
989
987
987
990
993
992
992
994
993
993
994
992
989
991
992
997
999
999
999
996
995
989
989
991
992
995
995
999
996
994
988
989
990
994
997
996
1002
1004
1009
1011
1014
1012
1005
1004
1007
1010
1016
1015
1014
1012
1010
1013
1012
1011
1007
1010
1014
1013
1007
998
996
997
998
996
995
998
999
995
994
989
991
987
984
981
983
982
986
984
980
982
982
986
990
987
989
987
986
987
989
989
982
976
969
963
960
959
967
984
1013
1047
1092
1150
1208
1258
1279
1253
1182
1090
993
908
867
874
896
921
942
956
968
968
969
969
964
960
959
963
967
965
962
963
965
969
968
972
967
969
967
971
977
979
977
978
979
981
983
981
979
979
979
985
987
988
989
991
992
996
998
999
1003
1005
1009
1014
1018
1020
1022
1028
1037
1040
1045
1042
1042
1030
1031
1039
1044
1047
1047
1049
1048
1048
1048
1045
1041
1036
1035
1031
1033
1030
1026
1021
1016
1010
1008
1005
999
995
990
994
996
993
987
983
984
991
992
989
979
976
974
980
981
978
976
974
978
979
981
975
976
971
968
971
975
972
971
974
974
978
983
985
981
977
972
972
975
974
966
961
963
969
976
974
974
974
980
986
992
991
990
991
993
992
991
992
990
992
1002
1005
1006
993
989
987
991
992
996
991
988
992
995
993
994
991
994
992
988
987
987
988
989
984
982
977
976
971
967
966
965
971
976
976
971
970
969
974
978
977
977
979
983
984
981
972
966
962
963
967
981
1011
1048
1088
1133
1185
1232
1250
1229
1184
1115
1033
955
886
861
865
879
892
914
932
948
956
959
962
967
966
960
955
954
959
963
964
963
964
966
963
964
963
965
967
966
968
971
973
975
974
976
980
984
980
982
982
985
989
986
986
987
989
996
1002
1004
1002
999
1000
1004
1014
1022
1024
1026
1028
1032
1036
1037
1043
1041
1040
1042
1043
1048
1049
1054
1055
1053
1049
1050
1048
1045
1040
1042
1038
1031
1026
1021
1019
1014
1012
1013
1007
1000
995
991
991
997
998
994
989
982
983
987
988
989
987
981
974
967
964
966
963
963
964
967
973
973
971
970
972
975
976
972
966
962
969
975
981
974
970
970
973
977
975
973
975
980
982
981
975
970
976
979
985
988
985
980
976
983
986
987
988
985
987
994
997
999
993
987
988
989
990
992
994
993
987
980
979
977
979
983
984
988
984
980
975
974
972
974
975
973
965
960
963
965
966
965
959
955
952
955
959
963
960
957
956
956
961
961
959
956
952
948
950
958
978
1010
1050
1098
1162
1217
1257
1257
1219
1146
1047
941
864
844
855
870
888
911
927
935
938
940
947
956
958
959
957
959
957
959
960
957
954
956
954
955
958
960
960
963
968
970
972
970
968
971
973
974
976
974
978
986
993
994
989
984
990
996
1001
1004
1004
1004
1006
1011
1017
1025
1029
1030
1033
1041
1047
1043
1039
1036
1039
1043
1051
1058
1060
1059
1058
1054
1052
1051
1047
1038
1036
1038
1036
1031
1024
1012
1009
1008
1007
1007
1007
1002
998
994
992
989
984
977
972
972
978
980
975
971
964
960
959
961
961
955
956
957
962
962
963
960
958
961
964
967
968
966
961
961
962
964
968
968
967
964
963
965
964
961
962
967
976
974
968
959
956
959
968
975
979
978
972
968
963
962
962
957
949
955
970
989
1017
1051
1098
1160
1218
1264
1278
1250
1192
1107
1016
932
879
872
889
911
933
954
963
964
961
960
961
962
962
958
960
961
964
964
965
964
964
965
968
969
974
974
970
966
963
965
972
971
969
967
965
972
977
978
975
972
973
976
980
980
980
984
990
999
1000
1000
1001
1005
1011
1018
1024
1021
1024
1027
1028
1034
1036
1036
1030
1031
1035
1041
1037
1033
1031
1036
1036
1033
1024
1022
1018
1016
1014
1012
1011
1004
999
995
996
996
991
985
977
968
968
971
971
970
967
967
967
968
970
967
965
968
970
974
971
966
963
966
971
971
972
968
964
965
966
970
975
974
974
972
970
971
970
968
964
962
966
973
978
975
973
971
971
971
970
962
962
965
968
970
971
968
967
966
971
972
974
972
969
969
969
970
970
966
964
966
969
971
967
963
960
958
966
971
975
976
968
969
969
975
980
978
981
983
986
986
989
987
989
987
982
985
982
980
977
978
982
988
985
978
975
977
981
985
984
983
982
982
983
980
973
966
963
965
968
973
973
973
973
971
965
972
977
974
969
959
954
967
980
1000
1031
1078
1139
1206
1262
1294
1284
1234
1155
1059
954
874
850
870
899
919
932
940
944
952
962
966
965
962
963
966
969
969
967
965
963
963
964
967
970
969
965
966
969
973
971
965
965
968
976
976
973
968
972
976
982
987
987
984
987
993
999
1004
1005
1003
997
999
1008
1016
1018
1019
1019
1021
1026
1033
1036
1038
1038
1040
1045
1049
1057
1054
1050
1051
1049
1050
1051
1050
1048
1046
1043
1043
1040
1034
1030
1028
1029
1027
1020
1012
1005
1002
1001
1003
999
994
989
988
984
986
987
983
980
979
983
987
987
984
986
988
991
992
985
977
973
976
980
982
982
979
977
978
979
983
980
974
973
979
981
983
984
982
980
978
980
983
984
981
981
980
981
982
982
979
979
983
984
989
987
984
983
987
990
995
997
998
1000
1000
997
994
992
995
1000
1000
1002
1004
1002
997
998
1000
1003
1003
997
994
995
994
994
992
990
986
985
985
989
992
995
996
994
992
992
994
989
980
975
973
974
978
980
979
977
975
979
983
977
975
972
970
973
977
976
974
970
968
967
964
958
955
960
977
1006
1047
1091
1145
1200
1248
1283
1279
1232
1149
1056
959
885
855
860
877
898
917
936
948
952
955
960
961
961
965
964
962
958
960
963
968
970
968
962
965
966
969
971
969
966
965
968
972
974
974
975
975
978
979
981
979
979
978
986
991
993
990
989
991
997
1001
1003
1004
1007
1009
1014
1018
1021
1020
1023
1026
1033
1041
1045
1045
1041
1040
1043
