973
969
968
967
968
974
977
980
978
979
981
982
981
982
980
983
982
983
980
980
976
975
972
979
981
980
975
973
973
972
975
976
972
965
967
972
972
970
965
960
960
961
958
949
951
952
955
958
959
961
954
949
946
946
954
956
953
952
949
954
955
954
954
948
946
947
944
943
952
970
996
1034
1080
1128
1176
1215
1231
1207
1154
1081
987
894
840
836
852
872
889
910
930
940
941
944
943
947
948
950
950
948
948
947
950
953
957
957
952
949
952
953
954
956
958
958
961
961
962
961
959
960
965
965
965
963
961
965
974
977
980
979
980
982
984
986
987
988
989
990
996
996
1002
1004
1008
1009
1014
1020
1024
1022
1022
1024
1027
1027
1030
1029
1027
1027
1029
1032
1034
1031
1024
1019
1018
1021
1025
1023
1016
1012
1008
1010
1008
1003
997
991
989
987
989
987
988
984
982
983
983
980
976
973
976
979
980
975
971
967
968
968
968
968
969
967
970
974
974
972
969
969
972
972
971
970
968
968
968
970
973
973
969
970
975
978
980
978
971
968
972
973
974
972
967
969
974
979
981
979
977
974
979
986
986
981
980
980
985
989
993
989
985
988
991
989
988
982
977
976
979
981
982
985
985
981
979
977
978
979
977
976
977
978
978
973
969
969
964
963
960
960
959
960
961
962
959
959
957
956
959
963
964
960
960
958
962
967
968
965
957
950
948
949
957
962
979
1007
1043
1087
1134
1181
1222
1243
1236
1197
1135
1052
964
885
847
846
862
886
909
926
938
948
954
956
956
957
961
965
965
963
962
960
958
961
964
963
959
954
958
962
968
970
966
964
969
971
977
975
969
971
975
979
982
979
978
981
986
992
996
995
992
990
997
1006
1008
1010
1009
1009
1008
1014
1022
1024
1025
1024
1030
1031
1031
1032
1031
1031
1036
1037
1038
1037
1029
1031
1033
1037
1039
1037
1036
1032
1030
1029
1031
1030
1026
1024
1020
1017
1017
1011
1005
1000
999
998
996
994
989
986
987
990
991
988
985
983
984
988
990
985
981
980
983
985
987
984
981
981
983
985
985
986
983
982
980
982
982
981
977
977
978
984
985
984
982
981
978
981
980
980
981
982
986
987
984
984
982
984
988
991
993
994
996
996
998
999
998
995
994
998
999
1004
1002
999
995
994
994
993
992
985
982
982
984
990
990
988
988
987
990
987
986
984
979
975
975
977
977
975
969
968
971
976
975
976
972
972
973
976
975
972
969
968
969
970
969
962
953
951
954
970
993
1025
1060
1105
1165
1221
1260
1260
1218
1142
1046
950
878
853
862
885
907
928
943
950
955
959
962
966
967
966
962
962
962
969
971
970
966
963
966
971
971
973
974
974
976
977
979
977
974
979
977
981
983
979
976
982
987
984
990
987
984
990
989
990
992
992
997
1002
1009
1011
1009
1016
1017
1018
1019
1023
1026
1025
1027
1025
1034
1034
1036
1033
1032
1033
1036
1038
1041
1038
1037
1036
1036
1036
1036
1038
1038
1034
1030
1034
1030
1030
1023
1018
1015
1013
1013
1007
1000
997
996
998
995
992
992
989
988
990
991
988
984
984
987
991
990
986
982
980
982
985
984
980
979
977
981
982
982
980
976
976
979
981
984
978
979
977
976
981
984
981
978
975
978
982
984
982
981
980
984
987
987
983
981
985
987
988
990
993
994
996
997
996
993
990
992
997
999
998
998
993
992
992
998
999
997
996
993
992
993
993
990
987
983
982
986
987
989
987
987
985
989
987
981
969
962
959
962
966
968
967
962
961
962
965
964
966
968
969
967
967
970
971
966
963
963
963
955
953
951
958
978
1009
1045
1086
1137
1187
1228
1247
1227
1173
1104
1022
931
861
838
846
875
897
919
937
946
953
953
956
956
961
964
966
966
967
967
967
967
966
964
963
964
963
962
959
963
963
964
967
969
969
965
961
968
972
973
976
974
972
976
982
984
989
990
993
997
1001
1005
1004
1007
1010
1012
1018
1019
1019
1020
1022
1019
1022
1023
1028
1030
1031
1033
1037
1039
1039
1036
1034
1035
1040
1041
1044
1042
1039
1038
1039
1039
1033
1026
1022
1023
1025
1023
1016
1010
1007
1003
1001
999
998
994
991
989
984
981
981
979
978
982
983
984
983
980
980
984
987
992
993
990
988
988
986
980
982
979
975
976
977
973
974
970
970
973
976
978
975
973
971
972
976
978
972
973
968
973
976
979
977
974
978
982
986
984
984
983
986
990
992
995
991
988
982
982
984
988
991
993
990
986
985
983
983
978
975
976
984
986
981
970
970
974
978
980
979
976
975
973
975
976
978
980
975
966
963
960
962
960
957
955
955
958
959
956
951
953
957
954
955
956
957
954
956
956
957
957
952
953
950
956
967
986
1012
1052
1098
1150
1191
1214
1210
1171
1109
1029
942
865
833
835
858
880
904
921
934
947
953
954
955
954
951
951
952
952
953
947
948
951
960
961
957
953
951
950
953
959
958
957
958
958
962
964
961
960
962
969
972
973
972
973
970
973
975
979
979
981
985
992
995
994
994
996
997
997
1000
1002
1002
1004
1011
1018
1020
1021
1020
1019
1016
1015
1015
1018
1015
1019
1018
1022
1020
1019
1020
1021
1023
1021
1014
1010
1007
1004
999
1000
996
990
984
977
972
973
971
968
968
966
970
972
975
973
966
961
962
964
969
968
972
969
968
967
974
975
978
976
970
970
968
970
969
968
970
978
981
981
971
962
957
954
951
952
957
958
958
957
959
958
956
952
951
955
958
961
957
952
947
946
954
953
950
943
941
942
942
948
950
947
940
935
927
927
931
940
959
987
1031
1085
1139
1182
1206
1200
1165
1105
1019
922
847
823
836
859
880
898
911
926
938
944
946
946
944
939
937
938
937
937
937
941
941
942
941
937
937
941
945
951
948
944
944
945
945
945
947
946
945
950
954
955
953
956
959
966
972
971
974
974
974
974
980
989
993
992
988
988
993
998
999
1001
1002
1004
1009
1011
1010
1014
1013
1011
1011
1010
1009
1005
1007
1009
1009
1009
1005
998
991
991
991
991
989
984
978
975
974
971
968
962
958
960
960
960
958
953
947
950
955
953
947
943
944
944
948
950
948
944
943
942
943
945
944
947
948
953
952
951
951
950
947
949
953
951
952
950
951
951
952
953
951
950
948
949
947
946
947
948
948
950
952
950
945
945
947
951
953
953
948
945
943
947
953
957
953
951
946
947
946
950
950
950
951
950
950
952
952
950
950
950
950
949
952
947
946
947
954
957
960
952
952
956
962
963
960
959
964
968
967
967
966
964
960
961
960
959
962
962
960
961
961
962
959
952
953
954
961
963
961
958
959
961
964
965
962
958
954
949
947
949
950
949
945
946
946
952
954
952
948
950
953
954
952
949
948
949
949
949
943
938
936
944
956
977
1006
1040
1080
1134
1191
1232
1250
1230
1180
1107
1024
933
858
829
836
857
880
898
912
921
926
932
938
945
947
943
942
946
950
954
951
949
947
950
955
960
959
956
955
957
961
963
958
956
957
959
961
961
963
968
970
968
969
972
974
975
981
980
978
975
979
978
980
982
986
988
990
992
998
999
1003
1005
1006
1007
1010
1013
1021
1027
1025
1026
1023
1023
1023
1026
1026
1027
1025
1026
1028
1030
1031
1028
1032
1034
1036
1039
1033
1026
1028
1030
1034
1031
1025
1022
1019
1017
1014
1011
1006
1002
1002
1003
1002
998
994
989
992
996
996
990
984
977
980
988
990
985
980
979
979
982
983
982
981
983
982
984
985
985
986
985
984
985
988
989
986
985
984
986
984
987
987
985
984
987
985
986
987
985
987
986
989
988
986
983
984
981
979
980
982
985
989
990
992
990
994
998
1002
1008
1008
1002
994
987
987
989
993
992
994
988
989
990
993
989
986
984
980
981
983
985
983
985
985
984
982
978
973
970
967
966
971
971
968
965
964
967
969
970
967
967
963
964
967
969
969
965
963
965
966
965
961
959
956
954
957
963
975
998
1029
1069
1119
1169
1217
1250
1251
1213
1146
1065
978
892
846
848
870
895
918
933
941
949
956
959
964
968
964
965
964
964
966
963
963
961
965
967
966
966
960
960
965
970
972
972
972
974
977
976
972
971
973
977
979
982
984
983
985
984
987
987
986
987
991
994
1000
1007
1009
1009
1002
1005
1008
1014
1015
1016
1016
1016
1023
1024
1025
1023
1025
1026
1027
1029
1028
1027
1032
1031
1034
1031
1032
1032
1029
1031
1033
1033
1033
1029
1028
1025
1025
1023
1013
1009
1005
1005
1005
1005
1001
994
988
987
988
988
985
983
983
985
983
985
985
983
981
979
984
984
983
981
980
980
981
984
981
980
976
977
981
986
986
980
975
971
969
979
979
976
974
978
983
987
986
978
974
972
970
974
974
973
977
981
980
981
981
983
982
982
986
990
991
993
997
997
997
996
995
992
992
996
1000
1001
998
999
996
995
998
998
997
992
991
994
995
997
989
987
985
987
987
988
991
992
989
986
984
985
982
975
974
977
978
978
973
969
968
972
979
978
974
972
969
971
975
980
979
976
974
976
978
976
974
967
960
957
965
980
1000
1029
1062
1108
1158
1202
1234
1243
1226
1178
1118
1048
968
894
852
852
875
900
922
936
944
948
955
964
971
968
969
970
973
974
972
973
972
972
971
967
970
970
966
970
974
976
976
975
976
980
980
978
977
977
976
976
978
982
987
987
988
991
997
1000
999
996
995
995
992
999
1005
1007
1007
1010
1013
1014
1014
1016
1013
1021
1027
1031
1031
1030
1031
1033
1038
1040
1044
1042
1044
1040
1039
1039
1038
1037
1034
1035
1035
1036
1040
1037
1038
1037
1036
1030
1020
1014
1010
1010
1008
1007
1007
1002
1001
1000
997
999
990
988
984
984
987
989
984
980
982
984
988
992
989
993
988
984
981
983
986
983
986
988
991
993
988
983
981
980
982
979
976
978
977
982
985
986
985
982
984
986
984
986
984
984
986
992
991
988
982
980
986
989
987
991
993
995
993
993
994
997
997
997
992
995
998
997
998
994
993
992
988
984
982
984
985
985
984
985
983
982
983
983
984
984
985
985
982
981
978
975
973
972
967
968
969
971
970
966
966
963
965
965
964
964
963
964
964
966
963
964
963
961
962
962
959
953
948
946
953
966
983
1002
1031
1076
1126
1176
1213
1224
1205
1158
1097
1020
927
856
831
845
873
898
913
930
940
947
956
959
961
960
962
961
966
964
958
956
956
958
959
962
961
960
956
957
961
964
963
963
963
967
971
973
971
970
968
977
979
980
983
985
988
988
989
990
988
987
985
982
987
994
998
999
995
999
1007
1011
1013
1014
1016
1017
1023
1022
1019
1019
1018
1021
1025
1025
1021
1021
1018
1023
1028
1034
1033
1028
1022
1024
1028
1030
1029
1022
1016
1010
1010
1010
1007
1004
997
998
994
989
983
973
969
971
973
976
973
968
966
965
966
968
966
965
963
963
968
967
970
975
972
970
966
965
968
966
963
967
972
973
971
969
967
968
970
970
967
966
964
966
966
969
969
963
960
961
966
966
968
970
971
968
968
969
967
969
972
976
976
973
972
974
974
980
981
984
983
981
981
984
989
984
975
965
963
966
970
971
969
962
959
962
969
970
968
963
965
967
965
968
963
956
950
951
955
955
952
951
952
956
957
959
958
952
948
952
955
956
953
950
947
948
953
951
949
945
942
944
950
966
988
1020
1061
1117
1175
1210
1218
1187
1135
1063
980
899
844
831
841
859
878
894
913
922
927
927
934
941
945
948
947
945
950
954
955
952
947
947
949
953
955
957
955
952
950
954
957
962
960
961
963
964
961
959
958
958
963
968
976
978
977
976
981
980
978
976
976
978
984
990
994
996
999
1004
1007
1009
1008
1009
1009
1012
1012
1016
1017
1019
1020
1022
1026
1028
1026
1023
1017
1018
1022
1024
1022
1013
1009
1008
1010
1008
1005
1005
1001
1001
997
991
984
979
980
978
974
972
970
967
963
960
961
962
964
959
959
960
963
968
971
971
968
963
963
963
961
964
963
966
968
969
969
970
969
965
965
961
964
964
967
970
971
971
970
970
970
968
968
969
965
966
964
966
968
971
971
971
968
972
974
976
978
976
974
973
977
981
984
983
979
980
980
980
978
974
974
974
978
979
974
973
971
968
966
966
965
963
961
964
964
969
969
968
968
964
961
957
955
952
951
952
954
957
955
949
948
949
956
960
961
955
952
951
958
963
961
949
944
943
944
945
951
961
981
1019
1065
1116
1170
1212
1230
1217
1179
1122
1046
953
873
834
837
848
866
885
904
921
932
937
939
941
945
951
954
953
952
949
951
951
951
953
954
955
953
954
956
960
961
960
960
962
965
965
961
961
963
961
967
970
970
968
966
969
973
976
975
977
980
982
983
986
989
989
993
999
1003
1000
1005
1004
1006
1008
1013
1016
1022
1019
1018
1019
1021
1024
1023
1022
1019
1021
1023
1024
1024
1024
1023
1020
1020
1022
1020
1015
1009
1009
1011
1013
1010
1001
997
992
995
994
991
986
982
979
981
981
980
978
975
973
972
971
972
974
978
978
976
975
972
969
969
971
974
976
979
976
974
977
978
979
980
979
978
980
979
981
982
979
977
980
981
982
984
984
981
979
984
988
990
987
981
986
988
991
992
992
995
996
997
994
992
990
994
994
997
996
995
989
985
984
987
987
985
981
978
978
979
978
978
974
973
969
979
983
985
980
975
972
973
971
968
968
967
968
968
967
963
964
962
965
966
967
969
965
963
964
970
974
970
968
961
959
957
957
963
974
998
1037
1090
1145
1198
1241
1258
1235
1177
1095
994
895
840
839
865
889
909
928
941
952
960
966
965
964
961
964
967
970
968
968
966
967
971
973
969
962
963
969
971
974
972
971
966
970
973
977
979
978
978
981
982
986
984
985
984
986
992
997
1002
1001
999
1003
1007
1008
1008
1009
1010
1011
1014
1021
1023
1023
1024
1025
1029
1031
1029
1027
1027
1030
1032
1032
1028
1026
1026
1029
1033
1033
1030
1028
1025
1024
1019
1017
1017
1016
1010
1005
1003
1003
998
997
992
993
989
991
992
988
987
983
983
985
985
980
981
983
985
987
986
984
982
981
983
987
984
979
980
984
983
983
983
984
984
983
984
988
985
985
986
988
988
989
987
979
979
978
980
981
986
987
987
989
989
991
992
988
992
990
994
997
1000
1000
996
994
993
995
996
995
995
993
992
992
995
994
991
990
987
991
991
990
988
988
991
989
987
982
981
980
982
978
972
968
970
968
970
970
968
968
968
970
972
973
972
972
971
973
973
972
972
968
964
960
961
968
978
998
1027
1069
1118
1174
1223
1254
1255
1219
1148
1064
974
892
847
845
870
895
917
930
939
953
963
970
969
968
966
970
972
970
969
969
966
966
970
977
977
976
970
968
966
971
976
975
973
974
979
980
981
980
979
977
984
988
987
986
989
991
993
1000
1000
997
992
1001
1007
1012
1013
1014
1012
1016
1015
1022
1023
1023
1026
1026
1030
1033
1033
1034
1031
1030
1032
1036
1038
1039
1035
1041
1040
1044
1045
1038
1029
1023
1023
1024
1023
1018
1011
1011
1012
1012
1008
1004
1000
1000
998
1000
998
995
988
988
997
998
998
993
992
990
988
992
992
993
991
991
991
993
992
992
992
992
994
996
995
990
987
987
990
995
994
996
994
995
995
998
997
993
994
995
998
999
997
995
995
998
1006
1010
1008
1007
1006
1005
1007
1008
1009
1009
1005
1007
1010
1011
1011
1012
1010
1009
1011
1012
1011
1003
997
995
1000
1005
1006
1000
998
1003
1004
1003
999
996
995
991
987
985
983
982
980
981
984
986
984
981
982
982
985
984
984
982
980
985
989
990
985
978
968
967
970
976
997
1024
1062
1113
1164
1214
1257
1267
1231
1157
1066
966
882
858
875
912
942
958
967
974
978
980
982
984
984
983
982
980
983
985
985
983
982
985
986
989
988
988
988
991
992
993
992
992
992
994
998
999
1003
1000
1000
1003
1007
1009
1014
1015
1017
1019
1025
1026
1023
1022
1023
1028
1031
1035
1038
1036
1036
1032
1040
1046
1046
1042
1041
1045
1051
1053
1048
1048
1049
1049
1051
1051
1052
1047
1042
1042
1046
1051
1047
1041
1035
1034
1033
1029
1023
1016
1013
1013
1011
1010
1006
1005
1004
1005
1005
1006
1005
1001
997
1000
999
1000
999
1002
998
996
999
1000
1003
998
991
993
994
997
995
989
991
992
995
995
997
994
990
995
1002
1001
1003
1001
996
994
996
1000
999
999
996
998
999
1005
1004
999
1000
999
997
999
1000
999
999
1001
1007
1012
1009
1009
1006
1005
1011
1015
1018
1014
1012
1013
1017
1019
1015
1005
1000
1002
1009
1011
1012
1004
1002
1001
1005
1009
1008
1003
1004
1006
1009
1010
1008
1001
994
993
990
990
993
989
988
988
988
996
995
992
987
983
985
992
991
990
989
989
988
990
987
976
975
977
986
1006
1029
1065
1110
1165
1218
1258
1264
1225
1158
1075
985
906
865
866
884
911
937
956
963
969
974
977
983
982
983
982
979
983
986
990
987
983
983
984
988
992
992
989
989
990
990
991
995
993
993
993
994
1000
1005
1002
1000
999
1002
1006
1009
1008
1010
1013
1015
1015
1020
1018
1020
1023
1026
1031
1035
1034
1031
1034
1038
1041
1041
1037
1039
1044
1048
1052
1050
1050
1047
1046
1051
1053
1052
1051
1053
1056
1060
1060
1055
1053
1050
1049
1046
1046
1044
1041
1036
1034
1033
1031
1025
1021
1017
1015
1017
1018
1013
1011
1010
1008
1007
1007
1005
1004
1003
1004
1006
1010
1010
1006
1002
994
995
997
995
998
996
998
999
1003
1001
999
998
999
1005
1011
1013
1008
1003
996
995
998
994
995
995
997
997
1001
998
1003
1001
998
1000
1002
1002
998
997
996
996
1001
1001
1003
1004
1008
1010
1014
1012
1010
1004
1006
1011
