977
973
975
975
979
980
976
973
970
970
966
963
961
963
963
958
948
935
937
952
965
969
955
922
897
900
921
942
937
910
886
900
918
931
937
935
932
923
915
907
898
891
892
898
900
917
935
923
887
866
875
906
934
954
977
1014
1043
1041
998
952
917
919
929
943
961
975
984
992
1001
1001
1004
1017
1045
1072
1074
1053
1023
994
972
978
998
1029
1060
1080
1075
1043
1005
978
967
974
1003
1042
1078
1089
1055
999
962
969
994
1011
1016
1020
1017
1007
1015
1044
1063
1065
1070
1081
1066
1016
948
914
934
980
1028
1069
1081
1042
973
933
943
991
1032
1033
1006
979
978
998
1024
1038
1013
972
953
952
950
966
1005
1035
1045
1064
1104
1131
1140
1128
1056
954
895
903
949
992
1014
1039
1055
1052
1030
1012
1026
1089
1180
1261
1296
1266
1191
1121
1055
994
950
935
952
967
952
918
907
930
951
947
927
904
896
898
910
926
939
955
984
1023
1046
1026
971
907
874
898
945
972
962
948
946
956
978
976
939
899
885
899
929
952
954
948
945
955
966
970
967
960
964
983
998
991
972
974
980
974
958
963
996
1048
1074
1052
1011
974
943
937
957
979
995
1011
1039
1077
1111
1084
994
913
896
925
973
1012
1040
1066
1071
1055
1039
1008
943
900
904
935
956
960
963
962
964
964
965
962
954
950
954
964
974
981
995
1012
1016
982
931
909
918
938
957
967
975
969
947
926
930
962
995
1000
974
943
942
945
945
941
939
948
952
958
968
976
995
1015
1004
968
949
951
960
972
992
1013
1004
978
965
963
974
979
980
977
968
959
955
965
983
998
1003
992
970
957
965
976
982
986
991
1004
1020
1035
1023
996
978
980
994
1002
988
958
945
960
984
1001
1014
1032
1029
1000
953
918
925
959
987
1005
1020
1036
1032
1004
973
944
913
898
915
952
978
1000
1017
1018
992
945
910
910
942
978
994
1005
1009
996
969
929
921
946
965
962
956
961
987
1021
1040
1053
1087
1154
1226
1261
1248
1191
1120
1058
1003
945
904
893
904
925
949
981
1004
981
921
876
898
966
1037
1075
1062
1014
968
943
910
881
890
926
956
965
968
965
958
954
963
971
975
973
962
953
948
944
946
953
963
976
984
1000
1012
1001
981
987
1018
1046
1032
977
935
951
1001
1042
1059
1052
1052
1052
1037
1021
1026
1039
1024
999
1002
1020
1034
1042
1061
1097
1139
1134
1051
955
914
949
1004
1021
1010
1007
1013
1020
1036
1040
1012
989
992
1006
1009
1005
1005
1004
1004
1001
992
982
974
952
942
953
976
981
980
987
1006
1013
999
985
978
961
959
984
1014
1015
990
973
981
996
992
981
972
975
974
975
986
997
997
1004
1014
1028
1046
1059
1052
1019
1002
1013
1046
1070
1039
978
946
927
932
944
963
985
996
1000
995
990
993
1002
1001
991
990
1000
997
983
971
979
993
994
992
997
996
998
997
997
995
992
995
1003
1012
1013
1012
1018
1017
1001
994
996
1002
1001
1000
1003
1015
1018
1000
979
967
961
971
985
994
995
995
1000
1007
998
990
985
981
979
991
1005
996
976
960
955
962
963
965
962
963
968
981
999
1022
1055
1095
1144
1198
1245
1264
1246
1206
1155
1086
1003
938
914
908
897
892
900
908
922
937
945
948
956
969
977
977
971
962
949
933
921
924
935
944
950
951
951
947
943
947
953
949
949
941
946
951
960
965
963
955
952
954
948
939
941
953
964
973
975
981
983
985
994
998
1006
1019
1027
1019
999
987
986
993
998
1003
1011
1023
1032
1037
1033
1023
1016
1018
1026
1031
1032
1028
1026
1030
1038
1042
1041
1037
1036
1035
1041
1041
1039
1030
1022
1017
1014
1014
1012
1005
1002
1002
997
993
984
982
988
1001
1001
997
995
996
995
1002
1009
1004
995
988
987
991
991
988
986
985
986
991
995
993
988
984
984
987
989
989
989
991
993
993
995
997
998
998
998
1000
1007
1013
1011
1001
987
983
989
985
979
975
977
983
992
993
995
996
995
996
1000
998
999
998
999
1012
1018
1020
1014
1010
1004
1009
1015
1018
1019
1018
1018
1023
1026
1022
1012
1008
1009
1013
1016
1014
1006
1001
998
1003
1012
1017
1016
1014
1014
1016
1015
1013
1007
1004
1002
1008
1008
1008
1007
1004
1004
1006
1008
1009
1005
1002
999
1004
1008
1011
1006
1003
1000
995
997
1002
1015
1037
1072
1125
1174
1222
1266
1300
1308
1280
1227
1140
1041
949
899
898
916
932
952
966
977
984
991
995
994
1000
997
1002
1007
1006
1004
1000
996
1002
1008
1004
996
995
997
1001
1001
1002
1000
1002
1003
1005
1007
1009
1009
1012
1012
1013
1018
1023
1025
1022
1019
1022
1028
1032
1030
1034
1031
1035
1040
1043
1045
1045
1049
1055
1063
1067
1068
1070
1071
1072
1077
1074
1073
1071
1067
1070
1075
1075
1072
1072
1069
1076
1075
1072
1071
1066
1060
1057
1063
1061
1058
1052
1047
1046
1043
1041
1038
1033
1027
1024
1028
1029
1027
1024
1020
1018
1023
1020
1018
1011
1009
1011
1018
1015
1016
1012
1009
1010
1015
1016
1020
1019
1016
1017
1019
1020
1015
1012
1012
1014
1020
1018
1016
1014
1010
1012
1017
1017
1021
1017
1012
1014
1018
1016
1016
1015
1015
1017
1018
1016
1017
1017
1019
1019
1024
1023
1023
1018
1016
1018
1018
1020
1018
1019
1021
1028
1033
1032
1027
1026
1027
1030
1034
1033
1031
1031
1027
1031
1031
1030
1026
1026
1025
1026
1026
1025
1023
1023
1020
1021
1023
1020
1017
1016
1014
1016
1020
1020
1019
1015
1009
1010
1008
1007
1000
998
997
1003
1005
1005
1003
1000
998
998
998
1000
1001
1000
1000
998
996
987
979
977
989
1003
1027
1062
1096
1134
1183
1239
1284
1313
1298
1254
1177
1091
1001
923
879
879
898
919
942
960
968
974
979
985
990
988
986
985
985
989
989
989
989
989
988
988
988
983
983
983
985
989
992
997
993
990
988
994
998
998
999
997
997
1000
1001
1002
1001
1000
1001
1004
1011
1014
1011
1009
1014
1020
1022
1022
1026
1028
1034
1039
1045
1046
1048
1048
1047
1050
1055
1058
1055
1056
1057
1062
1063
1059
1058
1052
1050
1052
1050
1049
1047
1043
1039
1035
1033
1028
1025
1023
1017
1015
1009
1006
1005
1004
1003
1000
1000
999
1002
1001
1000
996
998
999
995
994
992
996
997
992
991
992
997
999
1000
997
993
994
993
993
995
992
992
992
991
991
994
992
992
993
995
1000
1002
999
998
997
1001
1006
1010
1011
1008
1003
992
988
988
993
997
997
1000
1002
1001
998
1003
1007
1006
1010
1013
1014
1014
1015
1013
1018
1020
1022
1019
1015
1012
1014
1019
1019
1016
1009
1008
1010
1014
1010
1008
1007
1004
1007
1011
1016
1013
1006
1000
998
999
994
987
986
987
991
992
989
987
986
986
988
993
992
991
989
990
990
990
992
985
977
971
978
991
1008
1030
1063
1108
1160
1212
1252
1276
1265
1217
1153
1077
983
904
878
883
894
910
929
944
959
964
971
975
978
978
977
977
977
978
984
985
984
977
975
981
987
991
987
979
978
984
989
995
996
991
989
991
992
990
994
998
1001
1007
1007
1007
1004
1004
1004
1006
1009
1009
1010
1014
1017
1023
1029
1033
1034
1039
1043
1044
1046
1049
1048
1048
1050
1054
1054
1053
1053
1051
1052
1057
1057
1055
1048
1044
1045
1045
1040
1040
1032
1028
1028
1030
1028
1024
1017
1016
1012
1010
1006
1002
998
999
1000
1001
1001
993
991
989
992
996
996
994
989
990
995
1000
996
990
985
987
989
985
982
981
982
986
992
997
995
991
988
987
993
998
1002
1001
997
992
994
995
996
997
998
998
998
998
997
994
993
995
999
998
998
999
999
1000
1007
1012
1012
1007
1002
1002
1003
1010
1014
1011
1011
1010
1010
1013
1016
1016
1014
1009
1011
1012
1009
1005
997
988
985
994
997
997
988
979
980
987
988
984
983
988
989
993
991
990
989
989
991
994
995
987
979
976
977
984
997
1021
1050
1093
1146
1203
1245
1267
1251
1206
1140
1056
960
894
873
887
908
923
941
953
966
972
974
976
975
971
974
973
972
975
976
975
978
975
979
982
986
985
984
986
985
988
987
989
988
987
985
987
987
991
986
987
994
999
1001
1002
1007
1010
1013
1017
1018
1018
1016
1018
1024
1031
1036
1034
1034
1034
1037
1045
1046
1044
1043
1043
1045
1049
1049
1048
1044
1042
1043
1045
1043
1040
1037
1034
1030
1030
1027
1021
1016
1012
1011
1011
1007
1000
994
993
992
994
997
995
993
993
992
987
978
977
977
977
981
983
980
980
976
977
981
987
989
985
981
981
981
985
985
983
984
986
989
990
988
989
986
989
993
994
990
986
988
990
988
982
984
984
978
980
983
986
984
982
980
985
986
989
987
988
986
983
984
983
984
987
987
985
985
985
985
985
982
985
988
989
993
994
996
999
1002
1001
995
992
995
998
1000
996
995
992
993
998
999
1000
995
993
991
988
988
990
991
992
989
989
988
989
988
986
984
984
985
983
982
976
970
960
963
966
970
968
969
972
975
977
976
975
976
972
973
970
966
964
972
993
1023
1066
1117
1172
1222
1261
1270
1237
1162
1063
959
877
852
862
882
901
921
936
948
955
961
967
963
959
955
958
958
956
962
962
965
966
969
968
966
966
967
969
969
969
968
967
971
976
978
975
973
976
981
983
985
984
983
982
987
993
999
1002
1002
1004
1007
1010
1011
1012
1010
1003
1003
1014
1021
1024
1026
1026
1027
1031
1034
1037
1037
1038
1041
1045
1044
1041
1040
1035
1034
1032
1030
1027
1022
1017
1014
1015
1015
1014
1008
994
985
986
983
986
981
979
981
986
983
978
974
971
971
978
980
980
981
977
980
982
983
984
977
978
980
983
982
982
982
984
984
988
987
988
987
988
987
987
987
985
981
979
979
985
986
986
984
984
983
986
984
983
982
982
984
987
990
988
986
986
990
1000
1004
1005
1005
1004
1004
1009
1007
1005
998
995
994
990
992
995
995
994
996
995
995
992
988
989
987
991
992
990
989
985
984
985
987
983
978
979
980
982
978
973
970
967
966
970
972
970
970
964
968
970
970
969
967
966
971
971
969
960
957
962
978
1002
1038
1076
1123
1172
1218
1246
1249
1214
1149
1069
982
907
865
859
867
878
901
924
943
948
950
950
950
956
965
968
965
966
968
971
970
968
966
970
971
969
965
963
965
967
972
972
970
966
964
969
974
978
977
972
976
978
982
985
987
989
989
989
998
999
998
996
998
1001
1008
1017
1023
1026
1023
1020
1024
1029
1032
1028
1032
1031
1034
1039
1040
1038
1034
1032
1033
1039
1043
1043
1037
1032
1030
1033
1034
1033
1026
1020
1017
1019
1018
1013
1011
1010
1007
1002
999
996
994
988
984
991
993
991
987
982
981
982
985
986
983
981
981
980
978
974
969
969
975
981
980
979
978
979
979
983
979
977
974
975
980
985
986
980
972
973
976
979
982
980
980
982
986
988
985
985
985
981
982
984
987
982
979
977
979
980
983
980
980
978
983
987
993
997
995
997
997
997
997
994
995
995
1000
1000
997
999
999
1001
1002
1004
1003
997
995
996
994
995
992
990
987
986
985
986
986
983
986
983
985
988
987
985
976
970
973
975
975
973
971
971
972
971
973
972
968
967
964
968
971
973
975
975
971
970
966
960
951
949
956
976
999
1023
1047
1084
1124
1174
1217
1246
1247
1215
1163
1102
1034
951
882
853
856
868
878
892
907
920
933
945
948
950
948
953
957
961
959
961
960
963
963
962
961
963
962
963
959
964
964
966
967
965
965
965
964
966
963
967
970
974
973
973
975
974
978
978
978
978
977
981
986
996
1005
1008
1000
998
1005
1016
1021
1023
1021
1020
1024
1026
1031
1031
1031
1030
1035
1039
1044
1042
1040
1041
1040
1037
1034
1027
1022
1023
1026
1030
1027
1025
1022
1016
1009
1005
1004
1001
994
989
987
988
989
982
976
977
980
981
978
973
971
975
980
979
976
971
967
966
970
974
975
973
968
969
977
981
982
979
975
976
978
980
979
974
971
973
977
980
980
981
979
977
976
975
977
978
981
982
980
983
984
985
981
979
982
986
983
980
971
970
973
975
979
979
979
977
977
977
978
982
985
987
990
990
991
991
994
994
997
995
995
993
990
988
992
995
994
992
986
986
987
991
986
982
983
985
989
990
992
996
992
986
985
983
988
986
979
974
973
973
978
979
981
979
976
977
980
983
980
976
977
980
981
978
979
977
979
972
969
967
967
976
1005
1042
1078
1121
1163
1209
1244
1263
1249
1194
1118
1034
946
882
860
867
880
894
916
937
955
963
964
964
967
969
975
971
968
968
972
977
979
974
968
972
974
981
984
981
976
975
979
982
984
986
985
985
985
992
995
995
992
992
995
995
994
990
993
998
1002
1005
1004
1007
1006
1006
1010
1015
1019
1023
1022
1024
1031
1037
1033
1038
1040
1043
1043
1047
1048
1050
1045
1047
1050
1054
1054
1052
1046
1043
1046
1048
1045
1043
1039
1035
1035
1036
1031
1025
1017
1017
1015
1014
1009
1006
1001
994
995
997
999
999
1002
1006
1012
1015
1015
1012
1008
1007
1008
1011
1012
1013
1011
1004
1001
1004
1005
1005
999
993
990
993
997
996
994
996
993
994
991
987
987
982
982
985
985
984
984
983
984
988
990
986
986
985
988
992
990
990
989
990
992
990
987
983
982
977
978
980
980
977
970
960
957
953
956
963
982
1010
1051
1096
1144
1189
1231
1251
1243
1202
1141
1059
975
906
877
887
904
920
931
946
960
971
974
974
969
967
970
973
977
974
974
972
972
976
981
982
982
981
981
978
977
974
972
970
975
981
982
984
983
982
984
992
995
999
997
995
994
998
1001
1003
1003
1004
1010
1015
1016
1015
1016
1017
1022
1029
1030
1035
1036
1039
1042
1044
1043
1048
1048
1051
1050
1046
1048
1048
1040
1039
1040
1040
1037
1037
1030
1029
1028
1030
1025
1023
1016
1014
1012
1011
1008
1001
999
996
995
996
998
997
993
996
997
996
995
988
979
979
981
986
988
989
984
976
976
979
982
980
976
977
980
984
987
987
981
982
985
989
990
989
984
982
983
987
987
987
984
982
987
990
996
995
993
982
978
979
982
985
982
979
977
980
980
982
980
982
984
980
981
979
978
978
978
977
975
980
977
976
977
981
983
982
978
976
978
980
978
975
972
972
973
978
980
980
976
977
977
979
979
978
982
977
978
969
964
964
963
966
973
976
978
974
970
969
973
979
978
983
981
986
993
996
992
993
989
985
989
993
995
993
989
987
990
996
994
988
984
986
987
987
984
981
979
978
984
987
989
988
981
975
973
972
967
964
964
964
969
975
972
968
962
959
964
967
970
965
963
963
968
968
964
954
953
952
962
975
994
1024
1061
1108
1162
1209
1233
1223
1172
1096
1008
918
854
839
848
862
878
896
913
921
931
934
940
945
947
945
945
947
949
951
953
953
950
951
949
951
947
949
946
945
947
950
953
955
959
958
956
955
955
953
953
954
958
962
964
964
966
968
974
975
977
982
984
982
980
977
979
979
988
996
999
1005
1007
1009
1008
1007
1010
1013
1015
1015
1014
1015
1018
1021
1018
1021
1020
1019
1022
1021
1019
1014
1010
1008
1005
1001
1002
998
997
994
995
994
991
985
979
975
978
982
982
977
970
964
963
965
965
963
960
960
965
970
968
964
956
954
955
957
958
956
955
955
955
961
959
956
954
956
956
960
963
964
966
964
968
970
974
970
958
957
958
959
957
959
959
956
958
959
961
960
956
958
960
962
964
963
963
963
964
964
964
968
969
967
973
972
970
972
975
973
970
972
969
965
961
960
961
961
965
966
964
960
959
957
955
958
959
956
959
963
963
961
950
947
946
944
944
943
939
943
945
946
943
942
938
942
948
950
946
941
934
934
933
933
933
932
932
927
927
927
928
933
937
955
985
1023
1066
1113
1155
1187
1194
1170
1123
1063
985
901
843
832
841
856
872
888
902
906
905
905
911
919
924
924
922
919
919
919
927
933
939
937
930
926
927
933
937
937
936
938
943
949
947
942
934
935
937
946
951
952
949
944
946
949
953
956
956
961
966
972
979
983
988
984
985
989
991
990
993
990
992
993
996
997
997
996
997
998
999
998
997
993
992
994
995
988
978
970
971
973
979
977
971
961
954
949
953
950
947
941
942
948
949
945
936
937
941
942
941
943
944
941
934
934
937
941
936
932
935
934
930
930
931
931
936
938
940
937
935
935
941
944
946
938
932
929
930
940
950
957
953
939
929
927
938
939
936
935
937
946
949
944
939
935
938
938
946
946
945
941
938
944
949
947
946
943
950
953
957
957
957
959
962
961
959
954
953
952
951
954
956
953
951
949
948
952
950
948
947
945
946
943
950
951
951
944
939
938
935
931
927
927
925
928
929
926
927
928
935
944
944
938
933
934
935
937
934
931
923
922
922
922
926
930
940
957
991
1030
1075
1123
1167
1202
1217
1206
1163
1098
1008
916
848
828
839
849
860
874
894
910
916
915
914
920
926
929
931
928
925
927
931
937
932
931
926
928
931
938
943
941
936
937
940
944
943
941
941
946
949
948
948
946
947
949
949
955
960
960
958
959
959
968
973
975
976
981
984
991
997
998
994
991
994
999
1006
1007
1007
1006
1003
1007
1013
1012
1011
1010
1011
1008
1001
994
987
984
983
983
983
980
973
968
962
959
960
958
957
955
953
951
946
943
940
943
944
943
941
939
940
942
944
946
946
946
945
942
939
937
944
947
941
939
937
940
947
946
940
938
941
945
948
945
940
944
949
949
947
946
948
950
950
949
948
945
944
944
948
954
953
953
950
951
952
957
962
959
961
963
963
960
961
962
963
962
954
952
955
954
956
958
960
962
961
960
956
955
955
952
950
948
950
952
949
947
944
946
942
938
936
935
933
935
937
937
941
945
943
938
933
930
931
933
937
939
935
932
929
929
930
935
941
963
992
1041
1095
1149
1194
1220
1222
1185
1116
1028
928
847
816
827
844
861
877
893
907
917
924
926
925
923
922
924
930
931
929
927
924
928
927
927
