1028
1030
1031
1029
1025
1025
1026
1027
1027
1024
1022
1025
1027
1026
1022
1015
1017
1020
1019
1020
1016
1012
1012
1009
1008
1008
1007
1006
1009
1008
1010
1012
1005
1005
1005
1006
1007
1005
1007
1009
1008
1004
1000
997
996
999
1011
1035
1070
1112
1159
1206
1244
1263
1246
1199
1123
1036
958
917
917
926
934
943
964
980
988
990
993
999
1000
1001
1000
1001
1001
997
998
1001
1003
1001
999
999
999
1002
1005
1008
1004
1002
1005
1007
1013
1013
1008
1006
1010
1012
1014
1014
1014
1013
1017
1021
1022
1027
1025
1023
1025
1028
1028
1030
1033
1036
1041
1045
1043
1047
1046
1048
1052
1053
1059
1059
1059
1059
1058
1060
1062
1063
1059
1058
1057
1058
1058
1057
1049
1044
1043
1044
1044
1039
1037
1028
1021
1020
1019
1019
1015
1010
1008
1010
1009
1008
1008
1005
1004
1002
999
999
996
996
998
1000
1005
1008
1007
1007
1004
1001
1001
1000
999
998
1000
1002
1009
1011
1007
1005
1001
1000
999
999
998
1000
1003
1001
998
997
996
992
985
983
986
988
986
986
982
985
986
987
984
982
979
977
977
977
982
981
979
975
977
984
981
975
968
964
964
961
954
958
972
1003
1036
1077
1127
1175
1211
1220
1200
1144
1070
977
902
873
878
890
906
921
938
948
957
958
954
950
950
948
952
952
951
950
947
948
952
948
948
947
948
947
949
948
950
949
954
954
956
957
955
951
947
953
956
957
958
958
960
964
968
970
970
968
965
970
973
977
980
981
980
985
989
992
994
992
990
986
988
990
993
991
993
991
994
995
995
994
993
993
991
987
983
982
982
979
978
974
969
966
960
960
962
954
951
945
941
939
941
944
946
945
940
938
935
933
929
926
925
927
929
933
928
920
921
925
928
933
930
921
915
914
919
923
921
917
919
924
929
932
930
922
920
918
916
924
927
927
926
922
922
920
924
922
918
920
925
928
925
915
911
911
921
929
928
923
919
921
925
924
921
918
916
914
916
916
914
912
914
918
923
921
912
909
915
919
917
921
919
916
912
918
921
924
926
924
924
926
925
923
929
925
924
923
924
921
922
922
920
917
918
921
922
919
915
915
917
923
924
920
916
919
922
920
916
909
907
906
910
912
910
908
907
908
916
918
918
915
912
913
918
922
917
911
908
908
914
923
942
967
999
1041
1087
1137
1173
1193
1176
1127
1062
982
900
838
813
820
834
848
865
880
888
894
901
901
903
905
907
910
910
912
911
909
907
907
913
917
917
913
914
912
913
915
915
916
915
918
924
924
922
921
918
914
920
924
925
927
927
930
933
934
935
934
938
940
944
948
949
950
952
955
961
966
969
970
970
970
971
980
985
983
981
986
987
991
991
993
995
993
997
997
999
996
998
1000
997
996
997
993
990
986
988
987
982
980
977
973
976
973
969
964
963
963
960
963
965
960
958
958
963
961
958
952
952
949
952
955
954
954
952
950
949
950
952
954
957
960
963
963
960
960
961
964
968
971
970
969
964
963
966
967
968
968
967
971
976
973
972
966
965
963
966
969
971
971
969
971
972
975
979
982
980
984
988
990
994
988
988
983
984
986
984
983
984
980
982
981
984
981
980
979
977
977
972
973
973
975
977
978
979
979
979
977
976
976
974
972
970
970
972
973
972
971
973
974
974
972
971
969
971
971
972
974
974
972
972
973
976
972
967
963
960
966
979
1001
1032
1064
1107
1159
1208
1245
1258
1237
1186
1118
1039
949
883
863
874
885
902
920
941
954
962
964
966
970
973
976
972
970
972
974
974
972
972
974
975
976
974
969
971
972
976
977
977
976
978
985
988
986
986
986
987
985
987
987
988
990
992
992
994
999
997
999
1002
1003
1005
1008
1010
1014
1017
1019
1021
1024
1024
1027
1030
1035
1036
1037
1038
1038
1037
1039
1040
1042
1040
1039
1039
1041
1041
1039
1038
1038
1036
1035
1030
1028
1025
1019
1017
1012
1012
1012
1008
1005
1000
998
997
994
989
985
983
982
985
986
984
984
985
980
981
983
982
980
979
978
981
983
980
977
978
981
983
984
982
980
980
978
978
980
976
978
977
980
984
983
982
979
980
981
985
986
982
982
980
979
981
984
981
977
980
984
987
988
984
985
985
987
991
992
991
992
993
997
999
1002
997
994
995
995
998
997
996
992
989
990
990
993
993
991
990
987
986
988
987
984
982
985
989
993
992
993
993
992
984
986
983
980
980
983
983
983
980
973
965
962
966
972
971
969
966
963
965
967
968
967
964
965
963
965
962
958
950
948
947
956
969
988
1017
1051
1098
1141
1188
1226
1237
1214
1163
1094
1014
930
873
856
864
875
885
900
917
936
944
948
948
949
954
956
955
956
958
957
956
957
960
965
962
959
958
961
961
961
963
962
961
962
964
965
964
965
965
967
968
968
970
969
968
973
974
977
976
977
982
982
983
986
988
991
993
997
1002
1003
1001
1002
1006
1010
1014
1017
1018
1017
1019
1021
1024
1024
1025
1026
1027
1023
1023
1026
1023
1021
1016
1015
1019
1017
1017
1013
1007
1002
1004
1002
997
992
990
988
986
987
980
972
973
971
970
970
965
965
963
964
966
963
963
959
957
958
961
961
961
959
955
956
958
961
962
960
957
957
960
961
961
960
959
959
960
960
961
958
957
956
957
959
960
959
959
960
959
961
962
957
956
958
964
964
964
962
959
960
962
967
966
966
964
967
973
976
976
970
970
971
973
974
972
968
963
965
967
969
968
965
964
963
966
965
960
958
957
956
963
965
962
961
962
963
964
962
957
954
948
947
946
950
951
947
942
945
950
950
949
946
943
945
943
945
946
941
943
943
941
942
937
931
934
943
966
994
1025
1063
1109
1157
1201
1228
1214
1165
1093
1002
912
852
839
851
869
891
910
922
927
931
933
936
940
940
938
936
936
936
938
939
940
936
937
938
940
939
942
942
940
941
943
946
945
943
944
945
948
951
950
948
947
949
954
955
955
954
953
956
960
961
965
966
968
968
973
975
979
978
981
982
987
990
991
990
996
996
1001
1002
998
995
997
999
1001
1001
1002
999
998
999
997
994
995
992
988
988
989
984
982
977
968
970
971
969
965
958
959
958
956
955
952
948
946
946
948
953
949
945
944
944
946
947
947
943
944
944
948
949
948
947
945
945
948
947
945
943
942
943
945
944
940
940
941
944
945
944
942
942
944
945
946
947
944
943
944
944
943
947
946
942
942
948
949
953
953
951
951
952
957
961
959
955
956
959
960
964
965
960
954
954
955
960
956
955
953
953
956
958
955
951
945
946
951
953
951
947
947
950
952
954
950
945
943
939
938
938
939
937
932
934
934
936
937
936
934
933
937
939
937
936
933
932
938
939
939
932
926
921
924
930
941
960
987
1023
1067
1117
1161
1197
1203
1177
1116
1044
958
875
826
827
849
865
877
891
903
912
917
925
928
927
925
926
929
929
926
925
926
929
929
929
930
930
927
929
932
933
934
933
931
933
937
937
937
937
936
938
941
944
942
943
941
942
946
946
952
948
949
952
958
957
959
962
961
968
972
977
978
976
981
985
990
992
993
993
991
992
995
999
998
999
996
997
999
1001
999
996
995
993
990
991
988
982
980
974
973
972
969
963
956
957
956
956
956
952
951
946
950
950
949
947
946
946
943
949
948
943
943
942
945
947
947
945
941
945
946
948
946
945
942
944
948
947
947
946
941
943
942
946
946
942
943
946
947
949
947
943
944
944
947
948
948
948
950
950
955
960
960
959
955
957
960
960
960
960
960
958
957
959
961
958
953
956
957
958
955
954
951
952
950
953
953
952
951
950
952
953
950
946
946
945
944
939
937
932
933
932
935
939
934
935
934
935
935
936
936
936
935
936
937
939
941
938
938
937
935
931
926
923
932
950
972
1002
1041
1082
1126
1167
1193
1187
1148
1090
1020
945
876
839
837
844
858
873
895
913
921
925
925
927
932
933
933
933
932
933
936
936
936
933
931
931
933
937
935
934
932
938
937
939
942
940
938
939
942
945
947
945
944
947
950
949
948
945
949
951
956
959
960
962
964
964
969
974
973
976
979
983
987
992
991
990
990
994
996
999
998
997
996
1000
1005
1006
1004
1000
998
1000
1001
1003
1000
990
989
990
990
992
988
979
971
969
968
967
964
957
953
952
953
954
950
945
944
945
946
947
947
946
947
946
945
942
942
939
939
938
941
943
941
937
936
940
940
944
944
943
943
943
948
947
942
937
939
942
942
943
938
934
932
935
939
942
942
939
939
940
944
947
947
946
945
946
946
953
955
953
950
951
955
963
961
955
951
950
948
950
948
947
947
948
952
956
952
949
944
941
942
945
937
934
934
936
940
942
940
937
930
929
927
926
925
922
923
925
925
927
925
922
921
921
922
926
924
921
920
921
925
924
920
909
903
907
919
940
965
999
1042
1094
1145
1175
1181
1151
1102
1032
961
884
838
828
836
843
856
874
889
899
902
902
907
911
914
911
907
908
914
914
913
913
911
914
914
915
918
916
915
917
919
919
922
918
919
917
922
925
926
925
925
922
928
928
928
927
930
929
935
938
941
942
943
945
949
952
955
956
958
961
961
964
969
966
966
969
972
975
978
974
972
974
975
978
974
970
969
968
968
967
961
956
953
952
950
949
946
941
936
932
931
931
930
927
922
921
920
922
920
916
915
911
918
918
917
916
912
913
915
918
919
916
912
913
915
916
917
916
914
914
915
918
916
915
914
914
918
917
916
916
916
916
919
921
921
916
918
919
920
921
923
920
919
921
924
923
922
922
920
925
929
928
931
927
928
929
930
931
931
930
927
928
930
933
928
927
927
925
927
927
922
923
919
920
923
921
922
922
922
923
925
924
921
918
914
909
913
912
910
910
909
908
909
910
912
911
910
909
911
912
911
911
911
911
914
914
911
902
897
900
909
928
954
983
1022
1070
1122
1166
1190
1184
1142
1077
1002
915
844
815
816
837
855
870
885
892
898
900
905
909
910
907
902
904
909
911
911
907
905
907
909
910
915
913
907
909
914
917
921
918
916
917
921
927
928
927
923
922
928
929
934
932
931
928
931
939
941
943
942
943
948
951
955
955
957
958
963
967
970
970
971
973
978
983
983
979
980
981
985
987
988
986
985
985
986
989
987
979
979
977
974
975
974
966
961
958
960
961
955
948
943
946
946
943
943
940
936
936
939
942
941
939
938
937
938
939
941
939
938
939
937
941
941
941
939
939
941
944
943
941
941
942
945
945
944
942
944
945
946
949
948
950
947
946
950
949
947
947
946
946
947
954
954
956
956
958
962
964
964
964
962
963
964
968
969
965
961
959
963
967
968
965
965
962
962
963
962
958
954
953
959
960
962
961
961
962
959
962
962
956
950
949
947
951
956
953
951
950
950
954
956
953
949
950
953
952
954
951
951
953
956
952
951
946
939
936
943
956
974
1000
1030
1071
1118
1172
1213
1233
1219
1167
1096
1015
924
861
846
863
883
905
919
928
935
939
944
951
951
947
949
948
952
956
957
951
950
950
951
954
954
956
951
952
957
962
960
958
955
957
962
969
968
966
966
963
966
973
973
971
972
972
976
979
982
979
978
982
985
993
993
996
995
999
1004
1008
1011
1011
1013
1016
1019
1026
1028
1026
1024
1025
1031
1034
1034
1033
1032
1034
1037
1039
1035
1030
1024
1023
1024
1025
1020
1015
1009
1007
1004
1003
1000
996
992
990
990
988
985
985
983
982
980
980
982
978
975
973
979
981
977
976
977
975
978
978
978
974
975
972
975
979
979
977
974
973
975
978
977
974
975
973
979
979
977
978
976
976
978
981
980
979
977
977
979
978
978
977
977
982
986
993
993
992
989
989
989
995
995
996
994
992
994
992
989
988
990
991
993
995
995
993
989
985
988
993
992
987
984
983
987
990
987
984
982
979
980
980
976
972
971
970
971
974
975
973
968
966
970
973
975
973
971
972
973
975
973
966
957
950
954
964
979
1000
1031
1073
1122
1168
1212
1237
1228
1180
1113
1033
943
882
869
879
896
910
926
939
951
953
955
961
963
963
963
960
963
968
969
965
963
963
967
970
967
965
966
964
966
966
967
970
970
970
972
975
977
978
974
976
977
983
985
986
984
984
989
995
999
999
1001
1005
1009
1018
1024
1023
1027
1029
1030
1037
1038
1038
1035
1033
1036
1037
1036
1034
1033
1030
1029
1030
1030
1026
1019
1012
1014
1010
1005
1001
998
995
997
992
986
983
981
980
980
983
979
980
980
978
978
979
978
974
974
977
980
978
976
975
977
977
980
983
981
980
979
981
979
981
976
977
976
976
981
985
983
979
975
977
980
983
984
983
980
974
981
984
986
986
988
993
996
1000
995
994
991
991
997
1001
999
996
991
988
995
997
997
991
988
985
985
987
986
981
980
982
985
987
987
987
985
982
982
983
980
975
970
969
972
973
970
969
966
968
968
971
970
969
967
971
971
971
970
973
970
970
971
969
965
959
956
957
969
987
1015
1046
1086
1137
1187
1229
1241
1220
1176
1111
1037
957
897
880
884
894
909
926
944
955
958
960
962
966
970
969
966
962
965
967
967
966
965
966
967
973
973
972
972
968
973
975
975
977
978
976
978
979
980
981
980
980
982
987
989
989
986
986
991
995
1000
1001
1000
1005
1007
1012
1015
1015
1017
1018
1024
1029
1032
1029
1028
1030
1033
1034
1036
1040
1038
1037
1040
1040
1040
1039
1038
1037
1038
1038
1035
1033
1030
1027
1023
1023
1023
1016
1012
1008
1007
1004
1001
996
996
993
992
992
991
987
985
982
982
981
986
984
979
979
985
983
982
981
980
980
981
981
980
977
980
978
981
982
983
980
978
979
982
985
986
986
981
980
983
987
986
986
984
983
984
986
989
988
986
985
987
990
990
987
987
988
993
998
996
996
996
1001
1002
1002
1005
1001
999
1001
1000
1005
1003
1000
998
998
1000
1002
1000
998
995
993
993
996
994
995
990
988
993
996
998
995
990
987
985
985
983
981
978
978
979
983
983
980
976
974
979
982
982
979
976
975
979
982
981
978
976
971
972
967
966
966
975
992
1024
1061
1098
1143
1189
1229
1256
1256
1211
1140
1053
962
897
876
889
904
920
938
953
963
969
970
969
971
973
974
975
973
972
970
970
974
975
974
972
970
974
976
976
974
974
975
977
981
982
980
978
979
983
986
986
987
982
984
987
989
991
992
991
995
999
1001
1005
1002
1003
1006
1012
1017
1018
1018
1023
1026
1027
1030
1034
1032
1031
1033
1037
1041
1044
1042
1037
1040
1044
1047
1048
1046
1042
1041
1042
1043
1040
1035
1032
1029
1031
1029
1025
1020
1016
1011
1011
1010
1009
1004
1000
998
1001
998
999
995
992
992
994
997
996
994
989
990
991
993
994
991
989
988
989
990
993
991
988
986
989
990
989
990
988
990
992
992
989
988
985
988
988
994
991
990
987
987
988
992
992
992
989
986
988
993
995
992
992
992
995
996
998
1000
1000
1000
1005
1006
1007
1004
1003
1005
1005
1012
1013
1009
1006
1005
1003
1005
1008
1006
1007
1004
1002
1001
1002
999
998
994
998
999
999
998
998
1000
999
999
998
997
993
988
986
987
988
989
986
985
986
988
989
989
987
984
984
988
990
988
986
987
983
986
986
984
977
974
970
975
985
1001
1026
1054
1092
1134
1185
1228
1255
1257
1218
1158
1084
998
919
882
886
902
919
933
947
959
967
974
978
982
981
977
977
979
981
980
979
979
980
982
979
979
978
981
984
984
982
979
979
981
985
987
987
987
986
986
990
994
997
994
990
994
993
996
999
1001
1000
1002
1006
1008
1012
1013
1015
1017
1019
1023
1026
1026
1026
1029
1030
1034
1038
1039
1039
1041
1047
1050
1052
1046
1046
1047
1051
1053
1054
1054
1053
1053
1053
1054
1052
1048
1045
1041
1040
1039
1037
1034
1027
1026
1025
1022
1021
1017
1012
1009
1007
1006
1006
1003
1000
996
1000
1000
999
995
991
991
992
994
997
995
992
993
994
997
996
996
996
992
995
995
993
992
993
991
990
990
993
991
991
990
992
993
992
993
988
991
990
993
999
995
993
990
991
993
996
995
993
992
998
1000
997
997
996
999
1000
1008
1011
1011
1006
1003
1005
1011
1014
1012
1008
1005
1005
1008
1010
1007
1005
1006
1009
1009
1010
1007
1003
998
997
997
1000
1000
1000
999
1002
1003
1004
1001
998
994
993
988
988
983
983
979
981
983
985
987
985
982
985
988
985
989
986
985
987
987
985
982
979
979
982
985
980
979
971
968
972
978
989
1006
1028
1061
1101
1147
1191
1231
1248
1236
1202
1151
1084
1004
926
887
890
899
909
917
934
949
966
972
973
971
972
974
974
979
979
978
979
980
985
985
984
982
978
978
981
985
989
991
991
990
992
993
989
983
983
986
993
994
993
988
988
989
995
1002
1003
1004
1002
1003
1007
1009
1009
1009
1009
1014
1018
1023
1023
1024
1023
1025
1032
1038
1036
1038
1038
1041
1048
1050
1050
1048
1045
1048
1052
1055
1054
1051
1046
1046
1047
1053
1052
1047
1043
1040
1042
1042
1039
1035
1031
1024
1027
1024
1021
1015
1010
1004
1007
1008
1007
1005
1002
1000
999
1000
1002
1002
997
995
997
999
997
993
991
989
990
995
998
997
995
992
993
992
997
994
993
990
991
992
996
1000
997
989
987
989
993
992
990
987
990
990
993
994
990
991
993
995
995
996
994
996
996
999
999
997
998
996
998
1002
1005
1006
1007
1007
1009
1010
1009
1010
1010
1012
