923
931
943
949
958
966
976
984
992
1001
1007
1011
1016
1023
1029
1039
1046
1053
1054
1052
1053
1051
1051
1050
1051
1051
1050
1049
1048
1048
1046
1043
1037
1032
1028
1020
1015
1010
1007
1006
1006
1000
996
989
979
972
966
961
959
955
951
945
943
937
932
927
925
920
917
913
911
908
908
910
912
914
915
915
911
907
909
910
916
920
925
933
938
944
952
959
962
966
967
969
970
969
972
974
977
974
967
955
941
930
920
910
906
904
907
912
912
913
914
911
912
911
913
912
912
911
912
909
911
916
919
923
922
923
917
914
914
913
915
918
929
948
979
1020
1072
1137
1214
1295
1368
1418
1431
1403
1337
1250
1157
1064
979
909
859
823
800
791
800
818
844
866
883
891
887
882
875
871
870
868
868
867
867
866
867
867
868
869
864
860
854
853
857
858
863
868
868
868
866
864
864
868
871
879
883
888
889
891
893
897
901
910
916
920
923
930
935
944
952
960
968
975
979
982
987
993
998
1008
1014
1020
1025
1031
1037
1042
1049
1052
1052
1054
1058
1062
1063
1069
1075
1077
1076
1073
1068
1065
1063
1061
1064
1064
1063
1057
1050
1043
1039
1034
1029
1024
1020
1015
1010
1006
999
996
992
990
983
973
965
957
950
944
942
937
932
929
922
919
917
917
915
912
909
904
900
900
901
904
909
906
907
906
905
904
904
908
913
923
929
935
941
946
950
953
962
964
969
970
971
970
969
966
961
950
939
925
916
908
902
899
898
899
899
900
901
903
906
907
907
904
901
899
895
896
899
905
908
909
909
903
899
891
889
890
897
913
941
981
1039
1109
1192
1280
1354
1399
1402
1357
1281
1186
1081
986
907
846
797
763
746
749
766
789
813
835
849
857
857
856
852
849
848
847
843
839
838
839
836
840
843
843
842
840
836
834
837
838
841
843
845
848
851
853
857
862
864
869
867
866
866
870
877
882
892
899
903
907
909
915
920
923
928
934
939
946
952
957
963
968
971
977
983
984
990
995
1002
1008
1018
1022
1028
1026
1025
1027
1032
1035
1042
1047
1053
1055
1055
1054
1051
1049
1046
1046
1041
1036
1032
1028
1025
1023
1022
1019
1014
1010
1001
992
986
979
971
967
962
955
948
948
942
938
935
931
924
919
917
914
914
909
912
915
915
914
911
908
909
906
907
912
915
914
914
915
916
919
924
928
933
938
945
949
953
957
965
969
972
975
972
969
965
960
953
948
940
930
920
910
902
897
893
893
893
894
893
893
892
891
892
890
891
892
893
893
892
888
888
889
891
896
900
900
899
894
888
880
881
887
907
940
989
1045
1110
1185
1264
1334
1388
1412
1395
1341
1259
1164
1065
977
901
842
796
763
752
761
782
806
830
849
859
858
851
844
836
833
832
832
835
834
830
829
827
830
830
832
832
830
826
825
823
824
827
830
831
832
836
839
839
844
846
848
848
849
851
859
865
874
884
891
897
904
911
918
922
930
936
943
949
957
964
972
982
989
996
1001
1005
1008
1014
1025
1031
1035
1040
1044
1045
1050
1052
1054
1058
1054
1054
1053
1050
1049
1048
1049
1047
1043
1035
1028
1021
1017
1013
1010
1007
999
994
987
981
980
974
969
965
958
951
946
941
936
936
934
929
926
919
917
914
912
913
915
918
920
918
917
911
913
914
919
923
931
935
940
947
952
959
963
968
969
970
969
966
965
962
955
946
933
923
912
907
901
898
898
897
895
893
892
893
895
895
897
898
896
893
890
888
890
887
891
894
893
896
896
894
892
888
889
895
915
947
995
1053
1126
1211
1296
1368
1409
1408
1366
1293
1205
1111
1023
951
895
851
816
795
785
793
812
837
851
862
867
862
857
854
854
854
855
852
851
846
844
844
848
850
852
855
852
853
852
850
852
852
852
852
852
853
856
860
865
868
875
878
880
882
883
885
892
901
910
919
924
930
931
933
943
949
957
966
972
979
985
989
1000
1008
1016
1023
1030
1035
1040
1039
1047
1052
1057
1066
1075
1080
1083
1087
1089
1090
1092
1092
1090
1091
1089
1089
1087
1088
1088
1087
1083
1078
1069
1061
1054
1052
1053
1052
1049
1042
1037
1032
1024
1018
1014
1012
1007
1006
1003
996
990
987
979
973
970
968
965
957
952
946
938
937
938
937
935
934
931
927
927
929
932
935
937
939
937
934
935
938
945
952
962
966
970
972
974
979
986
989
995
994
994
990
983
976
970
963
955
946
937
930
924
919
916
916
914
913
916
915
914
917
919
919
923
921
920
915
913
910
910
914
918
922
925
923
918
913
908
913
933
968
1022
1087
1158
1242
1326
1395
1438
1435
1390
1312
1219
1122
1031
953
889
841
805
782
774
780
797
820
843
861
873
875
874
867
862
858
857
858
859
858
855
852
849
849
848
849
852
855
855
851
854
854
852
853
856
859
863
867
869
871
874
880
884
886
889
888
893
896
905
913
919
925
928
930
933
937
943
952
959
966
971
975
977
984
988
995
1002
1009
1014
1018
1021
1024
1028
1034
1042
1050
1057
1058
1060
1058
1057
1057
1060
1067
1069
1069
1067
1064
1062
1057
1054
1051
1047
1044
1041
1034
1031
1029
1026
1025
1020
1010
1003
996
988
982
978
977
975
974
969
962
958
950
944
940
937
935
931
927
926
923
922
921
921
921
920
916
914
912
914
917
923
928
932
932
932
930
931
935
940
947
953
958
965
968
973
977
984
986
990
987
983
979
975
970
963
954
946
937
927
919
913
908
907
907
908
913
913
914
912
911
912
909
911
912
912
912
912
909
910
907
912
912
913
910
907
903
902
909
931
964
1012
1070
1135
1208
1278
1342
1389
1417
1414
1375
1312
1232
1146
1060
982
917
859
817
786
773
777
795
820
846
866
876
879
877
870
862
856
851
852
852
853
851
851
851
850
850
848
847
846
847
847
843
844
845
848
855
859
859
863
859
862
862
866
869
873
881
884
887
891
899
904
912
917
922
927
929
935
941
950
959
969
974
980
984
990
995
1002
1009
1016
1023
1030
1037
1041
1046
1053
1059
1063
1069
1071
1073
1075
1079
1079
1082
1084
1086
1089
1088
1082
1081
1078
1075
1075
1072
1068
1066
1063
1057
1052
1046
1039
1035
1031
1025
1023
1018
1013
1007
1000
998
995
995
987
980
974
965
961
956
960
958
956
956
953
947
947
943
945
946
946
946
947
947
951
954
957
964
968
975
979
983
989
990
994
1001
1008
1010
1012
1008
1005
999
992
982
975
965
955
944
934
930
927
926
928
928
926
923
922
921
922
924
928
927
925
923
921
920
922
924
924
923
919
915
912
918
933
960
997
1041
1097
1164
1246
1325
1391
1428
1418
1368
1288
1194
1095
1003
928
866
822
798
792
801
821
849
872
886
894
888
879
871
863
866
868
868
869
867
867
864
862
860
860
859
860
858
857
856
857
858
858
860
863
861
860
859
860
864
869
874
881
886
888
890
893
898
902
909
915
924
930
939
947
955
968
975
980
984
987
990
997
1010
1020
1030
1038
1046
1052
1055
1061
1070
1076
1084
1091
1093
1097
1101
1105
1111
1116
1122
1125
1125
1126
1127
1132
1132
1133
1128
1121
1112
1102
1092
1086
1078
1071
1064
1052
1044
1036
1027
1022
1020
1014
1010
1005
999
991
983
979
976
973
972
966
960
957
952
946
944
941
940
937
938
936
936
938
940
942
942
945
945
946
946
948
951
952
953
955
952
947
943
948
963
991
1035
1092
1160
1238
1320
1395
1448
1467
1442
1385
1312
1226
1138
1057
991
936
900
874
861
867
879
897
913
920
921
918
913
907
898
896
894
891
889
895
893
893
890
888
884
884
887
886
889
886
885
884
883
879
880
884
887
890
891
892
894
896
900
904
906
913
915
918
924
928
938
946
957
966
973
977
981
985
992
1001
1011
1020
1029
1037
1042
1045
1050
1054
1060
1066
1073
1077
1084
1086
1089
1091
1092
1093
1093
1091
1089
1081
1080
1078
1078
1079
1077
1075
1073
1066
1059
1052
1047
1043
1038
1033
1032
1027
1023
1022
1019
1017
1013
1008
1001
993
982
973
969
963
963
963
964
962
957
950
946
941
939
936
935
935
933
934
933
933
932
932
931
931
930
932
933
938
940
944
942
943
943
941
939
940
940
942
946
947
946
947
947
947
945
946
945
941
942
942
943
945
947
950
950
951
948
946
945
942
944
948
951
952
950
949
947
950
957
964
966
972
974
975
971
972
977
978
980
979
975
970
966
962
956
951
945
939
936
935
934
934
939
938
940
940
938
938
938
937
939
943
944
944
942
942
936
936
935
938
940
937
936
932
932
941
962
993
1038
1089
1145
1213
1287
1360
1416
1442
1418
1359
1269
1168
1066
973
898
841
800
778
781
799
825
851
874
890
892
888
880
876
870
871
874
881
881
882
880
874
872
869
868
870
872
873
874
875
881
885
888
890
891
890
887
889
891
896
901
909
914
917
918
919
921
923
927
931
936
939
943
947
949
952
956
959
961
964
967
974
976
984
991
1000
1005
1006
1009
1014
1016
1018
1024
1030
1035
1035
1040
1044
1051
1057
1064
1067
1075
1077
1079
1080
1082
1087
1086
1089
1087
1084
1079
1076
1073
1071
1069
1066
1060
1053
1047
1042
1034
1031
1025
1020
1013
1006
999
992
989
990
989
988
986
979
975
970
967
965
963
967
969
970
968
970
967
966
970
972
971
969
964
964
966
971
977
985
989
996
999
1003
1005
1012
1018
1021
1023
1022
1019
1018
1010
1006
994
981
971
960
949
942
940
940
943
945
945
943
939
938
937
940
941
943
942
942
942
943
943
943
945
943
943
937
928
924
923
929
953
984
1027
1082
1143
1209
1286
1359
1415
1439
1423
1368
1291
1203
1110
1024
955
896
852
818
797
797
809
833
859
880
900
906
900
892
884
880
877
877
879
876
877
880
880
876
874
874
872
871
871
868
867
867
871
875
879
881
882
880
881
882
883
889
894
898
902
905
909
911
916
923
927
934
939
945
949
955
961
969
979
984
992
1000
1004
1010
1015
1024
1032
1041
1050
1057
1061
1064
1066
1070
1079
1086
1093
1096
1100
1103
1108
1111
1115
1118
1120
1117
1114
1112
1107
1105
1106
1107
1106
1102
1096
1092
1084
1075
1070
1067
1061
1056
1054
1045
1041
1036
1031
1028
1026
1020
1013
1005
1001
996
991
989
985
986
985
985
983
983
983
982
980
981
982
980
982
982
982
986
988
995
999
1002
1006
1011
1018
1024
1031
1037
1041
1043
1044
1042
1042
1041
1040
1037
1030
1019
1006
996
987
978
973
969
968
966
963
963
963
961
964
966
965
964
966
965
964
963
963
962
963
963
964
964
962
960
959
960
962
973
993
1028
1076
1135
1199
1278
1354
1423
1462
1460
1418
1347
1261
1173
1088
1011
947
897
859
839
838
851
874
899
921
929
927
925
919
914
910
911
907
905
902
900
899
903
904
910
910
911
909
907
906
903
903
904
905
906
909
911
914
921
927
931
934
936
938
941
942
946
954
963
969
979
985
991
999
1005
1010
1018
1027
1033
1038
1044
1050
1056
1066
1074
1082
1087
1093
1097
1103
1110
1115
1123
1131
1140
1142
1146
1145
1146
1148
1149
1151
1155
1155
1156
1156
1156
1152
1151
1146
1145
1142
1137
1130
1126
1124
1120
1116
1110
1110
1104
1099
1092
1084
1083
1077
1072
1071
1068
1059
1054
1051
1047
1040
1037
1033
1026
1017
1009
1004
1002
998
997
995
993
991
988
987
983
983
984
984
988
986
985
984
988
990
992
998
1007
1013
1020
1024
1029
1034
1038
1041
1044
1044
1045
1043
1038
1034
1026
1020
1012
1005
996
986
978
970
967
966
964
966
967
968
967
966
960
962
963
967
966
967
963
962
958
959
962
965
969
971
970
966
960
954
950
945
949
966
996
1038
1094
1157
1233
1311
1384
1439
1456
1436
1374
1297
1216
1133
1055
989
934
889
851
827
815
820
839
863
887
903
914
917
911
905
899
894
895
894
894
898
897
895
894
893
893
893
894
893
890
888
884
883
888
891
895
903
904
909
911
911
913
915
922
927
931
934
941
942
944
945
946
951
953
961
963
971
979
984
993
999
1010
1015
1022
1025
1029
1032
1039
1044
1051
1054
1060
1065
1070
1075
1081
1089
1094
1099
1103
1105
1108
1108
1112
1114
1116
1115
1116
1109
1107
1103
1100
1101
1102
1103
1104
1100
1093
1084
1074
1068
1064
1060
1054
1048
1045
1040
1036
1029
1029
1026
1018
1012
1004
996
990
986
982
981
978
977
972
966
965
964
960
957
963
965
964
964
960
963
962
961
962
965
966
964
967
967
972
984
994
1000
1007
1013
1014
1016
1021
1023
1024
1025
1024
1024
1019
1013
1005
993
980
968
959
949
946
945
950
953
958
959
959
954
948
948
947
946
946
948
949
950
951
953
953
954
952
949
948
939
934
930
937
951
977
1020
1068
1121
1180
1249
1322
1389
1437
1448
1413
1346
1260
1163
1069
988
925
871
832
807
799
807
827
852
879
897
909
910
906
898
889
887
886
886
886
892
891
890
888
887
886
887
887
887
885
881
882
883
886
889
892
893
894
893
893
896
901
908
913
920
922
925
930
931
936
942
949
953
960
968
973
981
990
999
1007
1014
1020
1023
1028
1033
1040
1047
1057
1066
1071
1075
1080
1085
1093
1100
1107
1112
1116
1118
1119
1119
1123
1124
1132
1132
1132
1129
1125
1124
1121
1121
1121
1118
1114
1109
1104
1099
1095
1090
1083
1081
1074
1066
1061
1056
1053
1049
1045
1044
1038
1031
1026
1020
1015
1014
1015
1013
1014
1011
1010
1006
1002
1001
1002
1004
1005
1005
1003
1001
1002
1004
1009
1014
1020
1029
1030
1034
1036
1040
1046
1050
1058
1061
1066
1066
1063
1063
1059
1056
1049
1039
1032
1019
1006
998
991
985
983
982
982
980
978
979
980
979
984
985
988
987
983
980
981
981
980
982
984
986
986
984
981
976
972
969
973
982
1004
1037
1083
1136
1194
1264
1337
1407
1460
1485
1472
1420
1348
1270
1181
1096
1024
963
914
875
854
850
863
887
914
936
947
948
946
940
933
928
923
925
923
922
920
919
919
918
920
922
920
916
914
911
908
909
907
910
914
913
916
919
922
924
927
933
935
937
939
941
949
957
965
976
982
985
988
996
1000
1011
1020
1030
1039
1046
1055
1062
1070
1080
1087
1095
1102
1107
1115
1125
1131
1146
1155
1162
1164
1164
1161
1163
1164
1169
1173
1178
1182
1180
1179
1177
1175
1170
1167
1164
1158
1154
1146
1141
1139
1137
1134
1126
1123
1114
1108
1100
1094
1088
1085
1084
1081
1077
1071
1066
1063
1058
1054
1049
1043
1033
1027
1021
1020
1019
1018
1019
1017
1017
1014
1011
1010
1010
1011
1013
1016
1018
1020
1025
1033
1041
1049
1058
1063
1068
1069
1069
1075
1077
1081
1083
1079
1076
1069
1060
1048
1037
1025
1015
1008
1003
997
995
998
999
1001
1001
998
994
988
983
980
980
983
987
987
987
990
989
988
990
989
990
984
984
986
1000
1026
1064
1119
1181
1247
1321
1390
1442
1464
1440
1381
1297
1204
1110
1028
968
928
897
877
859
854
858
877
898
919
934
940
938
932
924
918
912
915
918
921
923
921
918
914
913
912
915
915
917
917
914
916
917
920
924
926
928
928
929
927
931
937
946
955
962
967
970
971
973
977
983
988
995
1000
1007
1013
1020
1023
1033
1041
1046
1049
1052
1054
1058
1066
1073
1082
1085
1093
1097
1102
1105
1108
1117
1120
1128
1132
1133
1135
1135
1137
1137
1137
1139
1135
1132
1128
1123
1120
1118
1118
1117
1117
1113
1107
1101
1093
1087
1080
1078
1079
1078
1074
1071
1064
1057
1049
1042
1036
1033
1028
1023
1021
1015
1010
1007
1005
1001
997
990
984
978
975
979
980
981
983
985
983
983
981
982
982
982
983
983
986
988
993
1000
1006
1015
1022
1025
1029
1031
1035
1038
1044
1049
1053
1054
1051
1046
1037
1028
1018
1004
993
984
977
971
967
969
970
972
973
971
971
968
964
965
970
970
973
972
971
972
970
971
970
970
970
970
970
967
964
967
981
1009
1049
1103
1165
1234
1313
1389
1450
1478
1467
1422
1351
1264
1172
1082
1003
938
885
847
831
836
850
877
903
923
934
937
933
922
915
913
911
912
916
915
912
912
909
907
906
907
907
908
909
908
909
909
914
916
915
915
914
915
918
922
926
933
938
943
946
950
954
962
969
976
982
988
992
1000
1007
1018
1026
1038
1042
1047
1055
1060
1067
1076
1084
1092
1099
1107
1114
1119
1125
1130
1133
1138
1136
1137
1141
1144
1150
1152
1155
1154
1153
1148
1143
1141
1140
1140
1141
1137
1132
1129
1120
1117
1111
1106
1100
1097
1090
1084
1078
1072
1069
1065
1060
1054
1048
1040
1033
1027
1023
1021
1022
1020
1019
1016
1015
1016
1017
1020
1019
1022
1018
1017
1017
1016
1018
1023
1029
1037
1043
1051
1053
1057
1060
1067
1072
1078
1082
1080
1081
1078
1074
1069
1063
1052
1042
1027
1018
1006
998
996
995
998
999
1000
997
992
992
989
992
993
995
999
999
995
992
989
990
991
994
994
995
992
990
989
984
982
985
998
1016
1048
1096
1154
1223
1300
1377
1445
1484
1483
1444
1378
1296
1207
1120
1050
992
952
917
888
878
877
889
914
934
949
955
953
947
941
939
938
938
939
939
937
934
929
927
926
927
929
930
929
929
928
929
930
930
931
929
932
937
941
947
952
958
959
959
962
964
967
971
979
988
1000
1009
1019
1025
1030
1037
1042
1050
1058
1064
1071
1077
1088
1091
1102
1114
1123
1130
1136
1139
1142
1146
1152
1159
1165
1174
1178
1179
1180
1179
1178
1182
1182
1185
1189
1191
1190
1185
1186
1182
1180
1178
1175
1167
1163
1155
1147
1141
1138
1137
1139
1139
1134
1129
1121
1113
1108
1104
1102
1101
1093
1087
1082
1073
1065
1061
1058
1054
1050
1044
1038
1032
1026
1024
1025
1027
1030
1027
1023
1019
1016
1014
1016
1018
1022
1024
1025
1025
1024
1026
1033
1041
1051
1058
1064
1070
1075
1078
1080
1084
1084
1083
1075
1063
1054
1042
1034
1027
1019
1013
1008
1004
1002
1000
998
998
997
996
994
993
993
994
996
998
997
998
994
991
987
987
988
991
992
994
992
989
987
998
1022
1062
1113
1172
1241
1318
1391
1450
1480
1469
1420
1340
1240
1135
1039
957
895
850
832
834
852
879
909
930
942
946
942
933
926
920
918
918
920
921
919
919
915
912
910
907
911
911
915
918
918
921
920
921
922
924
925
927
931
934
939
948
954
960
964
966
968
969
