956
958
958
960
958
959
958
961
961
961
957
954
954
956
961
977
1001
1036
1078
1129
1188
1257
1329
1399
1444
1450
1408
1332
1233
1132
1033
954
897
855
824
810
804
815
836
860
887
905
918
917
913
904
898
894
893
894
897
897
894
893
891
891
892
892
892
891
884
881
882
885
888
893
895
896
897
898
897
901
904
910
914
917
923
929
936
945
951
954
958
960
962
969
976
984
992
999
1004
1011
1017
1024
1029
1037
1046
1052
1059
1062
1069
1077
1084
1088
1095
1097
1101
1105
1110
1115
1119
1122
1122
1125
1122
1118
1116
1112
1113
1107
1105
1100
1095
1092
1087
1087
1082
1076
1072
1064
1059
1051
1047
1043
1041
1036
1031
1023
1017
1012
1004
1000
999
996
993
986
982
980
979
978
980
981
978
974
970
970
971
972
978
981
982
983
985
985
989
994
1002
1007
1012
1017
1021
1025
1035
1040
1044
1046
1045
1039
1037
1028
1019
1009
1000
989
989
980
976
970
966
966
967
968
966
966
967
964
964
967
970
972
973
970
966
962
960
959
961
964
968
966
960
957
952
955
968
995
1037
1088
1148
1218
1293
1374
1440
1480
1477
1428
1351
1256
1153
1062
981
915
862
823
802
796
806
827
850
874
890
902
903
902
897
892
891
890
889
888
888
886
882
878
879
879
878
879
879
878
877
873
873
873
876
878
882
883
883
886
887
888
889
891
894
895
897
899
904
908
918
923
928
934
937
936
939
944
949
953
960
967
975
982
988
992
997
1000
1008
1014
1021
1025
1031
1040
1046
1055
1062
1068
1070
1076
1077
1080
1080
1091
1092
1096
1098
1097
1097
1094
1093
1092
1090
1088
1086
1081
1076
1068
1065
1061
1058
1054
1048
1042
1034
1026
1020
1015
1014
1011
1009
1004
998
991
986
982
980
979
977
973
969
966
965
966
971
973
971
968
965
963
968
973
984
996
1003
1011
1019
1020
1024
1029
1032
1037
1038
1038
1036
1031
1026
1021
1012
1004
992
980
968
959
955
954
956
960
962
965
963
957
954
951
952
950
951
954
955
956
959
960
961
966
966
965
962
955
950
946
947
961
983
1025
1082
1153
1236
1326
1412
1478
1512
1510
1462
1388
1302
1206
1114
1027
949
880
831
810
812
839
872
904
924
929
924
911
902
892
892
889
891
891
889
891
886
888
888
888
882
881
879
876
876
875
878
878
880
882
880
884
886
888
891
891
891
895
899
902
908
915
920
925
929
934
938
942
950
958
967
977
985
993
1000
1009
1018
1023
1031
1035
1041
1049
1058
1070
1082
1091
1099
1103
1107
1111
1116
1120
1122
1125
1126
1128
1126
1127
1128
1127
1125
1123
1119
1112
1107
1102
1100
1099
1097
1095
1092
1087
1079
1073
1067
1062
1058
1055
1048
1042
1034
1029
1025
1021
1022
1018
1016
1010
1005
1000
996
995
997
999
998
998
994
991
987
988
990
996
1001
1009
1013
1019
1027
1031
1035
1041
1045
1048
1049
1052
1051
1051
1050
1050
1044
1035
1023
1006
994
982
973
969
969
972
976
977
976
976
974
973
970
969
966
967
970
971
974
976
978
979
976
974
969
966
964
963
963
961
968
979
1000
1027
1070
1126
1196
1276
1362
1437
1492
1507
1477
1419
1336
1241
1151
1065
997
940
896
864
848
848
861
884
909
929
939
941
933
926
919
917
915
913
911
910
911
910
909
909
908
907
906
905
906
909
909
911
912
912
911
909
911
911
912
917
921
923
928
930
933
938
941
946
951
957
960
965
969
976
984
992
1003
1009
1014
1018
1021
1026
1033
1040
1050
1060
1070
1075
1082
1088
1095
1103
1107
1113
1117
1120
1122
1125
1130
1138
1146
1151
1152
1150
1148
1142
1142
1140
1143
1142
1140
1137
1131
1124
1120
1117
1114
1113
1110
1106
1100
1092
1087
1080
1080
1077
1075
1069
1065
1059
1051
1044
1039
1036
1036
1028
1021
1014
1006
1000
995
992
991
989
986
984
984
982
983
985
985
986
985
982
982
983
989
996
1006
1018
1027
1031
1036
1040
1040
1041
1046
1049
1054
1056
1054
1051
1044
1035
1023
1011
1003
994
988
983
977
973
976
980
982
982
980
974
973
966
969
972
975
981
985
984
983
980
982
980
980
979
972
972
965
969
979
1003
1045
1102
1170
1253
1337
1419
1481
1513
1507
1452
1371
1273
1169
1069
986
917
866
828
816
815
833
857
884
905
918
926
923
917
910
907
904
906
908
911
911
911
907
906
901
897
895
892
892
892
894
897
900
904
907
909
910
908
911
914
915
920
927
933
935
939
940
942
943
949
953
960
966
974
982
986
992
998
1005
1010
1016
1019
1021
1025
1028
1038
1052
1066
1076
1082
1088
1091
1095
1099
1105
1110
1116
1116
1118
1119
1121
1125
1126
1130
1133
1131
1129
1126
1120
1117
1115
1110
1108
1106
1100
1097
1095
1094
1089
1080
1073
1065
1059
1055
1050
1049
1043
1041
1033
1027
1018
1014
1010
1005
1004
1003
1002
997
993
991
987
986
987
987
987
988
987
989
986
986
989
991
995
998
1002
1004
1010
1014
1022
1033
1040
1047
1050
1051
1049
1049
1049
1049
1047
1039
1035
1029
1020
1011
1001
992
984
974
966
962
961
963
966
971
975
975
974
973
970
970
966
967
966
967
970
972
970
968
966
965
966
963
960
960
958
963
979
1006
1046
1098
1164
1241
1324
1401
1461
1489
1472
1418
1340
1247
1151
1065
990
929
879
839
816
814
825
843
869
888
904
911
912
907
902
894
891
885
884
883
885
886
886
886
885
883
880
878
880
878
877
877
877
876
877
878
881
884
887
887
887
885
888
889
894
899
903
909
910
914
916
921
925
931
937
942
948
955
960
967
974
984
992
997
1003
1007
1012
1018
1028
1038
1049
1061
1069
1074
1077
1081
1084
1089
1093
1098
1101
1104
1106
1108
1111
1112
1113
1114
1110
1106
1100
1095
1092
1090
1090
1090
1088
1082
1077
1067
1062
1056
1051
1046
1039
1035
1029
1023
1018
1018
1013
1009
1005
1002
993
987
983
983
982
984
983
983
981
977
973
970
974
978
983
986
992
1000
1005
1012
1019
1027
1031
1037
1039
1040
1039
1041
1041
1043
1040
1032
1021
1006
991
980
971
963
962
962
962
965
967
969
967
965
964
963
960
958
959
964
966
966
966
966
966
966
966
967
966
962
960
961
967
994
1035
1094
1169
1256
1346
1427
1484
1499
1479
1425
1356
1279
1197
1109
1029
955
895
851
829
835
859
889
913
927
932
929
919
911
903
897
897
899
902
903
902
901
896
894
893
893
892
890
889
888
888
891
890
892
896
897
898
894
894
894
899
904
911
917
923
926
932
938
945
950
958
963
971
976
984
995
1007
1019
1029
1038
1046
1051
1057
1064
1073
1082
1094
1103
1111
1120
1126
1134
1142
1146
1147
1144
1142
1142
1142
1146
1148
1152
1153
1151
1144
1140
1133
1130
1125
1126
1123
1119
1118
1115
1109
1102
1096
1088
1084
1077
1070
1066
1062
1060
1054
1051
1046
1037
1029
1022
1018
1012
1013
1012
1011
1006
1004
1004
1006
1004
1004
1004
1004
1000
1002
1002
1007
1014
1024
1036
1043
1051
1055
1059
1059
1062
1064
1067
1069
1068
1067
1065
1056
1046
1034
1022
1010
1000
997
991
989
989
990
992
995
998
995
991
987
986
990
992
995
998
998
995
994
993
990
987
990
987
985
982
982
989
1006
1037
1081
1132
1192
1262
1337
1410
1466
1483
1451
1384
1295
1194
1096
1012
952
905
869
846
835
842
860
887
913
932
943
946
939
931
924
917
915
914
916
915
915
915
911
911
910
909
910
911
911
908
908
907
913
913
919
922
922
923
922
922
924
927
932
939
942
947
951
955
963
968
974
977
983
986
991
997
1004
1015
1025
1032
1037
1040
1044
1048
1054
1061
1070
1084
1095
1103
1110
1113
1118
1122
1130
1133
1138
1139
1141
1144
1146
1148
1151
1153
1151
1148
1146
1139
1133
1129
1128
1128
1125
1124
1119
1112
1110
1102
1097
1092
1085
1080
1073
1067
1060
1058
1058
1057
1052
1045
1039
1026
1021
1014
1012
1013
1010
1007
1001
999
995
993
992
990
991
989
989
988
990
991
996
1000
1002
1007
1010
1017
1025
1029
1037
1045
1048
1050
1054
1055
1059
1061
1061
1056
1047
1034
1020
1008
1000
994
992
989
986
983
981
980
979
981
982
981
981
981
981
980
980
979
978
980
977
977
980
977
978
979
980
977
972
968
973
992
1030
1084
1154
1235
1319
1401
1464
1498
1501
1461
1392
1301
1201
1100
1009
930
867
827
812
820
845
872
896
913
923
922
918
910
903
898
897
895
896
895
896
895
890
886
883
882
883
882
884
883
882
879
877
877
877
877
878
879
877
879
883
885
890
893
898
898
899
901
904
911
918
929
936
940
946
950
955
961
969
977
988
997
999
1007
1012
1018
1028
1038
1044
1051
1059
1065
1072
1079
1088
1099
1103
1106
1107
1107
1107
1109
1112
1112
1115
1113
1113
1112
1111
1108
1103
1100
1097
1091
1085
1077
1073
1071
1071
1066
1062
1057
1051
1045
1038
1033
1027
1023
1018
1015
1010
1008
1004
1003
1004
1003
1004
1000
996
994
991
989
993
999
1005
1012
1018
1022
1027
1032
1039
1040
1047
1048
1050
1049
1054
1055
1056
1053
1042
1028
1015
1003
991
987
980
975
971
967
964
966
964
964
964
965
966
969
968
967
967
969
968
967
966
971
968
965
968
968
968
968
967
963
962
973
999
1040
1102
1176
1260
1347
1422
1477
1505
1500
1465
1400
1323
1236
1144
1056
978
911
865
844
851
869
899
918
931
930
925
918
912
907
902
900
897
896
898
896
896
890
886
884
883
885
887
890
889
889
886
884
878
877
873
875
877
881
882
884
886
887
891
897
902
901
900
901
908
912
920
927
935
940
947
953
957
965
976
985
997
1007
1013
1020
1029
1035
1045
1055
1064
1071
1076
1081
1088
1097
1105
1112
1120
1123
1123
1124
1124
1124
1126
1125
1128
1126
1127
1123
1121
1117
1117
1114
1112
1107
1103
1097
1096
1090
1085
1084
1084
1081
1076
1067
1061
1053
1048
1043
1040
1037
1030
1027
1021
1017
1016
1014
1013
1011
1005
1001
999
1000
999
998
1001
1003
1005
1004
1007
1011
1016
1023
1031
1037
1041
1046
1044
1050
1054
1058
1064
1063
1055
1046
1035
1026
1019
1011
1004
998
992
984
978
973
972
974
977
982
985
985
982
980
982
981
981
982
983
981
982
982
982
984
984
985
983
982
978
974
974
980
999
1031
1077
1135
1203
1277
1352
1423
1475
1499
1488
1439
1368
1284
1191
1105
1037
975
929
892
871
864
875
895
919
944
958
963
961
953
944
936
932
933
934
938
940
936
937
934
933
935
935
935
935
933
933
930
931
933
936
940
942
944
943
945
945
946
949
953
956
963
969
970
980
984
992
998
1003
1006
1009
1014
1020
1027
1032
1042
1050
1058
1070
1073
1080
1086
1092
1098
1103
1112
1121
1130
1139
1144
1151
1154
1161
1166
1170
1173
1178
1176
1176
1177
1176
1180
1181
1181
1178
1172
1167
1164
1162
1160
1158
1155
1155
1150
1146
1140
1136
1130
1126
1123
1122
1115
1111
1105
1105
1101
1097
1093
1082
1072
1059
1046
1041
1037
1036
1038
1042
1041
1037
1031
1025
1017
1013
1012
1011
1015
1016
1015
1016
1016
1018
1018
1022
1027
1032
1034
1039
1047
1055
1062
1073
1079
1084
1086
1086
1085
1080
1080
1076
1073
1064
1054
1041
1027
1020
1013
1010
1011
1010
1009
1007
1006
1003
1006
1010
1010
1008
1010
1008
1006
1001
1000
1003
1003
1008
1009
1010
1010
1006
1004
1000
996
994
993
997
1006
1025
1059
1104
1162
1227
1301
1375
1440
1481
1495
1466
1407
1333
1254
1175
1094
1023
957
904
859
834
826
837
860
886
914
934
946
950
950
944
936
928
923
918
919
920
922
930
929
930
926
924
920
916
914
918
918
920
921
923
925
925
926
927
926
928
925
925
924
929
934
941
949
954
958
960
961
963
968
974
982
989
993
1002
1005
1011
1016
1021
1029
1035
1042
1050
1057
1062
1072
1081
1091
1098
1101
1101
1106
1107
1112
1119
1126
1130
1133
1135
1129
1131
1130
1129
1128
1126
1123
1118
1115
1113
1110
1108
1107
1102
1095
1090
1081
1072
1065
1062
1059
1057
1053
1048
1042
1034
1027
1019
1013
1009
1001
996
985
983
980
984
984
983
980
979
972
969
966
967
971
976
973
972
972
970
974
979
987
997
1004
1009
1012
1016
1018
1023
1028
1033
1035
1034
1029
1020
1008
1000
991
979
974
966
957
949
944
943
945
947
944
940
937
938
938
942
946
946
945
941
940
936
937
940
942
941
943
940
935
929
930
930
941
967
1008
1063
1134
1217
1306
1389
1452
1482
1470
1422
1354
1274
1187
1107
1037
980
916
863
822
801
804
825
855
880
893
895
889
881
871
870
868
868
865
865
860
860
859
859
859
858
857
857
854
850
849
847
849
848
848
846
844
845
844
849
851
853
853
851
851
854
859
864
869
872
879
883
890
892
900
903
910
918
925
930
937
947
955
965
974
986
994
995
999
1002
1010
1016
1027
1037
1048
1055
1061
1065
1067
1071
1077
1082
1086
1089
1090
1085
1089
1092
1093
1094
1092
1093
1090
1085
1080
1077
1076
1075
1075
1072
1069
1062
1055
1051
1046
1044
1043
1037
1032
1023
1016
1011
1007
1005
1006
1004
1000
997
990
987
987
986
986
991
990
990
989
985
989
993
999
1005
1011
1013
1017
1020
1023
1025
1026
1027
1031
1032
1032
1028
1022
1015
1007
995
988
977
966
956
948
942
941
943
948
951
954
953
949
949
945
948
948
949
950
949
945
944
947
948
950
952
951
950
944
938
931
932
940
967
1008
1065
1136
1217
1305
1390
1460
1493
1493
1458
1397
1327
1250
1174
1102
1031
963
900
859
837
843
863
891
913
927
928
921
909
896
889
886
885
884
884
884
884
880
880
880
879
878
878
876
874
869
866
863
864
866
869
870
868
864
860
861
861
865
870
872
874
873
874
877
883
887
892
896
900
906
911
920
927
937
945
950
957
961
965
974
982
989
996
1006
1017
1027
1036
1046
1055
1063
1068
1073
1075
1074
1078
1084
1090
1097
1101
1103
1101
1099
1096
1092
1096
1094
1094
1094
1088
1085
1082
1076
1075
1074
1071
1069
1065
1056
1053
1047
1044
1040
1036
1031
1023
1015
1008
1000
999
995
988
986
982
979
980
983
984
984
981
975
975
976
980
990
999
1004
1006
1009
1013
1014
1022
1025
1032
1033
1034
1033
1031
1027
1023
1015
1004
992
979
965
958
955
953
956
956
959
961
964
964
962
962
960
957
957
960
963
964
965
963
960
959
954
951
950
949
946
950
963
982
1016
1067
1136
1216
1304
1387
1450
1477
1460
1408
1336
1244
1150
1062
987
918
867
838
830
841
868
896
920
929
929
921
914
910
908
906
907
906
902
895
891
890
889
890
889
889
890
887
885
886
884
884
880
882
879
880
883
887
891
892
896
896
899
903
911
921
928
936
942
947
949
955
963
973
982
993
1006
1016
1029
1045
1055
1066
1075
1079
1086
1089
1099
1109
1116
1125
1132
1135
1141
1147
1153
1158
1163
1163
1159
1156
1154
1157
1154
1156
1160
1161
1158
1152
1146
1136
1132
1129
1128
1129
1125
1122
1116
1110
1105
1100
1095
1088
1083
1079
1073
1067
1063
1062
1056
1052
1044
1035
1027
1016
1014
1013
1013
1014
1014
1013
1011
1009
1007
1005
1006
1010
1006
1005
1006
1008
1012
1023
1034
1044
1051
1053
1054
1055
1058
1063
1072
1075
1079
1080
1075
1065
1055
1043
1032
1022
1012
1004
997
994
993
992
992
993
997
997
996
993
992
994
995
999
1002
1002
1003
1000
997
995
995
994
995
997
996
992
989
987
995
1009
1039
1078
1130
1185
1245
1309
1378
1438
1470
1461
1412
1332
1234
1131
1037
960
900
850
827
825
841
866
893
916
931
940
941
937
930
920
920
918
919
925
926
926
921
917
909
910
907
906
906
904
902
905
908
911
914
914
914
913
916
914
916
921
927
932
936
941
944
948
954
959
964
968
971
976
979
987
995
1006
1016
1024
1024
1027
1030
1038
1045
1058
1066
1074
1080
1080
1086
1090
1096
1101
1106
1109
1114
1119
1121
1122
1126
1125
1128
1129
1127
1123
1121
1117
1116
1115
1112
1109
1102
1099
1090
1087
1085
1077
1073
1065
1057
1052
1050
1046
1044
1043
1036
1034
1024
1015
1007
1000
997
994
993
989
986
983
979
976
975
974
972
972
971
973
974
974
977
977
977
977
975
977
976
984
994
1005
1011
1020
1023
1028
1032
1035
1039
1039
1040
1035
1031
1022
1012
1005
995
984
973
964
954
952
952
956
955
955
953
953
948
948
953
952
953
955
953
954
953
952
952
951
951
953
950
947
943
939
937
933
936
950
980
1027
1085
1153
1233
1311
1382
1432
1449
1428
1374
1302
1215
1133
1057
996
942
891
843
808
787
792
810
838
866
886
898
898
889
879
871
868
868
869
868
871
869
867
866
862
863
861
860
857
852
849
846
849
852
854
857
856
854
853
850
849
851
853
857
862
864
866
870
872
878
881
886
889
890
894
896
904
910
916
930
938
945
946
950
956
960
967
974
984
992
1000
1004
1007
1014
1022
1028
1035
1042
1047
1052
1055
1059
1066
1070
1076
1078
1079
1078
1074
1070
1068
1068
1068
1068
1067
1064
1059
1056
1051
1044
1046
1038
1033
1027
1021
1016
1013
1008
1002
999
995
990
981
974
968
964
963
963
962
963
960
956
953
948
952
951
951
951
950
954
959
969
976
986
992
995
997
997
997
999
1001
1006
1008
1007
1005
1000
988
977
962
951
939
931
924
920
919
921
924
925
927
925
921
918
916
918
919
922
925
924
923
920
919
917
919
921
921
922
922
918
913
917
929
952
990
1041
1100
1176
1256
1335
1401
1445
1455
1427
1364
1283
1190
1096
1008
932
870
821
794
792
812
838
868
890
899
897
886
875
864
857
858
858
861
861
856
853
851
849
851
852
851
847
845
842
842
842
840
844
841
840
839
838
837
841
843
849
854
856
858
862
865
870
873
877
884
888
895
903
911
922
935
944
954
961
968
977
988
1002
1021
1037
1050
1062
1068
1072
1073
1076
1078
1077
1077
1073
1074
1073
1074
1076
1075
1075
1076
1073
1070
1068
1067
1069
1073
1072
1069
1063
1053
1046
1038
1035
1032
1029
1026
1021
1015
1011
1006
1001
1000
995
990
985
975
970
966
960
956
954
955
951
947
944
937
933
929
926
921
912
909
908
921
938
969
1010
1072
1152
1244
1331
1405
1448
1454
1422
1365
1293
1217
1143
1082
1027
974
925
886
858
856
868
884
893
896
894
885
876
869
865
860
860
861
862
864
865
863
860
854
850
845
840
838
835
835
835
836
836
835
836
838
841
843
845
844
845
845
848
854
859
869
873
880
885
892
900
911
924
934
942
952
960
969
980
990
1000
1008
1016
1022
1031
1036
1045
1059
1068
1075
1079
1080
1080
