972
967
965
963
964
963
963
956
948
943
939
939
938
936
934
933
928
928
928
930
935
940
944
948
954
961
968
976
985
988
991
991
990
991
990
992
991
984
974
962
947
938
932
927
923
921
921
922
922
920
923
926
927
926
924
923
921
920
923
926
929
930
931
930
929
928
927
925
922
920
917
924
940
972
1018
1075
1140
1212
1289
1362
1418
1436
1406
1339
1244
1137
1034
944
872
823
792
784
790
806
827
849
866
879
884
886
883
880
876
870
864
861
862
863
864
865
864
864
864
863
863
860
858
854
851
851
853
854
854
860
863
864
864
863
867
869
870
877
884
891
896
901
903
904
907
911
919
925
934
938
945
953
962
969
977
985
993
995
999
1005
1010
1022
1031
1041
1049
1053
1059
1060
1064
1069
1074
1081
1083
1086
1085
1084
1084
1081
1082
1079
1079
1074
1069
1067
1062
1060
1056
1056
1054
1050
1045
1036
1030
1026
1022
1018
1014
1006
999
994
989
985
981
980
975
970
962
956
951
944
944
942
942
941
939
935
933
933
932
934
934
933
931
930
932
933
936
944
948
957
961
964
970
977
985
991
997
999
1000
1003
1001
996
994
988
980
970
960
952
941
936
932
932
930
927
927
926
920
922
920
924
928
933
934
933
931
929
927
927
927
930
932
933
932
930
928
922
920
921
928
952
985
1032
1091
1156
1232
1312
1385
1437
1457
1435
1377
1299
1211
1123
1037
962
899
846
803
776
772
781
802
827
846
859
863
863
861
860
856
851
846
842
841
840
841
842
843
844
841
839
835
832
831
830
828
829
823
825
824
826
833
836
840
843
840
840
839
841
843
849
853
856
861
866
868
871
877
880
889
892
899
907
912
920
929
937
941
950
956
958
960
964
970
977
987
995
1002
1008
1013
1016
1023
1028
1032
1037
1037
1038
1037
1036
1037
1040
1040
1038
1038
1032
1026
1022
1020
1017
1016
1013
1007
1002
997
986
980
974
971
967
957
953
946
942
939
937
934
932
927
922
919
915
914
914
920
917
917
918
917
917
920
923
927
934
941
946
951
955
961
969
974
978
978
976
976
971
966
964
954
943
931
920
912
905
899
897
896
898
893
892
893
893
895
899
899
901
898
896
895
896
896
897
898
897
895
894
892
891
893
905
922
954
1002
1068
1145
1234
1317
1389
1430
1421
1373
1294
1195
1091
991
907
840
792
763
761
777
801
826
848
859
856
851
844
840
837
834
834
837
833
829
827
827
821
823
820
818
817
819
819
819
822
820
818
813
811
811
813
816
820
821
824
826
827
829
833
836
838
842
843
851
855
864
874
885
891
897
903
908
914
922
934
942
953
960
966
972
981
987
994
1003
1012
1016
1023
1027
1032
1039
1048
1051
1057
1054
1053
1052
1050
1049
1050
1047
1047
1043
1040
1035
1032
1028
1026
1022
1017
1011
1005
1000
996
994
992
989
984
976
967
959
955
953
949
948
946
941
938
932
930
926
924
924
921
918
918
916
919
920
923
928
929
931
932
936
938
944
955
960
965
970
971
974
974
978
978
977
974
964
956
944
934
925
919
912
907
906
901
900
899
900
902
903
907
909
909
907
907
905
906
907
908
911
912
912
914
917
920
920
921
918
916
918
931
959
1003
1059
1129
1205
1287
1362
1423
1457
1453
1411
1334
1240
1136
1037
953
886
842
812
801
803
818
841
862
878
887
889
887
885
879
876
873
872
869
869
869
864
863
860
859
859
862
861
862
861
857
856
856
856
858
862
865
867
870
872
875
879
883
886
890
894
898
902
908
914
923
928
932
937
940
947
951
959
967
979
989
998
1005
1012
1017
1026
1033
1041
1047
1059
1068
1081
1093
1102
1109
1114
1119
1122
1122
1123
1121
1119
1118
1114
1108
1104
1095
1085
1075
1064
1054
1043
1035
1027
1019
1017
1015
1013
1011
1009
1006
1004
998
992
988
980
974
969
965
960
953
952
948
942
938
933
930
925
919
919
919
921
924
924
925
926
926
927
928
932
932
929
931
937
960
992
1035
1097
1172
1263
1354
1436
1493
1517
1498
1446
1369
1285
1193
1101
1019
949
887
846
820
819
833
854
876
893
897
894
886
875
868
862
859
861
863
866
865
864
858
852
848
843
842
842
841
839
842
838
839
839
837
835
836
836
835
834
835
836
839
846
852
857
862
865
864
867
866
870
876
885
894
902
906
917
923
929
937
946
954
960
967
974
981
990
1002
1011
1021
1026
1026
1028
1030
1033
1035
1039
1042
1042
1043
1042
1038
1035
1030
1028
1024
1021
1014
1010
1004
999
1001
999
995
991
982
975
971
966
962
959
961
959
958
954
948
941
935
931
928
924
920
921
917
913
912
911
913
914
911
910
909
908
908
909
911
913
916
920
921
920
918
918
917
918
920
922
922
918
922
923
925
929
928
930
926
923
920
918
919
921
923
927
927
926
923
922
921
920
923
925
928
927
928
929
931
930
930
931
926
925
923
925
931
939
945
955
962
964
965
964
962
961
962
959
962
964
962
961
955
948
937
927
919
909
906
904
904
905
910
913
914
914
912
906
904
905
906
908
910
911
912
910
909
911
913
911
908
904
898
896
897
908
937
982
1039
1102
1175
1255
1335
1408
1450
1453
1415
1348
1266
1168
1074
985
906
839
791
762
762
783
810
836
858
866
864
858
845
837
834
832
833
834
834
834
832
831
829
827
826
824
819
818
817
818
820
823
824
826
827
824
821
823
823
828
830
834
837
839
842
847
852
858
857
861
862
862
864
868
874
884
893
896
903
905
910
917
926
933
941
945
951
957
966
972
980
985
988
992
993
996
1002
1013
1020
1027
1033
1038
1039
1042
1044
1048
1049
1049
1047
1044
1043
1040
1040
1041
1036
1030
1023
1014
1006
997
991
988
981
978
973
966
961
957
951
949
942
940
936
934
935
936
941
941
944
946
941
936
937
938
940
946
951
954
960
967
974
982
984
986
986
986
986
988
990
991
991
986
975
963
947
935
926
918
912
909
906
902
905
903
903
903
905
906
905
902
901
900
903
905
909
911
910
911
909
904
904
902
900
899
895
896
901
917
949
994
1051
1119
1196
1275
1355
1414
1443
1431
1383
1309
1216
1117
1026
945
882
829
791
770
770
786
808
833
850
865
866
861
855
849
840
837
838
836
841
843
841
839
834
827
824
822
819
820
825
825
826
823
820
817
812
814
816
817
816
818
818
818
821
826
831
836
842
841
843
845
848
852
859
865
876
880
886
891
895
903
910
916
926
934
943
950
960
970
980
991
998
1005
1009
1013
1017
1019
1026
1034
1040
1047
1051
1051
1050
1050
1054
1054
1054
1056
1059
1057
1057
1055
1051
1050
1044
1042
1039
1034
1029
1025
1021
1020
1018
1016
1012
1006
999
993
985
978
974
974
971
968
962
958
954
950
947
943
940
941
937
934
935
937
936
940
938
939
937
934
934
937
944
952
958
968
978
985
988
992
992
996
997
999
998
994
990
982
974
964
954
950
944
936
932
926
923
923
926
929
931
932
931
928
924
925
927
929
931
933
929
928
928
930
932
934
935
933
932
930
929
941
964
1003
1056
1117
1191
1269
1348
1413
1448
1444
1395
1324
1247
1170
1090
1016
947
892
845
811
796
797
815
841
866
886
898
898
891
880
875
872
872
871
872
870
871
868
868
867
865
865
858
861
858
858
857
858
860
865
866
870
873
875
873
873
875
878
881
886
890
893
899
905
910
916
923
926
931
932
938
943
949
958
969
978
981
984
990
995
1000
1009
1017
1024
1033
1037
1044
1049
1058
1065
1071
1076
1075
1076
1075
1078
1080
1081
1084
1086
1087
1082
1079
1073
1068
1065
1061
1057
1053
1051
1045
1040
1038
1033
1030
1027
1021
1015
1005
999
993
992
990
985
981
977
967
962
955
950
948
945
942
941
937
934
930
930
931
932
930
927
925
925
926
925
927
934
936
938
940
941
943
945
950
958
967
973
979
983
983
988
990
992
994
994
991
985
978
967
955
948
941
937
930
924
919
912
910
914
917
920
921
921
921
919
914
913
915
918
917
917
917
915
918
919
922
923
920
919
913
907
906
917
943
986
1043
1111
1190
1276
1354
1420
1455
1453
1411
1344
1262
1178
1086
1000
921
850
797
765
756
766
787
816
839
855
862
862
857
847
840
834
834
833
828
834
832
832
829
827
825
824
823
821
821
819
814
814
814
814
819
821
822
822
819
818
816
817
818
822
828
831
835
838
840
843
847
852
855
861
864
867
872
877
883
890
899
908
915
918
925
928
935
941
951
962
963
968
973
977
983
987
991
997
1003
1007
1013
1015
1017
1020
1027
1029
1031
1030
1028
1026
1024
1020
1019
1020
1020
1022
1017
1015
1008
1002
995
990
984
980
974
967
964
960
955
953
945
941
936
930
924
923
921
920
923
922
920
920
914
909
910
908
911
917
921
928
931
938
941
945
953
960
963
964
964
966
969
971
973
973
969
962
946
933
918
908
900
897
896
889
892
893
894
894
895
892
893
891
888
888
888
891
891
894
898
898
897
895
892
887
886
889
889
891
889
890
898
919
956
1010
1075
1157
1247
1340
1410
1444
1432
1378
1295
1195
1094
999
919
855
805
774
765
773
795
819
840
853
856
852
844
836
830
824
825
825
829
830
829
827
823
820
814
811
812
812
815
815
813
814
813
815
813
817
818
816
817
817
820
823
828
831
835
839
841
842
847
852
858
865
873
880
890
897
905
913
925
930
935
944
952
961
975
986
995
1003
1010
1016
1020
1024
1030
1034
1039
1042
1048
1054
1057
1060
1061
1062
1063
1059
1056
1050
1046
1043
1042
1042
1041
1041
1037
1034
1026
1018
1011
1008
1003
1000
995
992
987
982
978
973
968
964
956
952
943
938
937
937
937
936
934
929
922
919
918
915
917
914
917
918
918
924
931
938
945
948
952
954
957
964
973
983
993
996
998
995
986
975
963
949
938
930
922
916
914
913
913
913
916
917
917
913
907
908
909
915
918
921
924
924
923
920
920
919
920
922
922
922
919
916
915
922
940
968
1006
1052
1098
1155
1227
1306
1377
1425
1423
1372
1287
1182
1076
981
905
853
811
787
778
784
801
824
847
869
880
883
876
869
864
858
858
862
863
863
860
858
856
854
852
853
853
850
853
853
852
853
856
853
856
857
858
859
861
866
872
877
882
886
886
888
887
890
896
903
910
917
922
928
933
939
944
952
958
965
969
975
985
993
1004
1012
1020
1025
1025
1029
1037
1043
1050
1056
1063
1067
1072
1074
1079
1082
1084
1084
1083
1081
1077
1073
1072
1072
1072
1071
1069
1064
1057
1050
1043
1038
1033
1030
1027
1022
1019
1014
1011
1006
1001
995
991
983
975
970
968
964
963
962
957
952
943
939
937
935
934
935
936
935
934
934
935
935
934
935
936
935
937
942
947
955
965
975
983
988
991
994
995
1000
999
999
996
992
986
975
967
959
946
941
932
925
920
920
922
926
929
930
930
928
927
925
926
928
929
928
925
925
926
926
929
928
927
923
917
913
918
935
966
1015
1073
1143
1228
1309
1385
1436
1446
1410
1339
1246
1140
1044
964
900
854
816
790
776
780
792
816
841
863
872
874
868
861
851
848
846
847
848
846
845
843
839
838
837
835
836
836
833
830
829
828
830
833
833
836
837
838
838
838
840
844
847
848
850
855
858
861
868
875
881
886
886
891
892
896
905
915
923
929
936
941
949
955
962
970
974
980
983
990
997
1001
1011
1018
1027
1031
1034
1034
1035
1039
1044
1050
1053
1053
1052
1050
1047
1043
1043
1044
1040
1035
1030
1026
1019
1016
1015
1013
1008
1002
992
985
976
970
967
965
963
961
958
950
945
942
939
936
935
933
931
930
930
929
933
933
937
937
938
936
939
943
948
958
965
971
974
980
982
987
989
989
994
990
986
975
969
959
952
943
933
926
917
908
905
903
905
905
909
911
911
907
908
904
903
904
902
904
907
903
903
905
907
910
912
910
906
900
897
897
907
926
960
1005
1066
1137
1218
1309
1384
1434
1444
1411
1347
1263
1169
1075
996
926
866
819
790
778
784
804
829
853
871
877
877
870
860
853
850
848
848
849
851
848
846
846
844
840
842
841
840
837
835
828
829
833
835
838
842
843
841
841
842
841
844
847
847
852
854
858
865
871
879
885
891
894
899
901
908
916
922
933
941
952
958
966
973
982
991
999
1007
1012
1021
1028
1036
1041
1050
1058
1062
1066
1068
1070
1072
1078
1085
1091
1097
1099
1100
1097
1096
1095
1101
1100
1102
1098
1093
1084
1077
1069
1065
1060
1053
1042
1034
1022
1010
999
992
988
986
984
978
974
965
958
953
948
949
948
946
943
935
932
928
926
927
928
929
925
922
918
917
917
921
920
923
927
926
922
923
921
922
926
927
929
928
923
918
918
930
954
989
1039
1103
1181
1270
1358
1434
1484
1495
1468
1412
1339
1259
1176
1095
1021
953
892
852
833
834
851
874
892
902
902
892
886
880
877
879
880
881
880
880
875
873
868
868
869
873
874
876
876
873
873
870
867
867
867
870
871
871
874
877
879
885
887
891
892
893
894
896
904
913
921
931
939
947
953
959
965
972
981
989
999
1008
1016
1022
1029
1037
1044
1048
1056
1061
1064
1067
1069
1077
1084
1091
1095
1098
1098
1092
1090
1087
1083
1079
1084
1085
1083
1077
1077
1073
1067
1062
1058
1056
1049
1045
1043
1040
1037
1034
1034
1027
1022
1015
1007
1003
996
992
989
987
985
981
975
970
963
958
953
950
949
946
944
940
938
936
937
940
939
940
939
941
938
938
940
941
944
949
950
951
951
947
943
944
944
945
950
946
950
951
953
953
956
958
958
959
958
953
952
948
950
954
957
963
965
966
963
959
955
955
957
962
968
972
974
979
980
985
989
996
999
1003
1006
1006
1006
1007
1009
1009
1007
1001
994
983
971
960
954
951
951
951
951
953
954
954
952
952
953
954
955
953
952
951
950
954
956
957
959
955
953
952
950
946
943
939
936
935
942
960
989
1031
1089
1160
1245
1331
1413
1471
1497
1475
1421
1344
1259
1171
1086
1010
948
893
843
809
793
797
815
838
860
877
888
894
892
888
884
883
878
877
875
874
873
875
872
872
871
869
868
869
871
872
872
874
873
870
870
869
870
876
880
886
886
888
887
888
891
894
896
901
904
910
911
913
913
914
920
925
931
932
934
936
937
940
947
952
961
970
974
977
980
981
985
990
999
1007
1011
1018
1024
1030
1035
1043
1048
1053
1057
1061
1064
1063
1066
1072
1078
1082
1088
1089
1086
1085
1082
1079
1079
1079
1078
1075
1073
1069
1060
1052
1049
1042
1036
1027
1021
1011
1008
1006
1000
997
991
985
978
972
971
969
969
969
967
968
967
966
967
966
971
971
969
967
964
962
968
971
979
989
992
998
1000
1003
1006
1010
1015
1019
1021
1020
1019
1013
1012
1006
998
985
970
956
945
938
935
934
939
938
937
933
931
927
926
927
929
930
931
933
930
929
929
931
931
929
928
926
922
920
918
917
922
934
958
995
1044
1104
1179
1262
1346
1419
1460
1461
1417
1342
1248
1151
1061
984
921
867
821
790
778
787
809
838
860
874
880
875
869
862
860
863
862
861
862
859
855
853
850
848
846
847
847
844
843
845
846
851
851
848
845
843
841
840
846
850
854
857
860
862
866
871
877
882
884
886
893
896
902
910
919
925
931
935
941
945
951
961
971
978
985
991
996
1002
1009
1017
1024
1030
1032
1037
1043
1047
1054
1061
1068
1071
1071
1069
1068
1063
1061
1064
1064
1067
1066
1061
1057
1053
1044
1043
1038
1033
1027
1020
1015
1010
1005
1007
1005
1000
996
989
983
974
968
966
960
959
959
956
954
950
949
948
947
946
947
946
944
942
944
948
953
957
965
969
971
975
978
982
989
995
1002
1006
1008
1010
1007
1004
1000
993
984
972
960
952
943
938
935
932
930
932
930
931
929
927
927
930
932
933
933
931
933
932
931
932
934
935
937
936
937
935
933
935
932
933
935
947
969
1014
1069
1140
1227
1317
1397
1461
1495
1490
1450
1382
1297
1199
1106
1018
942
879
839
823
834
855
881
900
911
909
902
894
888
887
883
883
881
878
879
876
873
871
873
871
872
867
868
865
864
862
862
862
860
859
856
855
859
863
868
872
873
874
873
872
874
875
882
889
895
897
906
910
916
922
929
934
941
947
950
957
964
972
985
997
1004
1011
1019
1026
1033
1041
1050
1061
1070
1077
1083
1088
1091
1097
1101
1106
1107
1106
1108
1111
1110
1111
1113
1113
1112
1109
1103
1097
1091
1087
1085
1084
1079
1080
1074
1070
1066
1058
1054
1048
1042
1034
1029
1024
1020
1017
1014
1012
1009
1002
995
988
983
980
980
980
980
976
979
977
975
972
973
973
976
979
984
991
998
1006
1015
1023
1026
1029
1030
1033
1030
1029
1025
1022
1015
1007
995
984
972
966
961
956
953
951
950
951
954
958
958
960
958
956
955
953
952
951
956
958
959
962
960
961
961
959
956
952
952
956
973
1005
1053
1117
1191
1277
1362
1428
1464
1456
1406
1329
1231
1135
1052
982
927
883
854
844
849
867
888
903
913
914
914
908
905
901
899
895
895
894
890
888
888
886
882
881
883
883
881
882
880
878
872
871
872
876
879
884
887
888
889
893
897
900
904
906
910
916
923
930
940
949
958
963
969
976
981
990
997
1011
1023
1033
1043
1049
1057
1062
1069
1077
1084
1090
1095
1103
1107
1117
1124
1132
1135
1138
1135
1131
1128
1124
1125
1126
1127
1128
1125
1122
1115
1110
1105
1102
1097
1093
1086
1081
1074
1070
1063
1063
1059
1053
1046
1041
1035
1026
1022
1016
1010
1006
1004
998
993
990
984
981
979
976
967
967
965
965
970
972
973
971
970
968
968
972
981
988
998
1005
1011
1013
1016
1020
1023
1029
1031
1032
1032
1028
1023
1014
1006
996
988
978
969
963
957
952
954
956
960
962
963
963
963
960
959
958
958
