1096
1097
1098
1098
1096
1093
1090
1088
1088
1089
1089
1089
1081
1075
1069
1061
1057
1051
1048
1046
1043
1041
1032
1027
1020
1016
1010
1006
1002
996
991
988
988
988
986
985
986
983
980
975
972
973
973
978
980
985
988
994
998
1004
1010
1015
1020
1024
1032
1035
1041
1047
1048
1049
1046
1038
1028
1014
1002
993
984
981
977
975
972
969
966
961
960
960
960
960
959
958
958
959
960
961
962
964
963
960
959
958
958
958
959
958
955
952
955
965
992
1027
1076
1130
1190
1257
1324
1394
1447
1473
1463
1419
1353
1272
1183
1095
1017
950
895
857
837
835
851
870
891
906
913
917
911
905
900
897
894
892
891
893
891
888
886
883
881
877
878
881
879
880
877
876
873
875
873
874
876
876
878
881
880
885
888
889
893
896
899
900
903
906
907
914
919
928
933
941
944
950
956
963
973
984
993
1003
1010
1018
1028
1033
1040
1049
1052
1058
1065
1069
1077
1083
1096
1102
1108
1110
1111
1110
1112
1113
1117
1119
1120
1118
1113
1111
1107
1107
1104
1103
1099
1093
1087
1085
1078
1075
1072
1071
1066
1058
1054
1047
1039
1034
1032
1028
1025
1023
1018
1013
1009
1003
1000
997
993
993
989
989
990
990
989
989
989
989
990
990
997
1006
1014
1021
1026
1030
1033
1034
1035
1038
1042
1042
1039
1034
1033
1025
1016
1007
998
991
981
975
970
964
961
961
963
968
970
971
973
971
970
969
972
969
966
966
966
967
967
969
973
974
973
969
965
961
963
974
1001
1041
1094
1156
1232
1311
1387
1452
1491
1496
1466
1409
1338
1260
1176
1100
1027
965
912
875
857
858
873
897
921
936
939
936
931
922
912
907
905
907
906
905
906
906
905
905
907
907
901
899
896
893
894
893
897
902
905
906
910
914
916
921
922
926
929
929
934
939
945
956
965
973
978
983
986
990
998
1007
1017
1029
1033
1039
1046
1055
1061
1066
1074
1081
1084
1092
1101
1111
1119
1129
1133
1135
1136
1134
1133
1135
1137
1135
1137
1137
1136
1135
1132
1128
1125
1119
1118
1115
1108
1106
1103
1098
1094
1090
1087
1086
1078
1072
1066
1061
1055
1050
1048
1046
1037
1032
1025
1020
1014
1010
1006
1000
995
990
984
983
982
982
983
985
985
979
976
972
972
977
979
989
1001
1006
1015
1022
1029
1035
1040
1043
1047
1046
1044
1045
1044
1043
1041
1034
1025
1011
1000
988
981
976
979
977
979
979
976
976
975
975
974
977
977
973
974
976
978
980
979
981
981
981
979
978
973
969
966
971
986
1012
1052
1105
1168
1236
1310
1380
1437
1470
1471
1435
1372
1291
1202
1112
1029
960
901
857
827
819
826
848
871
894
912
921
922
922
919
916
910
906
903
903
902
902
902
904
903
902
902
900
899
899
901
903
904
904
904
906
905
906
911
916
918
920
921
923
925
927
932
936
939
943
945
949
950
954
964
972
978
987
993
998
1002
1007
1012
1017
1025
1031
1036
1042
1049
1058
1066
1075
1082
1086
1089
1093
1095
1096
1103
1108
1116
1124
1128
1129
1129
1126
1125
1124
1123
1123
1124
1120
1114
1112
1109
1102
1100
1097
1094
1090
1085
1080
1075
1070
1065
1062
1059
1056
1053
1042
1031
1024
1021
1016
1016
1013
1012
1008
1004
999
996
992
989
989
984
981
980
979
979
984
986
990
988
983
980
981
983
990
999
1006
1014
1020
1025
1030
1033
1037
1041
1041
1041
1039
1039
1038
1034
1029
1023
1014
1005
994
983
970
964
958
956
960
962
963
963
961
958
956
956
956
955
954
952
952
952
955
955
955
953
953
952
947
942
940
937
942
954
978
1016
1069
1132
1206
1287
1362
1422
1454
1450
1417
1362
1297
1223
1148
1072
997
925
865
823
804
810
833
867
890
905
908
903
893
882
876
874
872
874
875
874
872
872
868
873
870
869
863
860
859
856
853
854
856
860
861
862
862
860
856
856
859
864
866
870
873
875
876
877
877
881
886
890
894
901
906
913
921
929
940
946
952
955
960
967
975
985
991
999
1007
1013
1018
1026
1031
1040
1047
1056
1062
1069
1074
1076
1083
1087
1094
1096
1098
1097
1095
1091
1090
1088
1093
1094
1093
1093
1088
1083
1077
1073
1068
1063
1058
1054
1048
1041
1037
1034
1032
1028
1022
1016
1009
1005
999
997
996
991
991
988
984
983
981
979
979
979
977
978
975
976
976
980
985
992
999
1006
1009
1013
1015
1017
1021
1026
1031
1034
1036
1034
1028
1023
1011
1002
991
982
975
967
961
958
954
956
955
955
955
954
954
954
953
954
957
954
956
958
959
957
955
953
952
955
957
959
960
959
952
949
946
953
966
991
1022
1067
1120
1177
1245
1316
1380
1426
1440
1419
1369
1296
1209
1125
1045
977
923
876
848
841
852
874
898
917
924
925
917
904
896
892
891
894
895
896
890
887
882
882
882
882
885
885
882
879
876
875
871
871
870
871
877
878
880
882
879
885
889
891
894
896
897
898
907
915
923
931
936
939
939
942
946
955
965
977
986
995
1003
1012
1022
1030
1038
1045
1048
1052
1057
1067
1076
1085
1092
1099
1102
1106
1108
1108
1110
1115
1114
1119
1119
1120
1120
1118
1115
1115
1110
1107
1105
1102
1097
1094
1089
1087
1086
1087
1084
1078
1070
1062
1054
1047
1041
1038
1032
1030
1025
1023
1021
1017
1012
1009
1004
1000
994
993
989
988
992
993
996
993
988
984
982
980
986
993
1001
1010
1017
1023
1030
1037
1038
1043
1050
1052
1051
1050
1049
1047
1048
1039
1032
1022
1007
997
987
985
982
982
981
980
979
978
978
980
983
984
985
983
981
976
977
975
980
984
986
985
983
979
975
974
975
980
997
1022
1052
1094
1144
1204
1275
1344
1404
1436
1424
1375
1299
1210
1120
1036
969
917
878
852
838
838
851
874
898
917
929
930
927
923
917
915
915
914
912
908
907
903
902
904
907
908
905
903
899
897
896
901
904
909
910
908
910
910
905
904
907
912
917
921
925
928
933
941
944
947
951
952
955
962
965
976
982
991
998
1007
1013
1017
1025
1031
1037
1043
1050
1056
1061
1066
1072
1079
1084
1093
1101
1104
1108
1108
1108
1108
1108
1115
1114
1115
1114
1110
1104
1098
1095
1093
1087
1085
1082
1078
1073
1068
1065
1060
1058
1057
1054
1050
1046
1045
1041
1042
1040
1037
1033
1026
1016
1009
1001
998
997
995
994
992
992
993
991
992
990
987
983
978
976
976
978
980
985
992
993
993
993
986
989
983
985
989
1001
1022
1054
1098
1155
1229
1310
1390
1454
1491
1498
1473
1426
1372
1318
1257
1193
1124
1055
991
932
894
880
885
910
937
955
962
958
948
935
928
925
926
927
925
926
923
919
913
912
909
907
904
903
901
898
894
894
896
895
892
891
886
888
888
887
890
893
893
895
899
900
904
909
917
918
923
928
929
933
938
945
956
964
971
977
979
983
987
996
1005
1015
1025
1033
1042
1048
1056
1062
1063
1068
1075
1077
1076
1077
1078
1080
1082
1083
1084
1083
1080
1075
1069
1063
1057
1054
1050
1050
1044
1039
1036
1035
1029
1028
1025
1021
1015
1010
1006
1000
998
995
994
985
980
975
969
964
959
958
955
953
951
950
948
949
950
949
949
946
945
945
945
948
950
955
957
956
958
956
955
956
955
955
954
952
953
955
956
959
962
962
958
955
953
954
955
955
957
959
962
957
958
960
960
962
961
958
959
958
960
964
967
966
965
966
965
970
973
978
982
988
990
990
989
988
989
989
991
989
993
987
979
975
967
965
963
958
957
955
952
949
949
953
955
957
960
958
958
954
954
953
956
954
958
956
955
953
957
956
956
954
951
945
941
948
973
1014
1071
1141
1222
1302
1381
1434
1452
1426
1369
1287
1197
1102
1021
949
890
846
818
808
816
840
866
886
900
903
902
895
887
881
880
879
879
881
879
879
877
874
872
873
873
875
875
875
870
869
867
869
869
874
875
877
877
877
878
881
886
890
894
896
895
894
896
896
901
909
917
924
930
932
933
935
940
945
951
959
967
970
975
979
984
991
999
1007
1012
1017
1024
1029
1031
1038
1045
1055
1059
1063
1066
1067
1071
1075
1082
1088
1091
1094
1099
1100
1102
1104
1106
1103
1100
1096
1092
1086
1083
1082
1083
1083
1079
1076
1068
1061
1052
1044
1040
1037
1032
1030
1023
1016
1011
1005
1002
1002
1000
998
995
992
992
993
994
995
996
997
996
994
991
989
988
992
999
1002
1012
1018
1020
1022
1025
1026
1030
1035
1039
1042
1042
1045
1043
1041
1037
1031
1017
1004
990
976
968
962
960
960
963
963
960
958
957
956
954
952
951
951
950
953
953
957
957
959
960
960
956
952
950
949
947
949
959
977
1006
1054
1108
1173
1244
1314
1377
1424
1443
1428
1379
1305
1217
1121
1031
955
891
842
817
811
828
854
884
907
919
921
916
910
904
900
896
895
896
896
896
897
899
898
896
895
891
890
887
889
887
888
892
890
891
889
889
892
894
897
900
905
908
909
913
913
922
926
931
937
939
940
943
951
961
970
983
992
998
1004
1008
1015
1020
1029
1039
1047
1055
1062
1069
1077
1082
1086
1092
1099
1103
1110
1117
1122
1123
1123
1120
1116
1115
1117
1114
1114
1112
1105
1100
1098
1093
1088
1086
1080
1076
1069
1060
1054
1051
1045
1041
1039
1036
1029
1023
1016
1011
1005
1000
997
991
984
978
973
973
974
976
975
976
974
971
965
961
960
960
963
968
968
973
978
985
993
1001
1008
1012
1016
1018
1021
1031
1037
1043
1048
1047
1042
1035
1025
1014
1004
994
989
983
975
968
966
963
960
958
960
961
963
963
963
965
963
965
966
967
966
963
963
962
962
963
961
965
963
960
954
961
976
1003
1048
1098
1154
1210
1272
1336
1392
1431
1439
1406
1342
1258
1164
1071
990
920
866
829
807
805
815
837
861
876
892
903
908
907
905
899
894
893
894
894
893
892
891
889
888
889
889
891
888
890
889
890
889
884
883
884
885
887
890
892
896
901
903
909
912
917
920
921
923
926
929
934
938
946
952
958
960
964
971
978
984
993
1002
1007
1014
1015
1021
1027
1033
1040
1048
1053
1058
1062
1068
1074
1083
1092
1097
1103
1103
1103
1102
1103
1104
1107
1111
1111
1111
1108
1102
1100
1098
1094
1093
1091
1085
1075
1069
1066
1062
1057
1054
1046
1045
1042
1036
1030
1024
1018
1016
1012
1006
1003
996
994
990
989
986
981
975
971
967
964
966
969
973
976
978
975
973
969
966
967
973
983
991
1000
1004
1008
1013
1017
1022
1025
1029
1031
1032
1031
1030
1027
1023
1015
1002
986
976
966
960
955
953
956
958
959
959
957
951
951
950
946
951
948
948
950
951
953
957
956
959
954
950
945
939
934
935
940
952
980
1023
1072
1126
1186
1251
1316
1374
1411
1413
1382
1321
1238
1147
1056
972
896
837
797
782
787
809
837
865
883
890
891
885
875
870
867
865
866
865
864
862
863
866
863
861
859
856
851
850
851
850
851
850
851
852
851
854
857
860
864
864
862
863
864
868
875
885
886
891
897
898
900
907
912
920
931
938
948
956
964
973
977
985
989
994
998
1006
1020
1026
1039
1049
1054
1057
1056
1058
1059
1063
1065
1072
1073
1075
1075
1073
1077
1079
1074
1071
1068
1062
1056
1050
1048
1044
1043
1041
1038
1029
1020
1016
1011
1006
1001
1000
993
989
983
978
974
971
966
963
960
956
953
950
949
948
948
950
951
948
947
942
942
945
951
958
966
970
978
982
987
992
997
1000
1003
1008
1009
1008
1007
1006
1002
997
990
977
966
953
940
932
930
931
934
935
935
934
932
930
928
930
929
930
927
927
925
926
927
929
931
932
930
929
924
919
919
916
922
932
951
981
1022
1070
1127
1194
1270
1343
1400
1425
1413
1368
1299
1217
1130
1043
966
898
843
804
789
795
813
838
864
880
887
888
882
873
868
862
861
861
862
861
859
859
859
859
857
858
854
851
849
846
848
847
851
851
851
848
845
845
846
846
849
854
855
858
859
861
866
867
870
873
876
879
882
885
891
898
910
921
930
937
943
946
951
959
969
980
994
1005
1016
1027
1040
1052
1060
1075
1084
1092
1097
1102
1106
1110
1118
1122
1126
1124
1120
1112
1104
1099
1092
1089
1083
1077
1077
1076
1074
1069
1068
1069
1064
1062
1055
1051
1047
1043
1041
1037
1034
1029
1021
1012
1002
995
988
985
985
982
976
972
971
968
970
967
969
966
967
964
963
963
963
961
964
967
972
986
1009
1042
1086
1150
1226
1307
1382
1445
1481
1491
1470
1421
1353
1276
1187
1104
1026
961
908
881
874
893
910
923
930
927
923
916
911
907
902
898
895
892
890
892
890
886
881
875
871
873
875
875
876
875
872
869
866
866
864
867
869
871
871
872
874
880
879
882
886
884
886
891
899
909
918
927
934
942
948
953
959
968
976
988
999
1012
1016
1026
1032
1039
1042
1051
1057
1062
1065
1066
1066
1069
1072
1075
1078
1077
1075
1071
1066
1062
1057
1055
1052
1050
1046
1043
1040
1035
1031
1028
1023
1018
1010
1003
999
996
996
995
993
988
980
970
958
956
949
949
948
948
947
942
942
938
941
941
942
942
940
940
936
934
935
943
951
955
955
954
950
948
948
949
954
957
962
960
960
961
959
962
963
966
968
966
969
965
964
962
961
963
966
967
965
961
957
956
958
962
966
966
969
968
966
965
964
966
968
970
970
971
970
969
970
972
975
977
981
981
984
985
989
992
996
1003
1002
1001
999
998
993
994
991
986
979
972
965
958
956
954
953
954
955
956
954
953
954
954
957
958
961
961
959
958
956
952
952
953
957
959
959
961
960
957
949
944
939
941
952
978
1018
1067
1120
1179
1243
1310
1373
1418
1434
1412
1359
1286
1204
1118
1035
959
887
830
795
787
800
825
850
872
886
890
885
880
876
872
868
864
865
863
858
854
855
854
854
857
856
853
851
848
847
845
843
846
845
846
847
849
849
853
857
858
860
858
860
859
863
867
872
877
880
881
879
884
885
890
895
901
907
910
917
920
924
930
934
937
942
944
951
956
959
966
975
980
985
990
993
994
997
1002
1008
1017
1023
1031
1035
1039
1045
1052
1055
1055
1057
1056
1054
1051
1050
1047
1050
1053
1051
1045
1039
1031
1024
1019
1013
1010
1004
998
992
986
982
980
978
978
972
967
961
957
956
958
961
965
966
967
965
963
959
956
956
956
962
965
966
968
971
976
982
989
995
998
999
1000
1004
1005
1010
1011
1011
1008
1000
990
975
961
944
934
925
918
915
915
917
918
915
914
911
909
906
907
910
911
917
915
916
916
915
914
915
915
914
911
907
902
900
899
916
946
990
1046
1109
1180
1258
1334
1389
1409
1387
1328
1245
1147
1052
967
894
835
790
767
766
782
809
837
860
869
872
862
850
838
831
827
827
830
833
837
833
829
823
818
818
818
818
818
816
812
811
812
810
811
811
811
807
808
805
807
810
813
818
821
824
826
825
828
832
837
841
846
853
857
864
875
882
889
896
897
902
902
910
916
927
941
954
965
971
977
981
986
992
999
1006
1010
1016
1018
1022
1027
1031
1035
1037
1036
1036
1032
1029
1027
1027
1027
1024
1025
1018
1015
1007
1003
1005
1001
997
990
986
982
978
974
972
968
960
954
946
943
937
935
936
937
934
930
931
932
928
929
924
924
920
922
922
920
922
930
937
946
949
954
957
956
957
959
963
971
977
981
980
977
970
962
949
939
931
924
918
912
906
903
903
900
901
903
902
901
899
899
901
904
905
909
910
910
908
905
904
901
907
909
913
910
911
907
902
902
902
919
945
987
1042
1110
1189
1272
1345
1401
1427
1421
1376
1309
1230
1145
1060
985
917
860
821
802
806
826
853
876
889
893
887
877
868
861
862
861
861
863
862
857
854
850
847
849
851
849
848
847
842
838
835
834
832
833
835
834
834
836
839
841
843
848
848
848
847
851
855
858
863
871
875
883
887
893
899
904
913
921
930
937
942
948
960
966
980
988
996
1001
1006
1011
1015
1023
1033
1043
1050
1055
1058
1062
1065
1068
1072
1075
1077
1077
1076
1074
1073
1072
1075
1078
1070
1064
1061
1056
1052
1050
1047
1046
1041
1037
1035
1030
1024
1019
1018
1011
1004
997
991
986
984
979
978
975
968
962
955
952
949
950
952
954
956
955
954
951
950
953
957
965
966
973
978
984
990
994
1000
1002
1004
1003
1004
1002
1001
999
994
986
973
962
949
939
931
929
928
926
924
926
928
929
930
934
933
931
931
928
929
930
927
930
932
933
936
936
936
936
934
931
929
938
962
1003
1062
1139
1222
1309
1384
1424
1422
1374
1299
1206
1103
1013
937
883
846
822
814
823
841
864
886
898
903
904
899
895
891
890
885
885
886
884
886
882
881
881
879
876
879
883
882
886
882
880
876
874
873
881
888
895
897
902
903
903
905
908
913
917
921
928
933
941
946
958
966
974
976
981
985
988
994
1002
1012
1024
1035
1043
1050
1058
1062
1069
1075
1081
1085
1090
1093
1100
1105
1112
1116
1118
1114
1112
1110
1109
1105
1105
1103
1101
1096
1093
1091
1089
1087
1082
1077
1070
1062
1055
1050
1048
1044
1044
1040
1036
1028
1018
1010
1008
1002
999
995
989
983
976
973
970
970
967
963
962
956
952
951
951
954
956
959
959
960
958
957
959
962
970
979
990
997
1006
1013
1016
1021
1023
1022
1025
1023
1019
1016
1013
1007
998
991
978
966
958
947
947
947
951
955
957
955
954
956
957
952
953
956
955
952
951
951
952
956
958
960
962
959
954
947
944
946
960
987
1030
1080
1139
1201
1268
1332
1387
1419
1416
1378
1312
1229
1137
1049
972
906
854
813
794
795
808
832
857
882
898
904
904
897
890
886
883
884
885
883
883
881
879
879
881
879
878
877
874
873
873
874
878
881
882
884
884
885
886
890
892
893
895
895
897
900
903
906
911
921
930
935
940
942
945
950
957
963
970
976
984
993
999
1002
1008
1013
1016
1020
1024
1027
1033
1041
1047
1055
1063
1067
1071
1078
1080
1083
1082
1088
1093
1095
1098
1095
1093
1089
1086
1085
1085
1084
1082
1079
1074
1067
1063
1059
1056
1052
1048
1040
1035
1028
1021
1019
1017
1015
1008
1000
995
987
982
977
973
968
965
960
957
955
952
952
953
955
954
954
950
945
944
948
949
953
957
958
958
961
963
969
973
979
985
989
995
997
1000
