1078
1077
1076
1077
1077
1075
1072
1067
1065
1065
1061
1059
1056
1052
1050
1050
1049
1046
1044
1041
1039
1038
1039
1035
1030
1030
1027
1027
1027
1023
1019
1015
1015
1016
1014
1013
1010
1008
1005
1003
1005
1004
1001
996
997
998
996
997
994
991
986
992
991
991
987
987
986
987
989
990
988
986
985
988
986
988
985
984
982
981
978
971
966
962
960
958
963
959
943
933
927
926
918
898
862
820
778
750
744
754
763
777
795
817
830
833
841
847
857
869
882
898
910
929
945
962
977
986
993
996
998
999
1001
999
995
997
998
1001
1003
1004
1003
1006
1009
1013
1017
1019
1019
1018
1022
1024
1028
1031
1032
1034
1038
1041
1044
1048
1048
1051
1058
1063
1068
1072
1073
1075
1077
1084
1087
1089
1088
1087
1090
1090
1093
1094
1092
1092
1092
1094
1094
1092
1093
1091
1091
1091
1092
1088
1082
1080
1080
1081
1078
1076
1071
1068
1065
1068
1065
1062
1060
1057
1055
1054
1054
1051
1045
1043
1042
1043
1041
1038
1033
1030
1028
1029
1029
1024
1022
1017
1015
1016
1015
1013
1011
1008
1008
1006
1006
1004
1001
999
996
997
998
997
989
989
988
989
990
987
985
984
985
987
991
988
988
986
985
988
989
986
986
983
982
982
980
974
968
963
963
964
965
962
950
942
935
929
929
920
902
875
840
803
767
748
746
758
769
779
797
815
824
832
842
854
866
875
884
897
912
928
941
952
964
977
985
993
998
999
1002
1004
1005
1005
1005
1006
1004
1003
1005
1008
1008
1008
1009
1008
1011
1016
1017
1018
1019
1019
1023
1029
1031
1030
1034
1036
1042
1048
1053
1054
1058
1059
1063
1068
1070
1071
1072
1073
1075
1081
1081
1081
1083
1083
1083
1086
1090
1089
1089
1088
1088
1091
1089
1088
1087
1083
1083
1083
1080
1080
1076
1073
1072
1074
1073
1070
1066
1064
1063
1062
1062
1059
1054
1048
1049
1048
1049
1045
1038
1036
1036
1038
1034
1032
1028
1024
1025
1025
1025
1022
1019
1016
1015
1017
1015
1012
1008
1006
1004
1002
1001
998
995
995
994
995
995
994
992
989
991
994
994
994
989
986
988
989
990
989
984
985
985
988
990
990
984
978
973
973
972
967
962
958
959
952
947
933
926
920
911
894
867
831
790
761
755
767
780
795
808
822
835
846
851
859
864
875
887
899
912
925
936
948
961
975
983
985
987
989
998
1004
1008
1008
1008
1007
1010
1011
1013
1011
1011
1009
1007
1013
1015
1017
1017
1015
1020
1025
1029
1032
1031
1036
1039
1043
1047
1049
1049
1053
1057
1063
1067
1069
1070
1071
1075
1079
1081
1083
1084
1081
1083
1086
1087
1085
1082
1080
1084
1086
1086
1083
1081
1079
1079
1079
1079
1077
1073
1071
1069
1071
1070
1064
1062
1060
1061
1060
1058
1056
1054
1050
1046
1044
1042
1040
1035
1033
1033
1034
1033
1030
1029
1025
1022
1023
1023
1018
1015
1012
1012
1011
1010
1008
1004
1002
1000
1000
1001
994
992
991
990
992
991
991
988
986
986
986
986
981
977
978
978
979
983
980
978
976
977
977
978
982
980
979
977
980
982
978
973
965
958
955
956
949
947
940
935
925
918
908
896
889
878
860
833
800
767
751
759
776
792
801
810
823
836
845
854
867
874
881
890
897
908
918
930
938
952
965
971
975
972
978
983
987
988
987
983
984
989
996
1001
1002
1001
1005
1008
1013
1016
1017
1015
1013
1012
1013
1015
1014
1015
1019
1023
1026
1029
1031
1031
1031
1036
1044
1048
1050
1053
1053
1055
1062
1062
1063
1062
1058
1059
1066
1065
1067
1066
1065
1068
1067
1069
1072
1070
1068
1066
1064
1065
1062
1059
1058
1063
1060
1058
1054
1050
1047
1046
1046
1045
1041
1037
1037
1035
1035
1036
1033
1026
1025
1020
1021
1018
1017
1015
1014
1008
1008
1004
1002
999
995
997
1000
997
993
991
990
991
990
990
985
982
980
979
977
980
978
976
972
968
974
979
975
970
969
970
969
968
968
967
965
966
972
975
973
967
961
962
965
968
966
960
952
944
942
941
934
927
912
907
904
898
888
877
857
829
796
761
739
736
747
772
798
818
832
844
854
867
882
897
902
902
905
915
931
946
948
952
955
962
971
977
976
980
977
976
980
984
984
984
985
990
990
988
994
999
1003
1004
1008
1013
1014
1013
1014
1015
1013
1016
1021
1019
1021
1028
1031
1031
1029
1028
1032
1039
1046
1053
1058
1054
1048
1052
1056
1058
1061
1057
1058
1062
1064
1066
1069
1068
1063
1061
1061
1062
1060
1057
1054
1055
1055
1057
1057
1053
1050
1050
1051
1051
1048
1042
1039
1041
1040
1037
1031
1029
1029
1028
1025
1024
1023
1021
1014
1014
1015
1017
1012
1009
1007
1009
1009
1006
1002
999
997
1000
1000
997
992
987
987
991
987
988
987
982
982
983
983
981
980
980
979
979
983
985
980
975
974
972
976
975
974
972
968
973
977
977
974
970
968
972
975
974
973
971
971
973
974
975
971
969
963
959
957
952
950
941
936
936
935
929
920
909
896
888
880
862
843
815
778
747
738
747
758
780
801
822
843
852
862
868
877
893
903
911
917
922
936
942
948
953
958
963
966
974
980
982
980
980
980
984
987
986
991
994
999
1004
1008
1007
1007
1005
1005
1005
1009
1010
1006
1007
1008
1014
1018
1021
1020
1021
1026
1030
1035
1037
1036
1039
1043
1046
1053
1057
1057
1056
1051
1059
1063
1065
1065
1065
1066
1069
1073
1073
1074
1073
1074
1076
1078
1076
1075
1073
1071
1072
1072
1070
1066
1061
1060
1061
1061
1058
1053
1049
1046
1050
1052
1050
1046
1042
1040
1039
1042
1039
1034
1029
1027
1028
1029
1025
1021
1019
1018
1018
1019
1016
1013
1010
1009
1011
1013
1012
1006
1002
1001
1000
1001
998
996
995
990
995
997
995
994
993
988
991
994
993
988
988
987
989
992
988
984
982
982
984
984
985
982
980
984
986
989
987
987
986
986
984
985
978
970
966
963
964
964
960
952
950
942
935
926
920
907
888
867
843
814
774
744
736
745
764
786
804
823
839
847
862
874
888
895
903
912
925
938
952
954
959
964
975
986
990
989
989
993
994
999
1001
998
1000
1004
1011
1015
1019
1014
1012
1016
1020
1024
1024
1017
1016
1019
1024
1030
1031
1029
1029
1033
1040
1045
1046
1047
1047
1049
1052
1062
1064
1065
1067
1067
1074
1077
1081
1082
1081
1082
1086
1092
1093
1091
1090
1087
1090
1091
1091
1089
1085
1087
1090
1088
1083
1084
1081
1079
1080
1081
1080
1079
1075
1072
1071
1073
1069
1066
1060
1059
1057
1057
1055
1053
1046
1048
1047
1045
1045
1043
1042
1039
1038
1037
1035
1031
1029
1026
1027
1027
1025
1022
1020
1018
1017
1017
1015
1012
1010
1010
1010
1011
1010
1004
1001
1003
1004
1005
1004
1001
999
997
998
999
997
996
995
992
994
994
993
991
989
990
993
995
993
991
992
992
994
994
994
992
990
990
989
991
987
983
977
972
969
965
963
962
955
947
945
939
933
919
906
884
859
829
792
755
738
744
758
776
792
808
826
841
855
869
880
892
896
908
920
933
946
953
957
958
967
981
987
990
988
992
994
997
999
998
996
997
1000
1009
1010
1012
1014
1017
1021
1024
1024
1025
1022
1019
1025
1028
1029
1029
1028
1031
1037
1041
1044
1042
1044
1045
1051
1056
1059
1062
1059
1065
1068
1074
1076
1075
1077
1077
1079
1084
1086
1084
1085
1085
1088
1090
1088
1087
1086
1088
1089
1087
1085
1083
1081
1078
1079
1079
1077
1074
1073
1071
1069
1071
1068
1064
1061
1058
1058
1059
1056
1053
1050
1045
1044
1045
1047
1040
1035
1031
1031
1031
1031
1026
1023
1020
1021
1022
1018
1014
1013
1014
1015
1013
1010
1007
1006
1002
1004
1004
1003
1000
996
994
997
995
996
993
990
989
990
992
995
989
987
987
989
990
990
985
979
981
979
985
985
982
978
980
979
982
980
981
980
979
978
975
970
967
962
957
953
950
947
942
936
927
924
918
904
888
869
841
814
776
740
730
739
755
776
793
811
825
838
850
862
878
890
898
906
919
933
947
951
954
960
971
981
986
988
988
986
988
989
992
991
987
989
990
993
999
1003
1005
1006
1011
1013
1021
1020
1020
1022
1022
1025
1027
1027
1028
1028
1030
1032
1037
1038
1040
1045
1048
1052
1055
1058
1058
1059
1060
1064
1069
1071
1070
1071
1069
1075
1075
1075
1073
1071
1071
1073
1072
1073
1068
1069
1067
1069
1069
1066
1062
1059
1060
1056
1057
1056
1050
1045
1045
1045
1046
1044
1041
1038
1034
1032
1033
1032
1027
1025
1024
1022
1022
1022
1019
1015
1015
1013
1015
1008
1007
1005
1006
1004
1005
1003
999
996
994
996
997
996
993
990
988
990
991
989
989
984
984
985
985
980
978
976
978
977
982
981
979
975
978
978
978
979
979
977
977
978
981
978
975
974
975
978
977
973
965
960
961
958
954
949
945
939
937
929
920
910
895
879
860
837
814
788
756
734
737
750
767
783
800
819
835
851
863
875
886
897
901
909
923
935
942
949
948
955
964
975
978
978
982
985
986
983
983
982
986
992
995
994
988
990
994
999
999
1005
1007
1010
1014
1017
1026
1029
1029
1025
1026
1029
1030
1030
1030
1033
1039
1046
1047
1046
1041
1043
1048
1052
1056
1057
1057
1057
1059
1062
1066
1066
1065
1066
1063
1063
1065
1067
1065
1067
1066
1065
1061
1057
1055
1052
1050
1049
1047
1044
1039
1041
1037
1039
1037
1035
1033
1031
1030
1026
1027
1021
1020
1016
1011
1010
1008
1005
1003
1001
1000
1001
999
996
995
993
990
991
991
990
985
982
978
981
980
980
977
973
971
974
976
975
970
969
969
970
971
968
966
966
966
965
967
963
961
960
960
960
961
958
956
956
959
961
963
963
963
961
963
965
968
964
962
960
954
951
950
948
940
931
925
923
922
917
910
896
883
872
866
853
833
804
771
741
732
740
755
774
796
816
831
848
853
855
866
881
891
898
904
913
925
935
942
944
948
956
963
969
973
972
972
975
975
979
980
981
979
981
983
986
988
990
992
993
997
997
1005
1010
1013
1017
1022
1026
1026
1028
1026
1028
1028
1033
1036
1039
1037
1042
1047
1051
1048
1047
1048
1048
1052
1054
1061
1055
1055
1055
1057
1065
1068
1069
1066
1061
1060
1059
1056
1059
1060
1058
1053
1050
1053
1057
1059
1056
1051
1047
1047
1042
1039
1031
1035
1039
1036
1031
1029
1028
1025
1015
1007
1011
1015
1011
1012
1010
1013
1011
1010
1005
1000
1000
1005
1001
996
988
986
991
992
990
983
983
982
984
982
982
979
977
976
978
980
977
972
970
967
968
974
974
970
967
965
965
971
973
974
962
957
966
972
969
961
956
957
967
967
964
955
957
961
964
966
970
967
961
957
961
963
957
951
943
939
934
930
926
919
912
906
903
898
884
872
855
839
818
792
762
737
731
741
764
786
806
821
836
850
860
868
872
880
889
896
904
912
923
928
936
940
945
957
961
966
970
972
972
972
972
975
980
982
985
987
987
983
981
986
994
999
1006
1005
1004
1010
1013
1020
1025
1023
1024
1026
1029
1030
1030
1032
1030
1033
1037
1042
1044
1044
1045
1048
1053
1056
1055
1057
1059
1059
1061
1069
1067
1066
1061
1063
1065
1069
1067
1065
1066
1066
1065
1067
1063
1058
1057
1057
1053
1055
1052
1049
1048
1049
1047
1046
1042
1035
1036
1035
1031
1032
1025
1024
1022
1023
1025
1022
1020
1017
1013
1014
1016
1016
1014
1007
1008
1004
1005
1007
1001
998
996
996
997
998
996
995
991
992
994
993
990
986
984
987
987
990
990
985
981
982
983
983
982
980
978
978
978
979
980
977
976
978
982
981
980
979
979
979
981
982
979
978
974
972
971
969
961
954
950
946
947
941
931
916
904
888
876
858
838
803
765
739
738
755
773
789
812
833
849
863
867
875
885
899
914
929
939
947
954
959
969
975
982
984
986
989
993
993
994
996
995
1000
1003
1007
1008
1010
1009
1012
1017
1023
1031
1031
1033
1037
1041
1044
1044
1038
1041
1044
1053
1057
1056
1058
1060
1065
1073
1075
1076
1075
1073
1077
1081
1083
1085
1083
1082
1086
1087
1088
1088
1086
1084
1086
1086
1085
1086
1083
1081
1080
1080
1080
1078
1073
1070
1068
1068
1068
1064
1062
1057
1055
1057
1055
1053
1049
1046
1045
1045
1043
1041
1036
1034
1033
1033
1031
1031
1026
1022
1024
1023
1024
1021
1019
1016
1015
1016
1018
1016
1014
1011
1009
1011
1007
1007
1003
1002
1001
1004
1003
1001
995
996
995
998
997
998
995
990
993
997
996
995
993
993
994
996
995
996
994
991
992
997
996
994
992
990
984
985
981
977
973
970
968
967
964
952
945
936
922
910
889
869
838
798
760
741
746
763
783
798
821
841
856
868
875
890
900
912
928
941
954
961
967
974
982
989
993
994
998
1003
1004
1005
1003
1005
1007
1009
1013
1013
1012
1012
1015
1019
1021
1025
1028
1030
1037
1044
1048
1049
1049
1050
1051
1055
1061
1060
1061
1061
1064
1067
1070
1076
1076
1078
1079
1084
1087
1088
1087
1091
1091
1092
1095
1095
1095
1094
1093
1098
1098
1094
1091
1088
1088
1086
1086
1086
1081
1077
1078
1076
1077
1074
1070
1066
1063
1065
1065
1063
1057
1053
1051
1052
1053
1050
1044
1040
1042
1041
1038
1035
1029
1031
1032
1033
1031
1029
1026
1022
1020
1021
1023
1018
1015
1011
1015
1015
1011
1011
1010
1004
1007
1006
1009
1006
1004
1001
1001
1005
1006
1003
1000
993
995
998
997
995
994
991
995
999
999
998
999
995
996
995
993
986
980
972
973
970
968
963
954
947
938
926
913
894
874
848
817
781
751
743
753
769
786
811
832
850
859
869
881
898
912
922
936
948
960
974
978
985
989
997
1001
1007
1006
1005
1008
1007
1009
1012
1014
1014
1013
1014
1019
1023
1027
1028
1030
1035
1040
1047
1053
1053
1056
1059
1063
1066
1066
1068
1069
1071
1073
1080
1085
1086
1085
1086
1089
1094
1096
1097
1093
1094
1096
1097
1098
1099
1093
1094
1093
1094
1095
1094
1091
1087
1088
1090
1089
1086
1080
1076
1074
1075
1073
1069
1066
1060
1056
1058
1057
1054
1050
1045
1047
1049
1045
1044
1040
1038
1036
1037
1036
1032
1027
1023
1027
1025
1024
1023
1020
1020
1018
1019
1022
1019
1016
1014
1012
1014
1013
1011
1009
1004
1007
1005
1006
1007
1002
1002
1001
1004
1003
1001
997
994
999
1001
1002
1000
997
996
996
998
998
998
995
994
994
997
996
991
985
981
980
978
972
966
961
956
949
942
931
911
889
869
845
817
781
752
741
752
770
793
810
829
845
858
872
885
899
911
921
930
945
957
968
970
975
980
988
1000
1004
1006
1005
1006
1011
1014
1016
1016
1015
1016
1019
1021
1022
1023
1023
1026
1025
1034
1040
1043
1044
1048
1054
1057
1064
1065
1062
1059
1063
1069
1072
1072
1070
1070
1077
1080
1082
1081
1084
1083
1085
1090
1089
1089
1085
1089
1092
1093
1092
1089
1087
1085
1090
1090
1086
1082
1079
1074
1074
1075
1072
1069
1064
1061
1062
1064
1063
1059
1053
1053
1052
1049
1046
1042
1036
1033
1034
1035
1034
1031
1027
1029
1028
1026
1025
1020
1016
1016
1016
1017
1015
1010
1007
1000
1002
1004
1005
1001
997
996
997
999
998
997
989
987
989
996
997
994
987
982
982
987
985
982
984
984
987
989
989
992
988
980
982
986
981
975
967
961
957
955
950
939
932
918
911
903
890
871
849
828
796
766
746
749
763
784
808
832
847
854
864
874
887
901
907
914
924
936
955
958
962
963
975
988
993
991
990
989
990
990
991
997
1001
1000
999
1000
1005
1006
1008
1010
1008
1013
1019
1022
1026
1029
1028
1029
1037
1050
1057
1056
1055
1056
1062
1064
1066
1067
1061
1061
1065
1071
1076
1073
1071
1074
1081
1083
1078
1075
1071
1070
1071
1075
1078
1077
1077
1074
1069
1071
1073
1068
1063
1063
1063
1065
1061
1055
1051
1046
1045
1046
1045
1044
1040
1037
1034
1037
1032
1028
1025
1027
1027
1027
1025
1023
1020
1017
1014
1010
1010
1008
1005
1005
1007
1005
1004
998
994
995
996
999
999
995
990
992
995
998
998
988
982
982
981
989
987
984
978
973
980
985
985
980
977
976
978
982
982
982
978
976
981
980
979
977
974
973
976
975
977
979
980
982
983
984
981
971
964
964
963
958
952
943
935
930
928
923
910
895
876
861
850
839
822
788
753
738
750
771
791
809
824
845
859
871
878
886
896
903
912
924
935
943
945
951
954
964
974
982
985
985
992
995
994
991
990
995
1002
1006
1004
1001
999
998
1008
1009
1009
1006
1006
1011
1019
1026
1027
1022
1027
1037
1043
1047
1049
1051
1054
1058
1068
1075
1076
1070
1071
1076
1085
1088
1079
1073
1070
1072
1076
1083
1083
1079
1076
1072
1077
1081
1084
1084
1079
1073
1073
1073
1074
1074
1065
1057
1054
1059
1057
1054
1050
1049
1053
1048
1047
1043
1040
1037
1037
1037
1035
1032
1028
1025
1027
1029
1025
1022
1017
1013
1014
1018
1020
1013
1006
1001
1002
1007
1010
1008
1001
998
995
994
994
997
996
994
990
987
989
989
987
989
993
992
991
987
984
979
980
987
986
986
981
980
979
983
984
980
978
979
980
984
985
984
981
980
983
984
980
980
979
979
981
986
982
980
973
967
965
965
959
953
943
940
935
932
923
906
892
877
870
856
834
799
766
747
750
765
782
798
816
834
853
864
871
878
889
896
912
923
933
940
948
952
958
966
974
980
985
989
994
997
998
995
1000
999
1007
1009
1010
1008
1006
1009
1011
1016
1015
1017
1017
1019
1022
1032
1035
1042
1046
1050
1056
1061
1062
1062
1063
1063
1068
1073
1073
1073
1073
1074
1078
1081
1085
1084
1083
1086
1089
1090
1092
1088
1090
1085
1087
1093
1092
1091
1089
1087
1089
1088
1084
1082
1080
1075
1076
1078
1076
1070
1067
1063
1063
1062
1062
1058
1055
1051
1051
1053
1051
1047
1047
1043
1040
1042
1040
1037
1034
1032
1034
1033
1031
1028
1027
1022
1021
1024
1023
1017
1018
1014
1017
1018
1017
1013
1012
1010
1010
1011
1009
1004
1004
999
1004
1005
1005
1001
999
998
1001
1003
1002
1000
998
995
995
997
998
995
991
989
994
997
992
991
991
988
991
994
994
990
990
990
993
996
997
993
988
984
985
985
981
972
969
963
967
963
958
945
932
924
913
898
883
860
835
802
768
744
741
752
767
786
806
827
844
853
861
871
882
896
906
915
927
943
956
968
973
979
987
994
998
1005
1008
1006
1004
1004
1009
1012
1012
1010
1012
1015
1020
1023
1025
1026
1028
1030
1037
1043
1048
1050
1053
1053
1059
1065
1064
1065
1066
1067
1071
1076
1077
1079
1079
1083
1089
1093
1093
1093
1096
1095
1099
1103
1102
1105
1100
1103
1103
1104
1103
1100
1098
1094
1097
1097
1096
1095
1089
1088
1087
1090
1088
1085
1081
1076
1077
1078
1073
1068
1065
1062
1062
1061
1059
1056
1051
1050
1050
1050
1048
1045
1043
1042
1041
1042
1041
1038
1032
1030
1033
1030
1029
1028
1024
