953
964
968
963
956
946
941
949
957
968
987
1010
1055
1106
1161
1205
1229
1220
1181
1123
1042
948
880
857
860
870
883
903
918
927
934
938
944
945
944
944
949
954
955
954
949
949
953
956
954
952
951
951
956
960
960
966
965
964
962
961
964
964
959
959
965
973
977
978
973
976
984
983
986
986
983
988
992
996
1008
1014
1015
1018
1020
1024
1027
1029
1028
1029
1032
1030
1033
1036
1038
1038
1031
1025
1021
1022
1026
1028
1023
1015
1009
1004
1002
999
1002
1003
1003
996
986
982
979
979
983
978
971
964
963
967
972
973
972
967
961
957
953
950
953
961
968
968
964
955
955
954
957
957
961
963
963
962
964
968
967
962
950
947
956
963
969
966
960
956
965
972
970
964
957
951
958
966
973
969
966
965
967
966
965
964
968
974
972
965
960
966
969
970
969
970
974
975
978
976
972
971
972
975
975
973
975
976
979
981
979
976
978
983
980
977
967
960
956
955
960
965
964
966
971
969
964
958
954
949
949
950
951
951
951
951
956
956
956
956
951
952
955
954
954
953
947
946
953
957
952
943
937
942
963
994
1034
1077
1127
1181
1233
1257
1239
1194
1121
1031
935
872
861
867
873
883
899
916
929
939
939
934
942
946
947
950
949
945
942
941
950
951
951
950
951
956
960
959
955
953
958
959
956
952
951
955
964
968
965
961
959
961
967
973
973
974
977
979
984
986
990
988
992
997
1001
1002
998
1000
1007
1015
1018
1020
1024
1026
1023
1023
1028
1030
1032
1033
1032
1032
1035
1036
1034
1027
1019
1018
1018
1018
1012
1005
994
986
986
988
986
982
980
976
969
967
970
970
967
964
964
968
968
963
961
962
966
966
962
957
956
954
955
953
955
953
949
949
956
961
963
962
959
954
953
953
955
954
954
956
961
962
963
960
956
955
958
962
961
958
959
956
963
968
970
970
970
967
968
967
969
969
965
963
969
973
973
973
972
970
975
983
986
976
967
963
969
975
980
981
976
967
964
967
974
973
969
967
967
968
972
970
967
960
960
957
957
957
953
951
952
951
954
961
962
958
953
951
952
957
956
954
957
959
961
956
947
939
936
950
964
982
1003
1032
1082
1140
1197
1240
1262
1255
1209
1140
1049
949
871
843
849
863
881
898
913
921
930
935
943
945
946
946
948
950
952
953
952
951
947
947
953
954
952
951
953
957
957
956
955
953
954
954
956
960
962
965
974
979
983
983
984
988
992
990
993
997
1001
1001
1002
1003
1006
1008
1012
1018
1023
1027
1030
1027
1027
1026
1026
1027
1030
1033
1031
1025
1023
1026
1033
1033
1031
1027
1029
1025
1019
1015
1008
1006
1008
1008
1006
1002
993
984
984
984
983
980
976
972
971
967
966
965
956
953
957
960
962
962
963
960
959
961
958
956
956
958
961
962
963
965
962
954
950
947
954
956
954
953
955
962
965
963
960
959
963
961
958
961
963
968
971
971
967
961
952
948
950
965
988
1026
1078
1141
1213
1274
1312
1311
1259
1166
1069
976
910
891
915
953
979
994
997
995
987
984
984
979
980
979
975
975
976
975
977
980
980
981
981
978
968
957
952
947
949
949
953
955
953
951
947
951
952
952
951
955
956
956
959
958
955
960
959
971
971
966
968
971
975
981
985
986
985
982
987
991
1003
1006
1005
1002
1003
1003
1004
1003
1004
1005
1009
1009
1009
1005
1000
996
995
994
994
991
985
982
981
980
979
975
970
965
956
958
961
963
957
951
954
956
953
950
952
953
956
955
947
942
942
946
952
955
956
955
954
952
955
957
959
962
958
953
954
958
962
960
959
958
959
962
966
962
962
958
959
960
958
958
960
964
972
978
985
988
984
984
984
984
983
981
984
986
986
987
983
977
977
977
982
984
981
973
969
967
970
973
973
962
955
949
951
953
954
956
952
953
954
951
946
943
943
944
948
948
949
945
944
945
950
954
954
952
949
944
942
947
951
950
944
936
933
940
949
957
975
1006
1049
1098
1150
1200
1244
1268
1256
1206
1137
1051
959
875
833
838
862
883
900
913
922
933
940
945
943
937
937
940
940
941
940
940
943
944
941
943
948
947
948
945
948
949
949
949
948
946
952
951
952
952
953
955
958
958
955
956
962
966
969
973
977
975
971
975
980
986
985
982
983
989
996
996
995
997
1002
1006
1009
1010
1009
1011
1014
1022
1027
1033
1036
1033
1035
1036
1040
1041
1042
1040
1045
1050
1054
1047
1037
1036
1037
1042
1041
1033
1019
1016
1011
1008
1003
995
985
975
970
966
963
963
959
953
952
952
954
953
953
952
956
962
958
954
946
941
941
949
952
954
950
947
944
945
947
942
934
934
938
942
947
944
942
944
947
949
947
942
940
941
941
946
942
941
941
944
947
949
952
947
946
945
950
956
952
942
938
936
934
931
931
936
950
974
1006
1052
1106
1163
1206
1224
1205
1151
1073
983
897
848
846
871
897
918
928
939
942
946
948
944
941
941
946
951
950
942
936
934
936
939
937
934
930
934
940
946
947
946
942
936
939
946
948
947
947
954
961
969
974
981
983
984
985
985
985
990
993
993
1000
1004
1006
1005
1006
1012
1017
1018
1018
1013
1012
1013
1016
1020
1019
1015
1008
1000
1000
1004
1006
1003
999
997
999
996
994
988
982
981
979
976
973
967
960
952
953
955
956
952
950
947
945
936
932
928
926
927
931
932
932
926
922
926
925
927
928
927
924
927
927
929
929
930
929
931
936
936
930
924
922
923
928
932
934
934
934
936
943
947
945
935
932
939
952
975
1011
1046
1088
1137
1193
1237
1251
1221
1153
1070
984
902
840
824
843
867
891
914
928
931
928
926
925
927
925
925
919
913
913
922
931
928
924
919
916
919
922
921
920
921
922
924
924
922
924
933
940
946
947
948
948
949
949
949
949
953
957
963
969
971
969
966
965
975
977
978
978
983
985
981
978
984
981
978
976
977
980
982
985
987
984
981
982
983
988
987
984
978
975
975
972
968
963
956
953
951
949
947
944
936
934
932
930
925
920
914
910
912
910
909
910
917
919
918
918
921
921
917
910
908
909
909
908
903
902
906
912
911
910
908
911
913
915
915
913
910
910
917
922
920
914
911
909
919
927
943
966
999
1048
1104
1161
1208
1229
1205
1144
1064
976
888
832
819
838
864
886
902
904
900
897
894
899
897
896
893
894
897
897
896
893
892
895
897
897
891
886
888
893
900
901
904
905
907
910
911
913
916
919
922
930
935
933
929
921
917
921
929
931
933
934
938
945
947
945
942
938
940
943
940
931
928
927
930
933
941
942
937
933
931
935
937
936
935
934
931
927
931
932
929
926
925
921
920
918
917
910
904
900
897
893
890
891
891
892
891
887
882
879
879
884
891
891
890
888
881
876
880
885
888
892
889
889
892
898
902
898
895
890
891
893
891
889
889
891
899
898
896
892
898
911
930
959
993
1036
1086
1135
1182
1215
1206
1161
1091
1014
930
854
813
809
826
845
866
884
891
892
892
891
886
887
886
885
884
884
884
882
880
876
879
885
891
901
905
901
898
897
900
903
904
902
905
910
910
914
914
916
921
929
928
928
926
924
926
926
927
931
928
922
921
920
924
925
928
928
932
940
943
940
935
932
935
940
943
943
945
947
948
953
953
952
948
946
945
940
934
932
925
920
915
909
909
916
920
917
910
904
905
909
904
900
894
895
896
900
900
903
904
909
912
907
899
898
906
914
918
915
907
900
900
906
911
913
914
916
920
926
931
930
919
911
916
939
975
1021
1072
1119
1170
1220
1254
1250
1197
1110
1017
922
854
830
843
867
888
904
912
911
907
903
901
898
901
905
906
906
902
900
894
896
896
899
905
911
914
909
906
906
914
921
927
930
924
922
920
923
931
931
931
924
928
934
937
941
940
939
934
929
934
941
941
935
931
930
931
936
934
938
939
939
940
944
943
944
948
954
954
953
948
950
950
953
951
946
945
944
943
947
949
942
935
932
930
926
922
923
922
914
911
913
916
923
925
919
911
907
917
923
927
922
918
920
922
919
922
927
930
930
929
928
923
915
916
919
929
931
934
932
930
934
932
933
934
937
936
941
959
988
1032
1080
1135
1194
1245
1269
1246
1183
1098
1003
906
847
832
852
876
906
926
932
926
920
922
925
928
926
922
924
932
936
935
937
940
935
936
936
932
933
936
939
939
940
935
937
935
937
938
944
947
947
946
945
950
947
944
941
942
942
938
938
935
941
944
944
948
953
963
966
965
957
950
952
958
961
963
968
970
971
975
976
978
981
981
980
980
978
979
975
968
964
963
965
965
960
953
950
948
942
939
935
929
929
934
936
935
927
925
928
932
931
923
925
925
931
937
937
938
936
936
935
935
933
931
926
930
933
939
944
944
943
941
940
943
947
950
950
955
969
1003
1039
1082
1126
1179
1240
1292
1315
1292
1214
1109
1007
912
863
858
884
908
923
926
931
932
934
929
926
918
912
909
915
922
928
932
932
931
928
926
933
936
938
933
930
929
933
933
934
931
926
925
933
934
928
923
920
922
926
927
925
924
923
925
923
922
922
924
925
929
931
934
939
939
940
941
945
942
939
933
933
937
939
939
940
943
942
942
940
944
943
942
939
941
939
938
939
940
936
934
933
934
931
925
921
916
916
919
918
916
911
911
916
919
921
919
917
915
916
915
920
921
915
908
912
915
918
923
924
923
923
921
924
923
917
916
918
924
928
928
931
932
935
938
935
930
937
955
988
1024
1074
1127
1180
1232
1269
1264
1203
1097
982
886
830
830
862
892
909
918
922
928
932
933
932
932
930
926
929
929
925
928
930
937
936
931
923
919
922
927
932
933
929
926
925
926
923
922
919
916
919
920
923
922
921
924
925
932
938
937
930
930
933
938
939
938
936
936
936
939
944
950
951
952
953
956
960
962
962
960
958
962
964
962
959
954
954
952
949
945
940
937
936
933
936
933
925
920
920
923
924
923
919
913
916
921
923
923
920
917
917
924
924
920
919
918
919
921
920
923
924
923
924
926
931
932
933
932
933
941
943
940
938
943
959
988
1026
1072
1123
1173
1229
1279
1302
1269
1192
1090
994
912
863
863
885
913
925
930
934
932
927
925
926
928
933
936
934
929
932
938
941
939
938
939
936
935
937
935
934
931
931
930
930
925
925
921
921
921
921
917
915
913
914
915
920
920
922
922
921
926
932
936
933
933
934
938
938
936
934
934
938
943
944
939
935
937
938
937
943
945
948
948
948
945
947
948
944
941
938
936
936
934
931
928
929
923
919
915
914
916
915
916
917
918
918
921
923
924
924
920
913
906
907
913
918
917
916
918
918
919
919
921
919
921
922
927
931
930
927
925
925
929
936
956
985
1021
1075
1131
1190
1244
1279
1281
1237
1152
1053
959
881
841
853
884
915
931
933
932
925
924
923
921
920
921
928
930
932
936
934
932
935
936
941
941
940
934
933
932
937
937
936
933
931
931
935
939
934
925
923
925
930
926
924
924
930
930
931
929
931
935
941
942
945
944
946
948
950
953
956
956
960
962
968
973
976
976
970
966
969
975
976
975
970
969
968
966
964
960
958
951
945
944
944
941
937
931
926
929
933
930
929
924
921
923
925
923
922
920
922
925
926
929
926
923
922
925
929
931
932
930
928
922
923
929
932
932
932
932
936
938
941
953
975
1012
1059
1108
1164
1223
1273
1292
1247
1144
1026
925
862
857
889
920
932
937
938
941
937
929
922
918
922
925
928
932
935
939
940
942
944
944
936
935
936
941
939
935
932
934
936
939
940
939
935
929
931
931
929
927
925
929
933
937
939
937
935
932
930
930
936
942
943
938
937
939
943
942
946
948
949
951
953
954
954
949
950
960
963
956
942
939
947
948
945
940
935
927
928
930
932
933
927
924
919
919
924
924
922
918
916
919
919
919
920
919
924
926
928
924
920
921
919
924
925
929
927
927
926
930
937
941
940
939
937
944
960
981
1014
1058
1110
1169
1226
1266
1273
1228
1142
1038
949
875
844
857
891
920
936
939
934
933
934
930
928
926
926
926
930
936
942
944
943
939
939
945
950
949
942
941
944
950
955
952
947
942
945
947
946
942
939
940
943
951
956
958
957
955
957
966
970
970
969
972
975
982
987
984
986
990
990
990
993
992
991
992
993
987
983
977
972
966
963
960
957
954
952
946
945
947
947
944
938
936
936
940
940
940
937
933
933
938
941
934
930
933
935
934
939
940
937
938
940
947
950
949
950
947
948
949
949
952
951
953
965
983
1013
1050
1093
1138
1191
1245
1285
1295
1253
1174
1078
986
908
864
866
897
929
947
952
950
945
941
939
942
940
934
931
927
932
934
940
944
945
947
949
949
951
951
953
952
953
951
952
950
954
953
953
953
954
952
948
945
944
948
949
947
944
940
938
938
939
939
942
942
947
952
954
957
954
958
953
952
954
958
956
959
959
963
963
961
959
961
963
965
964
960
960
960
958
955
954
951
945
941
936
934
939
941
938
934
934
937
938
936
931
930
932
934
935
934
927
927
927
930
937
934
935
936
933
932
932
936
935
935
932
935
939
943
945
942
942
945
949
957
974
1003
1048
1096
1142
1198
1247
1268
1240
1167
1078
987
907
857
852
880
910
933
938
941
939
941
941
939
937
936
937
934
934
933
933
932
935
942
946
948
949
949
950
952
954
953
952
955
956
955
957
959
959
964
969
975
974
973
970
968
970
969
971
969
969
972
970
971
972
973
976
979
982
989
994
995
995
998
1008
1009
1010
1009
1012
1010
1014
1017
1021
1018
1011
1006
1002
998
996
993
991
987
983
980
980
974
969
965
961
959
959
956
951
944
941
941
946
947
946
946
947
948
947
945
945
943
948
953
958
957
952
942
939
946
953
958
953
951
948
951
952
954
950
945
954
975
1001
1037
1084
1137
1193
1246
1272
1260
1204
1123
1036
957
895
870
875
897
924
941
951
953
953
950
944
942
945
946
945
937
937
934
934
934
938
938
941
946
951
954
958
954
954
955
962
966
968
962
956
951
957
963
964
962
961
965
971
973
967
962
961
963
965
964
957
953
953
958
964
969
967
967
968
974
974
975
969
964
967
975
978
981
981
979
977
981
983
981
982
979
975
973
972
964
954
944
942
946
947
946
943
948
948
948
945
943
939
939
939
943
942
940
938
935
939
946
949
945
945
945
949
950
950
945
942
939
939
941
946
947
947
945
951
953
956
958
956
952
951
953
961
975
991
1016
1050
1092
1139
1181
1218
1243
1241
1206
1140
1063
982
912
870
864
877
897
917
933
943
946
948
947
945
942
945
948
950
947
949
944
944
952
956
960
961
960
957
953
956
960
961
958
957
960
967
972
970
970
969
970
974
976
975
972
971
965
966
966
967
966
968
972
978
979
972
974
981
988
996
999
998
1000
1000
1003
1003
1001
1000
1006
1016
1023
1022
1020
1020
1016
1013
1011
1009
1007
1001
994
993
995
993
987
980
974
972
968
963
960
957
955
955
958
957
953
949
946
945
947
952
954
953
945
943
947
950
956
957
956
954
954
956
955
952
950
947
949
954
957
956
954
952
953
959
960
955
958
974
1001
1040
1082
1127
1175
1225
1270
1296
1280
1218
1129
1033
944
880
867
880
897
918
936
945
947
947
944
944
939
940
937
935
935
936
940
943
945
948
952
959
957
955
951
947
948
949
955
957
960
959
960
962
966
967
964
962
964
968
970
971
966
966
962
962
960
963
958
953
950
954
960
964
961
962
963
967
969
976
984
986
982
976
977
984
986
983
980
982
984
986
988
986
983
976
974
976
975
973
969
967
967
967
961
954
956
958
957
957
956
957
955
955
956
954
951
950
952
953
953
955
954
950
947
950
955
962
960
955
953
955
962
964
961
953
951
957
963
968
969
968
967
971
974
975
973
973
976
987
1004
1027
1055
1090
1126
1171
1220
1264
1285
1276
1240
1179
1108
1033
950
891
876
893
912
931
946
955
963
967
971
974
973
970
963
964
965
970
972
971
971
968
970
975
979
980
978
978
980
978
979
976
974
974
975
978
975
971
974
979
989
988
989
987
983
977
971
970
974
976
978
980
984
990
989
987
984
991
998
1006
1008
1011
1013
1012
1009
1009
1011
1013
1014
1019
1028
1028
1025
1025
1024
1023
1026
1025
1020
1014
1010
1009
1010
1005
1005
1000
994
989
992
984
975
970
971
974
978
979
976
972
967
963
966
972
973
971
966
960
967
975
979
978
974
972
970
968
966
962
961
969
973
976
968
968
970
971
977
978
977
982
984
984
982
981
982
986
1000
1017
1039
1069
1107
1152
1204
1257
1297
1315
1286
1214
1118
1021
937
889
880
897
921
941
954
957
959
962
964
961
965
970
975
971
966
964
967
973
977
971
963
959
959
961
969
971
970
966
967
968
974
973
968
964
960
958
957
957
955
955
954
952
954
956
963
967
970
969
970
969
963
965
977
985
985
977
968
971
976
982
982
985
988
986
986
989
991
995
992
989
986
991
992
993
994
993
989
984
981
978
975
974
972
970
968
966
959
956
957
959
963
962
954
950
948
951
951
955
955
