998
1003
1010
1013
1014
1016
1019
1022
1024
1023
1023
1023
1026
1029
1028
1027
1024
1023
1024
1029
1026
1024
1023
1018
1016
1015
1013
1009
1004
998
996
995
993
987
982
981
979
979
975
970
965
964
964
968
972
970
967
965
964
968
971
967
969
968
970
973
971
970
966
964
966
967
971
971
969
972
975
979
980
977
977
976
977
978
976
975
975
973
978
981
979
978
979
977
979
979
980
978
978
977
978
983
985
983
976
978
980
984
985
983
981
979
980
983
988
991
989
993
995
1002
1004
1004
998
996
999
1002
1004
1005
1000
997
1000
1003
1001
1000
999
999
1000
1004
1004
1005
1002
1000
999
1005
1007
1007
1002
1001
1001
1001
995
995
990
989
986
988
991
989
990
986
988
992
992
992
990
989
989
991
995
993
992
988
993
995
995
991
984
974
980
991
1016
1045
1083
1129
1183
1240
1288
1311
1296
1256
1191
1111
1020
936
892
894
906
926
945
963
973
979
985
988
996
995
994
993
998
1001
1001
1002
1003
998
999
998
1000
996
996
999
1004
1004
1006
1003
1005
1004
1009
1013
1014
1014
1015
1014
1016
1019
1026
1027
1026
1029
1030
1038
1042
1041
1044
1045
1049
1052
1054
1055
1057
1061
1065
1071
1073
1073
1074
1076
1078
1081
1085
1085
1083
1083
1085
1089
1093
1088
1082
1083
1081
1080
1080
1077
1071
1067
1058
1058
1056
1051
1043
1038
1038
1041
1038
1033
1029
1026
1026
1028
1029
1025
1028
1027
1021
1020
1020
1023
1019
1021
1021
1024
1024
1024
1021
1018
1019
1017
1024
1023
1022
1019
1017
1018
1019
1017
1016
1016
1019
1021
1023
1021
1022
1019
1019
1023
1027
1025
1023
1021
1019
1019
1020
1021
1022
1021
1019
1018
1019
1019
1019
1021
1022
1027
1029
1025
1022
1027
1029
1033
1037
1036
1033
1037
1047
1053
1054
1053
1049
1047
1048
1051
1049
1047
1045
1046
1046
1049
1049
1047
1044
1038
1033
1041
1045
1046
1041
1040
1042
1043
1043
1041
1037
1033
1029
1033
1037
1036
1029
1024
1027
1031
1033
1031
1026
1023
1027
1030
1033
1031
1029
1027
1026
1028
1026
1022
1017
1012
1007
1011
1023
1043
1073
1112
1165
1219
1274
1311
1319
1298
1250
1179
1091
994
926
913
924
934
945
965
982
996
1006
1012
1013
1015
1018
1024
1030
1032
1027
1025
1024
1024
1024
1026
1027
1025
1026
1027
1028
1029
1030
1030
1029
1029
1031
1036
1037
1039
1039
1039
1041
1042
1044
1044
1048
1050
1052
1059
1065
1070
1072
1077
1083
1088
1089
1090
1088
1086
1088
1094
1097
1097
1097
1097
1098
1101
1099
1099
1098
1097
1094
1092
1089
1085
1082
1078
1075
1074
1072
1066
1062
1055
1055
1054
1053
1049
1045
1041
1040
1038
1039
1037
1035
1031
1031
1029
1031
1032
1029
1024
1024
1023
1024
1026
1024
1023
1024
1022
1026
1025
1023
1021
1021
1022
1022
1024
1020
1021
1021
1022
1025
1026
1023
1021
1022
1023
1025
1022
1020
1019
1021
1022
1024
1024
1020
1020
1020
1024
1024
1022
1019
1018
1017
1017
1021
1021
1018
1016
1019
1023
1023
1024
1024
1023
1023
1024
1028
1027
1027
1025
1026
1028
1031
1030
1027
1023
1023
1023
1025
1023
1022
1021
1026
1024
1027
1022
1019
1019
1019
1020
1018
1020
1020
1016
1016
1017
1016
1013
1010
1004
1005
1007
1008
1005
1002
998
998
1000
1001
1001
999
998
995
998
999
998
998
996
998
998
996
991
982
982
994
1016
1047
1081
1126
1175
1226
1277
1304
1290
1243
1170
1081
988
906
869
870
881
897
918
942
962
971
972
975
981
989
988
987
986
981
987
989
990
988
984
986
988
994
995
993
991
992
994
999
999
997
997
998
1001
1002
1003
1002
1001
1003
1008
1011
1011
1013
1010
1012
1019
1022
1023
1023
1023
1024
1030
1034
1035
1037
1040
1042
1046
1050
1052
1054
1056
1057
1061
1063
1065
1063
1063
1063
1063
1066
1063
1062
1062
1064
1061
1062
1060
1055
1052
1051
1050
1049
1044
1041
1035
1034
1030
1026
1020
1013
1010
1009
1009
1008
1005
1001
999
998
1000
999
997
996
993
992
994
994
991
989
992
992
993
992
992
989
990
990
991
992
992
991
990
992
995
995
992
990
992
992
991
994
993
991
991
993
995
996
996
992
988
989
993
992
992
994
994
991
996
995
994
994
990
993
997
997
996
995
994
997
997
998
997
996
996
999
1006
1009
1010
1007
1006
1010
1013
1013
1013
1009
1003
999
1002
1003
1002
997
995
995
994
997
997
995
994
989
996
998
1000
1000
997
998
998
997
993
988
985
984
983
986
985
984
984
983
985
988
984
984
981
982
982
981
979
980
980
979
979
977
974
969
960
962
973
987
1012
1043
1084
1132
1185
1239
1278
1290
1261
1196
1115
1022
923
858
852
871
896
921
938
949
956
963
970
977
977
975
975
975
976
978
977
975
976
977
978
982
980
981
981
982
984
986
986
984
986
985
987
989
988
987
988
991
994
997
1000
1001
1002
1003
1008
1012
1015
1016
1018
1020
1023
1025
1026
1027
1028
1030
1032
1034
1035
1036
1038
1040
1040
1045
1043
1039
1040
1044
1045
1048
1046
1046
1045
1045
1043
1042
1036
1032
1028
1027
1028
1030
1026
1022
1016
1011
1008
1005
1001
998
993
991
995
996
994
988
982
981
986
986
985
981
981
982
982
987
983
981
975
974
977
979
980
979
975
982
981
982
979
979
978
979
983
985
987
984
983
983
986
986
986
983
978
979
984
986
983
981
979
980
983
983
984
979
979
979
980
982
983
982
979
982
982
983
981
979
978
979
983
983
981
982
983
984
986
991
991
989
990
991
993
994
992
993
993
993
995
996
995
994
993
993
991
991
989
987
985
988
992
993
990
987
983
979
982
986
985
983
982
983
984
990
989
985
981
980
975
974
968
964
961
960
964
964
963
962
963
964
966
967
969
964
966
964
972
972
970
966
962
966
966
963
961
955
953
956
962
979
1002
1028
1066
1113
1161
1208
1244
1260
1248
1210
1158
1091
1001
910
852
839
849
862
878
898
918
933
948
952
952
954
954
959
967
971
969
966
963
964
967
967
963
965
967
965
968
969
967
966
968
971
975
978
976
973
973
972
974
977
977
975
975
975
979
985
987
990
990
991
991
993
996
997
999
1001
1008
1008
1010
1012
1015
1016
1020
1026
1027
1026
1025
1027
1032
1036
1038
1035
1040
1040
1042
1042
1042
1041
1039
1041
1043
1042
1041
1036
1033
1031
1031
1032
1027
1022
1020
1017
1018
1017
1013
1006
1004
1003
1004
1004
996
991
987
989
988
994
990
991
991
992
992
988
984
979
978
981
984
986
982
982
976
977
980
981
977
977
981
986
992
989
989
983
981
980
981
984
979
978
980
981
986
987
988
986
981
979
979
979
979
975
971
975
976
973
974
968
969
972
978
981
980
977
975
979
986
993
992
987
985
983
989
989
992
992
988
987
986
987
986
982
978
981
984
989
989
985
979
973
972
971
969
961
959
964
968
975
976
973
973
967
969
971
967
961
954
954
960
961
958
956
953
951
954
956
955
955
958
959
961
963
961
960
958
958
965
962
957
949
939
940
945
951
971
996
1029
1075
1128
1178
1221
1245
1242
1210
1164
1101
1015
924
864
849
855
867
881
895
916
931
940
946
942
943
947
954
961
961
959
955
952
952
955
958
958
958
957
959
965
969
970
967
965
964
970
972
971
970
970
973
976
979
978
980
979
979
983
984
985
987
986
987
992
995
995
993
995
997
1002
1006
1007
1006
1006
1006
1012
1019
1020
1021
1020
1022
1024
1027
1028
1027
1027
1026
1030
1030
1031
1029
1027
1025
1024
1025
1022
1020
1016
1016
1012
1012
1007
1003
996
995
994
990
984
978
973
972
969
970
969
966
962
964
966
967
967
962
961
963
963
961
958
957
955
955
955
955
959
956
952
953
957
959
957
953
952
956
956
955
951
949
950
950
954
956
955
953
955
959
960
960
958
956
956
956
957
959
959
959
955
954
958
960
959
955
956
960
963
966
961
963
963
966
970
970
970
967
966
970
971
973
970
964
963
965
966
969
968
965
963
964
966
968
961
957
954
956
960
960
960
962
962
964
960
960
956
953
948
944
944
944
943
941
937
937
941
944
941
939
934
936
934
938
938
934
934
935
939
940
940
935
929
925
924
930
937
952
979
1017
1066
1120
1174
1221
1242
1229
1177
1103
1006
906
833
810
823
839
857
873
892
907
915
919
917
922
924
922
925
925
929
926
924
927
928
929
932
931
930
932
933
938
940
936
937
939
944
945
946
946
947
950
957
964
969
969
970
972
975
978
981
979
982
986
992
990
992
993
994
998
1001
1009
1011
1010
1010
1006
1008
1007
1003
999
998
998
999
1002
999
997
991
993
992
992
990
986
982
977
977
979
972
965
957
954
953
952
946
940
936
932
936
936
939
935
932
931
934
936
936
933
931
930
932
934
933
929
929
928
931
934
931
931
930
932
933
936
935
934
932
935
933
936
935
935
932
931
936
939
935
937
934
935
939
940
937
937
935
936
939
942
942
942
941
943
948
950
950
948
943
946
951
963
990
1026
1077
1138
1205
1264
1305
1303
1256
1169
1068
973
890
846
856
892
928
947
954
959
959
960
957
955
951
947
942
938
938
941
931
930
926
928
929
933
933
932
932
932
935
937
936
935
932
931
935
938
941
935
933
933
939
942
943
944
945
947
948
952
953
952
951
955
959
960
965
961
965
967
965
970
971
973
979
980
983
985
985
982
984
982
987
991
991
989
990
989
991
990
988
985
980
976
976
974
971
966
959
957
952
953
949
944
941
936
939
940
938
934
930
932
933
932
933
932
930
931
931
933
932
929
929
930
933
939
941
940
936
939
938
944
947
946
946
946
948
951
952
950
955
959
961
968
969
965
964
964
968
970
970
968
964
962
961
964
963
960
958
956
957
954
954
952
944
940
939
934
934
929
928
929
933
934
936
935
933
933
938
937
940
937
939
936
939
944
942
940
938
939
938
939
939
939
936
938
940
940
936
931
923
919
924
934
954
985
1019
1068
1131
1188
1234
1254
1235
1182
1109
1023
929
845
809
820
847
875
893
912
921
926
934
942
942
939
939
939
939
943
941
937
939
940
942
944
944
944
942
945
947
950
948
950
949
949
952
953
954
958
962
964
967
970
973
970
974
976
981
984
987
985
988
990
994
999
1001
1005
1005
1007
1010
1016
1017
1021
1021
1023
1030
1034
1036
1041
1039
1037
1040
1045
1047
1048
1045
1043
1041
1041
1042
1037
1034
1028
1025
1023
1018
1010
1001
990
984
984
981
972
965
966
962
965
964
958
958
955
958
960
957
958
955
952
954
955
957
956
952
954
958
959
954
951
951
950
955
958
962
959
957
957
957
958
957
950
952
952
954
956
953
950
950
951
954
955
952
945
947
945
950
954
952
950
950
950
952
956
949
946
942
937
942
947
963
988
1028
1081
1141
1200
1238
1249
1218
1152
1067
981
895
844
840
868
902
928
943
949
953
954
958
959
962
962
960
962
964
964
967
964
965
964
967
969
967
966
964
970
974
976
978
978
978
983
993
1000
1003
1003
1002
1005
1011
1014
1018
1018
1017
1021
1024
1027
1029
1031
1032
1036
1041
1043
1040
1035
1033
1033
1031
1029
1026
1028
1025
1025
1029
1033
1036
1033
1031
1032
1033
1034
1034
1027
1022
1015
1014
1010
1006
1001
996
992
988
984
982
979
976
973
972
974
971
969
967
965
966
970
972
969
967
966
968
971
969
971
968
969
971
970
973
972
973
977
984
988
992
988
985
982
985
985
988
987
986
990
993
992
995
997
1000
1014
1039
1082
1127
1180
1236
1286
1318
1309
1244
1145
1050
954
886
871
892
924
948
968
981
984
987
987
986
987
993
996
994
992
989
985
990
990
991
987
986
987
990
996
1003
1002
1004
1006
1011
1014
1016
1016
1016
1017
1023
1030
1033
1030
1028
1026
1031
1036
1041
1036
1037
1035
1039
1040
1044
1041
1039
1038
1042
1042
1047
1051
1047
1049
1047
1049
1047
1047
1045
1046
1051
1054
1057
1055
1051
1052
1050
1051
1050
1043
1037
1033
1031
1030
1026
1016
1007
1001
1002
1003
998
992
990
988
988
986
987
988
988
987
986
989
993
990
990
988
989
988
985
984
983
984
988
991
993
990
984
985
988
992
996
993
986
984
987
989
995
993
987
986
985
989
998
1010
1038
1076
1126
1189
1244
1280
1287
1257
1196
1118
1030
940
876
868
887
909
934
952
961
963
965
967
970
969
967
967
968
966
962
958
959
965
972
980
981
978
978
974
975
978
980
983
988
991
993
995
992
992
990
994
1000
1005
1000
1002
1002
1003
1000
994
994
995
992
988
984
991
995
996
993
995
998
1001
998
997
996
998
999
1003
1003
1003
1000
1001
1004
1005
1005
1004
1000
999
1000
1000
998
993
986
981
977
971
965
961
964
960
959
958
956
951
947
944
944
949
949
947
949
946
946
940
941
941
941
941
944
948
949
947
942
943
946
947
945
941
937
936
941
944
947
951
951
944
942
942
943
941
937
940
948
958
975
1003
1041
1089
1152
1212
1260
1281
1258
1197
1108
1011
909
837
821
845
878
905
923
932
937
937
936
935
933
932
929
930
934
939
941
942
944
945
950
949
952
950
952
950
952
954
950
949
950
951
949
954
954
953
950
946
946
945
944
942
946
950
957
961
963
966
962
965
966
964
963
964
965
973
977
977
977
976
975
975
978
983
985
986
983
980
975
971
966
962
960
959
960
961
955
952
942
943
943
946
945
941
935
927
930
933
936
929
924
925
929
933
933
933
935
933
932
935
934
930
931
933
935
940
942
941
941
941
941
942
943
943
947
944
948
951
948
946
943
945
951
952
954
952
951
950
963
988
1028
1063
1099
1148
1204
1257
1286
1276
1217
1133
1037
938
862
835
854
887
920
944
957
963
960
956
957
959
961
956
951
952
954
954
954
952
952
951
957
953
948
946
942
939
942
946
949
945
939
937
936
940
940
941
941
946
949
949
943
937
937
947
957
964
966
965
962
958
960
966
969
969
965
961
966
969
972
973
973
971
976
983
990
990
981
976
980
986
987
978
967
966
971
978
981
973
965
963
959
957
954
947
946
943
944
949
947
948
947
949
948
947
948
947
945
937
936
936
941
948
952
955
950
952
950
947
946
948
950
949
950
952
955
962
967
964
958
956
958
956
954
954
954
956
957
959
958
958
956
956
955
954
954
955
950
952
955
964
966
969
974
977
975
973
971
974
974
975
975
976
977
976
976
971
969
968
969
969
974
970
966
963
963
957
953
953
956
951
953
960
960
953
947
945
947
953
957
954
953
951
958
967
968
963
958
956
958
964
962
962
961
963
960
961
954
943
939
944
956
977
1008
1045
1087
1142
1201
1250
1276
1275
1244
1188
1109
1017
925
862
850
855
866
883
900
918
930
939
947
949
949
950
949
950
956
958
956
958
962
959
960
963
961
966
966
964
963
966
970
967
962
956
959
964
969
966
965
966
970
976
977
976
974
974
977
981
986
991
987
984
985
991
991
991
990
994
999
1005
1006
1006
1005
1001
1002
1007
1009
1008
1012
1013
1016
1018
1022
1021
1018
1016
1018
1015
1012
1009
1012
1011
1015
1016
1013
1009
1003
999
1000
1000
999
996
993
990
990
988
983
979
976
975
974
980
980
981
979
975
978
979
978
977
977
975
974
976
974
972
974
971
974
975
974
973
973
972
971
973
976
975
976
973
977
982
983
980
979
976
977
976
974
973
974
977
980
980
982
983
981
977
973
976
979
978
979
978
980
983
980
979
978
975
977
980
976
977
975
974
972
976
978
975
971
970
969
973
978
976
976
972
975
974
974
973
974
974
975
976
973
972
970
969
970
973
973
974
970
970
972
975
975
970
970
971
973
977
978
976
975
971
973
977
976
975
974
972
977
980
977
975
973
974
977
979
973
970
969
972
975
977
978
976
976
977
978
981
980
982
984
986
991
993
992
990
990
993
999
1001
1000
994
994
995
995
996
991
988
988
987
990
993
987
986
986
987
991
995
992
988
988
986
992
991
986
984
980
975
974
977
978
976
973
974
975
982
981
982
980
979
982
983
986
984
979
979
979
976
969
975
984
1004
1037
1076
1121
1170
1223
1271
1302
1300
1260
1195
1113
1011
923
879
875
884
891
905
925
945
955
957
962
966
972
977
978
972
975
976
976
981
980
977
973
974
980
981
979
979
980
980
982
986
985
984
985
985
989
993
992
989
991
995
998
1005
1003
1003
1002
1002
1005
1010
1014
1016
1017
1020
1024
1027
1030
1030
1031
1031
1034
1041
1044
1043
1038
1038
1037
1042
1044
1043
1041
1041
1044
1047
1045
1043
1039
1039
1039
1042
1037
1032
1030
1027
1029
1031
1028
1025
1020
1019
1018
1016
1014
1009
1004
1002
1001
1003
1000
999
995
991
993
994
991
991
989
991
991
996
995
992
989
987
989
992
992
991
991
987
988
992
993
988
986
981
984
989
988
987
986
985
988
993
994
992
990
986
989
991
993
989
989
989
991
996
994
995
992
990
990
990
989
985
982
985
985
988
988
986
985
983
986
989
991
990
991
996
997
1000
1001
1000
999
1003
1009
1007
1004
999
995
996
997
996
997
996
994
995
996
996
991
986
981
983
986
989
989
985
984
981
985
987
984
984
979
977
978
980
978
973
971
973
975
976
975
972
972
975
975
978
978
976
977
976
980
982
978
973
968
964
966
970
979
997
1026
1063
1113
1169
1226
1270
1292
1281
1239
1171
1086
988
901
862
864
885
898
916
930
950
963
973
975
976
976
978
980
982
981
980
978
978
981
982
985
983
981
982
988
989
992
989
988
989
991
993
994
996
995
995
997
1001
1001
1002
1003
999
1004
1007
1012
1012
1014
1011
1018
1025
1026
1025
1027
1029
1035
1039
1042
1041
1038
1042
1043
1047
1050
1047
1049
1048
1051
1055
1057
1058
1056
1056
1056
1062
1060
1061
1055
1053
1053
1053
1052
1045
1042
1038
1031
1031
1028
1024
1021
1016
1014
1014
1013
1010
1004
1002
1001
1001
996
997
994
