806
806
816
819
830
846
862
874
874
872
877
880
877
880
883
880
877
876
875
879
881
881
879
879
879
880
883
891
893
896
891
887
877
868
867
875
879
886
890
895
895
898
897
892
885
886
889
897
904
910
915
922
931
938
945
946
943
932
916
910
915
926
933
937
937
933
933
938
942
946
942
940
942
951
961
965
955
936
922
920
928
936
935
928
918
907
899
893
884
880
884
888
890
887
882
883
886
891
891
886
884
884
890
893
890
887
887
889
893
896
895
895
895
895
896
900
896
888
884
885
891
895
895
889
885
889
900
904
899
886
879
882
885
889
892
887
886
887
891
897
900
901
903
907
909
908
914
913
909
910
911
912
910
906
903
903
905
907
909
906
903
904
901
895
893
895
900
902
902
897
889
882
882
885
893
893
885
876
875
876
880
883
883
884
877
877
879
883
886
889
888
885
883
883
879
879
875
875
878
875
870
868
877
892
918
947
985
1028
1076
1118
1154
1167
1151
1103
1036
951
861
801
791
804
815
822
833
843
852
856
859
862
869
874
879
879
874
873
875
877
876
878
882
875
874
866
862
860
861
863
870
879
883
880
879
880
883
886
883
881
881
881
887
892
895
903
905
907
907
903
906
905
901
906
916
927
933
933
930
925
927
932
934
935
936
935
942
948
950
947
942
944
947
946
941
930
927
923
926
929
934
936
932
922
916
916
914
911
909
909
906
908
907
903
900
899
901
903
905
905
899
894
894
895
896
899
897
895
896
899
901
901
897
895
893
893
902
904
909
910
908
906
901
891
880
882
886
898
897
894
893
898
902
901
900
900
899
902
907
906
903
896
897
902
901
901
900
902
901
903
909
912
914
915
913
914
918
913
912
915
919
915
913
912
912
909
908
909
908
904
899
894
902
905
909
910
904
904
904
904
905
901
896
892
891
892
894
894
888
887
889
893
894
893
889
888
890
894
898
900
904
902
895
894
895
897
895
893
889
892
903
920
948
981
1023
1076
1131
1176
1194
1177
1129
1061
980
901
843
821
828
839
853
866
880
891
898
895
897
900
903
900
896
896
899
896
897
897
896
897
901
909
912
913
914
915
914
909
905
902
899
901
903
905
910
914
914
919
920
922
923
922
926
930
931
932
929
925
925
929
933
937
943
943
948
951
961
969
967
960
960
963
967
966
967
967
969
972
970
972
972
966
964
962
962
962
958
951
950
949
949
947
942
939
937
932
932
931
931
930
927
927
928
931
931
926
922
921
919
916
916
916
921
925
925
925
925
923
916
910
913
918
920
920
918
916
918
918
919
916
914
916
919
921
919
920
921
922
925
926
928
930
930
932
934
936
932
922
919
926
937
938
936
931
934
938
946
947
947
944
947
947
942
936
934
936
939
939
939
938
936
932
929
927
925
929
930
925
922
920
928
930
934
932
927
919
917
911
911
912
908
910
914
919
921
919
921
920
919
916
916
915
914
913
914
916
915
913
905
901
908
919
939
966
998
1041
1095
1149
1199
1225
1210
1158
1085
999
909
843
822
830
844
866
886
902
904
906
910
915
915
914
913
912
913
918
920
919
919
919
921
923
923
920
920
924
927
927
929
931
929
926
928
931
927
927
927
926
933
941
946
949
949
948
951
956
963
963
964
963
964
965
968
970
973
972
978
982
985
984
983
984
986
982
986
984
981
980
982
981
979
980
975
973
975
976
978
976
974
971
963
958
954
950
946
943
944
945
941
938
937
934
936
935
933
931
932
931
934
935
934
931
924
924
925
927
929
930
926
922
926
928
932
934
929
927
928
932
935
934
931
927
929
930
937
936
932
933
939
938
939
936
933
929
931
930
930
931
946
974
1020
1083
1153
1216
1261
1270
1228
1142
1040
943
883
875
904
940
959
963
962
960
955
953
947
944
944
945
947
945
945
942
940
939
937
939
938
936
940
939
937
937
935
934
926
926
925
927
931
929
926
923
926
930
935
932
931
928
933
939
943
939
937
940
942
946
950
950
949
949
958
962
961
960
961
963
969
971
971
970
968
968
973
976
976
973
976
978
980
977
969
963
960
960
958
957
953
956
954
950
945
946
947
945
941
941
941
939
941
942
940
941
942
943
943
942
941
940
943
946
948
949
946
942
943
944
944
945
945
945
945
945
950
950
950
946
948
957
962
961
961
961
965
958
954
951
952
953
955
962
967
968
970
969
966
966
966
965
963
965
965
971
970
968
966
964
965
968
967
964
959
960
963
964
962
955
946
938
942
946
947
950
954
950
946
942
943
949
946
944
948
949
951
947
947
946
948
956
954
945
938
932
931
932
939
947
966
991
1025
1071
1124
1182
1228
1245
1214
1148
1062
972
893
854
860
881
905
919
928
937
946
950
944
939
936
935
940
944
945
947
946
944
942
942
944
944
946
949
955
956
952
949
947
946
952
956
955
949
944
945
950
955
963
964
965
966
961
954
956
962
968
968
970
973
977
980
983
984
983
977
979
985
986
989
999
1009
1011
1010
1010
1011
1016
1022
1025
1025
1023
1019
1023
1025
1023
1017
1018
1015
1013
1014
1012
1004
999
994
991
988
984
980
978
978
976
969
966
962
962
961
962
963
959
956
950
953
959
960
955
959
957
950
952
955
955
951
954
955
963
963
958
948
944
948
950
951
949
950
950
948
948
949
950
950
951
954
959
960
959
960
959
957
963
963
964
960
958
956
958
963
973
997
1033
1081
1133
1186
1229
1245
1220
1164
1095
1029
962
913
895
896
905
914
929
944
954
957
954
961
964
962
962
960
958
959
960
959
953
949
952
957
960
962
958
960
964
971
972
969
970
974
977
982
984
983
982
981
979
980
979
985
989
991
994
995
996
998
993
993
997
997
996
995
990
994
996
1000
1008
1010
1008
1006
1009
1012
1015
1016
1017
1015
1016
1018
1020
1015
1009
1002
1004
1007
1004
999
994
988
988
989
984
980
974
970
970
971
964
967
964
960
961
958
963
960
957
957
960
962
963
963
963
963
961
968
971
967
965
963
968
972
972
970
973
973
974
975
975
974
972
979
996
1024
1069
1129
1190
1253
1308
1336
1313
1237
1135
1039
955
910
914
936
959
971
974
977
976
965
963
965
964
963
961
961
959
955
957
959
960
960
963
959
963
966
971
974
976
976
977
976
976
976
976
977
981
982
980
976
977
978
981
983
983
982
982
986
989
990
989
989
985
982
985
987
987
987
986
989
992
996
1002
1004
1005
1008
1007
1010
1011
1014
1015
1016
1014
1016
1016
1016
1014
1013
1013
1008
1005
1004
1001
999
998
996
993
988
986
984
982
981
980
980
976
973
974
974
978
978
978
973
975
975
974
976
973
974
971
976
977
975
977
978
980
982
982
980
978
978
977
982
982
982
985
1004
1036
1078
1127
1177
1232
1279
1316
1327
1294
1217
1124
1036
960
916
920
944
965
980
989
989
984
982
979
973
969
968
969
971
969
966
972
973
973
973
975
977
982
988
988
984
981
983
985
987
991
990
988
985
985
987
992
994
993
992
993
993
995
993
991
988
989
995
994
991
985
984
984
990
993
993
988
989
994
999
1003
1000
998
997
1001
1004
1009
1008
1007
1005
1009
1009
1014
1013
1009
1008
1010
1010
1007
1007
1006
1005
1003
1000
995
992
989
987
987
985
983
982
979
975
977
980
980
979
976
976
975
979
978
977
975
975
979
983
983
982
979
980
986
989
993
988
983
984
986
987
989
990
987
988
994
1003
1023
1049
1089
1133
1187
1244
1291
1319
1315
1274
1199
1115
1035
965
925
925
944
966
979
984
987
989
987
988
986
979
977
975
977
979
982
979
980
979
982
985
990
989
988
987
989
993
996
993
991
990
993
992
992
988
987
987
990
992
990
990
989
993
993
996
993
992
990
987
991
991
990
982
981
983
987
992
996
999
998
997
1000
1001
1001
1001
1001
1003
1006
1009
1012
1014
1014
1014
1015
1016
1018
1014
1011
1007
1009
1012
1009
1006
1003
997
996
998
989
989
985
985
987
986
984
982
979
979
983
989
991
988
986
981
984
987
989
984
978
980
984
988
990
988
989
986
989
996
996
996
995
995
997
1000
1010
1028
1061
1098
1150
1203
1255
1304
1333
1323
1263
1171
1073
992
938
927
950
975
991
1000
998
993
994
990
985
979
975
976
979
982
981
977
978
980
987
993
994
995
993
990
990
992
994
993
990
991
989
994
990
996
993
992
993
994
993
990
992
988
986
988
987
984
983
982
987
990
996
994
992
990
990
995
997
998
999
997
998
1002
1004
1004
1003
1006
1010
1012
1012
1010
1011
1011
1009
1010
1011
1011
1011
1009
1007
1005
1002
998
991
988
989
992
991
988
984
986
987
990
990
987
986
987
988
988
991
986
984
988
986
988
988
991
989
986
983
985
990
991
989
989
989
993
997
998
992
997
1008
1031
1066
1110
1155
1204
1261
1305
1326
1307
1246
1159
1074
998
939
923
935
957
979
994
1000
999
996
992
986
983
980
982
983
978
983
984
985
985
983
987
991
994
996
996
999
996
999
1002
1002
1001
1001
1002
1001
1002
1004
1005
1009
1007
1005
1010
1010
1012
1007
1004
1003
1002
1002
998
999
999
1000
1001
1001
1003
1004
1005
1008
1009
1013
1017
1014
1014
1018
1025
1028
1025
1027
1026
1031
1030
1030
1030
1029
1031
1034
1033
1032
1025
1019
1021
1024
1016
1014
1013
1010
1006
1003
1003
1004
1001
1000
1000
997
995
994
992
993
994
993
995
994
993
990
991
988
991
992
991
991
990
991
993
996
1002
1003
1004
1002
1001
1001
1003
1000
1003
1005
1019
1041
1073
1111
1158
1208
1266
1310
1332
1317
1253
1161
1069
988
933
923
945
976
994
1003
1004
1004
999
999
999
996
994
990
985
990
993
996
994
989
987
983
990
994
1000
1000
1000
1003
1004
1004
1008
1006
1003
1004
1007
1008
1009
1008
1006
1010
1013
1013
1013
1007
1009
1009
1010
1014
1013
1009
1008
1005
1006
1006
1005
1002
1004
1008
1011
1014
1012
1009
1010
1010
1013
1014
1013
1013
1012
1011
1013
1021
1023
1017
1023
1023
1024
1023
1021
1018
1017
1019
1017
1015
1012
1010
1007
1003
1003
1004
1004
999
998
995
992
994
993
992
988
988
990
989
990
988
990
990
992
992
987
984
987
992
996
997
993
988
990
992
994
999
994
996
996
997
1001
1001
998
995
1001
1015
1038
1069
1110
1153
1204
1248
1283
1282
1243
1178
1102
1022
949
915
916
928
945
960
974
983
983
982
979
981
983
984
986
983
981
982
982
979
977
981
983
984
985
986
987
986
991
993
996
1000
996
997
995
998
1004
1008
1009
1005
1004
1004
1010
1011
1014
1014
1013
1012
1011
1013
1011
1010
1011
1013
1014
1014
1015
1015
1011
1012
1017
1024
1023
1020
1017
1026
1029
1030
1034
1036
1035
1039
1045
1050
1048
1043
1040
1038
1035
1027
1021
1021
1021
1018
1014
1008
1003
1001
998
997
996
995
993
986
986
991
991
991
987
984
978
982
982
983
981
981
981
980
987
995
996
992
991
989
986
985
982
980
977
979
983
985
985
981
986
988
994
1002
1018
1042
1072
1112
1161
1212
1257
1284
1277
1228
1155
1075
999
936
908
916
939
959
971
974
978
975
973
977
973
968
966
967
970
972
970
972
977
981
979
978
976
977
980
986
986
987
983
983
980
981
980
981
980
978
983
988
988
988
984
980
982
983
985
983
980
976
975
977
976
978
981
982
985
988
991
992
990
987
985
988
991
993
998
997
996
996
996
997
997
997
999
1005
1009
1007
1001
996
994
991
990
989
989
986
985
979
978
973
974
975
974
974
974
975
971
968
964
960
964
969
969
967
969
971
971
971
970
966
969
972
972
966
965
967
972
975
977
982
984
984
980
979
981
988
987
985
993
1009
1033
1067
1104
1144
1186
1238
1279
1295
1266
1197
1106
1013
937
901
906
927
951
964
972
972
973
970
971
971
972
975
975
973
970
970
973
974
973
978
976
980
983
981
983
983
982
980
979
978
979
979
982
986
991
992
987
978
972
977
986
992
991
988
987
988
984
981
980
985
990
995
999
1001
998
998
1000
1004
1009
1011
1008
1008
1010
1011
1017
1020
1021
1019
1016
1011
1014
1016
1015
1009
1002
1003
1002
1003
1002
997
995
993
991
988
984
984
978
979
984
984
981
979
981
989
994
994
983
978
979
981
985
988
982
981
982
990
993
995
988
986
984
983
987
985
986
988
991
994
998
1012
1030
1061
1101
1146
1196
1240
1266
1273
1247
1182
1096
1011
940
905
905
923
943
954
963
969
975
981
981
977
979
984
983
984
985
984
987
990
988
987
988
991
987
984
983
985
986
993
992
987
987
988
993
994
991
988
988
984
980
982
985
988
988
990
993
992
991
991
990
990
993
997
994
995
1000
999
1000
1002
1003
1006
1011
1015
1020
1023
1025
1023
1021
1024
1027
1032
1035
1031
1030
1026
1027
1023
1021
1018
1015
1013
1015
1013
1011
1007
1007
1005
1009
1016
1017
1013
1005
1003
1007
1008
1010
1009
1005
1008
1014
1015
1011
1006
1002
1003
1014
1011
1008
1004
1004
1009
1013
1013
1016
1013
1018
1015
1012
1010
1016
1025
1029
1023
1016
1018
1029
1049
1071
1101
1139
1184
1235
1280
1310
1322
1297
1233
1144
1048
960
914
915
943
972
993
1001
1006
1011
1012
1009
1009
1009
1012
1009
1005
1002
1000
1004
1005
1007
1007
1003
1001
995
997
1003
1005
998
994
993
993
995
996
998
996
999
999
1000
996
993
991
997
1001
1008
1013
1011
1010
1004
1007
1008
1011
1014
1015
1016
1016
1019
1019
1018
1018
1020
1024
1029
1031
1031
1029
1033
1038
1043
1041
1037
1036
1036
1041
1044
1041
1039
1037
1031
1031
1031
1030
1029
1026
1019
1018
1015
1012
1009
1007
1008
1008
1009
1010
1007
1002
997
999
1006
1007
1006
1005
1007
1006
1010
1015
1018
1014
1013
1014
1013
1016
1017
1016
1015
1016
1015
1021
1018
1012
1015
1023
1027
1033
1043
1064
1096
1137
1188
1238
1282
1320
1341
1324
1266
1170
1066
975
925
928
955
981
997
1003
1008
1010
1011
1012
1010
1006
1006
1003
1003
1003
1003
999
994
991
990
992
992
992
987
987
986
989
990
993
990
989
991
996
996
997
997
998
1000
997
998
989
993
998
1004
1004
1002
1002
998
1003
1009
1010
1010
1006
1008
1011
1013
1015
1014
1013
1014
1010
1019
1021
1021
1018
1018
1022
1025
1023
1022
1017
1014
1015
1015
1017
1013
1008
1003
1000
1001
998
1001
997
994
994
993
995
996
995
993
994
996
998
998
997
995
994
994
993
994
996
996
997
1000
1000
1000
998
997
1000
1001
1007
1007
1003
1002
1005
1009
1015
1021
1035
1059
1097
1143
1188
1232
1279
1318
1333
1305
1223
1107
1002
931
914
941
971
993
1003
1007
1008
1010
1009
1004
999
995
998
998
996
995
989
987
989
989
991
991
993
991
992
995
997
992
990
990
993
996
995
997
996
995
998
1001
1003
1003
1000
1000
1002
1007
1008
1010
1009
1007
1009
1012
1016
1018
1016
1016
1021
1023
1026
1026
1027
1028
1029
1031
1036
1037
1039
1039
1037
1037
1040
1040
1037
1035
1036
1037
1035
1032
1031
1026
1025
1022
1024
1022
1018
1015
1012
1014
1017
1017
1014
1013
1013
1013
1014
1015
1015
1015
1011
1014
1016
1017
1017
1018
1017
1018
1021
1019
1014
1012
1016
1016
1020
1021
1016
1016
1017
1020
1022
1019
1021
1023
1024
1029
1031
1029
1026
1027
1028
1030
1030
1031
1031
1025
1024
1027
1030
1031
1026
1022
1023
1023
1022
1020
1019
1013
1008
1006
1012
1012
1010
1008
1011
1011
1009
1009
1008
1008
1009
1011
1011
1011
1008
1007
1010
1012
1014
1014
1012
1010
1011
1012
1015
1012
1002
999
995
1000
1009
1028
1056
1088
1130
1185
1241
1284
1299
1274
1211
1126
1033
960
930
937
955
973
985
993
996
999
1003
1006
1005
1003
999
1000
1000
1004
1006
1006
1003
1003
1003
1004
1007
1008
1005
1002
1007
1006
1010
1009
1009
1007
1010
1013
1017
1013
1011
1013
1016
1021
1025
1024
1023
1021
1023
1023
1028
1031
1032
1030
1031
1035
1038
1039
1037
1038
1039
1043
1048
1044
1046
1044
1048
1050
1053
1054
1051
1050
1052
1054
1059
1060
1060
1058
1058
1058
1056
1056
1049
1049
1050
1049
1046
1044
1041
1040
1040
1040
1039
1039
1036
1034
1036
1040
1043
1039
1038
1034
1030
1030
1038
1040
1039
1036
1039
1045
1044
1042
1039
1030
1028
1032
1034
1037
1031
1033
1034
1037
1039
1039
1036
1038
1040
1041
1049
1047
1042
1036
1030
1033
1036
1039
1033
1029
1031
1035
1037
1030
1027
1029
1030
1029
1029
1027
1024
1022
1021
1025
1027
1027
1025
1025
1027
1029
1030
1029
1024
1022
1020
1021
1021
1017
1018
1019
1021
1022
1023
1019
1018
1017
1013
1014
1018
1022
1022
1022
1018
1018
1019
1026
1028
1028
1031
1033
1035
1036
1037
1033
1030
1029
1033
1033
1034
1031
1030
1029
1030
1029
1024
1015
1017
1023
1029
1031
1026
1024
1025
1026
1026
1024
1022
1021
1017
1014
1016
1014
1009
1013
1016
1021
1022
1018
1011
1008
1008
1013
1014
1019
1017
1017
1012
1009
1007
1006
1008
1014
1028
1050
1076
1112
1155
1202
1247
1267
1252
1217
1165
1098
1019
965
944
946
950
956
964
975
989
996
995
995
998
1007
1012
1014
1013
1010
1010
1010
1011
1015
1015
1017
1017
1021
1019
1015
1013
1014
1018
1027
1028
1024
1020
1020
1027
1037
1036
1028
1016
1012
1015
1021
1030
1032
1032
1030
1029
1038
1041
1045
1044
1043
1047
1043
1042
1043
1047
1047
1047
1048
1052
1061
1063
1060
1056
1060
1063
1063
1064
1057
1057
1060
1063
1069
1069
1067
1062
1064
1066
1066
1064
1063
1065
1067
1064
1061
1060
1055
1052
1054
1054
1050
1042
1038
1041
1044
1041
1038
1040
1040
1043
1043
1037
1031
1031
1034
1036
1036
1037
1031
1031
1036
1044
1048
1046
1045
1042
1037
1032
1033
1037
1039
1035
1032
1031
1035
1034
1036
1035
1035
1033
1036
1036
1038
1038
1037
1038
1036
1034
1037
1034
1034
1035
1038
1040
1041
1043
1042
1044
1046
1051
1052
1050
1049
1049
1054
1056
1048
1039
1039
1043
1050
1049
1037
1035
1039
1043
1046
1047
1050
1046
1040
1036
1037
1038
1039
1039
1038
1035
1035
1036
1036
1037
1039
1037
1027
1024
1023
1026
1032
