955
952
947
946
951
953
946
932
927
937
960
980
1011
1050
1102
1157
1208
1235
1229
1188
1137
1063
974
897
864
866
873
881
898
919
935
942
941
947
957
960
957
946
937
936
939
944
947
950
949
953
956
960
957
952
951
951
961
971
970
963
955
956
960
964
963
964
962
963
966
970
973
975
977
981
989
991
989
981
982
986
991
996
999
1002
1004
1010
1014
1015
1007
1000
999
1000
1007
1013
1014
1015
1014
1013
1013
1014
1016
1014
1010
1007
1011
1015
1015
1010
1007
1005
999
998
994
992
992
988
984
980
980
979
975
975
973
979
979
977
972
973
970
964
955
949
941
947
949
952
947
950
950
950
950
955
953
951
952
953
955
957
957
953
955
955
959
960
965
963
961
960
963
965
967
966
964
964
969
970
974
971
971
976
977
972
962
963
970
973
975
977
975
972
973
970
970
971
973
971
968
970
972
972
969
965
964
964
969
971
973
968
964
964
969
976
977
975
971
970
973
975
976
975
973
970
966
964
959
954
950
952
953
953
953
958
956
948
945
950
953
955
954
954
956
958
957
958
952
947
946
952
958
969
989
1016
1052
1097
1143
1189
1226
1252
1252
1215
1157
1081
994
914
872
870
880
884
890
906
925
940
946
950
954
955
957
959
961
956
951
950
959
960
962
964
963
964
967
972
976
973
964
960
962
967
968
968
964
970
977
982
983
984
979
972
970
975
975
977
980
989
993
998
999
993
986
989
994
995
998
999
1000
1005
1011
1017
1018
1019
1019
1022
1025
1029
1029
1028
1028
1028
1029
1034
1036
1035
1035
1038
1041
1048
1055
1056
1047
1031
1022
1021
1021
1022
1016
1008
1003
999
998
998
1000
997
997
997
995
986
982
981
983
984
986
981
975
973
980
984
985
981
981
979
979
983
984
981
981
982
985
988
986
984
983
981
982
983
980
979
980
981
980
982
983
979
979
981
982
982
979
978
978
979
980
983
984
981
979
980
984
990
990
990
989
993
998
1003
1007
1005
1005
1003
1007
1007
1009
1008
1006
1004
1007
1013
1013
1006
996
989
989
990
990
990
992
994
990
989
984
991
994
992
981
981
979
979
978
977
978
980
981
980
979
979
978
981
984
986
982
979
980
983
987
988
989
988
991
991
991
991
999
1009
1024
1046
1085
1136
1192
1240
1269
1267
1217
1141
1052
966
894
864
872
896
916
937
952
961
964
967
968
973
980
980
983
981
980
981
985
989
986
984
983
984
984
988
993
991
994
994
994
994
995
992
997
1002
1006
1008
1005
1004
998
998
1000
1005
1008
1010
1012
1015
1016
1024
1023
1019
1018
1018
1023
1025
1031
1030
1033
1035
1038
1043
1048
1048
1046
1051
1052
1057
1058
1055
1055
1058
1062
1062
1064
1067
1069
1071
1072
1070
1063
1055
1051
1044
1039
1041
1042
1041
1038
1031
1023
1014
1009
1011
1012
1010
1011
1011
1012
1005
1001
1003
1005
1004
1006
1003
1004
1005
1006
1010
1009
1006
999
999
1000
1002
1002
999
995
994
1001
1002
1003
999
1000
1002
1005
1006
1003
998
996
994
997
1000
1001
1006
1008
1008
1006
1000
995
1001
1005
1008
1005
1001
1002
1003
1008
1006
1007
1012
1016
1010
1009
1010
1012
1013
1018
1023
1025
1026
1027
1027
1026
1025
1022
1023
1029
1034
1030
1022
1012
1016
1015
1013
1009
1009
1014
1016
1015
1017
1019
1019
1018
1010
1003
999
999
998
995
991
994
995
999
1000
998
1002
1006
1009
1011
1010
1008
1008
1010
1010
1010
1006
1004
1003
1002
1001
999
1000
997
992
988
996
1007
1025
1046
1073
1111
1153
1201
1247
1273
1272
1246
1200
1138
1060
973
913
898
907
918
925
943
960
975
987
994
994
997
1001
1004
1005
1005
1006
1005
1003
1003
1005
1007
1011
1011
1012
1008
1008
1014
1019
1017
1014
1013
1017
1016
1018
1017
1021
1022
1022
1020
1017
1016
1018
1019
1025
1027
1027
1026
1036
1044
1043
1039
1038
1041
1048
1049
1050
1054
1057
1058
1057
1062
1066
1067
1066
1064
1064
1070
1075
1077
1073
1072
1073
1076
1079
1083
1077
1071
1068
1068
1072
1069
1065
1054
1049
1051
1048
1044
1041
1041
1037
1039
1036
1031
1030
1023
1017
1013
1015
1016
1018
1009
1002
1004
1006
1012
1015
1012
1011
1011
1014
1014
1014
1012
1010
1013
1014
1015
1014
1007
1004
1005
1014
1019
1020
1016
1017
1020
1021
1019
1016
1011
1011
1013
1014
1013
1011
1007
1007
1006
1011
1015
1020
1022
1022
1021
1017
1015
1016
1019
1027
1036
1038
1034
1027
1027
1033
1042
1037
1036
1033
1032
1031
1031
1031
1033
1033
1032
1034
1035
1034
1030
1025
1022
1021
1021
1025
1028
1029
1027
1024
1023
1023
1019
1016
1014
1014
1013
1011
1009
1014
1017
1020
1015
1009
1007
1005
1008
1009
1010
1012
1010
1014
1013
1013
1011
1008
1002
994
997
1008
1031
1062
1097
1135
1178
1229
1277
1298
1290
1247
1181
1103
1013
944
920
921
926
936
954
975
989
988
985
986
991
1002
1008
1007
1003
1001
1005
1011
1015
1017
1018
1020
1023
1025
1029
1028
1031
1032
1033
1029
1029
1027
1029
1029
1030
1030
1035
1036
1035
1030
1033
1039
1041
1035
1028
1028
1038
1044
1044
1044
1045
1048
1053
1058
1058
1059
1065
1073
1080
1084
1082
1075
1070
1072
1071
1067
1070
1071
1073
1075
1080
1088
1089
1085
1079
1078
1078
1080
1079
1079
1076
1072
1070
1069
1067
1058
1052
1048
1045
1049
1044
1041
1030
1025
1025
1023
1022
1016
1010
1009
1010
1012
1012
1007
1002
1000
1002
1007
1008
1005
1004
1000
999
1002
1009
1015
1010
1000
993
1000
1009
1010
1004
998
1002
1008
1012
1014
1008
1008
1012
1014
1013
1015
1011
1009
1008
1012
1019
1019
1016
1013
1013
1016
1020
1020
1013
1014
1019
1021
1023
1024
1020
1017
1014
1015
1017
1016
1017
1022
1027
1036
1031
1026
1021
1018
1019
1018
1021
1024
1026
1024
1022
1015
1014
1013
1007
1006
1000
1006
1007
1009
1006
1005
1007
1010
1013
1012
1008
1008
1007
1009
1004
995
987
987
993
993
993
992
994
995
999
999
998
998
991
992
996
1001
1000
995
989
986
986
988
997
1010
1031
1063
1109
1167
1222
1263
1273
1246
1182
1098
1002
915
879
884
904
928
946
960
968
974
983
989
993
991
989
987
987
985
982
979
983
981
981
981
987
989
986
984
981
984
987
985
985
983
984
986
986
986
987
987
994
998
1000
1000
999
997
997
1000
1005
1006
1006
1009
1008
1009
1013
1010
1013
1017
1021
1026
1025
1029
1034
1040
1046
1043
1033
1030
1032
1032
1035
1035
1032
1030
1026
1024
1024
1030
1032
1025
1021
1021
1021
1025
1020
1016
1011
1007
1006
1010
1010
1008
1002
997
995
1002
999
1000
995
990
989
990
989
986
989
991
990
991
994
996
994
987
985
986
987
989
989
988
986
986
982
985
986
988
987
987
993
995
995
995
992
995
997
997
996
994
996
999
1005
1007
1003
1000
996
996
1002
996
992
991
1000
1007
1008
1005
1002
1001
1007
1009
1008
1004
998
1000
1003
1006
1009
1006
1003
1003
1005
1011
1010
1008
1002
996
994
994
993
991
991
991
991
988
987
982
977
974
973
975
975
976
979
979
980
983
984
984
981
980
981
985
985
986
984
984
982
981
980
976
976
981
996
1022
1050
1083
1128
1174
1224
1259
1265
1238
1183
1110
1026
939
885
876
887
901
915
935
956
965
967
971
976
981
980
975
976
976
980
978
977
978
980
984
986
986
986
986
985
989
994
996
997
993
991
994
995
993
993
993
993
996
1000
1006
1009
1011
1010
1006
1009
1013
1021
1023
1027
1026
1032
1040
1049
1051
1051
1046
1049
1056
1061
1065
1066
1065
1069
1078
1081
1072
1066
1063
1067
1068
1065
1060
1056
1055
1056
1052
1044
1034
1026
1021
1020
1021
1019
1016
1007
1002
1000
1003
1007
1006
1004
1002
1002
1000
997
998
997
993
990
983
983
983
982
985
985
989
994
995
986
976
975
979
983
984
985
986
987
983
984
986
986
987
986
987
990
989
989
991
991
995
998
997
998
1001
993
984
975
971
975
987
1025
1074
1130
1190
1251
1296
1300
1254
1160
1055
951
885
877
914
959
984
997
1002
1001
999
997
994
991
991
988
991
989
990
990
985
987
993
992
988
983
979
980
983
981
974
968
964
960
962
959
956
958
959
963
965
965
966
964
962
963
969
970
968
967
968
969
969
971
973
973
975
979
981
985
983
977
977
980
985
989
991
990
988
988
988
990
989
987
983
984
982
982
979
971
962
958
957
961
955
947
947
944
946
941
939
934
934
936
937
938
934
929
929
930
933
934
932
930
930
930
930
932
930
930
929
932
932
934
936
937
939
941
941
940
937
934
935
936
943
942
939
930
928
924
927
930
931
928
927
927
927
929
932
933
934
934
937
941
942
943
945
948
948
950
950
949
945
942
943
944
941
938
936
938
939
941
938
930
921
916
913
912
913
907
906
907
909
912
910
909
908
909
911
910
910
907
906
905
908
908
907
909
909
912
909
910
904
896
894
893
898
909
924
953
991
1042
1096
1151
1192
1201
1175
1118
1045
954
863
809
803
815
829
847
862
885
891
893
894
894
897
898
900
902
902
898
895
892
895
898
900
907
909
912
915
916
918
922
920
919
918
922
928
930
927
923
927
929
930
935
934
929
928
931
937
944
949
947
948
948
952
956
955
953
950
952
960
970
971
967
970
977
982
987
986
985
986
988
995
1001
1001
997
998
999
1006
1013
1010
1001
993
994
990
987
980
973
966
961
951
947
939
935
933
933
934
931
929
924
924
924
929
928
927
926
927
929
934
931
927
919
918
923
930
935
936
933
931
930
933
938
939
939
936
933
941
940
940
933
936
936
933
932
931
934
936
934
934
935
935
931
932
936
939
940
940
940
937
934
938
935
924
922
931
960
1012
1079
1152
1212
1230
1200
1140
1057
960
875
837
844
867
886
906
923
933
939
944
946
948
953
954
946
939
938
938
939
940
947
954
956
961
954
951
954
959
964
964
964
964
971
974
976
978
981
982
985
988
992
995
993
991
991
993
997
999
997
995
994
993
992
992
991
991
995
1002
1004
1001
995
996
1002
1010
1011
1013
1015
1015
1018
1020
1022
1022
1014
1012
1011
1012
1010
1009
1002
1003
1002
1000
998
992
984
984
985
986
983
983
977
974
971
970
971
970
969
969
971
973
969
966
964
965
970
974
977
975
971
969
969
973
973
973
968
970
975
977
976
975
974
975
981
985
986
981
970
971
977
987
998
1020
1056
1095
1149
1212
1269
1316
1322
1281
1203
1115
1027
938
878
874
905
939
964
978
982
980
979
985
986
983
976
979
984
982
984
982
986
985
989
995
1001
1007
1005
998
999
998
1005
1007
1010
1010
1012
1018
1017
1018
1018
1020
1018
1018
1021
1021
1023
1024
1024
1026
1029
1029
1024
1023
1019
1018
1020
1020
1020
1022
1025
1028
1035
1034
1039
1042
1042
1041
1041
1038
1032
1026
1031
1040
1048
1049
1052
1052
1051
1052
1050
1049
1046
1046
1047
1049
1045
1034
1024
1017
1019
1019
1014
1007
1007
1010
1006
1005
1006
1011
1010
1008
1008
1010
1009
1006
1003
1005
1004
1005
1008
1007
1003
1001
1004
1009
1009
1012
1014
1014
1011
1009
1009
1010
1012
1013
1012
1008
1011
1013
1018
1021
1019
1018
1015
1011
1008
1013
1017
1023
1040
1068
1105
1146
1195
1249
1295
1323
1325
1294
1231
1161
1084
1002
937
914
926
947
973
991
1009
1019
1024
1024
1018
1019
1020
1021
1022
1020
1026
1026
1021
1019
1023
1027
1030
1029
1027
1024
1028
1031
1035
1034
1034
1030
1030
1032
1037
1036
1035
1036
1036
1036
1031
1028
1025
1029
1034
1039
1034
1032
1032
1034
1039
1045
1049
1044
1042
1039
1042
1050
1057
1059
1055
1046
1042
1046
1054
1057
1057
1060
1061
1058
1062
1063
1062
1058
1061
1064
1067
1060
1058
1057
1057
1059
1059
1053
1049
1045
1043
1040
1037
1034
1031
1029
1033
1032
1026
1024
1024
1026
1030
1031
1026
1026
1025
1025
1024
1026
1029
1034
1032
1025
1027
1028
1029
1027
1026
1026
1024
1029
1030
1029
1029
1028
1029
1036
1045
1047
1044
1035
1034
1038
1040
1038
1040
1044
1047
1051
1050
1043
1035
1032
1051
1081
1117
1152
1199
1251
1309
1347
1354
1316
1249
1173
1093
1013
961
957
976
995
1016
1036
1051
1054
1057
1061
1062
1055
1051
1052
1052
1047
1041
1040
1045
1044
1036
1027
1030
1037
1038
1029
1021
1022
1026
1029
1028
1023
1025
1028
1031
1037
1042
1044
1046
1046
1043
1041
1039
1036
1041
1047
1049
1051
1053
1059
1065
1069
1066
1066
1067
1065
1063
1061
1065
1063
1068
1070
1072
1071
1069
1068
1073
1077
1080
1080
1080
1081
1081
1078
1077
1080
1084
1086
1091
1089
1084
1084
1083
1072
1062
1060
1062
1063
1062
1053
1047
1043
1052
1053
1052
1048
1043
1041
1048
1052
1048
1045
1048
1051
1047
1046
1049
1050
1048
1046
1044
1042
1049
1057
1064
1065
1063
1058
1054
1048
1052
1059
1057
1051
1055
1064
1070
1066
1059
1058
1056
1062
1071
1072
1072
1069
1078
1085
1092
1088
1076
1068
1063
1066
1070
1073
1072
1072
1073
1072
1075
1072
1064
1058
1056
1062
1067
1066
1061
1058
1062
1064
1061
1050
1036
1038
1045
1050
1045
1043
1041
1046
1052
1054
1050
1045
1040
1033
1038
1038
1039
1036
1034
1041
1045
1047
1045
1043
1041
1042
1040
1043
1043
1035
1027
1017
1019
1029
1036
1036
1057
1102
1154
1207
1252
1286
1315
1331
1324
1287
1213
1120
1023
945
916
911
918
929
944
960
980
994
1006
1013
1015
1015
1019
1023
1023
1018
1014
1012
1011
1017
1027
1026
1021
1014
1012
1011
1014
1018
1019
1020
1016
1016
1015
1011
1009
1010
1015
1019
1027
1033
1038
1039
1033
1033
1037
1039
1042
1041
1041
1042
1041
1036
1038
1041
1046
1048
1046
1046
1048
1047
1052
1063
1069
1070
1069
1069
1072
1073
1076
1076
1074
1078
1080
1078
1075
1071
1062
1063
1065
1068
1067
1064
1058
1055
1052
1050
1049
1043
1038
1030
1024
1021
1015
1010
1006
1004
1002
1000
996
996
996
995
994
993
994
989
990
989
989
991
990
992
993
994
998
1003
1005
996
987
982
985
991
995
999
1001
1000
999
1000
1003
1006
1002
1000
1004
1006
1006
1000
1001
1004
1006
1002
996
994
994
997
1001
1001
1001
999
994
995
998
1000
1001
999
992
994
995
994
995
995
996
996
997
998
1000
999
993
987
987
991
1007
1034
1067
1108
1157
1213
1264
1295
1298
1266
1204
1131
1048
964
903
887
900
925
945
969
983
983
984
987
992
992
993
996
1000
1004
1008
1016
1016
1014
1010
1013
1011
1010
1011
1012
1013
1013
1016
1015
1013
1015
1016
1017
1018
1019
1015
1013
1010
1014
1012
1009
1008
1006
1008
1010
1013
1013
1013
1013
1014
1018
1024
1024
1024
1024
1026
1026
1030
1031
1032
1033
1034
1034
1037
1038
1038
1039
1041
1044
1047
1048
1042
1037
1036
1034
1035
1035
1028
1025
1021
1020
1019
1016
1009
1004
1001
1004
1005
1000
994
988
987
988
990
986
985
985
987
989
991
990
987
988
988
989
993
992
987
984
985
988
989
987
986
985
986
989
993
994
993
991
991
993
997
994
993
992
993
995
998
997
998
999
1000
1002
1003
1003
1006
1015
1036
1069
1107
1147
1197
1245
1293
1326
1325
1271
1176
1067
968
893
873
896
935
963
985
1001
1009
1014
1012
1007
1006
1004
1004
1007
1006
1006
1009
1006
1005
1004
1004
1003
1005
1006
1007
1006
1002
997
994
993
990
986
982
981
982
982
984
985
986
987
987
992
995
997
995
995
999
1001
1003
1003
1002
1003
1004
1008
1015
1015
1018
1019
1018
1022
1024
1029
1028
1026
1022
1017
1019
1019
1019
1021
1025
1028
1028
1025
1021
1022
1021
1020
1021
1019
1011
1007
1003
1002
1000
996
992
988
989
990
993
986
980
978
979
981
979
979
976
979
980
982
983
982
980
980
980
981
984
986
988
987
987
987
987
980
979
980
980
982
986
985
989
987
987
987
991
990
988
987
990
994
994
993
999
1016
1047
1089
1138
1191
1246
1295
1319
1298
1224
1120
1017
930
889
902
938
971
989
1002
1006
1007
1007
1000
995
992
993
994
996
995
990
987
987
987
989
986
984
981
979
978
977
976
975
973
974
981
985
986
984
984
985
987
991
992
992
991
992
992
993
992
988
986
985
987
990
991
991
991
992
994
995
998
1000
1003
1003
1004
1009
1011
1012
1012
1010
1015
1018
1022
1022
1020
1020
1020
1021
1020
1015
1011
1009
1007
1004
1003
998
996
991
988
986
981
979
976
980
982
980
976
970
969
968
970
976
979
977
975
975
977
977
977
976
976
974
977
984
984
981
979
979
980
982
978
980
977
978
978
977
976
976
974
976
974
976
978
977
978
979
980
980
979
980
983
987
990
993
993
994
990
992
996
997
998
995
992
992
992
992
990
990
989
985
989
986
981
977
973
973
973
973
970
967
969
971
973
974
973
968
970
971
972
975
977
974
972
974
975
978
977
974
974
975
980
981
979
976
971
971
967
963
964
970
988
1014
1051
1096
1145
1197
1237
1258
1252
1210
1145
1066
982
909
880
884
901
917
930
948
966
978
981
979
980
980
981
981
979
977
980
982
989
992
987
985
983
982
986
987
988
985
981
978
982
988
992
986
983
985
987
993
994
990
990
987
994
997
998
994
995
1001
1006
1010
1013
1011
1011
1013
1012
1014
1014
1016
1019
1022
1025
1032
1033
1033
1031
1028
1030
1031
1031
1031
1038
1042
1048
1055
1055
1053
1050
1045
1050
1051
1051
1043
1038
1035
1036
1039
1039
1034
1028
1027
1028
1027
1026
1023
1016
1010
1004
998
991
994
995
996
994
993
992
991
986
983
985
985
989
989
986
984
982
978
982
979
982
979
981
981
980
979
974
967
966
967
969
971
979
978
973
972
977
979
982
982
984
985
983
977
972
973
973
978
981
977
972
970
972
976
978
972
974
975
977
975
967
960
958
969
997
1039
1093
1149
1209
1256
1266
1228
1154
1064
976
905
874
884
911
937
954
963
967
968
977
979
978
977
984
990
994
990
983
983
986
988
988
980
984
989
991
990
984
981
980
979
982
988
990
988
986
990
995
1001
1008
1010
1010
1012
1017
1018
1016
1011
1009
1016
1024
1030
1026
1023
1019
1017
1016
1017
1016
1011
1010
1009
1010
1014
1017
1015
1014
1012
1009
1011
1013
1012
1014
1012
1008
1004
995
992
988
990
987
988
986
983
979
978
974
975
968
961
960
961
969
975
973
967
969
966
962
955
947
945
951
958
962
961
957
952
956
954
953
954
955
953
953
954
957
959
962
964
956
955
958
959
959
958
957
954
956
962
970
985
1003
1040
1086
1144
1195
1238
1267
1260
1201
1109
1010
921
852
834
858
892
923
938
952
952
954
956
956
953
947
948
955
