980
981
984
985
986
991
989
988
984
986
987
985
983
984
984
987
989
997
1007
1022
1044
1068
1094
1125
1162
1204
1244
1277
1292
1280
1243
1189
1125
1063
1018
987
976
973
981
988
988
983
977
971
963
958
955
953
954
955
952
946
948
949
950
950
945
947
948
946
946
947
944
943
943
941
945
947
946
944
944
940
939
937
934
933
933
934
933
931
930
931
932
928
925
926
923
920
923
920
922
920
918
921
923
923
924
925
925
929
931
936
940
941
943
948
949
953
957
960
965
970
974
978
981
983
983
981
982
980
978
974
973
968
968
968
970
970
970
968
966
963
963
965
966
971
975
980
978
978
979
979
977
979
979
980
977
976
980
979
980
981
982
985
986
988
989
991
996
1004
1017
1037
1061
1091
1122
1159
1199
1241
1276
1301
1303
1287
1245
1189
1124
1061
1012
979
970
975
983
989
990
989
982
976
970
967
963
961
960
960
958
959
960
957
955
955
952
956
956
957
956
956
957
952
951
948
948
947
949
949
951
949
945
944
942
940
942
940
942
941
941
943
942
938
937
934
933
935
934
933
930
929
928
929
928
928
931
931
928
926
924
927
927
929
932
935
939
941
941
943
945
948
951
955
962
968
973
979
981
982
984
987
988
986
985
987
987
988
985
986
982
977
976
975
972
973
972
974
976
976
980
984
986
988
990
988
987
987
988
987
989
994
993
992
992
992
991
991
992
989
992
993
998
1002
1008
1020
1035
1054
1081
1113
1144
1182
1223
1264
1302
1325
1331
1314
1270
1212
1143
1079
1033
1002
991
989
997
1006
1008
1003
996
983
978
973
969
967
966
967
966
968
969
969
967
967
966
963
962
962
961
960
960
961
961
964
962
961
958
954
950
948
951
949
951
951
949
948
948
947
947
942
942
942
939
940
939
940
936
933
932
935
935
936
933
932
933
931
934
938
940
944
946
947
951
951
953
957
960
967
976
983
989
994
992
992
995
996
996
995
995
996
998
1002
1001
1003
1004
1007
1005
1004
1001
998
993
993
994
997
1000
1002
1001
1001
1000
999
999
997
998
996
992
998
998
1002
1000
1000
1001
1000
1000
999
998
997
999
1000
999
1000
999
995
998
998
1000
999
997
996
997
999
1000
1002
1002
1001
1000
999
999
995
994
993
994
997
1002
1001
1001
997
994
993
992
992
991
993
993
995
999
1000
1000
998
998
995
995
995
994
994
997
995
996
998
998
998
998
995
994
992
992
990
990
992
994
999
999
998
994
994
995
994
992
992
986
989
989
992
996
996
993
992
991
993
993
993
992
992
993
992
995
992
993
989
988
989
987
987
989
989
991
992
994
994
993
990
987
990
989
989
988
989
989
991
992
994
995
993
989
988
988
989
989
989
990
992
991
992
992
992
989
986
984
987
986
989
990
989
989
991
991
991
990
990
991
992
993
996
996
996
994
994
993
992
991
987
986
989
994
995
995
996
994
992
992
992
992
992
992
993
997
1000
1003
1005
1008
1009
1012
1011
1012
1013
1013
1018
1022
1026
1030
1031
1030
1030
1032
1033
1032
1028
1026
1022
1020
1017
1010
1010
1007
1004
1003
1000
994
991
989
988
990
990
990
991
991
991
990
989
989
986
982
982
984
986
991
1009
1030
1066
1111
1157
1210
1264
1308
1340
1346
1328
1284
1223
1155
1088
1032
990
971
965
969
974
979
983
986
985
981
975
971
968
964
965
964
962
963
965
966
965
965
963
960
958
957
957
957
957
959
959
959
957
959
960
959
957
956
954
956
958
957
958
956
960
959
960
959
960
960
957
959
959
957
959
958
957
960
959
958
955
957
956
956
956
957
959
962
964
965
966
968
965
966
971
976
981
983
986
993
998
1006
1010
1017
1019
1022
1023
1025
1027
1030
1033
1036
1038
1037
1034
1036
1033
1030
1026
1021
1020
1017
1014
1016
1017
1017
1013
1013
1010
1009
1008
1004
1003
1003
1006
1006
1009
1005
1003
1002
997
996
995
994
997
996
997
1000
1003
1002
999
1002
999
998
998
996
994
995
996
997
1001
1002
1002
1002
999
995
996
996
997
995
995
998
1003
1002
1002
1002
997
999
997
996
993
996
999
999
1001
1002
1002
998
996
993
994
993
995
996
997
997
999
997
996
994
997
995
992
991
990
991
989
992
995
996
999
999
999
998
998
1001
1004
1004
1009
1008
1012
1014
1015
1017
1019
1023
1024
1024
1024
1023
1023
1023
1025
1025
1023
1020
1018
1011
1006
1000
996
992
989
984
983
981
981
979
973
973
973
971
972
973
973
972
974
976
975
973
967
967
962
962
963
967
981
998
1025
1063
1114
1167
1225
1278
1320
1340
1330
1291
1233
1165
1093
1034
995
969
959
957
960
966
967
965
963
958
957
953
949
948
945
943
942
942
941
940
941
943
945
945
946
947
946
943
943
941
937
939
940
941
943
941
943
944
942
942
940
939
938
938
941
940
942
943
946
944
943
942
942
940
938
937
939
937
940
939
939
938
936
934
930
928
930
932
932
931
931
930
930
929
930
933
934
937
942
945
950
953
955
960
968
971
975
978
979
979
978
976
976
976
979
980
984
983
982
978
976
976
975
974
973
974
976
977
979
977
975
976
973
971
973
976
977
978
978
975
980
980
980
979
977
976
978
978
979
980
980
982
982
983
980
979
979
979
977
979
977
980
982
983
982
980
975
973
971
970
973
976
976
977
980
979
979
978
976
977
976
976
975
974
974
976
977
975
975
974
971
974
972
973
970
971
972
974
981
985
986
988
990
986
987
990
992
994
999
1002
1008
1012
1013
1011
1009
1006
1005
1004
1004
1001
1002
998
996
990
987
982
977
972
970
966
964
961
962
962
962
961
958
959
958
960
960
959
955
953
953
952
957
954
954
949
947
947
956
969
989
1014
1050
1091
1141
1191
1239
1278
1299
1296
1268
1220
1159
1094
1034
988
960
944
937
942
947
951
955
953
951
944
939
938
940
940
939
940
936
935
932
931
931
931
933
935
937
938
939
938
934
935
934
933
934
934
933
936
935
936
936
933
933
931
931
931
935
934
935
936
938
937
939
940
937
935
937
936
934
934
934
937
941
945
943
941
937
934
931
931
931
931
934
933
935
935
933
934
931
931
931
933
934
937
939
941
948
956
959
961
964
966
967
969
972
974
977
979
980
981
981
981
977
975
973
971
973
973
973
971
974
971
974
975
974
973
970
968
969
971
970
972
974
972
971
972
969
970
971
969
973
974
977
977
977
978
978
979
978
978
975
970
971
973
977
978
978
979
978
978
975
974
973
975
975
972
974
975
975
978
980
979
978
976
975
974
973
974
974
973
974
974
972
972
970
970
969
969
970
971
973
974
975
976
977
980
983
983
982
982
984
988
993
994
1001
1005
1008
1010
1010
1009
1006
1004
1004
1007
1007
1006
1004
1000
993
989
984
983
979
974
972
969
966
966
964
964
961
962
962
963
963
961
961
959
961
964
963
964
962
962
958
956
954
952
953
959
972
993
1022
1061
1109
1160
1213
1261
1299
1313
1303
1273
1225
1163
1096
1036
986
959
940
939
943
949
954
958
958
955
955
952
948
946
942
942
941
942
942
946
943
944
947
948
947
947
942
943
943
942
943
945
944
948
947
946
946
948
948
947
945
944
943
942
941
942
945
945
948
951
948
946
946
945
948
949
952
952
952
949
948
947
947
946
943
943
943
944
947
951
953
954
951
950
950
950
949
947
947
948
949
950
950
950
951
954
957
959
963
965
969
970
973
979
981
985
987
991
990
989
988
985
985
983
985
988
991
991
989
988
988
988
987
984
984
983
983
985
985
984
983
984
983
984
984
984
984
984
986
986
989
989
991
990
991
990
990
989
990
989
993
996
997
997
995
995
992
991
991
991
987
989
995
998
1000
998
996
994
991
990
990
992
992
992
996
999
1000
998
996
997
994
991
989
990
990
990
993
994
997
996
997
996
995
998
998
1000
1002
1005
1009
1011
1013
1016
1017
1018
1022
1023
1023
1023
1021
1022
1022
1024
1028
1027
1024
1021
1017
1012
1006
1000
995
993
992
988
988
986
982
978
975
975
978
977
976
974
976
978
978
974
974
973
974
969
965
964
969
980
1001
1028
1067
1111
1164
1220
1271
1314
1337
1331
1297
1242
1170
1100
1037
995
965
954
952
955
962
969
973
972
967
961
953
951
950
950
951
951
948
949
948
949
950
948
950
949
949
950
952
953
950
948
945
945
950
953
951
954
952
951
949
948
947
947
946
947
947
953
953
955
954
956
953
953
951
948
949
951
954
957
958
957
956
953
953
951
951
950
948
951
953
954
958
959
958
957
955
954
955
955
954
951
954
958
959
961
962
964
966
967
970
972
975
979
983
985
990
990
987
986
986
986
986
986
987
984
986
985
988
989
988
988
983
981
981
983
984
985
986
984
986
987
984
986
983
982
981
983
982
983
984
984
985
987
987
988
986
984
982
981
983
986
987
989
992
995
994
994
990
990
992
992
991
993
992
992
993
993
993
992
988
988
989
989
988
990
991
993
993
993
989
987
986
983
984
985
987
987
989
987
991
992
995
997
999
1000
998
999
1001
1003
1008
1010
1017
1022
1021
1023
1019
1021
1020
1019
1016
1016
1017
1016
1014
1010
1002
998
991
986
981
978
978
974
972
972
973
975
974
974
972
970
969
968
967
969
970
969
968
968
967
972
980
998
1024
1059
1106
1158
1214
1268
1312
1334
1328
1297
1244
1175
1107
1044
999
970
960
956
963
965
970
970
967
958
953
949
950
949
952
952
952
949
953
951
948
947
948
946
946
948
949
950
952
953
953
952
952
948
947
950
951
949
950
949
953
952
953
957
956
956
952
951
952
953
954
958
959
959
958
958
956
955
955
951
950
952
954
957
961
958
956
957
960
960
958
958
959
958
960
959
962
966
966
971
971
977
975
977
978
978
982
985
987
987
988
986
985
985
986
981
980
982
982
983
984
984
981
983
981
980
983
982
978
978
980
983
981
982
980
982
980
980
979
978
978
978
980
982
984
985
981
983
981
981
981
978
977
978
982
982
987
985
983
983
981
979
982
981
980
981
982
985
984
983
983
983
983
981
980
978
978
979
982
982
983
983
984
982
979
977
979
976
978
980
984
987
991
993
994
995
996
998
998
995
997
998
1004
1011
1016
1017
1016
1012
1008
1006
1005
1003
1001
1001
998
995
993
988
982
980
976
974
969
965
962
958
960
962
963
962
960
959
955
960
960
959
960
960
961
960
959
953
955
957
970
990
1018
1056
1107
1164
1221
1275
1309
1320
1301
1252
1187
1112
1044
989
958
938
938
945
955
960
962
960
952
943
937
934
933
936
940
943
942
942
940
942
939
937
934
935
937
937
938
936
939
940
940
940
943
941
939
938
938
939
939
941
942
943
945
945
943
942
938
938
940
938
942
946
949
950
950
951
948
947
946
945
945
946
950
952
949
953
954
954
953
953
950
950
951
952
953
954
953
954
954
953
955
957
954
957
960
963
968
972
976
977
978
977
975
976
975
975
975
977
977
976
978
976
974
976
973
971
971
969
972
972
973
973
973
972
972
972
973
971
967
969
970
971
975
976
977
972
974
973
971
971
970
970
973
973
977
978
980
979
978
977
975
972
972
972
973
975
975
978
980
980
979
977
975
976
975
973
973
976
976
977
978
980
978
980
980
978
978
975
976
974
978
976
984
984
985
986
987
988
987
987
989
990
994
996
995
1005
1005
1011
1009
1013
1013
1009
1008
1006
1007
1007
1009
1008
1001
996
991
985
977
977
977
975
975
973
974
971
967
965
964
962
962
962
962
961
964
965
966
967
966
961
960
957
955
958
967
982
1007
1043
1084
1134
1186
1237
1281
1308
1308
1279
1226
1157
1087
1024
980
950
934
935
945
954
962
963
960
954
949
946
944
948
949
949
945
948
946
946
944
945
948
947
948
948
950
951
951
950
947
945
947
949
950
954
956
957
955
955
954
952
949
948
952
954
955
957
959
961
960
961
958
958
957
957
958
955
956
959
961
964
965
967
966
966
963
961
963
962
963
960
962
963
963
966
966
966
967
966
968
970
972
974
980
985
986
987
989
989
987
989
992
994
994
996
994
994
994
995
993
991
989
990
989
989
988
989
991
991
991
991
991
992
991
992
989
988
993
991
994
997
996
996
998
994
994
994
996
998
998
1000
999
999
998
998
1000
997
995
994
994
998
998
998
1000
999
999
1000
999
998
997
995
995
998
1001
1002
1000
1001
1001
1001
1000
999
997
993
994
996
999
1000
1001
1004
1002
1001
1001
1001
1004
1003
1004
1008
1013
1015
1017
1021
1022
1026
1030
1031
1031
1031
1030
1028
1027
1027
1027
1025
1025
1024
1019
1017
1012
1007
1001
998
996
996
997
995
989
987
985
983
981
982
984
982
982
983
981
985
985
984
981
977
978
977
977
973
971
971
978
989
1007
1031
1057
1101
1146
1196
1247
1290
1321
1334
1325
1290
1231
1164
1093
1033
987
964
951
953
959
968
974
976
974
970
964
957
953
952
955
958
956
958
957
957
956
957
950
951
952
953
953
955
958
955
954
955
956
958
957
954
954
950
951
950
954
952
954
954
957
959
957
954
952
953
955
957
958
961
959
957
958
958
960
961
960
958
961
961
958
960
962
962
962
963
965
966
963
962
962
963
964
965
964
964
964
964
964
964
962
963
968
972
973
978
978
979
981
986
985
983
984
981
983
987
986
986
985
984
982
983
983
979
977
979
978
979
979
982
981
981
980
982
981
981
979
975
971
970
976
977
981
983
979
981
980
980
977
979
978
979
982
985
982
983
983
981
982
982
984
982
983
981
981
982
982
982
981
983
984
982
983
980
979
978
980
979
981
982
981
983
981
980
976
973
973
975
980
980
983
984
982
982
984
987
989
990
990
990
992
996
1000
1005
1007
1010
1010
1010
1006
1005
1004
1002
1003
1006
1006
1006
1004
999
991
986
980
977
974
971
972
970
969
968
966
964
962
962
962
961
959
957
956
958
963
963
963
962
959
955
951
947
949
955
969
989
1014
1049
1091
1140
1189
1238
1279
1308
1312
1290
1249
1190
1124
1061
1010
975
954
943
943
945
953
955
954
954
951
948
945
943
941
938
936
936
936
939
938
938
935
937
938
940
938
936
933
934
934
934
938
938
940
940
942
943
944
943
940
937
937
938
940
941
944
945
944
944
944
944
941
942
941
943
945
947
948
952
950
951
950
950
949
948
951
950
953
954
953
956
955
954
955
957
954
953
953
953
955
956
957
953
955
955
956
957
958
957
958
959
964
969
971
973
972
974
973
973
974
972
973
972
975
974
974
976
973
975
973
972
970
968
966
965
967
971
972
972
972
973
970
970
967
968
968
965
967
969
970
972
971
972
968
971
970
968
968
969
970
974
975
975
970
969
967
968
965
966
966
968
970
970
974
974
974
973
974
972
968
969
968
971
973
973
974
975
970
972
972
971
968
970
967
967
971
975
978
983
984
985
982
985
982
983
985
991
994
999
1001
1003
1004
1002
1000
999
993
990
989
987
986
984
979
977
974
972
966
961
957
957
955
955
956
957
957
957
954
955
952
952
952
950
951
952
952
951
949
947
951
960
974
993
1021
1058
1104
1160
1221
1274
1308
1318
1297
1250
1188
1118
1051
998
964
946
940
940
948
955
955
954
949
942
936
933
933
934
935
937
938
939
939
938
937
938
936
935
934
936
935
937
939
941
942
940
939
937
938
936
937
939
944
943
944
943
941
945
947
947
944
945
946
946
949
949
950
949
949
952
950
950
951
948
949
951
954
957
959
959
955
956
954
957
955
955
953
951
955
957
959
962
960
959
958
957
954
955
957
958
962
966
970
973
974
974
974
973
976
974
976
977
977
978
980
980
979
978
975
978
977
976
974
974
976
976
976
976
977
976
975
975
973
975
972
974
973
971
973
975
976
974
974
974
972
974
972
973
969
972
977
976
974
977
974
973
972
968
970
971
975
975
979
982
979
979
978
977
975
975
973
976
975
976
977
981
979
979
980
977
975
977
977
976
976
978
978
983
983
982
981
978
983
983
988
990
995
997
998
1006
1009
1010
1012
1012
1010
1009
1008
1006
1005
1004
1004
1006
1002
996
992
985
982
979
977
973
971
969
970
971
966
967
967
968
969
966
966
964
965
967
966
967
964
962
960
959
963
970
990
1019
1061
1106
1159
1211
1260
1297
1309
1294
1254
1190
1118
1050
996
961
943
942
947
959
965
968
962
961
956
952
952
953
953
955
954
955
953
953
950
948
951
951
950
951
952
955
957
958
958
955
956
952
954
955
956
956
959
960
960
963
962
961
958
959
960
958
960
961
965
967
965
969
968
965
966
966
969
967
969
967
969
968
969
969
969
973
970
971
972
970
970
972
971
972
971
973
971
971
969
970
972
976
981
987
989
993
995
998
996
995
994
994
995
996
995
997
996
998
999
999
997
993
993
990
990
992
992
994
992
995
994
998
996
994
990
987
987
990
994
995
991
995
995
993
994
992
993
991
994
996
997
999
998
1000
998
1001
999
999
995
996
997
997
1001
999
1002
1002
1002
1002
1002
1003
1000
999
999
999
998
999
997
1001
998
1001
999
998
994
994
995
997
999
1002
1002
1006
1006
1010
1011
1011
1009
1007
1008
1011
1016
1016
1020
1027
1031
1035
1036
