971
974
974
972
974
970
972
969
974
984
999
1023
1052
1094
1134
1187
1237
1282
1310
1316
1292
1251
1194
1131
1073
1029
997
980
973
972
977
981
984
979
972
966
961
958
956
956
956
956
958
958
958
955
953
948
949
951
954
956
958
957
954
953
955
953
950
949
948
952
952
956
958
956
955
955
955
957
953
952
954
956
958
961
962
960
958
956
958
959
962
962
964
960
965
966
964
965
966
965
966
967
966
964
965
965
968
973
976
977
978
974
970
970
969
968
968
967
969
969
973
976
975
976
975
973
972
975
974
976
978
978
981
982
984
984
979
979
979
979
978
977
974
973
973
979
981
979
979
976
974
974
973
972
972
974
975
975
977
975
977
973
972
971
973
971
972
975
976
977
978
981
979
979
976
976
975
975
977
976
978
980
980
980
981
978
975
974
976
977
980
979
979
981
981
982
984
979
978
978
978
974
976
977
979
981
983
984
986
987
986
986
987
990
994
997
998
1003
1003
1005
1009
1009
1008
1006
1004
1004
1005
1007
1007
1008
1005
1003
1001
997
992
986
981
977
978
974
972
971
969
968
969
965
962
959
957
958
960
960
960
961
959
960
959
956
955
952
952
961
976
1000
1029
1069
1114
1166
1220
1268
1295
1294
1266
1217
1160
1099
1044
1002
971
955
950
957
960
960
959
955
956
952
948
947
947
947
947
948
947
945
944
945
945
945
945
944
942
945
945
944
944
944
946
946
945
946
944
946
945
947
950
950
944
945
946
947
950
950
950
955
955
955
956
956
956
957
957
958
958
959
961
965
966
967
966
965
961
962
959
963
964
968
967
971
969
968
968
967
966
964
966
965
966
965
968
970
971
972
972
972
971
973
976
977
979
979
977
981
980
980
978
978
975
973
973
976
976
977
975
977
979
978
979
977
976
971
968
969
969
970
971
973
975
977
976
975
977
974
971
973
973
975
976
977
978
976
975
972
974
972
973
970
975
978
978
979
977
979
976
975
974
973
971
969
972
974
972
974
975
976
977
977
974
971
974
973
972
977
979
980
981
983
985
985
987
987
989
987
985
994
999
1004
1006
1008
1006
1003
1002
1001
1001
1002
1001
1002
1001
1001
998
991
989
982
978
979
975
973
972
969
969
969
967
965
964
961
958
960
960
961
961
960
960
961
961
960
959
955
952
952
955
964
977
1001
1025
1061
1105
1152
1199
1240
1269
1280
1264
1225
1175
1121
1065
1019
984
962
949
947
954
960
964
965
960
953
952
950
951
949
951
949
946
946
944
943
945
948
949
949
950
951
950
949
948
949
948
950
950
950
949
950
953
954
952
952
951
948
948
952
952
955
956
959
960
961
961
960
961
957
957
959
958
960
961
963
966
967
969
965
964
966
962
966
966
968
970
972
975
976
978
974
974
971
968
968
965
968
972
975
979
978
977
978
977
979
981
983
983
986
986
989
990
985
984
983
983
984
984
985
984
983
986
987
986
984
983
983
985
982
981
980
982
984
984
987
988
988
989
987
987
985
981
980
981
983
986
987
988
987
986
986
987
985
984
986
987
986
987
989
990
990
992
990
992
989
987
988
989
991
990
992
993
994
993
990
990
988
989
993
997
1001
1002
1003
1004
1007
1011
1011
1012
1014
1017
1019
1023
1025
1024
1027
1028
1027
1027
1020
1015
1010
1006
1005
1002
1003
999
998
995
989
989
984
981
978
977
978
980
982
984
986
983
984
981
981
977
974
970
970
972
977
978
986
1001
1021
1050
1084
1121
1166
1213
1258
1294
1310
1304
1276
1228
1167
1106
1051
1007
983
969
967
973
983
988
988
987
980
977
970
965
963
962
962
967
965
966
967
965
968
969
967
964
963
962
962
965
969
969
970
970
968
970
970
970
969
969
969
970
974
972
974
974
974
974
975
976
975
976
977
980
979
980
982
981
980
982
983
980
982
980
980
983
987
986
986
987
989
989
990
990
986
985
986
986
988
987
989
989
989
991
991
990
990
987
989
993
995
998
1001
1001
1001
1002
1001
999
1002
1001
1004
1002
1004
1001
1000
1002
1000
1002
999
997
995
994
996
996
996
993
998
1001
999
1001
1000
999
996
994
996
996
998
999
999
1001
1002
1003
1002
1003
999
996
995
998
997
999
1002
1005
1004
1006
1003
1002
1000
1001
1000
1002
1003
1001
1004
1004
1006
1007
1004
999
998
999
1001
1001
1001
1001
1003
1005
1008
1007
1008
1009
1009
1011
1013
1015
1015
1018
1023
1028
1032
1033
1033
1031
1030
1028
1027
1028
1027
1027
1031
1031
1027
1023
1015
1008
1005
1000
998
998
995
991
992
991
988
989
986
985
984
982
984
983
984
983
984
985
982
980
978
972
972
971
979
992
1012
1035
1070
1105
1148
1196
1240
1281
1309
1313
1296
1260
1211
1153
1095
1046
1010
990
977
975
977
981
982
983
982
980
974
973
969
970
967
967
964
964
963
964
967
968
966
967
967
966
966
965
964
962
965
966
968
969
969
971
971
971
972
971
973
969
967
966
969
971
976
977
976
976
973
976
975
974
973
973
975
979
982
983
982
981
980
977
977
977
979
978
980
982
986
989
988
986
982
984
983
986
987
985
986
986
988
990
990
990
989
989
990
992
993
996
995
999
1002
1005
1002
1003
1003
1004
1003
1002
1001
999
999
1001
1002
1002
1004
1004
999
998
998
997
997
999
999
1001
1003
1000
1001
999
996
996
997
998
997
999
998
998
998
1000
999
1000
998
998
999
999
999
998
1000
1002
1005
1005
1002
1001
1000
999
999
1001
999
999
1000
1003
1005
1005
1004
1002
997
998
996
996
997
998
1002
1004
1007
1005
1005
1007
1006
1010
1010
1013
1014
1016
1019
1023
1026
1031
1034
1039
1036
1032
1028
1024
1024
1022
1024
1022
1022
1018
1016
1013
1007
1004
999
995
994
990
989
989
989
990
988
987
983
983
980
980
981
984
982
982
980
980
977
978
981
992
1011
1033
1064
1102
1149
1197
1248
1285
1304
1299
1270
1221
1160
1101
1049
1006
982
974
977
985
992
996
995
987
979
972
969
969
969
971
970
972
971
968
967
966
965
964
964
965
965
967
969
972
971
971
969
967
966
966
968
967
970
970
972
972
973
974
971
972
970
971
971
971
976
976
977
977
978
980
980
981
980
980
978
982
982
985
985
986
984
983
983
981
980
980
982
984
990
993
993
990
990
990
990
988
987
985
984
982
986
989
991
991
992
993
993
995
996
996
995
995
998
1002
1004
1003
999
1000
997
998
995
995
994
996
998
999
1001
1002
1000
1001
997
995
995
994
993
994
995
996
997
998
1001
1001
998
999
998
997
996
997
995
997
999
997
996
999
994
992
992
991
995
994
997
998
999
1003
1005
1004
1000
1002
1000
999
1001
1000
999
1001
1001
1002
1003
1005
1002
1000
999
996
1001
1000
1002
1005
1005
1007
1005
1008
1010
1008
1009
1013
1015
1020
1025
1024
1025
1027
1030
1034
1036
1039
1032
1033
1031
1027
1026
1028
1027
1027
1023
1020
1012
1009
1002
999
997
996
993
993
992
991
988
988
987
987
981
981
986
986
986
985
984
983
981
980
980
976
976
981
993
1012
1041
1078
1117
1164
1211
1256
1294
1311
1310
1285
1238
1181
1119
1066
1022
995
979
975
976
981
985
986
985
982
978
975
970
971
970
969
972
970
970
968
967
967
970
969
973
972
970
970
969
969
968
967
970
969
969
973
971
971
972
973
972
975
971
970
972
971
974
976
978
979
977
975
975
978
977
975
974
972
977
980
982
982
981
982
980
980
983
979
977
975
978
980
983
984
986
990
986
985
982
981
980
979
982
985
987
987
989
986
984
987
987
989
993
995
994
996
1001
1002
1002
1002
998
995
996
998
996
995
998
998
999
1000
1001
1000
996
991
989
987
989
989
993
995
997
1000
999
995
995
992
992
992
991
993
992
994
995
999
1000
1002
999
998
993
993
993
995
993
993
994
995
999
1000
998
997
995
992
992
992
992
994
996
997
998
999
998
997
996
992
992
996
997
998
1001
999
1000
999
999
997
997
1000
1002
1006
1007
1010
1010
1011
1011
1015
1023
1024
1026
1023
1022
1020
1021
1021
1022
1022
1024
1024
1022
1018
1010
1005
1000
996
993
992
989
987
981
981
981
979
979
976
974
974
973
975
976
977
975
977
976
973
970
966
961
962
969
981
1000
1022
1053
1090
1133
1178
1224
1269
1297
1309
1295
1259
1208
1147
1086
1032
990
972
961
959
962
969
974
976
973
971
960
955
954
952
951
950
952
952
953
954
953
951
950
949
949
951
950
951
949
950
954
954
957
955
953
954
953
952
953
953
953
954
955
955
954
957
957
956
958
956
954
954
954
956
961
962
965
963
962
962
964
966
963
964
961
958
959
962
964
965
966
969
973
971
967
965
964
963
965
966
970
973
976
977
976
974
970
969
970
974
977
981
979
981
979
977
977
974
975
972
973
971
973
973
974
974
972
975
973
972
969
967
968
965
970
968
973
972
972
972
971
967
966
966
967
968
970
968
967
971
973
972
972
967
965
966
966
968
970
971
972
971
973
974
973
970
967
966
968
969
970
971
973
975
978
976
975
973
969
964
965
967
969
970
972
975
978
981
983
981
979
977
972
971
972
973
976
977
979
978
976
972
966
964
965
964
966
966
962
962
962
961
957
958
958
957
955
953
953
952
956
967
983
1009
1042
1082
1121
1166
1213
1257
1288
1297
1279
1241
1181
1121
1060
1015
983
962
953
956
961
965
964
960
953
947
939
937
933
934
935
935
934
936
937
936
936
933
931
929
926
926
924
928
931
930
934
933
930
930
926
927
924
923
925
925
928
932
931
934
934
934
933
930
927
927
927
928
932
934
936
935
937
940
941
940
936
931
928
928
928
933
936
938
938
937
936
936
934
930
928
930
931
934
935
937
937
931
932
934
938
938
937
938
942
943
945
947
947
948
947
946
945
943
942
944
948
952
954
953
950
946
945
943
941
941
940
942
945
947
948
948
947
944
942
943
940
940
940
941
942
946
947
946
944
943
941
940
938
939
940
941
944
946
946
945
942
944
944
944
941
941
943
942
944
942
940
940
942
941
941
944
940
939
938
936
937
939
940
940
940
937
933
929
925
926
923
920
916
915
915
915
918
922
926
927
928
931
932
932
931
934
937
938
938
935
933
927
923
921
927
939
957
981
1014
1053
1100
1153
1205
1252
1281
1285
1264
1223
1166
1100
1041
995
962
943
935
934
940
941
942
938
932
923
921
918
919
921
916
917
913
912
915
916
913
914
917
917
915
914
913
912
911
915
914
915
909
909
909
910
911
911
910
909
912
911
913
911
912
912
916
915
915
915
912
915
914
913
913
912
913
914
914
916
915
913
917
914
915
917
915
913
914
916
917
918
918
916
915
917
914
910
911
909
911
914
917
922
922
923
922
924
925
928
930
931
932
933
933
932
930
929
929
931
927
928
927
926
925
926
927
928
926
927
929
927
928
925
923
923
925
929
933
934
934
931
928
927
923
921
919
919
921
918
916
915
914
914
914
914
916
916
918
919
920
923
928
930
934
937
934
935
933
931
931
932
934
934
936
945
952
967
987
1013
1040
1068
1103
1136
1174
1210
1234
1243
1227
1189
1139
1087
1029
983
949
931
927
930
940
945
943
940
932
927
916
915
914
915
914
913
914
916
916
916
917
916
913
911
911
910
910
911
917
918
919
913
912
913
913
911
911
909
907
909
908
912
914
913
912
913
913
915
915
913
912
913
916
917
918
920
917
917
916
915
913
912
914
914
916
918
918
919
915
915
911
911
911
911
910
912
914
916
915
917
917
917
918
920
923
926
930
934
934
942
943
945
943
940
937
937
940
941
942
943
941
945
943
944
941
942
938
938
939
940
943
943
943
944
946
946
944
944
940
941
940
941
941
941
942
942
940
943
945
942
941
939
938
939
943
943
943
943
941
944
943
941
937
932
932
930
929
929
929
925
925
926
923
927
925
928
928
933
936
939
941
943
944
946
947
950
948
946
943
939
939
938
937
941
946
957
970
993
1019
1051
1094
1138
1188
1231
1261
1274
1262
1231
1184
1129
1076
1028
991
966
953
951
953
963
963
963
958
952
944
939
935
931
931
932
935
937
937
935
933
933
930
929
930
930
931
931
936
935
934
934
930
931
932
933
930
932
933
933
933
938
937
935
933
933
933
933
934
934
934
934
935
937
937
939
938
938
937
936
937
936
936
938
939
935
935
936
938
934
930
931
934
932
931
935
935
934
933
935
932
933
932
931
935
942
947
949
950
955
958
961
962
961
959
959
961
963
962
965
965
968
969
966
967
968
967
964
961
964
965
968
968
970
968
969
969
967
966
966
966
967
968
971
971
968
966
963
959
957
955
952
950
950
952
956
961
962
967
967
970
971
968
965
968
970
970
973
973
975
976
975
974
977
977
979
985
993
1013
1036
1065
1099
1133
1168
1208
1248
1277
1291
1275
1242
1193
1136
1076
1027
994
975
974
977
982
983
980
975
969
965
961
961
958
958
958
957
956
953
953
953
956
958
959
957
959
957
957
957
954
952
951
951
953
953
955
954
952
952
954
955
951
949
947
947
949
953
957
956
955
959
956
955
951
949
949
948
950
953
952
955
952
955
952
952
954
948
950
949
950
952
953
953
949
954
952
954
952
951
958
962
969
972
977
980
982
984
985
985
985
984
982
983
983
985
985
987
987
987
987
984
982
978
979
980
981
984
987
988
988
986
983
980
977
977
982
984
983
982
980
981
978
976
974
973
970
968
969
970
971
973
974
978
981
985
987
985
985
986
988
989
992
992
995
992
990
989
989
986
988
998
1015
1039
1071
1102
1141
1181
1227
1268
1294
1297
1276
1240
1188
1132
1084
1044
1017
1002
998
997
1002
1002
999
996
990
982
981
977
975
974
971
972
975
975
976
971
968
968
970
971
973
975
974
974
975
972
971
967
964
967
969
969
970
973
970
970
970
968
967
965
963
966
967
972
972
973
971
971
971
966
966
967
968
967
969
971
972
972
970
968
969
969
967
965
962
966
966
967
968
969
969
967
965
964
963
964
967
970
973
981
981
983
986
989
996
999
1003
1002
1001
1002
1003
1005
1003
1004
1003
1005
1003
1004
1002
1002
1001
997
1000
1002
1004
1008
1005
1002
1001
998
999
999
1001
1001
1001
1001
1000
1001
999
1001
1003
1002
1002
997
998
994
998
1002
1003
1007
1006
1004
1002
1002
1001
1000
999
1001
999
1002
1003
1006
1004
1002
1000
999
994
991
989
988
988
986
986
987
982
983
985
987
991
993
997
997
996
999
1000
1001
1002
1004
1003
1003
1003
1000
995
992
990
995
1003
1021
1044
1079
1121
1171
1224
1275
1314
1333
1323
1286
1232
1170
1107
1059
1022
1004
1001
1006
1011
1014
1016
1012
1006
1004
1000
996
993
994
993
992
994
992
992
995
994
993
991
989
989
988
988
987
989
990
989
990
993
993
994
997
995
994
992
991
993
993
994
994
996
999
999
999
999
999
1000
999
996
995
993
993
996
999
999
998
995
992
990
989
988
986
989
988
991
990
989
989
987
986
986
987
987
990
997
1004
1005
1009
1010
1016
1017
1022
1023
1020
1020
1019
1020
1023
1026
1025
1026
1025
1024
1023
1023
1020
1018
1020
1019
1023
1021
1023
1024
1023
1023
1022
1019
1018
1018
1018
1021
1021
1022
1025
1024
1023
1022
1024
1020
1020
1017
1022
1021
1025
1025
1026
1024
1025
1026
1025
1025
1025
1024
1024
1023
1024
1027
1026
1027
1027
1025
1025
1022
1023
1019
1020
1019
1017
1018
1015
1012
1012
1011
1011
1011
1011
1013
1016
1019
1023
1028
1028
1027
1027
1026
1027
1028
1027
1029
1028
1028
1029
1023
1023
1020
1026
1036
1055
1081
1115
1154
1197
1241
1290
1328
1352
1355
1330
1288
1235
1176
1121
1078
1046
1034
1031
1037
1044
1045
1044
1039
1030
1025
1021
1017
1016
1017
1021
1022
1025
1024
1021
1022
1020
1019
1017
1017
1018
1018
1019
1021
1024
1025
1024
1021
1017
1014
1015
1016
1019
1020
1021
1020
1021
1022
1024
1020
1022
1021
1020
1019
1021
1024
1024
1022
1026
1026
1022
1024
1022
1021
1020
1021
1019
1018
1017
1018
1020
1022
1021
1020
1016
1015
1013
1012
1010
1013
1014
1019
1023
1025
1025
1027
1028
1031
1033
1037
1040
1044
1050
1051
1053
1053
1051
1049
1046
1043
1046
1047
1045
1044
1045
1046
1046
1048
1052
1050
1051
1049
1047
1046
1047
1047
1048
1048
1052
1053
1051
1052
1050
1049
1051
1052
1051
1049
1049
1049
1052
1053
1055
1054
1051
1046
1044
1046
1045
1047
1050
1053
1055
1056
1058
1052
1051
1048
1047
1047
1047
1048
1046
1051
1054
1055
1053
1051
1048
1047
1041
1042
1045
1047
1048
1048
1048
1048
1048
1045
1042
1037
1031
1031
1031
1029
1027
1024
1031
1032
1034
1037
1038
1041
1039
1042
1043
1044
1045
1047
1049
1051
1051
1050
1045
1042
1038
1040
1043
1049
1059
1081
1107
1140
1183
1226
1274
1319
1360
1387
1390
1374
1336
1287
1228
1170
1118
1080
1059
1048
1046
1048
1054
1059
1059
1053
1050
1044
1040
1039
1039
1035
1030
1028
1029
1031
1032
1032
1034
1033
1032
1032
1032
1030
1028
1024
1025
1027
1033
1033
1033
1031
1028
1031
1034
1032
1031
1029
1026
1028
1030
1031
1035
1035
1033
1032
1032
1031
1025
1025
1024
1028
1031
1031
1039
1039
1035
1032
1029
1026
1024
1026
1026
1026
1029
1028
1025
1023
1022
1020
1023
1023
1022
1021
1018
1018
1018
1020
1021
1019
1022
1024
1028
1030
1031
1034
1039
1043
1049
1050
1053
1055
1054
1052
1052
1048
1049
1046
1048
1046
1047
1047
1047
1049
1046
1048
1044
1040
1041
1041
1039
1042
1045
1046
1049
1047
1044
1045
1043
1043
1043
1043
1045
1047
1044
1046
1049
1049
1047
1048
1047
1048
1047
1046
1045
1045
1049
1053
1055
1054
1052
1049
1048
1047
1043
1046
1046
1048
1049
1050
1051
1047
1048
1046
1046
1044
