963
964
963
965
964
965
965
965
964
967
967
966
962
962
963
961
961
963
967
968
968
968
966
963
961
961
962
963
966
967
969
966
963
962
961
958
959
960
964
963
966
966
966
968
967
967
966
964
965
965
963
962
962
961
960
957
954
952
950
945
942
939
942
944
947
949
954
958
959
962
963
962
961
959
959
966
968
970
969
967
963
960
955
953
953
957
968
985
1009
1042
1084
1136
1189
1242
1284
1308
1307
1280
1238
1181
1124
1068
1024
997
977
968
968
969
971
971
969
964
958
956
954
953
950
945
941
941
939
942
943
944
945
947
949
946
947
947
946
945
945
942
943
943
944
947
949
949
946
946
944
943
941
942
944
941
943
943
946
947
949
949
946
943
942
939
941
939
941
945
945
946
948
944
942
943
942
941
939
937
939
937
940
942
943
942
938
934
933
933
935
936
935
937
938
941
946
949
949
953
954
952
956
961
964
965
966
966
967
971
968
965
961
964
965
965
967
968
967
967
965
966
967
966
965
961
962
960
962
965
967
967
966
967
968
967
966
963
960
961
964
967
968
970
966
964
962
961
961
960
960
958
957
958
959
957
953
952
949
946
946
944
948
950
955
959
964
966
965
964
963
963
965
967
967
967
965
965
966
969
967
968
968
976
989
1008
1039
1071
1118
1167
1216
1260
1285
1285
1263
1221
1168
1107
1048
1004
975
964
966
973
975
979
978
970
963
956
954
952
952
955
954
951
947
947
944
945
946
945
947
945
947
948
948
953
950
952
953
950
948
946
942
940
943
943
951
951
951
951
947
949
947
946
943
945
947
949
952
952
951
948
948
947
946
946
943
944
943
945
947
945
946
948
944
941
942
939
938
937
936
939
941
945
943
941
943
946
947
951
950
958
965
970
973
972
969
971
971
973
972
973
971
971
971
970
972
973
971
971
968
967
966
967
969
970
969
969
970
970
970
974
974
973
970
968
966
966
968
968
970
974
971
970
968
967
963
961
961
958
957
956
954
953
955
959
959
961
962
965
965
966
967
968
971
973
976
977
975
972
969
970
970
968
968
970
980
995
1018
1052
1086
1129
1174
1221
1261
1285
1287
1268
1229
1180
1123
1069
1022
991
972
967
971
979
986
985
980
972
966
959
956
955
952
950
951
952
951
953
957
954
955
956
956
953
952
946
948
948
953
953
954
953
949
953
951
948
946
945
948
948
950
950
951
951
950
952
952
952
951
950
950
952
955
957
957
954
953
953
951
951
950
947
947
947
949
951
952
952
949
949
947
945
943
943
942
942
942
944
948
949
949
950
952
954
957
961
965
967
971
975
975
977
980
983
982
982
983
980
981
980
981
982
982
983
979
980
979
980
980
977
977
975
974
974
976
973
968
968
965
963
958
956
959
960
965
970
975
978
974
973
978
978
981
983
983
981
983
984
985
986
985
987
992
1000
1016
1037
1065
1096
1131
1168
1204
1237
1271
1295
1297
1278
1237
1177
1114
1054
1009
983
977
981
987
994
995
991
987
974
967
963
963
964
965
966
966
964
965
961
958
956
956
963
962
963
964
965
965
966
965
964
958
956
958
957
957
960
960
962
960
959
958
955
952
951
951
953
952
955
958
959
957
955
952
951
950
948
947
950
951
952
950
949
949
949
949
949
952
952
952
953
952
957
961
966
970
976
978
980
982
980
982
983
984
987
986
988
983
979
981
980
981
978
978
979
980
980
980
976
976
979
979
975
972
967
961
960
961
963
966
964
965
968
973
975
974
973
973
974
977
977
978
979
983
983
985
984
983
979
982
984
988
993
1003
1021
1046
1075
1107
1143
1179
1216
1250
1276
1286
1270
1234
1187
1130
1076
1034
1004
989
985
987
990
992
994
988
978
974
969
964
962
960
964
965
967
965
962
960
961
960
959
960
960
958
957
958
958
960
960
959
957
956
955
958
957
955
951
951
953
958
958
961
956
952
951
948
949
949
949
949
950
954
955
957
956
952
952
951
950
949
946
944
945
949
949
950
951
946
945
942
944
944
944
945
948
949
952
956
960
965
968
971
973
977
979
982
984
986
989
990
991
990
988
986
986
981
979
978
979
979
983
984
987
984
982
978
976
971
964
966
965
965
967
971
972
977
981
983
982
979
978
979
982
985
987
989
990
987
987
986
986
986
986
991
1000
1010
1026
1046
1074
1106
1141
1173
1204
1237
1266
1284
1287
1267
1232
1180
1126
1071
1028
1001
987
983
987
993
995
997
989
983
978
971
966
962
962
958
958
958
957
956
957
958
958
959
959
962
960
958
955
955
955
956
956
954
955
955
954
955
957
954
952
951
951
949
951
953
954
952
952
951
950
946
943
944
947
947
948
949
948
946
943
944
942
941
937
939
939
938
941
942
943
947
949
951
951
953
953
954
959
966
973
975
979
978
980
980
982
981
981
983
983
982
984
982
982
981
982
983
981
977
973
973
975
978
980
978
978
977
975
974
969
965
962
962
960
961
964
962
964
965
970
972
972
971
970
974
977
979
981
983
985
983
982
983
982
982
979
975
976
982
986
994
1007
1018
1039
1061
1092
1124
1160
1197
1234
1268
1286
1286
1261
1218
1168
1111
1058
1021
997
987
983
988
993
995
995
989
982
974
969
962
959
956
960
960
961
961
964
961
960
959
959
959
958
958
957
959
959
958
960
957
957
954
953
952
952
949
951
949
951
955
958
955
956
952
948
947
943
946
947
947
948
950
950
948
949
949
945
945
944
940
941
941
941
942
944
947
948
944
944
940
940
941
942
947
952
956
962
965
968
973
976
978
979
979
981
984
987
991
991
991
988
985
986
983
981
979
981
983
986
987
987
986
985
984
982
977
977
977
976
977
981
981
982
981
983
983
982
978
974
974
972
969
967
968
970
971
970
969
969
968
968
969
972
976
979
982
983
985
988
984
984
984
983
981
980
976
975
977
985
995
1021
1048
1081
1124
1168
1215
1255
1285
1289
1273
1229
1170
1112
1060
1019
996
985
984
986
991
992
992
990
980
978
974
969
968
965
968
972
971
971
970
970
970
969
968
967
966
965
963
966
965
965
963
967
969
969
970
969
967
964
964
964
963
965
966
968
969
971
970
964
962
959
959
959
961
960
964
964
965
963
959
956
955
952
954
952
952
949
950
951
951
954
953
950
950
949
953
959
961
963
967
972
976
979
983
986
987
991
993
995
999
999
1002
1003
1002
1004
1003
1002
1000
998
1000
1000
1000
1000
1000
1000
1002
1005
1004
1004
999
1001
1002
1004
1007
1006
1007
1003
1002
1001
1002
1004
1003
1001
1002
1002
1002
1006
1005
1003
1001
999
1001
999
998
998
997
997
994
994
991
991
989
992
991
995
997
997
1000
1000
1001
1003
1009
1012
1014
1014
1013
1010
1010
1008
1011
1009
1009
1004
1004
1005
1006
1011
1017
1034
1058
1091
1132
1181
1232
1283
1323
1344
1338
1303
1249
1184
1125
1076
1043
1025
1016
1019
1023
1025
1027
1019
1011
1002
997
991
990
991
994
997
996
1000
997
996
992
992
993
992
994
993
993
991
991
996
995
993
992
991
991
988
985
987
987
989
992
995
997
996
995
992
993
989
988
986
989
992
992
994
993
991
990
986
982
980
981
981
982
985
987
986
980
977
973
971
968
969
968
970
974
976
979
981
981
984
989
994
1000
1004
1008
1012
1011
1016
1018
1019
1018
1020
1021
1021
1022
1023
1020
1017
1017
1017
1021
1020
1019
1019
1019
1021
1020
1017
1013
1006
1005
1007
1011
1014
1017
1020
1019
1018
1019
1022
1023
1025
1025
1031
1031
1033
1034
1036
1031
1028
1028
1031
1032
1034
1035
1039
1044
1055
1074
1094
1124
1152
1191
1225
1270
1310
1349
1372
1373
1346
1297
1233
1168
1108
1068
1047
1038
1040
1042
1045
1047
1041
1031
1023
1013
1008
1009
1008
1008
1007
1004
1003
1003
1005
1006
1005
1003
1002
1002
1002
1002
1000
1001
1004
1005
1007
1006
1003
997
995
997
994
995
995
995
991
994
996
996
995
995
991
991
989
990
988
986
987
990
989
990
990
986
981
976
975
975
976
976
978
981
978
977
980
979
977
976
974
976
976
983
986
991
997
1003
1008
1009
1005
1003
1006
1007
1009
1014
1018
1020
1021
1020
1023
1021
1017
1016
1014
1012
1015
1016
1015
1015
1014
1013
1014
1014
1012
1011
1011
1007
1007
1012
1012
1010
1011
1008
1004
1001
997
996
995
992
992
998
1007
1013
1016
1015
1014
1012
1009
1010
1011
1013
1014
1018
1020
1019
1019
1017
1014
1012
1008
1006
1007
1004
1004
1014
1029
1052
1079
1109
1144
1184
1226
1272
1305
1321
1309
1276
1225
1167
1110
1063
1031
1017
1015
1019
1023
1021
1012
1006
999
995
991
990
988
985
983
983
983
983
982
981
979
980
983
980
981
980
976
975
974
973
974
975
976
976
976
977
976
973
973
973
968
967
963
963
964
969
973
972
970
968
962
961
961
961
962
960
960
961
963
961
960
956
953
952
950
948
946
945
945
947
948
946
947
949
949
952
953
956
961
962
967
974
979
982
987
990
991
993
993
991
992
993
995
998
999
994
992
988
990
989
991
991
991
990
991
993
994
991
991
990
987
986
983
984
984
987
988
989
987
984
981
978
976
970
971
970
971
977
983
988
992
992
990
987
989
989
984
986
987
990
991
994
995
993
992
993
991
991
999
1016
1038
1072
1110
1159
1206
1247
1289
1310
1307
1278
1229
1169
1109
1059
1025
1009
1005
1004
1008
1009
1006
1001
990
983
976
972
970
971
972
970
970
968
967
969
967
965
964
964
966
969
969
969
967
965
965
964
960
959
960
961
964
967
967
967
963
961
960
961
960
959
955
953
954
956
955
955
956
957
955
954
951
950
952
952
951
952
953
949
949
945
943
943
946
945
945
942
942
940
943
939
943
943
945
950
953
954
960
963
966
972
975
979
983
981
984
985
985
987
987
990
990
989
988
988
987
986
984
984
982
984
985
987
984
986
985
984
985
985
980
976
973
969
965
965
967
969
972
978
983
985
982
981
980
980
984
985
989
991
990
991
989
987
987
985
986
989
991
997
1004
1012
1025
1042
1068
1096
1130
1167
1208
1249
1284
1301
1298
1272
1226
1167
1103
1047
1006
986
982
988
995
1000
1001
995
990
982
975
968
962
959
960
962
965
966
966
968
964
963
964
964
961
959
959
959
958
957
959
955
956
959
957
958
954
952
952
950
949
945
945
948
952
953
957
951
947
945
942
941
941
942
943
942
941
939
941
941
939
935
935
935
933
936
934
935
938
942
939
940
939
941
945
949
952
956
960
964
971
975
979
977
979
978
978
977
980
981
981
983
982
981
979
977
977
974
976
975
976
974
973
972
972
969
965
963
960
957
954
956
956
959
962
968
975
975
976
976
973
973
972
974
973
975
976
979
981
981
981
980
980
979
978
981
985
996
1019
1043
1076
1108
1147
1183
1224
1257
1273
1270
1244
1202
1149
1092
1046
1009
988
982
984
985
985
981
976
973
968
962
963
959
958
955
954
953
949
952
952
951
953
956
956
953
954
951
951
950
947
948
943
944
945
946
948
948
946
946
944
942
938
937
936
939
941
944
946
946
940
935
936
934
934
935
934
933
933
936
937
933
934
931
927
927
924
927
925
925
928
928
931
931
934
937
939
941
944
947
952
955
959
964
971
972
977
976
978
978
977
976
971
973
973
975
976
975
974
972
971
968
965
962
958
957
959
959
959
958
959
961
965
966
964
965
966
967
971
974
977
977
974
974
972
974
970
972
971
974
974
978
980
984
987
996
1012
1034
1057
1086
1118
1152
1190
1228
1261
1285
1293
1272
1232
1181
1123
1064
1018
988
978
977
985
990
993
988
982
974
964
960
957
955
955
956
957
958
960
957
956
952
950
949
946
947
947
950
954
954
954
952
951
946
948
946
945
945
944
945
945
946
946
946
947
946
942
941
938
937
941
940
941
943
942
942
939
937
937
937
938
937
940
940
941
938
939
940
939
937
939
941
943
945
950
951
953
955
962
965
966
968
970
976
980
981
984
985
985
985
986
986
983
982
981
980
979
980
980
979
982
982
983
980
980
978
975
973
971
970
973
973
973
969
967
962
961
962
958
959
962
966
970
976
978
978
978
975
976
976
974
975
975
977
977
979
980
978
979
976
976
974
976
977
980
988
999
1018
1040
1064
1098
1136
1179
1224
1258
1274
1266
1233
1185
1129
1073
1025
991
976
972
975
981
983
984
982
978
971
964
962
960
956
955
955
952
951
950
950
954
956
957
958
957
956
951
951
954
952
952
953
950
950
951
950
949
948
948
947
947
948
945
944
944
943
943
947
949
947
945
944
942
943
945
940
941
943
940
941
941
941
936
935
933
931
931
932
934
934
934
933
934
935
938
937
936
936
942
943
950
956
962
967
972
974
974
977
979
978
979
984
986
989
989
988
985
980
982
980
982
982
979
978
978
978
979
976
970
967
963
962
962
963
963
965
966
970
971
973
973
974
976
977
975
978
981
983
983
986
986
984
982
981
980
981
984
986
984
988
994
1001
1018
1035
1058
1080
1108
1138
1169
1208
1243
1270
1281
1271
1242
1197
1144
1084
1034
999
979
974
978
985
991
994
994
986
978
971
965
963
962
964
964
962
962
963
961
963
964
966
963
960
958
955
957
960
959
961
962
962
961
960
958
956
951
948
948
951
956
957
956
957
955
952
952
948
947
948
948
946
944
947
947
947
948
947
947
944
941
940
942
940
943
942
944
947
949
950
949
949
952
955
959
963
971
976
979
984
987
989
989
987
988
988
989
990
993
992
993
992
992
985
985
983
981
982
982
986
987
986
984
976
974
973
974
974
973
974
973
977
980
983
987
991
992
992
990
985
986
986
988
991
993
995
995
993
994
990
991
989
987
991
998
1010
1023
1043
1070
1099
1136
1174
1214
1253
1283
1296
1284
1246
1194
1128
1072
1028
1002
992
991
997
1002
1005
1003
998
989
981
977
973
972
972
971
968
970
972
972
972
970
971
971
971
973
970
971
970
966
966
965
966
968
968
968
967
967
966
967
961
960
958
958
961
962
962
963
961
960
960
957
953
955
953
952
952
952
951
951
951
952
951
948
945
941
941
942
943
944
946
949
949
953
953
953
956
957
960
967
973
977
983
988
993
996
998
998
998
995
995
994
996
997
998
1000
998
993
988
987
983
982
979
981
979
983
988
992
996
999
1002
1001
999
998
999
1001
1001
1004
1006
1008
1004
1002
1003
1001
1000
1000
1003
1007
1011
1014
1023
1031
1047
1068
1094
1124
1159
1194
1231
1267
1303
1331
1339
1324
1289
1231
1169
1107
1055
1021
1006
1006
1011
1021
1024
1021
1011
999
991
984
980
982
982
981
984
985
985
986
984
984
978
980
978
975
975
974
973
976
977
976
971
972
971
969
970
971
970
969
969
968
968
967
966
968
968
966
965
962
961
958
957
959
960
958
954
956
955
956
954
952
949
950
949
955
962
966
966
967
970
971
971
973
979
984
990
995
997
1003
1005
1003
1004
1004
1003
1000
1001
1000
1003
1001
1006
1005
1008
1009
1003
1003
1002
998
1000
997
999
997
998
1000
1003
1004
1003
999
996
991
991
992
992
992
988
988
987
985
985
986
987
989
990
991
993
993
997
1001
1004
1005
1004
1002
999
999
998
996
994
994
989
989
985
985
993
1006
1025
1057
1101
1150
1208
1265
1312
1337
1326
1285
1226
1157
1091
1042
1010
998
993
1000
1003
1005
1002
998
989
984
977
974
973
970
970
973
972
974
976
976
975
974
972
968
966
964
966
965
966
965
965
962
960
962
959
962
960
959
959
960
959
960
959
958
957
956
956
952
951
949
951
951
951
952
949
945
940
937
940
939
940
937
936
935
935
935
933
931
930
929
929
927
929
933
939
944
950
958
962
965
968
970
976
979
984
986
987
991
993
996
995
993
993
995
993
992
991
991
990
992
994
991
987
986
986
985
984
987
985
986
985
984
987
987
985
982
980
974
973
972
971
972
972
971
974
981
986
989
989
988
985
986
987
988
990
994
995
999
998
998
995
995
992
994
996
995
997
997
1005
1020
1040
1068
1098
1135
1175
1222
1265
1298
1311
1298
1262
1209
1150
1092
1045
1016
1002
1000
1003
1005
1005
1000
995
987
983
976
974
970
969
968
971
969
967
968
968
969
969
971
970
970
968
966
966
962
961
962
962
963
966
964
963
963
959
958
955
951
950
952
957
958
959
960
957
952
951
948
945
944
946
946
948
947
942
941
940
938
938
940
937
938
935
934
935
938
940
944
945
948
952
957
961
966
971
977
984
989
991
995
995
992
992
988
990
990
992
994
995
994
993
990
989
991
986
985
980
976
976
975
976
979
979
980
983
985
988
988
990
990
993
996
999
1000
997
995
992
992
991
988
991
994
997
998
1000
1002
1001
1004
1012
1024
1041
1064
1091
1121
1154
1190
1226
1266
1297
1314
1308
1279
1231
1175
1116
1063
1023
1006
999
1005
1005
1007
1006
1000
993
983
976
971
969
969
972
978
978
975
971
968
964
962
964
965
964
963
963
965
963
963
964
963
962
960
958
956
952
954
955
955
955
953
953
951
949
946
942
944
941
941
943
947
945
945
942
942
939
938
938
935
934
934
933
938
940
938
937
937
937
938
939
941
944
948
950
957
963
965
966
971
972
975
979
982
985
986
986
986
988
991
993
991
990
988
987
984
986
986
985
984
983
981
975
972
968
965
966
965
968
972
978
984
986
985
984
982
