995
991
986
978
972
966
962
960
959
957
956
950
943
938
942
948
947
940
936
934
936
937
941
939
937
936
934
937
938
936
934
931
934
935
937
935
932
931
932
934
937
940
938
934
934
939
942
947
948
949
953
960
962
968
972
977
980
986
995
997
996
996
1004
1016
1023
1021
1014
1008
1009
1010
1014
1010
1013
1011
1010
1008
1007
1004
1004
1001
998
990
983
980
973
968
964
961
952
946
942
942
944
946
942
935
931
924
925
924
927
927
927
922
925
927
927
929
925
925
924
926
923
922
923
924
927
924
924
922
921
920
927
930
929
925
921
923
928
927
929
929
926
926
927
933
940
939
937
938
950
968
1000
1068
1176
1289
1357
1364
1339
1310
1291
1275
1262
1247
1233
1216
1197
1176
1154
1136
1118
1095
1074
1058
1043
1018
983
942
899
863
832
798
768
740
707
684
666
658
651
649
638
624
606
587
574
564
553
538
531
539
558
583
606
629
663
695
725
744
753
765
775
784
795
807
818
819
820
819
825
836
848
860
870
881
891
899
906
915
932
952
966
975
982
989
1000
1010
1020
1026
1031
1032
1035
1044
1051
1056
1058
1055
1059
1065
1072
1077
1083
1081
1083
1093
1096
1102
1101
1104
1112
1123
1131
1131
1133
1136
1143
1151
1157
1162
1164
1163
1170
1173
1178
1181
1184
1184
1184
1186
1191
1190
1190
1186
1185
1186
1185
1183
1179
1173
1170
1167
1163
1159
1151
1142
1137
1134
1132
1124
1114
1101
1089
1082
1075
1069
1063
1057
1045
1035
1023
1013
1004
998
989
985
983
981
977
969
968
972
979
981
976
971
967
967
970
972
975
974
971
966
962
957
953
948
948
950
954
951
951
941
941
938
937
933
925
918
915
913
908
895
884
880
883
884
882
876
871
865
863
861
861
858
857
856
856
857
857
852
855
853
854
854
854
853
851
850
854
857
861
861
856
852
851
851
855
851
849
848
849
852
853
851
849
846
850
851
851
847
843
841
849
852
854
850
845
844
846
850
853
853
851
851
852
856
855
855
851
850
851
852
855
855
853
848
850
855
855
856
854
851
854
859
859
857
856
854
861
866
870
869
867
863
866
869
876
878
879
878
882
892
901
921
953
1025
1151
1278
1356
1353
1311
1271
1251
1241
1228
1212
1190
1167
1153
1138
1124
1107
1088
1065
1043
1023
1006
983
957
932
911
889
871
847
822
796
773
759
752
750
751
751
748
743
731
717
698
678
654
639
633
636
645
661
682
701
726
748
765
773
772
776
780
784
784
784
788
788
789
784
779
782
790
802
808
814
818
824
832
848
860
868
873
881
896
908
922
929
935
938
942
946
947
948
952
954
958
962
964
966
968
969
972
975
978
980
985
992
998
1003
1004
1008
1009
1012
1021
1028
1034
1038
1042
1048
1057
1066
1074
1086
1092
1100
1111
1121
1129
1135
1140
1141
1142
1142
1148
1156
1161
1160
1158
1152
1150
1148
1148
1149
1151
1149
1148
1141
1135
1129
1127
1124
1118
1112
1102
1087
1072
1064
1057
1048
1037
1022
1012
1002
994
988
973
961
951
944
936
932
923
914
909
907
905
905
906
902
895
886
883
880
881
876
879
879
881
880
876
873
869
871
870
871
871
866
865
867
866
865
864
864
863
864
865
864
862
859
861
862
865
865
861
862
862
867
871
869
867
867
868
869
872
871
870
870
873
875
878
879
878
875
875
879
877
879
882
880
882
881
883
884
882
880
889
895
897
889
886
884
889
890
890
889
889
889
890
893
893
894
895
892
892
894
898
901
899
899
902
904
902
899
895
898
902
906
907
906
903
905
907
910
911
910
907
907
908
912
915
914
911
908
912
914
917
923
924
921
921
921
925
927
929
932
933
939
944
946
957
973
1018
1111
1238
1364
1401
1370
1329
1309
1300
1287
1262
1238
1214
1197
1178
1159
1138
1116
1094
1074
1049
1016
981
942
906
867
831
793
761
730
700
679
661
649
639
636
632
626
615
601
593
587
576
563
555
554
566
586
617
655
693
724
747
763
772
787
796
805
813
819
833
843
851
855
859
868
877
889
905
921
934
947
963
980
993
1011
1027
1037
1058
1081
1101
1119
1127
1125
1128
1127
1128
1130
1135
1144
1154
1160
1163
1164
1165
1164
1159
1159
1161
1163
1165
1165
1167
1166
1168
1174
1180
1181
1183
1185
1193
1197
1202
1201
1205
1210
1214
1215
1225
1230
1240
1240
1240
1243
1244
1246
1249
1249
1250
1249
1248
1246
1246
1243
1240
1239
1237
1235
1231
1228
1224
1220
1212
1202
1194
1189
1181
1168
1155
1144
1137
1134
1127
1115
1103
1097
1095
1085
1079
1065
1051
1042
1037
1034
1024
1014
1003
994
991
986
982
976
974
971
972
969
967
965
962
957
951
949
947
946
944
949
956
956
951
944
938
937
938
942
940
939
942
943
941
940
941
943
943
942
939
942
945
946
941
938
941
945
951
954
950
945
946
946
951
950
952
952
952
955
956
955
956
960
964
966
962
957
954
956
959
966
969
966
960
958
961
967
965
959
961
957
961
965
969
965
962
962
963
965
966
968
969
967
967
969
968
972
974
970
968
967
972
973
970
967
966
969
970
974
970
967
967
971
971
970
970
967
971
971
968
965
968
977
984
982
976
975
973
971
975
977
976
979
978
978
980
979
982
981
979
978
983
990
997
1003
1008
1028
1072
1158
1271
1378
1425
1415
1385
1360
1345
1331
1314
1295
1278
1259
1243
1224
1208
1189
1170
1154
1133
1111
1081
1049
1020
994
966
936
906
875
846
820
802
789
781
772
770
769
764
753
734
715
702
696
682
665
647
637
647
673
701
731
760
788
814
835
848
846
842
840
844
850
861
866
865
861
857
860
868
877
888
897
906
911
918
927
940
953
972
983
994
1001
1008
1018
1019
1025
1034
1041
1045
1042
1040
1042
1046
1048
1050
1048
1047
1052
1059
1066
1069
1072
1071
1072
1073
1075
1075
1079
1083
1088
1092
1099
1102
1103
1109
1113
1116
1114
1119
1123
1129
1138
1143
1145
1146
1145
1146
1152
1156
1157
1156
1159
1163
1167
1170
1175
1175
1169
1169
1169
1168
1171
1171
1166
1164
1160
1161
1160
1157
1151
1150
1150
1141
1136
1131
1125
1121
1116
1111
1109
1102
1093
1088
1081
1074
1068
1060
1050
1049
1045
1034
1028
1019
1014
1011
1008
1003
1000
1001
1000
997
992
989
982
979
977
977
980
980
979
974
969
967
968
966
965
965
966
969
970
968
965
963
960
960
959
963
962
962
959
964
965
964
956
952
953
956
967
971
969
964
960
963
968
971
970
970
966
966
970
974
976
975
972
972
973
975
974
971
967
969
970
972
972
972
973
972
971
971
968
965
963
968
973
979
979
977
974
970
969
971
972
973
970
969
969
971
974
970
969
970
972
973
975
969
968
968
970
972
977
974
969
970
976
981
981
983
983
989
997
1001
1008
1009
1014
1023
1030
1029
1029
1029
1031
1036
1042
1041
1038
1032
1031
1035
1042
1045
1046
1043
1043
1051
1059
1076
1114
1188
1299
1398
1431
1410
1371
1344
1328
1310
1291
1272
1253
1234
1219
1205
1186
1166
1143
1120
1101
1082
1063
1041
1014
987
957
929
906
878
851
828
806
792
782
779
779
778
767
755
744
732
713
686
658
631
623
633
662
697
730
758
784
805
822
834
839
842
845
843
846
847
846
846
850
852
854
860
869
882
889
896
905
912
922
935
953
967
977
986
994
1008
1024
1032
1033
1032
1029
1032
1040
1047
1048
1049
1052
1061
1071
1078
1081
1081
1084
1092
1099
1102
1104
1111
1114
1125
1137
1145
1145
1148
1153
1163
1173
1184
1186
1188
1190
1198
1205
1213
1219
1222
1226
1231
1235
1237
1236
1234
1234
1233
1238
1240
1240
1239
1233
1230
1229
1228
1228
1226
1221
1216
1205
1201
1193
1184
1174
1167
1159
1153
1149
1145
1137
1128
1117
1105
1096
1090
1081
1077
1069
1059
1051
1044
1036
1036
1034
1028
1015
1001
994
995
997
991
991
989
988
987
984
981
975
972
969
968
971
972
969
965
966
970
973
972
968
967
968
972
970
962
960
962
968
972
972
968
959
958
957
960
964
964
965
964
961
960
962
967
970
971
969
968
969
970
969
967
967
973
980
981
983
981
981
982
990
992
993
996
1000
1006
1016
1022
1025
1023
1021
1025
1033
1041
1041
1036
1033
1033
1035
1035
1034
1032
1031
1029
1029
1031
1032
1028
1020
1014
1008
1007
1003
995
985
985
982
979
974
968
964
963
963
962
959
952
947
947
947
947
948
944
942
943
949
951
953
947
941
941
945
948
948
948
946
947
948
944
940
938
945
959
968
968
965
969
984
1027
1108
1222
1335
1389
1375
1340
1314
1302
1291
1272
1249
1228
1209
1194
1182
1163
1138
1115
1094
1074
1059
1041
1013
975
934
896
860
829
796
768
736
710
692
680
676
674
666
651
630
609
589
580
568
557
550
560
580
609
634
659
690
718
742
764
782
796
806
813
819
827
835
841
844
845
853
867
881
898
907
915
923
934
946
959
973
986
1002
1016
1028
1036
1042
1049
1055
1062
1067
1068
1068
1069
1073
1073
1078
1086
1092
1092
1092
1095
1106
1114
1117
1115
1117
1120
1132
1139
1142
1144
1149
1152
1157
1162
1166
1174
1176
1181
1184
1187
1190
1192
1192
1195
1196
1198
1202
1203
1202
1201
1200
1200
1198
1198
1193
1192
1191
1184
1176
1169
1163
1163
1162
1160
1150
1136
1126
1121
1117
1110
1100
1092
1084
1076
1063
1052
1041
1030
1024
1014
1005
999
991
982
972
965
960
951
943
934
927
924
924
926
923
918
917
920
923
925
925
923
922
932
940
943
942
940
938
941
942
942
942
940
932
928
926
922
920
921
918
919
917
917
914
911
909
902
896
893
886
879
873
867
866
859
852
846
842
841
842
836
833
834
831
828
819
819
817
815
815
816
817
818
814
808
804
805
811
812
808
804
798
797
798
797
798
796
792
791
794
796
795
793
787
786
788
789
784
784
780
781
785
789
789
781
778
779
781
783
781
775
771
771
771
774
777
776
775
769
769
769
770
770
770
771
770
770
768
768
767
772
774
774
773
771
768
770
773
777
784
782
779
786
799
819
855
935
1062
1189
1275
1247
1188
1153
1137
1130
1111
1082
1058
1037
1024
1015
996
972
948
926
904
880
854
832
808
787
760
740
719
696
666
646
631
630
633
637
632
617
598
585
575
560
542
527
519
532
557
579
605
624
635
642
646
648
654
661
663
668
665
664
661
654
656
663
669
676
684
689
695
702
715
725
736
742
752
764
779
787
793
790
791
796
804
811
809
806
805
813
815
821
822
820
826
831
835
837
837
839
842
845
854
860
863
866
866
868
876
885
890
894
896
901
906
909
908
913
915
922
927
934
940
947
954
961
965
969
975
975
976
975
977
976
976
975
967
963
956
951
947
940
933
928
923
913
903
899
892
885
874
862
845
831
822
814
804
796
785
777
771
766
763
755
751
745
742
739
740
742
735
733
729
729
729
730
727
725
726
726
728
724
724
722
721
723
723
721
722
719
718
719
720
720
719
719
719
719
719
719
718
719
722
725
725
725
721
718
721
723
726
728
728
726
727
729
730
731
732
734
732
733
733
733
734
735
739
744
743
741
736
735
736
741
743
744
742
740
740
741
745
746
748
747
743
745
748
753
754
753
749
750
752
754
755
754
753
760
761
760
755
755
755
757
759
762
765
769
763
764
764
766
767
768
766
766
769
774
773
773
771
773
778
780
781
780
781
783
787
792
795
799
805
814
831
869
954
1081
1208
1323
1299
1233
1179
1153
1140
1124
1106
1084
1061
1040
1020
998
984
970
949
924
891
863
839
818
793
766
737
709
686
666
647
630
614
606
604
599
586
581
571
557
546
531
521
514
521
536
560
584
617
646
665
674
678
687
695
699
705
711
718
724
722
724
727
740
751
768
775
783
790
801
813
828
844
862
881
898
911
922
931
937
944
954
964
972
978
989
998
1004
1007
1007
1006
1009
1019
1031
1043
1047
1047
1051
1059
1068
1075
1075
1073
1073
1071
1077
1086
1092
1099
1101
1099
1103
1107
1113
1111
1113
1113
1116
1117
1114
1113
1113
1110
1105
1104
1100
1095
1090
1085
1080
1072
1064
1055
1045
1040
1035
1027
1019
1006
994
986
977
970
964
956
948
936
929
922
914
905
897
895
892
886
876
869
868
861
863
864
862
855
848
846
848
852
847
843
841
838
844
845
844
844
840
837
840
846
847
843
840
836
839
842
845
842
844
842
843
845
848
849
847
846
846
850
848
847
850
857
862
863
861
859
859
862
865
866
866
869
866
869
872
873
875
877
878
877
875
875
878
880
877
873
874
882
889
894
887
880
881
883
887
883
883
885
889
893
895
893
890
889
893
892
893
894
896
897
898
897
898
901
902
901
904
905
902
902
900
901
904
907
908
907
904
902
908
914
915
911
910
910
916
919
919
920
917
919
919
920
923
923
924
926
927
934
942
949
952
963
989
1056
1180
1307
1425
1426
1383
1345
1323
1314
1293
1267
1242
1219
1195
1175
1156
1129
1103
1074
1044
1012
978
944
911
882
848
814
782
755
734
714
697
690
687
688
688
688
676
665
653
640
635
627
614
608
610
621
645
677
713
747
780
809
827
837
842
852
860
866
881
886
883
875
873
876
888
901
907
911
914
921
931
942
955
963
970
976
986
1004
1017
1025
1030
1029
1030
1035
1039
1042
1043
1044
1050
1053
1057
1058
1059
1061
1063
1066
1071
1080
1086
1085
1089
1091
1097
1104
1108
1111
1117
1124
1129
1131
1131
1136
1141
1148
1152
1154
1155
1157
1162
1162
1168
1168
1172
1170
1169
1170
1174
1177
1173
1171
1172
1174
1174
1175
1173
1169
1167
1162
1155
1150
1144
1143
1144
1139
1126
1117
1110
1106
1106
1108
1100
1081
1070
1060
1057
1056
1052
1041
1032
1025
1023
1016
1008
1003
996
991
989
989
984
976
971
969
970
969
965
965
963
963
962
959
954
954
949
950
953
955
955
949
949
950
949
950
949
948
947
944
943
943
941
943
942
941
943
944
944
941
940
937
943
946
945
946
945
942
944
945
944
950
952
951
948
949
950
952
951
950
952
953
955
952
950
952
955
957
959
957
958
952
953
954
951
955
957
957
954
953
950
951
949
949
953
956
957
955
950
951
955
961
960
956
949
951
953
958
958
954
951
952
954
958
960
956
955
952
954
957
954
955
953
951
955
957
957
956
956
955
956
958
960
963
969
972
972
973
973
977
980
984
991
999
1005
1008
1009
1009
1015
1019
1026
1039
1047
1053
1062
1087
1143
1244
1361
1448
1477
1456
1426
1400
1384
1367
1353
1336
1318
1296
1276
1258
1237
1219
1201
1178
1153
1125
1096
1068
1042
1013
985
957
929
909
884
859
837
818
803
792
782
782
787
786
779
768
757
742
728
711
689
671
657
654
670
699
732
764
788
806
818
825
832
837
841
841
843
847
852
853
850
847
845
845
851
863
872
879
883
890
896
906
913
925
933
943
952
960
973
984
992
996
1002
1003
1004
1004
1005
1006
1015
1023
1025
1025
1023
1025
1031
1041
1044
1044
1043
1049
1056
1065
1068
1070
1074
1079
1086
1090
1097
1100
1104
1108
1114
1122
1128
1134
1139
1142
1149
1156
1162
1165
1167
1171
1176
1182
1185
1186
1187
1188
1195
1193
1194
1191
1192
1195
1197
1195
1190
1190
1189
1184
1181
1177
1174
1168
1162
1160
1158
1158
1149
1141
1134
1128
1124
1121
1112
1105
1093
1086
1080
1074
1063
1058
1048
1042
1033
1028
1023
1016
1013
1011
1008
1003
997
993
990
986
983
982
982
979
974
969
972
974
974
970
966
964
965
970
969
965
959
959
963
970
973
968
963
957
964
967
968
965
963
963
964
963
963
960
961
963
966
968
968
967
966
967
966
969
970
972
973
972
975
975
974
976
975
975
978
980
979
982
977
977
979
979
980
982
982
984
989
989
993
992
991
991
1002
1011
1016
1020
1021
1023
1029
1032
1032
1036
1038
1043
1047
1047
1045
1042
1041
1041
1043
1043
1046
1045
1043
1042
1041
1041
1034
1032
1026
1025
1023
1020
1012
1008
1005
1000
995
990
990
985
982
979
977
982
979
975
971
969
972
974
973
971
970
970
976
978
977
979
982
981
980
984
990
994
1003
1023
1067
1149
1270
1388
1450
1442
1407
1378
1363
1350
1331
1311
1292
1279
1263
1246
1229
1215
1192
1174
1154
1136
1117
1096
1068
1038
996
953
909
872
841
809
776
747
724
710
705
706
709
702
688
670
655
649
637
624
611
607
619
641
665
690
713
743
771
797
818
835
845
852
859
866
873
883
888
889
893
899
912
925
934
943
950
959
969
976
984
997
1015
1031
1042
1052
1062
1072
1087
1096
1105
1110
1112
1118
1124
1133
1136
1140
1140
1143
1149
1158
1169
1173
1170
1167
1173
1182
1190
1195
1198
1202
1205
1213
1218
1220
1226
1231
1240
1245
1250
1252
1254
1260
1269
1277
1282
1285
1287
1290
1294
1297
1300
1301
1299
1298
1299
1302
1303
1302
1302
1300
1298
1296
1294
1290
1282
1279
1274
1271
1264
1256
1250
1240
1232
1228
1227
1222
1214
1205
1198
1188
1178
1167
1161
1155
1150
1145
1135
1122
1112
1104
1101
1097
1094
1083
1074
1067
1067
1063
1061
1057
1049
1048
1043
1042
1042
1043
1041
1039
1036
1032
1033
1036
1037
1033
1034
1032
1037
1042
1042
1043
1048
1053
1059
1063
1069
1073
1077
1079
1077
1077
1082
1088
1094
1094
1091
1085
1083
1083
1085
1082
1082
1081
1082
1084
1087
1088
1084
1077
1072
1067
1067
1069
1066
1061
1052
1044
1038
1036
1032
1027
1024
1022
1018
1017
1016
1016
1015
1009
1007
1006
1006
1007
1008
1010
1012
1009
1004
1002
1001
1003
1004
1005
1001
1002
997
999
1000
1003
998
999
1000
1003
1006
1003
1000
996
997
999
1004
1007
1007
1006
1002
997
999
1000
999
997
998
998
1001
1003
1001
999
997
998
998
1001
999
999
1005
1001
1000
1000
1003
1008
1009
1007
1008
1011
1012
1014
1016
1017
1023
1032
1043
1059
1101
1193
1320
1436
1466
1433
1398
1375
1367
1353
1335
1314
1295
1283
1271
1256
1235
1215
1197
1182
1165
1140
1111
1080
1047
1023
1002
978
944
914
885
868
864
872
879
876
865
848
830
818
802
785
763
750
752
770
791
805
820
844
869
887
894
899
904
907
913
918
922
924
926
924
921
920
924
934
945
954
959
970
976
984
