998
1009
1020
1032
1039
1052
1061
1069
1075
1079
1085
1087
1086
1087
1094
1099
1103
1101
1101
1105
1112
1116
1118
1119
1120
1123
1129
1134
1133
1135
1135
1142
1153
1160
1161
1159
1161
1165
1168
1174
1178
1179
1182
1184
1191
1191
1192
1193
1198
1201
1207
1205
1202
1204
1206
1211
1211
1209
1206
1206
1210
1210
1213
1213
1212
1214
1215
1216
1218
1222
1223
1222
1225
1219
1221
1219
1216
1215
1215
1211
1204
1194
1182
1171
1163
1154
1149
1151
1145
1138
1126
1119
1112
1110
1104
1092
1082
1071
1065
1060
1054
1048
1037
1027
1022
1018
1016
1011
1005
1003
1001
1001
998
991
988
986
983
985
981
979
974
975
984
987
982
971
968
968
975
980
977
973
969
969
970
974
974
976
971
969
973
975
974
973
971
969
971
973
976
978
977
973
973
975
977
976
974
976
979
979
979
974
975
975
976
979
982
980
980
976
975
980
983
988
987
982
981
980
982
982
980
980
983
986
988
986
983
982
990
992
990
987
986
988
995
1001
996
993
989
992
996
1000
997
996
993
994
995
1000
998
1000
998
999
998
1000
999
1002
1005
1008
1008
1005
1003
1004
1006
1009
1012
1011
1012
1015
1021
1027
1036
1043
1057
1098
1177
1303
1425
1475
1451
1405
1375
1364
1357
1339
1317
1297
1278
1260
1240
1220
1202
1186
1162
1136
1110
1086
1059
1030
995
967
946
923
891
860
840
832
834
834
834
819
803
785
776
766
749
725
707
705
722
747
776
807
840
866
879
885
888
895
898
903
905
911
915
915
915
915
920
924
935
943
956
971
979
985
995
1003
1018
1029
1044
1056
1073
1083
1089
1094
1101
1104
1112
1120
1125
1132
1138
1147
1160
1166
1175
1183
1191
1202
1202
1206
1212
1219
1233
1240
1241
1241
1243
1243
1252
1262
1270
1274
1275
1279
1284
1289
1291
1290
1294
1296
1299
1302
1304
1299
1292
1290
1289
1290
1287
1287
1287
1285
1287
1283
1273
1267
1261
1255
1254
1256
1249
1236
1226
1218
1213
1206
1203
1199
1188
1179
1170
1163
1156
1146
1132
1120
1108
1101
1093
1087
1080
1072
1069
1063
1055
1046
1038
1032
1031
1030
1021
1013
1009
1008
1011
1011
1005
1000
996
996
996
995
992
989
986
985
986
985
985
986
986
985
984
983
979
978
980
980
982
984
984
985
986
984
983
984
983
982
986
988
988
992
991
990
993
992
993
996
1001
1003
1002
1001
1003
1006
1003
1003
1003
1003
1005
1007
1006
1007
1002
999
1006
1009
1009
1009
1006
1003
1005
1006
1007
1008
1006
1008
1008
1007
1006
1006
1005
1006
1006
1007
1007
1007
1007
1009
1009
1010
1008
1008
1008
1006
1010
1012
1012
1010
1009
1010
1017
1019
1019
1017
1015
1013
1013
1015
1015
1014
1015
1013
1020
1024
1020
1016
1014
1019
1021
1022
1020
1017
1020
1017
1022
1026
1028
1029
1028
1031
1036
1044
1055
1080
1139
1252
1379
1458
1460
1422
1390
1373
1361
1345
1321
1298
1278
1253
1231
1210
1181
1155
1127
1097
1065
1023
971
919
872
826
791
759
726
697
676
664
664
666
660
650
641
631
627
620
608
593
589
599
629
669
714
757
801
845
873
888
893
902
913
929
947
959
961
962
962
970
981
994
1004
1012
1013
1018
1027
1038
1049
1061
1068
1077
1089
1100
1106
1108
1106
1104
1108
1113
1116
1115
1116
1118
1122
1126
1128
1129
1134
1141
1148
1148
1148
1149
1157
1166
1175
1177
1180
1182
1183
1189
1196
1204
1207
1212
1217
1218
1224
1228
1229
1227
1229
1231
1236
1240
1239
1237
1229
1226
1230
1235
1235
1227
1219
1214
1212
1207
1204
1200
1194
1186
1179
1170
1163
1158
1155
1147
1136
1125
1113
1100
1093
1086
1084
1079
1067
1049
1038
1030
1023
1018
1010
1001
993
988
986
989
986
974
967
963
964
963
959
954
951
950
951
950
944
940
936
941
944
946
940
934
930
927
929
933
931
929
927
924
924
925
923
924
923
925
923
927
924
922
918
915
920
926
927
925
921
925
929
930
929
926
924
924
926
929
928
925
924
925
924
924
923
926
930
929
927
923
921
921
924
923
925
925
926
921
919
920
922
922
921
916
919
917
918
920
919
918
914
913
912
915
916
917
916
916
914
915
910
906
908
911
917
919
916
912
907
906
908
913
913
915
913
913
913
913
910
911
911
912
914
917
917
916
917
915
914
919
920
926
931
940
951
957
962
969
978
1002
1045
1135
1262
1373
1409
1386
1351
1334
1316
1302
1284
1262
1250
1235
1218
1199
1180
1160
1138
1115
1084
1047
1013
980
948
918
888
859
832
796
770
749
728
715
706
703
698
689
674
657
643
631
613
590
580
586
608
643
682
717
741
752
755
760
770
775
778
777
779
781
785
782
783
784
788
797
811
822
827
832
839
848
864
877
890
895
901
907
921
931
935
936
936
937
944
951
955
953
953
953
959
964
974
977
978
981
987
996
999
1003
1005
1012
1019
1025
1029
1033
1040
1052
1062
1068
1069
1071
1079
1082
1088
1096
1101
1103
1108
1109
1114
1112
1117
1123
1124
1124
1124
1123
1120
1116
1115
1120
1119
1115
1108
1100
1096
1087
1082
1078
1072
1067
1056
1048
1042
1035
1031
1024
1014
1003
996
990
981
973
965
957
952
951
948
942
934
925
923
918
918
915
911
907
905
906
903
904
898
896
895
897
895
895
893
889
893
895
892
891
888
889
891
894
891
888
886
885
886
888
887
884
882
883
888
891
892
888
886
884
884
882
885
889
894
896
893
891
888
886
888
891
896
903
900
901
894
894
897
901
900
899
895
894
901
902
901
898
897
895
896
900
905
907
906
902
903
911
915
915
914
921
929
938
940
943
943
943
948
955
958
960
962
963
962
962
964
962
961
957
958
959
962
963
962
960
955
954
949
947
940
933
931
931
924
918
908
902
905
906
904
899
895
894
896
896
895
891
887
887
893
897
900
899
899
905
913
928
963
1030
1139
1266
1358
1368
1330
1289
1267
1255
1244
1228
1207
1184
1163
1151
1146
1133
1115
1091
1070
1056
1041
1021
998
972
951
932
914
889
858
824
793
770
765
768
772
777
775
759
740
727
716
703
680
654
640
637
653
674
692
719
743
761
771
775
776
785
795
800
801
801
801
800
802
811
824
831
834
842
854
866
877
885
895
905
917
930
939
946
961
973
981
982
984
985
986
991
994
998
1004
1006
1006
1011
1014
1023
1035
1039
1039
1039
1042
1044
1053
1065
1073
1082
1088
1093
1097
1101
1105
1114
1120
1123
1129
1134
1134
1140
1149
1153
1159
1160
1159
1161
1166
1169
1169
1169
1168
1168
1167
1168
1167
1161
1154
1150
1146
1143
1139
1135
1130
1122
1115
1112
1110
1102
1090
1082
1077
1073
1064
1052
1042
1035
1026
1024
1015
1008
1000
993
986
979
973
971
965
963
961
958
954
947
944
942
942
943
942
943
942
938
937
936
935
931
929
930
935
936
936
934
932
934
940
944
946
950
951
952
960
970
975
977
980
980
985
988
990
993
994
998
997
998
999
995
992
996
999
1002
1002
998
992
993
997
998
990
981
975
972
971
967
964
955
947
947
947
948
942
936
929
928
929
927
927
922
918
920
920
920
919
918
916
916
919
921
920
917
914
916
918
918
914
912
913
918
922
926
919
914
912
916
919
920
918
912
913
912
917
922
922
920
918
916
917
918
918
915
916
920
927
928
924
917
920
923
925
927
928
926
929
930
936
938
937
939
941
956
978
1017
1100
1214
1321
1371
1362
1330
1310
1295
1278
1264
1246
1228
1211
1194
1176
1161
1141
1122
1098
1075
1052
1027
1001
968
924
875
833
792
760
726
692
660
630
613
605
606
599
594
584
579
571
559
547
536
525
519
522
543
571
601
628
662
701
739
765
777
785
797
809
819
831
841
846
852
855
859
864
874
885
895
911
924
933
942
949
965
978
991
1004
1016
1024
1038
1047
1058
1064
1066
1071
1079
1087
1088
1087
1088
1092
1096
1103
1108
1111
1115
1113
1116
1120
1129
1139
1145
1148
1147
1153
1158
1164
1166
1171
1176
1180
1185
1188
1191
1195
1200
1207
1215
1217
1217
1218
1222
1224
1227
1226
1227
1227
1228
1228
1227
1225
1223
1219
1214
1214
1211
1212
1207
1202
1198
1192
1192
1190
1183
1177
1170
1172
1169
1168
1168
1165
1163
1159
1154
1144
1135
1131
1133
1133
1127
1111
1098
1090
1088
1084
1078
1071
1065
1058
1051
1048
1048
1045
1036
1027
1019
1016
1009
1005
996
984
978
973
970
966
964
962
957
951
949
945
943
939
933
932
934
935
935
932
929
930
930
930
926
922
926
930
932
931
926
922
926
927
929
928
930
929
927
928
927
926
928
924
923
926
927
928
927
923
923
928
933
932
927
922
925
931
936
933
930
925
922
926
933
937
937
928
926
927
934
933
932
927
929
931
934
933
929
927
930
933
936
939
938
940
936
935
934
931
931
932
936
939
943
943
939
939
939
939
941
943
940
937
936
940
942
944
943
940
943
946
948
949
946
944
946
948
950
951
951
954
958
960
964
968
969
975
995
1038
1117
1228
1329
1372
1360
1333
1314
1301
1287
1270
1254
1241
1225
1208
1193
1178
1166
1150
1133
1112
1091
1074
1051
1024
998
966
938
908
877
849
821
799
780
771
766
766
767
764
748
732
716
709
696
674
650
637
638
656
684
712
738
764
796
817
828
830
835
838
841
846
853
858
861
858
855
854
859
870
877
886
893
904
914
925
936
945
956
966
981
991
1002
1012
1022
1031
1037
1036
1034
1034
1040
1044
1049
1051
1053
1052
1058
1069
1077
1082
1085
1091
1102
1113
1125
1127
1130
1136
1145
1153
1156
1163
1168
1174
1181
1184
1185
1182
1185
1185
1193
1197
1201
1203
1204
1205
1207
1213
1212
1205
1197
1194
1198
1198
1197
1194
1190
1181
1178
1174
1172
1163
1160
1154
1148
1145
1136
1130
1122
1112
1108
1104
1101
1097
1089
1082
1074
1066
1062
1055
1046
1036
1033
1028
1022
1011
1001
988
983
980
979
974
965
958
957
955
949
948
944
940
939
938
936
934
930
926
927
929
927
926
921
919
916
916
918
917
913
906
907
913
918
918
912
904
904
904
913
917
913
906
903
904
905
909
911
910
914
913
913
918
916
916
915
916
915
920
918
917
920
925
927
927
926
923
927
929
928
931
926
925
925
926
933
940
939
937
932
931
932
933
932
929
928
931
936
935
931
928
927
931
932
931
932
930
933
932
935
935
937
938
937
937
935
936
936
935
937
942
942
940
938
936
940
942
944
942
939
937
938
937
938
940
942
944
944
944
945
949
949
945
943
941
943
946
948
945
945
947
949
954
950
952
952
957
960
962
964
968
976
1000
1052
1151
1265
1342
1357
1333
1306
1291
1275
1259
1245
1228
1216
1199
1177
1160
1149
1138
1121
1099
1074
1046
1019
990
956
922
884
841
798
760
728
697
668
641
625
620
621
620
611
595
581
571
568
561
547
534
533
546
577
616
659
701
742
782
806
819
827
835
851
870
889
905
913
914
911
913
917
924
936
948
961
973
983
994
1002
1009
1019
1027
1039
1050
1054
1057
1061
1068
1075
1077
1077
1072
1073
1078
1082
1081
1081
1079
1081
1082
1082
1081
1085
1089
1097
1100
1107
1107
1106
1108
1115
1123
1132
1136
1138
1142
1146
1153
1159
1166
1167
1168
1171
1181
1189
1192
1196
1194
1199
1204
1206
1208
1210
1209
1214
1214
1217
1212
1210
1206
1208
1204
1204
1201
1199
1194
1193
1189
1185
1178
1168
1160
1155
1151
1144
1134
1127
1118
1113
1110
1101
1090
1079
1067
1064
1058
1052
1042
1032
1022
1017
1013
1012
1002
996
990
985
981
977
973
968
965
961
957
959
961
957
951
950
949
949
947
944
939
936
938
944
944
948
942
936
935
933
934
935
938
940
937
933
932
932
932
935
935
937
934
932
927
928
929
933
934
936
933
933
938
942
944
942
939
938
941
943
945
946
942
945
949
949
948
945
945
946
950
950
950
946
940
944
950
960
956
952
944
942
947
949
950
947
944
946
949
950
948
947
945
945
945
948
950
949
942
945
948
952
951
947
942
944
950
953
951
945
944
947
949
950
950
948
946
943
946
947
950
950
947
948
948
949
951
952
950
949
950
954
957
956
955
954
956
957
962
965
968
979
989
1003
1035
1100
1203
1320
1380
1379
1351
1327
1314
1307
1299
1286
1269
1246
1227
1210
1196
1178
1158
1137
1115
1086
1051
1018
980
936
886
839
800
765
737
711
690
676
670
667
654
634
616
603
596
580
559
541
540
563
599
634
666
701
735
763
781
786
790
798
804
813
822
825
822
822
824
833
845
855
862
871
877
887
899
913
926
939
947
958
966
974
987
996
997
999
1002
1002
1005
1005
1007
1013
1018
1023
1024
1027
1027
1031
1034
1040
1044
1047
1048
1054
1060
1065
1070
1076
1080
1080
1088
1097
1105
1109
1112
1112
1119
1127
1131
1132
1131
1136
1139
1147
1149
1151
1149
1150
1154
1156
1157
1159
1154
1151
1150
1149
1149
1145
1143
1143
1137
1130
1123
1119
1116
1116
1114
1109
1098
1089
1081
1073
1066
1065
1065
1060
1048
1033
1027
1020
1017
1007
999
995
992
990
987
982
980
976
970
966
963
960
957
960
962
963
961
956
949
950
950
949
948
949
950
953
952
949
946
944
942
943
948
954
955
949
942
940
943
945
945
941
940
942
943
945
944
945
943
945
945
946
946
944
946
950
948
949
951
949
944
946
954
954
952
947
945
950
950
956
954
950
943
943
945
951
955
953
952
951
951
949
949
947
948
948
949
956
956
962
963
967
972
978
982
985
988
993
995
999
1003
1006
1010
1012
1015
1012
1013
1007
1005
1008
1013
1012
1008
1009
1008
1008
1005
1001
996
990
983
980
980
974
967
958
952
949
951
953
953
948
943
941
942
941
942
945
955
978
1024
1108
1230
1331
1357
1336
1297
1279
1271
1257
1237
1224
1211
1199
1186
1165
1145
1136
1120
1105
1084
1062
1043
1023
997
973
950
925
892
855
822
805
797
800
805
807
798
783
765
749
731
707
678
660
661
676
699
732
768
795
806
809
808
811
819
819
823
828
828
826
822
822
833
849
866
874
879
882
890
902
914
929
945
959
972
984
992
994
1000
1003
1009
1008
1010
1016
1019
1022
1025
1032
1034
1041
1044
1046
1048
1052
1052
1058
1065
1075
1081
1083
1082
1086
1093
1101
1108
1113
1115
1114
1119
1128
1135
1141
1141
1141
1139
1143
1147
1147
1147
1147
1148
1148
1148
1147
1143
1144
1144
1141
1135
1133
1128
1121
1115
1111
1107
1101
1094
1096
1091
1083
1070
1062
1056
1056
1050
1039
1026
1019
1014
1014
1009
1002
991
984
977
973
973
970
964
957
954
955
957
959
956
952
946
943
944
944
940
938
935
936
937
939
940
939
936
937
938
933
933
932
933
937
940
941
938
942
947
955
960
959
962
969
973
977
981
983
983
984
987
999
1009
1012
1007
1002
997
1000
1001
1003
1005
1001
1002
1001
1001
997
994
990
982
979
976
972
971
969
958
949
944
945
943
936
929
928
929
930
925
920
915
918
920
919
918
915
912
916
919
919
920
916
911
912
916
915
913
912
915
918
920
917
914
913
909
912
915
919
917
916
914
914
917
920
920
917
914
916
916
921
922
921
915
912
915
920
918
920
923
930
936
940
946
963
1006
1105
1232
1331
1355
1327
1289
1276
1265
1250
1230
1208
1189
1175
1160
1142
1121
1098
1075
1056
1037
1009
970
923
872
826
786
749
710
675
639
608
596
595
599
593
577
561
551
542
531
519
508
510
529
561
593
626
663
702
731
752
763
774
787
801
812
825
836
839
839
840
857
874
889
896
904
916
926
940
950
960
970
987
1004
1021
1032
1043
1045
1052
1056
1061
1062
1068
1068
1076
1082
1084
1085
1089
1095
1103
1109
1112
1116
1118
1120
1128
1135
1143
1149
1154
1159
1165
1170
1177
1178
1183
1189
1195
1199
1200
1202
1205
1209
1214
1217
1216
1216
1214
1213
1214
1216
1216
1211
1209
1205
1204
1201
1197
1190
1183
1178
1174
1176
1169
1158
1148
1141
1140
1136
1131
1125
1120
1114
1107
1103
1102
1102
1097
1089
1086
1083
1081
1078
1076
1077
1076
1071
1060
1050
1042
1034
1031
1032
1034
1032
1027
1019
1016
1016
1014
1012
1003
994
987
986
984
978
966
960
954
952
953
950
945
938
935
935
937
932
926
925
924
926
924
919
918
916
916
916
923
925
927
923
922
921
922
922
924
920
919
923
925
928
926
926
922
923
926
921
921
920
923
925
923
919
919
920
923
924
925
925
922
915
916
920
921
921
923
924
927
930
927
923
924
927
930
930
928
924
924
926
929
930
926
923
924
926
932
932
929
928
932
934
937
933
932
930
929
932
938
944
944
939
937
934
941
946
947
945
941
941
940
942
943
943
947
946
948
951
952
952
954
958
968
975
988
1007
1057
1150
1272
1357
1376
1351
1323
1302
1295
1282
1266
1249
1229
1214
1199
1187
1172
1154
1135
1111
1089
1072
1051
1023
985
948
920
896
867
829
795
775
769
770
772
772
763
747
733
722
708
679
654
644
652
677
708
742
775
808
823
830
835
843
851
851
853
856
863
863
860
858
866
878
890
897
907
914
924
933
944
956
971
981
996
1010
1018
1028
1034
1038
1039
1040
1045
1047
1049
1047
1056
1062
1069
1069
1068
1072
1078
1088
1094
1103
1109
1114
1123
1131
1142
1152
1156
1159
1164
1176
1189
1200
1202
1200
1205
1213
1219
1220
1217
1217
1221
1226
1228
1225
1224
1224
1225
1224
1227
1222
1218
1212
1208
1206
1202
1194
1182
1172
1165
1159
1154
1151
1141
1130
1123
1118
1113
1106
1090
1078
1072
1065
1059
1055
1047
1039
1031
1022
1017
1012
1006
998
990
980
977
972
967
964
964
960
959
954
950
947
943
941
940
935
931
929
936
939
939
934
930
926
926
928
931
929
930
925
924
925
925
923
921
920
921
922
923
922
923
924
920
920
920
922
924
924
925
928
928
926
925
926
930
933
932
932
932
931
934
936
938
939
939
937
938
938
936
935
937
940
944
947
947
944
940
938
940
940
942
943
941
940
943
946
944
942
941
938
940
945
948
947
944
940
942
942
941
944
946
947
947
945
947
943
943
947
954
954
951
949
949
944
947
949
952
950
951
949
954
956
956
951
951
952
955
956
954
951
952
955
964
967
964
957
954
955
961
968
970
968
966
967
976
988
1002
1028
1089
1192
1305
1367
1366
1334
1309
1295
1285
1271
1253
1238
1223
1206
1192
1173
1154
1137
1125
1105
1085
1064
1039
1011
978
