997
1001
1001
1002
1002
1004
1009
1016
1018
1024
1030
1039
1046
1047
1050
1052
1055
1061
1067
1078
1087
1094
1094
1097
1100
1108
1114
1119
1125
1133
1146
1155
1158
1161
1159
1164
1173
1180
1182
1182
1180
1182
1183
1184
1178
1171
1164
1162
1162
1163
1161
1155
1144
1138
1130
1126
1121
1112
1102
1092
1085
1080
1067
1056
1041
1034
1029
1021
1012
997
984
976
970
961
953
940
928
924
918
918
918
913
910
902
893
890
887
890
893
903
912
918
920
920
920
922
928
932
936
935
938
939
942
936
929
922
916
921
921
925
929
929
923
915
907
905
904
901
896
889
891
891
890
883
877
873
871
866
859
855
851
850
847
845
840
836
835
841
844
846
847
845
841
837
836
836
837
838
837
835
837
839
841
839
838
836
836
838
837
836
835
839
842
842
842
844
842
839
831
826
824
828
831
835
837
838
841
840
840
836
836
835
840
837
839
839
845
847
846
846
844
842
839
844
847
849
848
848
850
851
853
847
848
849
854
859
859
856
853
852
857
866
871
870
859
856
858
860
868
875
879
891
910
936
978
1063
1190
1317
1438
1487
1491
1476
1460
1447
1430
1411
1384
1361
1341
1323
1303
1279
1245
1207
1173
1141
1104
1071
1032
994
951
906
862
822
783
747
709
679
661
649
630
620
608
599
584
568
546
528
509
498
490
489
495
510
531
560
599
634
661
679
694
710
726
739
750
757
762
770
774
776
784
792
803
817
831
840
851
861
867
880
895
913
930
942
955
972
989
1001
1004
1002
997
1003
1014
1023
1028
1035
1038
1041
1047
1050
1054
1056
1058
1064
1068
1079
1084
1090
1092
1101
1112
1123
1135
1138
1138
1142
1147
1159
1164
1172
1174
1181
1185
1191
1199
1203
1211
1220
1228
1234
1242
1249
1254
1263
1266
1272
1275
1277
1273
1272
1268
1270
1269
1262
1249
1239
1223
1218
1210
1201
1190
1184
1180
1175
1163
1150
1131
1112
1098
1087
1076
1061
1049
1037
1021
1005
987
967
952
940
934
931
925
918
907
901
899
895
891
887
881
878
878
878
876
874
873
876
877
877
876
875
872
865
863
862
861
860
860
860
864
872
873
871
866
865
864
867
865
863
859
863
864
867
866
867
869
873
873
867
864
858
859
861
866
870
868
867
866
868
872
876
877
881
878
877
880
882
879
875
872
875
881
887
889
889
884
884
880
880
880
880
881
884
887
888
886
886
882
884
885
889
888
887
887
890
895
895
897
893
889
890
893
895
895
898
898
900
903
906
907
908
906
903
904
906
906
910
913
918
914
906
899
899
898
902
904
906
908
908
908
913
918
921
923
919
915
914
916
921
927
930
929
936
940
949
958
974
999
1058
1158
1285
1412
1501
1529
1527
1515
1501
1486
1468
1444
1426
1401
1380
1357
1333
1307
1278
1247
1212
1175
1139
1096
1056
1016
967
912
865
816
777
742
712
688
667
648
627
617
615
605
590
568
553
538
523
511
502
496
504
523
554
592
630
669
695
718
736
748
758
771
788
801
810
816
820
821
827
832
843
855
870
887
902
917
931
941
950
964
987
1013
1035
1055
1076
1092
1114
1129
1143
1148
1150
1151
1164
1177
1185
1183
1177
1175
1178
1183
1192
1199
1205
1209
1215
1218
1221
1223
1222
1223
1227
1232
1241
1245
1248
1246
1251
1252
1255
1254
1258
1262
1268
1274
1276
1275
1275
1274
1277
1277
1279
1280
1276
1273
1269
1269
1266
1262
1256
1244
1237
1227
1221
1213
1201
1187
1178
1166
1159
1147
1137
1125
1115
1102
1091
1081
1067
1057
1043
1031
1024
1015
1006
1000
995
990
981
969
956
943
936
932
933
933
934
931
931
925
923
925
922
919
922
924
924
920
918
919
922
927
923
917
908
902
905
911
917
917
915
913
911
914
916
916
917
917
915
915
917
922
926
925
929
924
926
930
932
935
937
941
940
939
934
928
928
930
931
932
932
933
933
935
936
940
940
937
939
940
945
945
940
937
938
938
941
939
935
930
930
934
943
947
947
941
936
931
932
934
932
929
933
937
941
952
952
953
958
958
955
945
934
927
932
939
941
940
940
941
945
947
941
938
938
939
942
943
951
952
954
952
951
952
957
959
965
963
959
955
953
954
955
961
966
966
963
961
963
963
977
998
1029
1073
1157
1279
1406
1512
1551
1551
1541
1528
1518
1503
1486
1463
1437
1412
1385
1358
1326
1292
1252
1213
1171
1131
1084
1036
988
937
887
839
796
755
722
694
681
676
666
657
645
638
632
621
606
591
577
563
548
539
537
548
572
606
653
696
732
766
792
810
824
838
847
857
865
868
872
876
883
885
888
894
904
916
928
939
948
961
972
985
996
1006
1012
1021
1035
1053
1067
1073
1079
1079
1083
1086
1094
1102
1106
1106
1111
1117
1126
1129
1131
1129
1135
1139
1143
1151
1155
1159
1166
1175
1182
1190
1197
1202
1213
1220
1228
1228
1228
1233
1242
1249
1253
1259
1263
1261
1265
1268
1270
1273
1271
1272
1274
1276
1273
1270
1264
1256
1251
1253
1251
1249
1238
1223
1216
1212
1204
1197
1186
1173
1162
1155
1145
1135
1126
1111
1097
1090
1083
1071
1058
1047
1042
1036
1031
1024
1016
1007
1001
995
988
986
980
974
973
970
971
970
968
959
958
959
962
958
958
958
961
959
959
956
954
950
953
953
955
954
954
957
958
957
954
949
949
952
953
956
960
960
961
961
964
965
964
966
967
965
963
957
953
955
956
957
961
963
966
966
970
970
969
971
969
965
962
960
960
961
964
965
964
966
968
971
969
968
969
969
967
970
969
967
967
966
970
970
970
966
964
960
965
973
975
970
964
961
964
970
972
966
958
949
953
957
963
964
964
961
965
970
974
977
979
976
974
974
974
972
971
970
978
987
993
999
1002
1003
1005
1008
1015
1020
1024
1027
1034
1046
1059
1073
1082
1095
1123
1185
1284
1402
1499
1545
1553
1546
1539
1528
1514
1494
1473
1457
1437
1420
1396
1368
1339
1308
1278
1241
1207
1168
1130
1090
1052
1014
979
941
911
880
859
835
819
807
799
783
761
731
704
683
666
643
619
597
580
582
608
643
680
710
733
755
774
787
795
798
805
810
813
814
812
807
804
807
819
835
854
870
882
885
894
902
912
928
940
955
968
978
986
997
1006
1011
1019
1026
1030
1035
1036
1037
1037
1039
1044
1048
1051
1055
1063
1070
1076
1082
1086
1087
1094
1100
1109
1116
1120
1124
1130
1137
1146
1154
1160
1165
1173
1177
1180
1183
1183
1189
1199
1207
1210
1216
1215
1214
1212
1213
1218
1221
1220
1214
1213
1216
1220
1217
1211
1203
1198
1191
1186
1181
1173
1166
1160
1156
1153
1142
1136
1127
1114
1100
1087
1074
1066
1055
1050
1041
1033
1022
1014
1007
1005
1001
995
988
981
972
971
972
971
971
966
958
957
957
956
953
952
950
952
954
954
956
959
956
953
947
942
937
937
935
934
933
934
938
939
938
942
943
946
944
941
936
936
936
936
941
944
945
946
948
948
948
947
944
947
949
952
952
956
953
954
955
954
954
950
949
949
952
956
956
956
953
954
959
966
972
973
976
984
993
1000
1002
1001
999
1006
1012
1014
1011
1005
1003
1004
1008
1008
1001
998
998
1000
999
996
985
979
976
974
977
974
967
962
952
945
943
944
941
942
942
939
932
924
919
916
917
923
928
933
934
933
931
935
940
942
943
945
951
967
991
1039
1131
1258
1385
1482
1507
1494
1478
1466
1452
1435
1416
1398
1379
1362
1343
1323
1306
1284
1259
1235
1211
1187
1162
1138
1109
1080
1056
1041
1029
1012
988
966
943
934
928
931
924
905
878
854
828
798
770
735
708
693
690
699
707
720
737
756
768
774
778
782
783
790
795
801
796
792
789
794
806
820
830
836
844
851
864
878
894
909
922
935
947
959
973
984
992
999
1004
1012
1013
1013
1010
1010
1011
1013
1021
1027
1031
1034
1035
1038
1040
1041
1044
1051
1056
1065
1071
1080
1085
1090
1094
1100
1106
1109
1111
1119
1124
1131
1135
1136
1137
1140
1143
1150
1152
1156
1154
1158
1163
1165
1168
1170
1166
1160
1154
1150
1144
1141
1138
1141
1139
1135
1131
1125
1120
1114
1106
1099
1092
1090
1082
1078
1072
1062
1052
1040
1031
1022
1015
1003
991
978
971
967
963
960
953
948
944
941
942
939
937
931
924
925
928
931
930
925
917
911
911
916
919
923
921
920
921
923
925
926
927
927
930
935
945
953
959
967
971
973
970
972
974
976
977
972
967
961
957
962
966
970
973
970
967
966
971
967
961
954
950
945
940
937
930
922
918
916
914
907
900
899
894
893
894
896
896
895
893
893
895
893
891
888
888
887
889
888
888
885
882
881
884
887
887
886
886
890
891
890
891
889
885
889
891
896
899
896
888
884
884
884
886
886
888
891
896
897
899
897
891
890
889
892
892
890
889
895
903
906
907
905
904
910
920
934
959
1002
1102
1229
1356
1461
1476
1462
1449
1439
1428
1414
1392
1367
1349
1337
1324
1305
1281
1252
1220
1193
1169
1142
1115
1083
1049
1020
998
973
940
906
876
863
855
850
843
823
790
754
720
690
663
634
609
596
599
614
636
659
685
714
736
749
755
761
764
769
771
777
782
782
781
785
790
801
814
826
834
848
861
871
883
897
908
922
929
943
960
976
984
988
990
993
998
1003
1004
1003
1005
1009
1008
1009
1013
1019
1027
1033
1038
1041
1044
1052
1055
1060
1066
1071
1076
1078
1083
1087
1095
1100
1106
1113
1121
1127
1127
1129
1129
1134
1137
1140
1142
1143
1145
1150
1154
1155
1152
1149
1144
1145
1145
1146
1143
1140
1136
1135
1132
1135
1136
1130
1125
1119
1114
1109
1106
1104
1101
1103
1103
1104
1097
1085
1068
1057
1052
1048
1039
1029
1018
1012
1009
1003
997
994
988
988
986
983
977
968
958
949
942
937
934
929
921
914
908
905
900
894
892
892
893
894
888
879
872
869
868
869
867
868
864
864
867
871
869
866
864
864
866
869
871
868
863
864
865
865
860
855
857
857
864
867
870
867
866
866
866
868
871
873
874
872
872
873
872
869
863
862
869
875
879
877
874
871
870
870
870
874
875
875
875
878
870
868
867
870
876
874
870
866
864
867
870
875
879
879
879
879
876
874
874
873
873
877
881
888
889
888
883
880
883
882
885
887
888
890
894
892
888
888
886
891
895
898
899
897
894
893
894
897
895
892
892
896
903
913
917
921
931
948
982
1051
1163
1290
1398
1454
1467
1458
1444
1434
1424
1410
1394
1378
1359
1340
1320
1299
1278
1253
1228
1196
1161
1127
1093
1058
1027
991
954
915
882
847
815
786
760
744
731
721
712
694
666
643
622
605
583
563
540
523
519
529
550
578
610
644
673
695
709
720
730
741
751
759
765
767
769
769
772
780
786
793
806
823
837
850
860
870
883
898
915
926
932
938
949
963
980
993
1006
1009
1011
1013
1019
1026
1030
1032
1036
1044
1049
1055
1059
1061
1065
1074
1084
1091
1096
1102
1106
1112
1125
1136
1149
1156
1164
1174
1183
1192
1201
1211
1215
1224
1228
1236
1240
1237
1234
1238
1241
1246
1250
1252
1251
1255
1256
1257
1256
1252
1247
1242
1241
1239
1231
1222
1212
1206
1200
1195
1187
1179
1168
1159
1151
1139
1131
1117
1107
1095
1090
1082
1073
1062
1052
1038
1026
1015
1006
995
984
974
968
964
961
954
943
932
927
922
918
914
911
909
907
906
904
897
893
889
888
887
885
883
882
883
887
885
884
879
874
873
875
877
878
878
874
873
874
875
875
875
874
878
881
876
874
871
871
876
879
879
879
875
872
870
875
876
879
881
875
875
876
876
879
881
882
886
888
890
891
888
889
887
888
888
890
892
892
894
897
898
897
894
891
888
884
882
881
883
884
887
890
894
893
893
890
891
893
894
894
892
890
891
896
897
897
896
889
893
894
896
900
899
899
897
897
900
905
908
909
907
903
899
896
896
897
902
907
909
908
905
903
907
909
915
914
908
905
904
901
905
907
910
913
919
920
922
921
922
921
924
925
929
935
945
958
981
1020
1098
1221
1347
1442
1481
1481
1470
1457
1444
1430
1410
1392
1376
1360
1339
1321
1300
1279
1262
1237
1209
1174
1143
1114
1084
1052
1017
985
957
933
903
872
846
826
814
811
810
796
775
742
709
681
656
626
598
573
558
562
585
622
652
681
707
732
748
760
765
771
781
791
801
809
816
816
822
834
844
860
874
888
903
915
923
931
940
949
963
981
996
1010
1021
1034
1047
1054
1063
1058
1056
1049
1052
1055
1059
1060
1054
1046
1046
1050
1057
1055
1057
1051
1052
1055
1054
1055
1051
1050
1059
1069
1079
1085
1083
1082
1087
1091
1097
1102
1105
1113
1118
1127
1132
1133
1133
1132
1141
1144
1148
1150
1151
1149
1151
1151
1152
1150
1152
1148
1146
1142
1139
1130
1123
1121
1119
1124
1119
1114
1100
1089
1080
1078
1076
1073
1066
1057
1046
1041
1034
1028
1016
1007
999
990
979
975
967
960
959
955
950
941
932
921
918
911
908
907
906
902
905
903
905
906
905
900
900
903
904
904
904
900
898
895
895
894
894
888
885
885
884
887
887
887
891
894
897
897
895
897
899
901
901
894
892
890
890
893
896
895
896
899
904
909
909
906
900
895
897
904
910
911
909
906
908
913
913
911
905
902
905
909
910
909
906
904
904
909
912
915
916
913
913
912
912
912
915
911
913
917
922
922
918
913
911
912
917
917
921
917
910
912
916
917
911
902
904
907
909
910
912
911
914
916
917
915
913
911
914
916
920
921
919
915
915
919
922
926
926
926
923
924
923
925
926
924
922
925
928
930
931
930
931
937
943
950
961
978
1023
1101
1220
1347
1442
1480
1479
1468
1459
1449
1434
1413
1393
1376
1363
1349
1337
1323
1310
1295
1270
1239
1201
1168
1143
1123
1095
1056
1017
978
944
910
881
851
833
818
809
800
785
762
735
706
677
646
622
595
573
557
561
580
612
644
675
701
725
741
753
761
766
771
773
777
786
788
788
790
794
800
809
822
830
837
845
851
861
873
883
901
922
935
948
956
965
967
966
966
969
977
980
982
989
995
1001
1002
1000
996
1000
1003
1012
1019
1023
1021
1022
1027
1035
1040
1043
1045
1052
1060
1071
1076
1081
1084
1088
1096
1105
1112
1114
1115
1122
1132
1138
1143
1148
1148
1151
1154
1159
1158
1156
1154
1157
1161
1157
1155
1144
1134
1129
1129
1129
1124
1120
1115
1106
1099
1095
1088
1077
1067
1056
1047
1042
1033
1019
1005
997
993
992
985
973
960
951
943
938
936
934
929
923
920
916
913
911
907
904
905
904
904
902
900
901
904
908
905
902
898
897
898
900
891
886
884
889
891
895
890
885
884
887
888
892
892
893
892
893
897
894
892
888
887
887
892
896
897
899
901
904
910
911
908
904
897
892
895
905
907
905
900
898
898
899
901
898
900
903
905
906
905
902
898
897
901
902
903
904
902
901
898
896
895
894
896
899
905
907
907
904
900
900
906
910
909
906
900
899
902
905
904
904
911
919
924
923
917
913
912
916
924
938
948
949
950
953
958
963
964
965
964
970
973
975
975
972
966
968
968
973
979
981
982
981
978
979
974
975
981
1000
1051
1144
1271
1392
1457
1473
1460
1448
1436
1422
1403
1385
1368
1349
1328
1306
1285
1269
1250
1229
1203
1180
1158
1133
1102
1072
1036
1003
970
937
905
875
841
812
783
766
753
747
740
727
702
682
664
643
610
579
554
551
567
602
643
672
697
724
747
764
771
774
777
782
788
796
798
794
784
783
789
798
807
820
831
840
852
861
876
890
901
914
931
944
955
967
973
985
993
999
1001
1003
1003
1005
1003
1008
1014
1026
1034
1042
1047
1050
1054
1055
1055
1061
1072
1084
1095
1102
1109
1117
1126
1134
1139
1139
1139
1147
1155
1166
1174
1179
1181
1184
1184
1186
1186
1189
1192
1194
1195
1196
1192
1187
1180
1175
1175
1173
1168
1160
1150
1145
1144
1140
1130
1115
1106
1103
1096
1085
1067
1051
1042
1037
1034
1023
1008
995
983
977
974
967
962
958
951
946
939
930
923
917
911
911
912
913
909
903
899
900
903
911
911
903
898
897
901
905
902
895
891
895
899
897
896
891
889
893
896
898
897
895
893
894
898
897
895
894
894
895
897
899
903
903
904
904
907
909
901
895
892
897
904
910
909
914
920
926
924
923
922
926
931
940
942
945
945
947
950
954
963
968
970
970
966
963
967
973
978
974
969
966
966
966
964
958
952
953
956
954
947
936
924
921
921
925
923
918
906
904
904
905
904
899
893
894
897
897
895
892
882
887
888
891
897
895
894
894
893
894
896
896
894
891
894
897
901
904
903
906
906
907
908
906
910
921
938
960
998
1070
1188
1315
1423
1462
1463
1448
1432
1421
1408
1390
1369
1348
1326
1308
1289
1265
1237
1210
1183
1158
1134
1106
1071
1031
987
946
908
876
842
808
770
740
726
716
712
700
693
677
657
632
613
596
573
554
543
552
576
601
630
661
692
718
737
746
757
767
777
791
801
807
805
807
811
822
839
851
858
865
872
883
893
907
918
932
936
949
960
975
989
1002
1008
1016
1019
1020
1020
1023
1028
1034
1033
1032
1033
1039
1047
1049
1050
1050
1053
1062
1066
1071
1076
1080
1081
1087
1090
1094
1094
1096
1098
1101
1107
1112
1116
1120
1120
1121
1123
1122
1120
1121
1124
1127
1128
1127
1122
1117
1112
1110
1112
1112
1110
1105
1101
1099
1100
1097
1096
1090
1079
1071
1067
1061
1054
1046
1038
1030
1024
1017
1012
1007
996
987
983
980
974
967
960
957
955
950
942
932
926
931
930
936
936
935
932
932
935
938
939
942
944
948
951
958
963
967
965
968
972
978
981
975
962
954
958
963
962
960
960
965
971
970
964
957
949
948
946
941
941
934
926
924
920
917
913
909
905
899
897
894
894
894
891
888
887
888
890
893
898
898
893
891
892
892
893
896
896
890
886
882
883
883
884
885
886
890
888
888
888
889
891
890
890
895
899
901
899
893
892
891
890
888
886
886
887
891
894
896
892
890
886
889
894
898
899
897
894
892
895
899
902
902
900
899
899
902
906
908
905
911
913
917
920
924
926
933
942
959
994
1074
1200
1327
1436
1471
1463
1448
1435
1426
