927
929
932
929
930
934
934
934
932
928
925
928
933
934
932
929
927
926
929
930
930
929
928
931
932
934
931
931
928
933
936
935
932
929
924
931
935
935
933
928
925
929
933
934
933
935
934
932
937
939
938
939
939
935
934
932
933
935
936
938
938
942
943
942
940
942
945
949
950
946
944
946
952
953
953
949
946
950
956
959
960
960
964
977
991
1012
1054
1131
1252
1378
1452
1472
1463
1452
1443
1434
1426
1412
1397
1383
1367
1352
1334
1312
1288
1264
1238
1215
1188
1158
1125
1094
1060
1036
1014
986
951
922
906
894
886
888
881
864
835
806
780
756
726
694
660
649
655
678
707
731
756
781
793
797
801
807
813
817
823
829
832
829
826
832
847
863
876
882
886
890
904
920
936
948
963
976
989
1005
1015
1024
1031
1032
1034
1037
1039
1040
1044
1050
1056
1062
1063
1061
1056
1057
1062
1064
1068
1073
1076
1084
1090
1094
1098
1099
1103
1109
1115
1120
1124
1128
1136
1146
1159
1168
1177
1189
1198
1208
1212
1214
1217
1217
1223
1229
1236
1236
1236
1231
1227
1226
1223
1222
1220
1219
1215
1216
1212
1210
1207
1199
1189
1181
1176
1163
1148
1139
1125
1118
1110
1099
1086
1075
1063
1059
1050
1041
1030
1019
1009
1004
998
992
989
981
978
973
963
952
943
937
939
940
941
941
941
942
940
937
934
931
928
924
923
923
926
928
926
922
919
921
920
921
921
921
921
921
924
927
926
926
922
923
921
924
924
922
917
923
923
926
928
930
930
930
932
931
929
927
930
933
933
934
932
936
935
935
935
936
936
938
937
938
942
942
941
936
935
941
940
941
942
940
936
937
940
940
941
943
939
942
947
946
949
946
945
947
948
953
951
952
949
953
956
958
959
959
958
960
960
957
955
953
950
952
955
956
957
960
963
968
968
967
962
957
956
961
962
966
966
968
966
969
973
975
978
981
986
992
1001
1009
1023
1052
1121
1245
1372
1458
1477
1465
1452
1446
1436
1418
1400
1385
1370
1356
1336
1311
1280
1254
1224
1198
1169
1134
1093
1054
1010
973
944
914
884
857
835
818
808
804
793
769
742
721
700
675
649
618
591
579
588
617
650
683
718
752
777
789
797
806
818
829
836
843
845
840
841
853
877
897
918
934
948
964
979
994
1008
1028
1047
1069
1089
1108
1121
1127
1127
1127
1127
1131
1134
1138
1140
1146
1152
1154
1154
1150
1150
1153
1161
1164
1161
1156
1151
1153
1157
1160
1161
1162
1167
1172
1176
1178
1179
1185
1193
1199
1206
1206
1207
1209
1208
1212
1216
1218
1221
1221
1220
1224
1226
1225
1222
1220
1216
1213
1213
1209
1206
1200
1196
1192
1183
1176
1162
1152
1147
1139
1131
1117
1104
1095
1086
1079
1071
1062
1052
1039
1026
1018
1013
1007
1001
992
989
985
980
975
970
964
961
961
956
954
949
947
947
950
949
945
940
937
935
932
931
926
925
925
924
924
926
925
924
921
920
920
921
923
923
920
921
924
925
924
924
922
922
926
929
927
924
921
920
919
922
922
922
922
922
922
922
924
925
925
919
916
913
913
910
910
909
912
915
914
913
911
911
915
914
913
911
910
909
909
911
911
909
907
908
911
911
912
908
905
901
904
905
905
900
897
900
903
903
900
895
893
893
896
897
898
896
895
894
896
896
899
896
898
896
896
896
898
896
896
893
896
901
903
899
900
901
909
909
904
904
902
908
923
944
987
1070
1197
1324
1428
1453
1439
1419
1408
1393
1377
1363
1342
1326
1311
1294
1278
1262
1240
1214
1189
1161
1137
1113
1084
1053
1018
987
962
943
924
907
890
866
850
845
840
821
793
764
737
708
678
647
618
602
606
627
651
672
692
706
719
724
725
726
728
726
729
728
732
727
728
727
728
737
747
759
770
779
786
795
806
816
832
846
858
869
875
880
885
891
901
906
904
907
906
908
910
914
919
922
926
925
929
932
932
932
931
936
946
952
958
959
957
956
957
959
960
964
972
980
991
998
1001
1005
1007
1013
1018
1025
1032
1035
1039
1042
1048
1053
1058
1062
1062
1063
1067
1069
1068
1067
1063
1057
1057
1055
1056
1052
1046
1041
1036
1031
1026
1023
1015
1006
997
987
978
968
962
953
948
944
942
932
926
919
913
909
902
893
885
882
883
884
882
879
875
871
870
868
868
866
863
862
866
866
868
869
864
862
857
858
858
856
856
855
858
859
855
853
851
851
853
858
855
857
857
854
859
864
867
865
863
863
866
868
868
866
865
868
872
878
880
879
881
878
877
874
870
871
872
878
882
882
880
876
870
873
874
876
876
875
878
878
883
886
887
886
886
881
883
886
888
886
885
884
887
888
888
888
890
892
895
894
890
889
888
888
891
894
896
896
894
890
891
897
904
908
911
916
921
929
935
939
942
944
948
952
954
963
970
972
971
970
965
959
957
955
962
970
978
980
977
976
984
991
1003
1027
1078
1173
1300
1427
1497
1504
1483
1464
1454
1440
1420
1396
1375
1356
1341
1327
1303
1278
1253
1230
1208
1181
1151
1118
1085
1055
1028
1000
970
942
921
897
879
867
859
842
835
828
823
811
788
764
737
716
699
675
652
622
599
600
626
658
689
713
735
750
764
770
770
774
775
774
775
777
776
774
771
773
781
792
808
818
827
835
841
850
857
866
876
888
904
921
933
943
952
959
968
969
969
963
967
966
974
985
992
998
1001
998
999
1001
1002
1006
1006
1013
1020
1030
1034
1041
1043
1045
1055
1065
1072
1077
1081
1088
1096
1104
1110
1117
1119
1125
1130
1136
1144
1145
1150
1149
1150
1155
1154
1159
1157
1157
1162
1166
1171
1172
1168
1164
1157
1155
1154
1150
1147
1145
1146
1143
1136
1125
1115
1106
1101
1097
1088
1077
1069
1060
1054
1047
1044
1036
1026
1017
1009
1002
995
989
984
979
975
971
965
960
956
954
955
953
952
949
945
943
943
947
952
946
941
939
938
940
941
941
942
939
938
939
939
942
939
936
937
941
940
940
943
944
948
947
946
944
950
951
951
952
949
946
949
949
951
952
953
954
953
953
957
960
964
966
971
973
981
987
994
998
1000
1002
1007
1013
1016
1022
1024
1027
1030
1023
1019
1010
1012
1012
1020
1025
1021
1017
1013
1013
1011
1008
1003
998
994
992
991
990
987
978
971
971
971
973
970
965
962
960
960
958
954
951
950
950
954
954
954
951
952
952
952
954
956
958
959
960
964
967
967
963
957
954
955
959
964
967
969
971
976
981
987
994
998
1019
1063
1148
1275
1402
1497
1524
1516
1511
1498
1488
1471
1452
1432
1413
1397
1381
1365
1343
1323
1297
1275
1248
1223
1196
1165
1136
1103
1071
1046
1023
1002
980
958
935
917
895
880
870
860
844
820
796
773
751
725
697
670
656
659
672
687
705
727
750
778
796
807
815
820
833
841
848
848
850
850
852
859
869
883
897
907
914
928
939
955
965
979
990
1003
1016
1024
1035
1049
1059
1067
1075
1079
1084
1088
1091
1097
1098
1099
1099
1099
1103
1109
1114
1116
1123
1126
1128
1132
1136
1141
1147
1152
1158
1163
1168
1172
1176
1184
1190
1197
1200
1205
1208
1213
1213
1220
1230
1237
1240
1238
1237
1237
1239
1244
1249
1252
1251
1255
1256
1255
1258
1257
1254
1253
1250
1245
1242
1238
1237
1235
1234
1229
1226
1216
1205
1195
1183
1175
1168
1161
1156
1147
1141
1133
1127
1117
1108
1101
1090
1076
1065
1058
1053
1049
1042
1039
1037
1033
1028
1029
1028
1025
1023
1020
1019
1023
1024
1025
1024
1028
1034
1040
1044
1045
1042
1040
1040
1045
1054
1058
1055
1048
1043
1041
1039
1040
1037
1035
1036
1038
1039
1038
1037
1030
1026
1021
1017
1012
1008
1007
1004
1003
1002
997
991
981
973
970
972
970
969
967
961
961
959
957
954
954
952
954
953
951
950
948
946
950
950
950
945
942
942
944
948
950
948
944
942
940
940
940
941
939
936
936
940
943
941
938
929
929
928
931
931
933
933
935
934
938
940
939
938
936
933
931
930
927
928
930
931
935
934
931
927
931
931
936
935
934
934
938
941
937
932
930
931
936
937
938
936
935
938
941
945
954
958
965
979
1002
1050
1143
1270
1397
1472
1485
1473
1461
1451
1443
1425
1408
1390
1372
1355
1338
1318
1302
1281
1259
1232
1204
1175
1147
1121
1092
1065
1039
1008
980
954
928
905
893
884
880
878
871
855
835
804
781
758
729
696
668
645
640
651
670
691
713
735
752
756
757
764
769
774
781
786
789
791
791
789
789
798
810
822
834
842
851
863
873
887
897
909
923
938
950
962
968
975
978
984
986
984
982
984
988
996
997
998
995
995
999
1006
1014
1018
1022
1022
1022
1022
1023
1023
1026
1031
1037
1044
1049
1051
1053
1057
1066
1070
1075
1077
1077
1081
1087
1094
1102
1105
1109
1114
1122
1127
1132
1136
1138
1146
1153
1162
1167
1169
1170
1172
1176
1179
1182
1181
1175
1162
1151
1145
1141
1137
1132
1129
1125
1121
1116
1102
1094
1083
1074
1064
1054
1044
1031
1017
1005
996
985
974
965
954
945
941
931
923
917
910
906
904
900
897
893
887
885
883
882
886
885
883
881
874
868
865
863
867
873
874
868
866
860
859
858
859
861
859
857
858
858
860
860
859
857
858
860
862
865
863
861
861
862
864
865
862
861
861
862
867
867
868
866
865
864
863
863
864
861
864
866
870
867
868
867
865
863
862
864
866
867
865
868
869
871
870
870
868
871
873
870
869
869
868
873
873
874
873
873
871
873
877
880
878
877
876
876
881
883
885
886
883
883
883
882
880
878
878
881
881
882
880
878
880
885
889
891
889
887
889
890
890
891
896
896
895
898
897
899
900
900
905
911
917
923
929
941
966
1024
1124
1251
1378
1450
1457
1444
1433
1422
1405
1384
1360
1345
1330
1316
1299
1281
1258
1239
1218
1192
1162
1128
1098
1067
1033
997
960
929
901
877
853
832
815
801
793
794
785
768
742
714
690
667
643
611
581
565
572
602
634
667
696
718
733
743
744
745
748
751
754
758
767
771
773
772
774
775
785
798
810
823
834
847
858
869
878
892
910
930
946
960
976
991
1008
1021
1030
1037
1040
1042
1043
1050
1060
1064
1066
1064
1063
1064
1069
1072
1072
1071
1076
1082
1088
1093
1092
1096
1096
1101
1106
1107
1109
1108
1110
1108
1106
1107
1109
1112
1113
1118
1120
1120
1119
1121
1120
1127
1130
1132
1132
1136
1136
1138
1142
1139
1137
1133
1134
1132
1132
1125
1123
1116
1111
1111
1112
1108
1100
1092
1078
1069
1062
1057
1050
1040
1030
1023
1016
1007
996
986
979
976
970
963
956
947
937
930
925
920
915
909
904
902
901
898
895
892
889
888
887
887
884
880
880
885
889
890
883
876
870
868
869
870
867
867
867
868
872
874
873
873
872
875
876
874
871
875
874
877
880
880
879
880
880
884
885
886
882
880
884
891
896
898
897
896
894
898
903
906
905
900
894
890
888
891
895
900
899
903
903
901
901
900
897
899
902
905
904
901
898
899
904
905
902
903
904
907
910
911
909
905
906
911
913
914
911
909
911
910
907
903
901
899
903
908
912
918
919
919
915
919
916
914
911
912
912
916
919
920
921
923
919
922
925
924
922
923
926
929
931
931
929
929
929
933
939
940
942
946
952
965
989
1032
1114
1236
1363
1444
1460
1448
1433
1423
1411
1397
1383
1363
1347
1327
1309
1290
1269
1241
1211
1177
1144
1112
1074
1030
989
952
920
892
865
842
824
808
796
791
787
767
743
721
704
683
658
631
600
583
583
610
648
690
728
755
777
789
802
807
811
811
812
818
820
822
821
823
824
836
851
868
879
884
892
899
911
922
934
945
958
972
991
1004
1011
1010
1008
1016
1023
1029
1033
1033
1035
1040
1046
1046
1046
1046
1048
1056
1061
1068
1072
1072
1073
1078
1087
1094
1099
1103
1105
1110
1120
1125
1132
1135
1139
1146
1153
1159
1163
1165
1166
1169
1178
1184
1187
1188
1187
1193
1197
1201
1201
1197
1192
1192
1193
1190
1187
1180
1174
1173
1170
1162
1155
1143
1138
1132
1124
1119
1110
1102
1089
1079
1066
1055
1045
1037
1027
1021
1016
1010
1003
994
986
982
979
973
965
962
956
957
954
952
944
940
937
937
937
934
929
927
922
923
925
926
925
926
923
926
927
930
928
923
916
913
914
917
917
917
913
911
913
915
918
915
912
911
914
916
917
919
919
924
925
923
918
914
914
916
921
922
924
925
924
927
928
928
926
923
924
927
928
927
921
919
919
924
928
929
926
920
916
919
923
924
925
922
919
922
925
927
926
925
920
920
919
922
917
915
914
915
919
913
918
919
926
932
932
927
918
916
918
924
925
918
913
912
915
921
922
923
924
927
930
931
933
936
937
936
937
944
951
958
964
967
966
975
979
983
987
995
1001
1003
1002
1002
1004
1024
1069
1155
1275
1380
1438
1447
1440
1432
1429
1419
1404
1386
1367
1351
1337
1317
1295
1273
1246
1217
1186
1151
1119
1090
1058
1027
993
961
930
906
883
866
850
836
831
825
806
783
756
724
693
657
614
580
567
578
606
641
670
699
719
733
742
746
750
755
759
758
758
757
754
757
764
769
773
782
792
809
823
832
839
846
859
878
899
911
923
935
944
951
952
948
951
956
959
962
969
972
975
975
979
986
990
993
994
993
996
1007
1015
1019
1023
1027
1031
1039
1051
1054
1057
1060
1066
1075
1085
1085
1090
1093
1100
1111
1119
1124
1126
1121
1116
1118
1120
1119
1118
1115
1114
1118
1122
1121
1121
1120
1118
1117
1116
1113
1100
1094
1089
1088
1086
1081
1076
1067
1058
1052
1043
1031
1021
1014
1007
1005
998
990
980
969
957
949
943
939
932
929
928
927
927
920
914
906
904
908
914
914
917
913
908
905
903
902
901
901
903
901
899
892
890
890
892
898
903
903
895
886
884
887
891
890
891
888
891
896
902
903
903
903
896
898
896
890
888
890
897
905
910
900
893
891
895
905
911
908
896
890
889
897
910
914
917
913
908
909
919
922
930
936
938
949
952
953
948
944
947
957
962
968
964
958
957
958
958
957
955
955
956
959
964
960
955
947
935
928
923
922
926
921
915
912
906
900
897
893
893
897
897
890
885
880
878
882
889
894
895
890
881
876
877
878
879
879
882
887
892
894
895
897
899
905
919
932
959
1012
1119
1246
1371
1419
1418
1403
1393
1383
1373
1354
1340
1324
1307
1295
1279
1254
1232
1211
1191
1170
1147
1117
1089
1056
1023
990
970
944
914
884
861
854
851
845
843
839
821
787
758
725
700
674
646
620
616
625
634
649
671
702
726
730
732
733
739
749
757
760
767
769
767
767
773
785
799
814
821
831
839
851
861
873
889
906
926
937
944
948
955
962
969
973
977
978
975
979
988
999
1001
999
995
999
1003
1009
1018
1020
1024
1028
1037
1039
1045
1051
1055
1064
1067
1069
1074
1080
1082
1083
1087
1088
1095
1100
1101
1108
1112
1114
1118
1117
1109
1110
1112
1111
1108
1109
1108
1106
1101
1091
1087
1087
1083
1080
1077
1071
1058
1047
1043
1044
1041
1029
1014
1001
997
995
988
977
967
960
953
947
932
914
903
897
895
894
894
889
886
881
876
873
875
872
872
867
862
861
862
862
865
860
855
852
855
860
869
878
886
892
896
897
895
892
890
898
907
908
904
895
887
880
881
882
881
879
877
880
882
876
869
861
860
857
859
853
847
838
831
827
828
824
815
806
803
805
806
798
795
790
788
789
794
798
794
790
787
782
782
782
780
776
769
769
770
773
775
774
775
779
782
778
768
764
766
771
774
772
772
770
771
769
767
759
757
762
765
767
768
769
766
761
760
759
760
760
760
762
766
767
768
764
762
759
760
769
772
772
769
767
763
768
773
774
776
778
780
783
792
802
823
864
947
1074
1201
1328
1384
1370
1344
1327
1316
1301
1281
1258
1234
1210
1190
1167
1139
1112
1078
1049
1023
987
950
907
863
816
776
735
697
658
620
594
575
561
552
542
530
515
496
479
460
448
438
429
423
419
427
445
468
495
523
554
581
599
609
619
625
630
633
643
651
662
666
667
667
669
680
695
711
720
726
736
749
762
778
788
797
804
819
836
848
854
855
857
866
877
881
879
874
868
876
886
898
903
903
904
908
919
929
939
936
933
933
937
946
956
968
977
984
993
1002
1006
1008
1010
1013
1016
1022
1026
1031
1035
1037
1048
1060
1063
1058
1049
1044
1042
1046
1051
1054
1059
1063
1063
1061
1058
1052
1050
1052
1050
1045
1044
1039
1037
1034
1026
1015
998
982
966
951
945
940
935
926
910
899
888
881
870
858
846
842
835
833
825
811
804
800
796
791
783
773
768
766
765
765
762
762
761
760
764
765
764
765
763
763
763
767
769
768
766
760
759
758
758
757
755
755
757
759
759
759
761
762
762
763
762
762
764
766
767
768
768
770
767
765
767
770
771
774
771
768
766
767
769
768
767
770
778
785
779
773
771
771
775
776
776
777
776
779
780
786
790
790
792
792
792
791
786
783
777
775
778
782
787
788
792
794
795
795
793
792
790
796
799
797
797
800
797
798
804
809
803
800
800
807
811
810
801
800
801
806
810
812
810
804
806
811
817
822
824
828
836
846
859
875
912
980
1105
1232
1359
1452
1448
1427
1411
1400
1385
1365
1340
1317
1292
1271
1253
1234
1209
1182
1154
1127
1097
1065
1026
993
960
927
893
872
847
822
803
787
778
765
754
749
739
721
688
655
625
603
579
561
543
536
542
558
579
605
630
658
675
685
685
688
693
700
703
706
708
711
716
721
726
731
741
758
770
783
794
800
810
824
838
852
860
869
878
895
910
922
930
927
930
934
944
951
957
965
967
972
982
994
1006
1014
1020
1023
1031
1031
1029
1033
1039
1048
1054
1058
1061
1060
1065
1073
1084
1090
1097
1100
1096
1095
1097
1097
1096
1099
1097
1103
1109
1110
1110
1107
1103
1105
1106
1106
1101
1095
1087
1088
1091
1090
1089
1084
1078
1074
1070
1066
1057
1048
1044
1041
1040
1036
1029
1017
1007
999
992
982
975
961
951
942
939
937
929
919
910
907
902
898
897
889
883
884
885
890
888
880
870
864
864
