918
918
918
920
920
921
919
919
921
926
928
927
922
919
920
923
929
930
929
925
923
925
928
930
930
930
931
930
928
926
925
926
929
936
943
945
941
934
932
937
940
940
942
939
942
945
950
954
955
958
957
965
972
976
976
979
978
984
989
994
995
999
1005
1010
1010
1008
1006
1003
1008
1012
1022
1032
1042
1064
1117
1220
1347
1466
1499
1467
1415
1377
1362
1347
1325
1299
1268
1240
1222
1204
1182
1155
1126
1106
1085
1063
1035
1004
973
944
916
889
859
830
805
785
772
756
742
730
721
723
717
706
694
687
687
685
677
662
651
652
659
683
709
738
762
785
803
817
830
839
840
841
844
856
866
875
879
877
880
888
899
912
921
928
932
940
950
959
969
981
990
1005
1018
1028
1035
1038
1042
1049
1056
1064
1071
1074
1075
1081
1083
1088
1093
1099
1102
1109
1112
1117
1121
1126
1132
1145
1156
1163
1166
1172
1179
1188
1195
1202
1209
1217
1224
1232
1241
1251
1256
1258
1263
1270
1277
1282
1285
1285
1288
1290
1294
1297
1299
1302
1300
1298
1295
1290
1287
1286
1280
1273
1263
1257
1251
1246
1236
1228
1223
1214
1210
1197
1184
1174
1167
1159
1150
1138
1130
1129
1123
1111
1096
1089
1081
1075
1071
1062
1052
1044
1044
1043
1042
1039
1033
1024
1021
1026
1031
1032
1025
1017
1014
1016
1020
1020
1018
1014
1012
1014
1019
1017
1013
1011
1012
1012
1011
1011
1011
1013
1014
1015
1015
1018
1021
1019
1015
1014
1017
1017
1016
1012
1009
1013
1018
1020
1020
1015
1013
1016
1018
1019
1020
1019
1024
1027
1026
1027
1026
1023
1023
1021
1024
1031
1028
1028
1023
1026
1029
1031
1033
1031
1033
1042
1051
1052
1051
1050
1052
1052
1056
1057
1062
1066
1072
1079
1082
1078
1069
1066
1069
1075
1078
1075
1072
1070
1070
1072
1070
1064
1059
1055
1049
1048
1051
1048
1039
1031
1025
1022
1021
1019
1018
1023
1024
1020
1010
1003
997
995
997
1002
1004
1005
1004
1000
994
994
999
1003
1003
1003
1001
1003
1005
1006
1002
1001
1005
1010
1017
1028
1048
1094
1194
1321
1448
1489
1455
1411
1382
1369
1352
1329
1308
1284
1262
1243
1228
1208
1182
1159
1132
1106
1082
1053
1023
994
959
925
898
871
839
805
778
765
758
752
748
738
725
712
699
685
671
658
650
648
663
689
712
730
748
778
804
820
824
827
833
847
858
864
872
877
877
884
893
903
909
916
926
947
959
967
975
987
995
1011
1020
1031
1034
1040
1050
1058
1062
1064
1065
1066
1066
1072
1082
1086
1089
1083
1085
1094
1111
1122
1121
1116
1117
1128
1136
1142
1145
1152
1155
1162
1170
1184
1188
1184
1188
1202
1214
1213
1208
1207
1214
1222
1223
1225
1223
1223
1223
1222
1222
1214
1208
1210
1216
1217
1203
1189
1179
1174
1169
1160
1155
1151
1144
1134
1120
1113
1108
1101
1088
1071
1058
1046
1038
1033
1030
1019
1009
1000
993
989
984
974
968
970
970
964
957
953
944
941
942
943
942
935
930
933
937
934
927
920
921
930
938
944
948
945
943
944
945
947
948
950
955
959
958
956
961
969
974
971
964
960
957
957
955
959
962
963
959
957
959
959
957
948
940
936
930
930
927
924
918
912
909
911
913
906
901
896
892
890
888
888
889
891
893
894
893
888
883
881
882
883
885
883
882
883
879
882
884
882
877
873
880
884
885
879
872
873
882
890
892
888
879
873
872
876
882
881
878
876
874
875
875
874
874
876
878
883
886
883
881
877
875
873
877
884
892
890
881
879
884
887
896
900
901
903
908
919
941
989
1088
1215
1342
1408
1376
1331
1301
1277
1256
1231
1208
1183
1161
1142
1126
1106
1082
1057
1034
1014
995
969
945
920
900
881
862
841
816
790
768
753
753
757
759
748
728
714
703
690
676
661
649
645
654
673
687
705
722
745
763
778
783
786
794
803
806
803
802
804
809
814
813
817
824
828
834
841
849
859
870
879
887
897
904
914
926
937
942
948
953
958
957
958
960
964
970
970
969
971
976
987
1000
1003
998
996
995
1007
1008
1013
1015
1021
1023
1025
1031
1034
1038
1041
1043
1054
1067
1075
1069
1066
1065
1072
1078
1081
1085
1086
1085
1085
1086
1091
1090
1088
1086
1086
1085
1083
1080
1078
1075
1077
1076
1074
1076
1081
1080
1075
1074
1072
1067
1062
1058
1053
1049
1046
1042
1039
1030
1025
1020
1005
995
993
996
998
995
988
979
973
966
961
957
953
948
944
941
937
929
920
919
916
913
912
910
907
906
901
893
895
894
894
894
893
890
892
891
892
891
890
889
887
891
887
889
893
891
892
893
892
889
887
888
892
896
898
894
890
885
889
894
901
905
898
894
896
901
900
895
891
892
897
899
897
896
895
892
894
896
898
903
904
901
899
900
904
908
907
901
900
905
907
908
905
903
905
910
911
910
911
907
908
909
911
916
918
920
919
919
916
912
911
914
918
922
923
923
924
921
919
920
924
925
926
926
930
929
932
931
931
932
936
940
944
948
951
958
976
1010
1088
1215
1342
1451
1453
1404
1361
1341
1327
1311
1293
1271
1250
1237
1219
1203
1187
1166
1146
1123
1098
1077
1057
1040
1021
1002
983
966
954
938
919
895
880
874
877
881
885
887
882
879
873
864
853
832
812
801
802
814
828
844
863
881
884
883
877
882
883
882
883
883
884
879
872
867
866
871
877
889
895
898
903
910
916
929
939
950
959
967
975
987
996
1000
1006
1008
1007
1006
1006
1009
1015
1021
1025
1025
1022
1023
1027
1040
1053
1062
1061
1065
1077
1091
1101
1106
1108
1115
1122
1133
1141
1146
1149
1153
1155
1158
1161
1165
1172
1175
1177
1179
1184
1186
1187
1189
1191
1189
1184
1179
1175
1166
1167
1166
1157
1151
1144
1142
1141
1138
1131
1125
1119
1114
1109
1102
1094
1087
1079
1071
1065
1061
1057
1054
1044
1038
1035
1032
1029
1021
1010
1001
998
994
992
990
986
983
980
977
973
971
968
968
970
970
968
965
963
961
958
961
962
960
959
956
958
956
953
950
948
954
960
960
959
952
948
944
949
951
952
950
947
950
955
960
960
955
952
950
957
965
967
967
961
954
957
965
972
976
976
970
967
967
972
974
976
976
975
977
976
978
978
976
980
981
983
978
980
975
977
979
984
986
983
979
979
986
990
990
986
980
987
990
989
985
985
984
988
992
993
994
992
991
989
990
991
991
992
993
995
996
996
994
995
1001
1001
1002
996
996
994
998
1002
1005
1007
1004
1001
1000
1003
1006
1008
1009
1006
1007
1012
1016
1016
1020
1022
1024
1033
1046
1074
1124
1209
1336
1448
1489
1468
1422
1396
1383
1370
1353
1334
1313
1295
1276
1261
1242
1224
1204
1184
1163
1143
1123
1100
1076
1055
1033
1010
988
966
944
922
900
886
874
864
857
858
858
860
858
848
836
818
802
788
769
753
757
774
801
830
853
872
890
901
906
913
918
926
930
934
937
942
947
953
957
957
961
968
977
983
989
998
1004
1012
1013
1019
1030
1040
1052
1062
1071
1079
1087
1088
1086
1084
1082
1078
1070
1066
1066
1070
1072
1069
1061
1050
1054
1061
1061
1058
1054
1054
1055
1061
1068
1070
1071
1069
1073
1079
1083
1083
1088
1091
1104
1114
1116
1118
1119
1123
1127
1128
1130
1129
1132
1131
1132
1137
1138
1136
1132
1133
1134
1142
1139
1133
1123
1118
1114
1116
1121
1117
1107
1093
1083
1079
1074
1067
1061
1053
1044
1037
1027
1021
1016
1007
1000
994
987
980
974
970
963
956
950
941
934
932
930
928
926
922
921
914
909
910
908
910
907
902
902
904
900
896
894
897
898
897
894
891
891
892
889
888
889
889
889
886
882
884
885
884
883
882
884
887
886
888
889
886
883
887
892
893
892
889
887
886
886
893
895
897
896
896
893
886
886
887
889
892
891
892
894
893
890
890
890
886
884
886
894
900
900
894
888
883
885
889
895
895
894
891
888
888
888
889
887
888
887
890
890
889
886
885
885
889
893
893
891
889
886
886
890
896
894
892
886
885
884
887
891
896
898
898
894
890
887
885
885
890
891
892
894
893
893
893
896
896
897
895
894
898
901
902
909
915
923
934
953
993
1079
1206
1333
1427
1422
1377
1339
1318
1305
1293
1277
1257
1234
1214
1197
1180
1161
1141
1120
1095
1072
1055
1044
1022
989
950
909
870
839
804
775
748
725
708
693
679
665
655
650
649
642
632
616
603
593
589
578
567
563
566
577
592
611
628
650
676
703
723
733
737
741
744
751
761
771
781
785
784
785
789
795
804
817
826
829
836
845
856
867
880
887
899
907
919
929
933
936
943
955
961
964
964
965
971
977
980
985
984
981
983
987
993
998
1000
1001
1007
1018
1025
1031
1030
1032
1046
1055
1059
1059
1057
1062
1074
1090
1103
1108
1113
1117
1124
1130
1136
1138
1144
1148
1155
1164
1168
1170
1171
1174
1179
1180
1179
1174
1173
1172
1171
1172
1167
1162
1156
1155
1150
1139
1129
1123
1115
1109
1108
1102
1090
1074
1066
1056
1047
1038
1026
1019
1011
1006
1003
997
985
973
966
961
957
954
948
942
933
925
927
930
922
917
912
911
912
913
910
911
903
897
897
900
902
909
909
900
895
894
898
901
905
904
901
897
897
893
894
895
899
902
900
899
897
895
898
899
899
899
899
900
902
901
902
901
904
901
903
907
912
910
904
899
900
901
906
909
910
906
907
911
914
912
908
910
916
917
907
901
903
909
910
912
905
902
902
902
906
910
913
911
910
910
911
912
909
906
903
908
916
920
913
906
902
906
914
917
916
913
915
914
914
916
918
922
925
926
933
935
939
940
941
941
947
954
961
961
956
959
966
974
976
977
975
975
976
974
968
969
973
981
986
983
978
977
986
988
984
976
974
982
990
1003
1036
1110
1234
1361
1463
1471
1429
1382
1353
1335
1314
1289
1264
1241
1212
1192
1169
1145
1122
1104
1084
1059
1036
1013
995
975
947
919
891
862
839
816
796
772
755
738
731
725
721
721
721
709
690
671
657
651
639
627
618
612
614
623
638
658
677
703
726
745
759
769
781
790
802
807
807
808
811
814
816
821
832
844
854
858
862
867
873
884
893
902
914
923
934
942
955
966
975
984
989
989
994
1000
1000
1006
1012
1022
1025
1025
1027
1032
1035
1031
1031
1035
1041
1048
1050
1053
1055
1060
1064
1067
1072
1075
1081
1087
1088
1090
1096
1108
1124
1132
1128
1123
1121
1127
1134
1141
1145
1148
1145
1144
1144
1151
1150
1153
1152
1148
1152
1153
1153
1150
1148
1144
1142
1140
1137
1134
1131
1127
1130
1133
1127
1121
1110
1101
1098
1099
1091
1084
1072
1068
1064
1061
1054
1045
1039
1034
1031
1030
1026
1020
1013
1005
1000
995
989
986
981
982
984
985
976
971
965
964
965
970
969
964
958
957
959
964
961
961
959
956
956
960
955
956
956
958
963
964
961
958
954
953
958
963
962
956
955
955
956
957
956
961
962
966
965
962
962
961
961
962
962
967
968
965
965
970
974
981
984
989
990
990
993
993
998
1004
1006
1006
1005
1013
1021
1031
1030
1025
1023
1026
1025
1021
1016
1015
1020
1022
1024
1025
1026
1025
1029
1024
1015
1008
1005
1002
1000
998
992
986
980
978
976
978
976
973
970
966
965
965
963
959
962
961
963
963
960
960
963
967
968
965
962
960
963
965
967
969
970
968
967
969
968
971
974
975
979
982
988
994
1005
1024
1060
1134
1257
1384
1480
1485
1444
1403
1384
1377
1360
1336
1314
1293
1281
1272
1253
1234
1213
1196
1179
1166
1151
1132
1110
1086
1070
1055
1042
1033
1021
1008
993
971
960
952
959
967
975
976
970
958
945
937
925
907
888
877
875
876
882
888
899
910
915
919
925
930
927
920
915
915
917
918
915
909
904
908
916
927
929
931
933
938
946
958
966
976
985
997
1006
1019
1025
1031
1035
1039
1043
1045
1047
1048
1049
1053
1054
1059
1063
1067
1067
1069
1067
1068
1076
1082
1084
1087
1089
1093
1098
1099
1097
1100
1104
1113
1123
1127
1126
1128
1136
1142
1144
1144
1144
1144
1143
1147
1155
1166
1173
1173
1169
1164
1165
1163
1164
1167
1172
1176
1174
1166
1161
1158
1158
1159
1158
1152
1147
1145
1147
1142
1135
1128
1121
1120
1116
1114
1111
1103
1096
1087
1080
1072
1070
1067
1062
1055
1048
1042
1039
1036
1032
1029
1026
1019
1016
1012
1009
1006
1008
1010
1011
1010
1005
1006
1007
1015
1020
1027
1028
1030
1034
1038
1041
1041
1039
1039
1039
1044
1049
1045
1038
1033
1034
1033
1035
1035
1032
1031
1032
1040
1048
1048
1037
1024
1016
1015
1015
1015
1012
1009
1004
1000
992
984
981
981
979
978
974
973
973
973
970
966
962
958
958
965
971
969
963
959
963
971
971
965
963
958
958
958
962
962
962
959
956
955
955
957
959
960
958
955
958
962
964
961
957
958
959
959
961
962
958
957
961
965
964
960
955
955
962
967
964
958
953
953
958
966
968
966
962
964
967
968
973
973
966
963
965
967
975
977
975
983
993
1005
1017
1048
1122
1249
1376
1471
1461
1420
1381
1361
1347
1330
1305
1277
1257
1238
1226
1209
1182
1160
1136
1117
1097
1071
1037
999
960
927
900
874
844
807
772
747
738
735
732
727
718
713
701
687
676
667
654
647
655
675
698
725
751
787
813
827
832
836
849
862
867
874
881
884
883
887
895
910
920
928
929
937
948
957
968
981
990
999
1016
1034
1047
1050
1054
1061
1068
1071
1072
1073
1077
1084
1093
1095
1097
1098
1100
1103
1107
1114
1124
1132
1133
1138
1148
1157
1162
1164
1166
1177
1184
1187
1197
1203
1207
1216
1222
1231
1232
1229
1231
1232
1239
1242
1242
1242
1241
1246
1251
1252
1252
1254
1251
1251
1249
1248
1246
1244
1241
1244
1245
1237
1229
1220
1218
1213
1209
1198
1183
1166
1155
1152
1148
1143
1134
1125
1108
1098
1092
1085
1073
1056
1046
1039
1035
1024
1016
1008
1000
994
990
987
981
975
970
969
971
973
967
959
951
953
957
961
961
959
954
948
943
947
953
953
949
947
946
944
946
945
953
954
954
947
944
944
946
949
953
954
953
947
943
945
946
950
949
949
953
955
953
954
956
956
951
946
948
952
959
960
955
954
953
959
964
959
950
943
948
958
965
963
953
952
952
964
965
964
961
957
957
967
974
971
961
957
960
966
967
964
962
962
966
972
972
967
963
964
967
973
977
975
970
966
966
966
969
975
978
979
977
979
975
974
971
972
978
983
986
987
983
985
985
988
987
990
991
1000
1009
1015
1026
1056
1129
1256
1383
1478
1478
1435
1398
1383
1370
1349
1319
1293
1270
1251
1236
1217
1189
1152
1116
1086
1059
1033
1000
965
924
884
853
829
810
786
759
741
733
732
730
721
703
683
669
657
643
631
615
608
612
627
656
685
712
743
776
801
815
822
830
836
847
856
870
880
883
883
886
898
916
932
943
950
957
971
981
989
1001
1019
1038
1051
1064
1074
1081
1089
1098
1107
1111
1115
1120
1125
1137
1142
1148
1153
1159
1170
1180
1188
1193
1201
1203
1206
1215
1234
1249
1253
1250
1252
1255
1262
1267
1274
1283
1294
1302
1302
1298
1300
1304
1311
1314
1314
1314
1313
1308
1303
1300
1302
1301
1293
1290
1287
1284
1282
1277
1268
1256
1246
1238
1237
1235
1225
1217
1207
1200
1192
1181
1170
1160
1152
1146
1143
1134
1122
1106
1092
1083
1076
1071
1062
1050
1040
1033
1032
1025
1013
1002
1002
1004
1001
993
984
977
975
976
974
974
973
973
967
965
969
974
975
969
958
955
958
969
971
964
960
961
963
962
956
953
953
958
956
960
960
956
955
957
960
960
959
955
956
959
966
972
971
966
962
962
962
961
960
962
961
962
964
961
961
960
963
965
962
961
961
960
960
960
965
974
974
968
963
961
965
965
961
957
962
969
974
971
962
957
958
960
964
966
967
963
960
963
965
967
969
965
967
969
967
966
961
965
968
973
978
978
972
966
968
973
973
972
969
967
968
972
973
974
971
966
968
976
987
987
980
971
972
979
982
982
984
988
989
988
989
989
994
998
1007
1028
1072
1156
1281
1397
1452
1440
1404
1378
1366
1350
1330
1311
1290
1273
1253
1234
1216
1202
1186
1166
1143
1114
1088
1059
1036
1013
992
966
942
916
895
871
855
843
843
848
857
854
842
829
823
815
801
773
751
743
757
780
804
830
858
884
908
918
921
924
926
929
934
943
947
945
940
936
937
940
944
952
960
965
974
982
998
1016
1027
1031
1031
1038
1046
1053
1055
1051
1050
1047
1046
1043
1040
1036
1034
1037
1041
1040
1041
1041
1043
1045
1043
1042
1044
1049
1055
1061
1063
1066
1067
1070
1075
1082
1084
1086
1087
1088
1093
1100
1104
1105
1102
1101
1106
1110
1114
1122
1123
1116
1114
1114
1116
1118
1115
1114
1114
1118
1120
1117
1114
1108
1107
1107
1104
1102
1102
1101
1097
1090
1085
1081
1078
1072
1068
1062
1059
1050
1043
1034
1027
1024
1021
1015
1008
1000
993
991
992
992
988
982
980
979
977
974
968
957
958
962
972
974
966
959
958
964
964
961
957
952
948
951
950
948
951
952
953
951
948
947
946
945
947
949
951
951
951
950
949
949
953
954
953
957
959
960
959
955
952
954
959
958
960
960
961
963
964
961
962
962
961
963
964
966
969
970
968
966
964
964
963
963
965
965
967
969
970
970
973
970
965
961
962
970
974
972
969
969
969
971
970
969
969
968
970
971
971
969
967
972
975
971
969
968
969
972
976
975
973
971
972
973
976
975
972
965
970
979
982
982
976
977
981
984
985
981
980
979
980
987
991
993
991
987
994
1005
1021
1043
1083
1163
1287
1402
1459
1454
1421
1402
1393
1386
1372
1350
1335
1323
1312
1303
1290
1270
1252
1232
1214
1199
1179
1157
1133
1107
1085
1066
1047
1016
984
945
916
894
876
865
860
861
859
849
836
813
796
771
752
735
721
707
704
719
743
773
803
827
843
851
853
860
872
878
878
872
875
878
883
880
877
876
883
893
903
910
912
914
927
941
952
963
968
974
984
993
1009
1021
1026
1020
1021
1022
1023
1029
1036
1038
1037
1036
1039
1044
1048
1044
1046
1048
1054
1059
1063
1067
1072
1074
1081
1089
1093
1098
1104
1106
1111
1118
1122
1127
1133
1140
1145
1154
1158
1162
1164
1170
1173
1180
1184
1184
1187
1194
1194
1194
1189
1190
1193
1193
1188
1185
1186
1186
1184
1173
1165
1160
1152
1145
1141
1138
1133
1120
1109
1105
1105
1102
1091
1073
1059
1053
1049
1043
1037
1026
1017
1014
1015
1012
999
990
985
983
980
977
976
970
