1070
1061
1053
1041
1031
1023
1017
1011
1004
997
988
983
977
974
968
962
957
952
950
950
944
942
937
935
937
937
934
931
929
927
929
927
924
924
924
924
925
926
926
925
922
922
921
924
925
925
919
923
924
926
922
921
919
921
922
923
925
923
924
927
927
930
930
929
931
933
936
940
941
942
946
952
961
972
977
981
983
983
986
991
997
1001
1001
998
996
995
989
986
983
982
986
987
983
980
977
976
974
970
964
956
948
946
942
940
936
928
923
922
920
919
916
912
909
906
907
905
903
902
903
899
899
901
901
900
895
895
895
898
896
898
897
897
896
901
899
898
897
897
896
897
897
898
896
899
902
904
906
905
906
911
916
925
937
958
1005
1104
1231
1356
1402
1389
1355
1336
1326
1316
1295
1271
1249
1230
1211
1192
1169
1143
1117
1086
1058
1029
994
959
920
881
846
811
774
738
698
664
636
620
608
600
593
581
564
543
527
514
503
496
494
501
527
562
594
631
670
706
731
748
756
766
779
792
805
813
819
827
832
834
837
846
852
862
872
885
892
902
909
923
937
951
963
971
979
994
1009
1017
1023
1024
1025
1028
1036
1041
1045
1047
1048
1053
1055
1063
1066
1068
1072
1076
1082
1090
1094
1097
1097
1103
1110
1118
1123
1126
1131
1137
1144
1150
1156
1160
1164
1168
1173
1181
1182
1186
1188
1192
1198
1201
1201
1201
1196
1197
1199
1200
1198
1195
1188
1184
1181
1177
1168
1160
1152
1147
1143
1136
1129
1119
1106
1100
1094
1088
1081
1070
1062
1050
1043
1035
1026
1016
1006
998
992
988
980
970
965
959
954
952
950
942
939
937
938
937
940
941
939
946
952
963
967
973
973
975
978
981
983
988
983
978
973
968
964
962
959
962
963
964
957
956
951
948
946
942
940
934
928
922
919
912
908
902
898
896
895
894
893
889
885
884
883
884
881
882
881
882
881
881
881
875
874
874
877
876
875
874
872
872
873
875
874
871
870
870
870
873
873
868
868
867
871
873
872
870
868
868
870
874
872
870
868
869
871
871
873
870
868
870
873
874
874
872
872
875
876
877
879
878
876
877
878
879
878
877
879
883
884
887
889
888
889
891
893
894
896
896
898
903
912
925
942
987
1087
1214
1341
1395
1373
1338
1318
1306
1289
1270
1246
1220
1197
1175
1152
1124
1094
1061
1025
990
949
906
861
813
766
722
682
646
613
588
573
569
563
558
543
525
504
494
486
482
481
494
523
563
604
646
687
718
735
749
763
778
793
802
811
823
829
833
836
840
849
859
870
879
889
897
907
919
933
946
961
973
982
994
1009
1019
1027
1031
1030
1034
1038
1047
1048
1053
1053
1061
1063
1071
1074
1078
1081
1085
1091
1099
1103
1108
1113
1119
1127
1136
1138
1143
1150
1157
1163
1171
1174
1179
1185
1192
1199
1203
1205
1206
1208
1212
1218
1223
1224
1226
1227
1230
1235
1241
1245
1247
1244
1244
1243
1241
1237
1235
1229
1229
1224
1210
1198
1184
1172
1163
1156
1151
1140
1131
1120
1105
1100
1091
1076
1062
1045
1033
1025
1015
1003
991
980
971
966
957
950
943
935
932
927
924
918
913
910
909
907
908
906
900
900
900
898
899
898
894
894
894
893
894
892
893
891
891
891
891
890
891
889
889
890
891
893
892
891
892
893
892
892
891
890
888
893
893
895
891
889
890
891
893
893
894
891
891
895
894
892
892
888
892
892
895
893
894
890
891
894
897
896
895
896
896
896
898
899
899
896
899
902
903
904
902
901
901
904
907
904
904
902
903
908
910
912
909
909
908
910
914
913
910
911
914
915
917
915
916
916
915
917
919
918
919
919
921
922
927
926
926
925
927
930
934
935
936
939
947
957
978
1016
1106
1233
1360
1418
1404
1375
1354
1342
1328
1311
1288
1265
1241
1217
1196
1173
1149
1122
1089
1052
1015
975
933
883
834
782
738
702
667
639
613
596
587
586
582
570
552
535
522
513
506
499
497
507
533
573
613
650
688
720
744
761
774
786
797
811
824
836
846
850
858
858
865
874
883
893
903
909
921
932
942
956
967
982
997
1010
1024
1036
1050
1061
1069
1082
1090
1101
1108
1113
1124
1131
1137
1145
1151
1159
1170
1177
1181
1180
1177
1178
1184
1188
1196
1205
1209
1208
1211
1217
1222
1225
1227
1226
1226
1231
1234
1235
1236
1232
1234
1235
1236
1238
1238
1234
1235
1236
1234
1231
1225
1221
1218
1216
1214
1208
1198
1188
1183
1179
1172
1163
1153
1142
1132
1123
1114
1104
1095
1083
1074
1066
1055
1046
1036
1022
1009
1005
996
989
979
967
964
957
954
946
940
931
930
928
926
922
918
913
910
911
911
906
903
900
900
900
900
899
895
891
895
896
894
894
893
891
891
893
894
894
892
890
890
893
892
893
893
890
891
893
895
897
896
894
897
899
898
899
901
898
898
904
905
907
905
907
905
908
910
909
907
905
907
910
909
910
907
905
907
908
909
908
907
902
905
907
910
909
906
903
905
907
908
906
906
906
906
909
910
908
906
905
907
909
909
909
908
906
908
910
908
909
909
907
911
911
911
912
913
911
912
913
913
911
912
909
913
915
916
917
914
911
914
918
918
921
917
916
917
921
923
926
927
930
936
950
975
1025
1126
1253
1377
1410
1387
1355
1333
1320
1302
1280
1260
1237
1214
1189
1165
1141
1112
1081
1039
996
954
905
851
794
737
690
649
620
595
573
558
546
543
542
536
522
504
492
486
482
478
477
485
510
556
614
669
721
757
780
797
810
822
838
850
862
878
889
894
897
901
903
911
918
926
930
936
940
946
956
967
977
986
992
1001
1009
1021
1029
1033
1031
1031
1035
1039
1042
1044
1043
1046
1055
1059
1061
1066
1066
1070
1076
1082
1087
1090
1094
1101
1109
1113
1120
1123
1124
1131
1140
1146
1150
1154
1159
1166
1171
1179
1181
1184
1186
1191
1194
1196
1197
1197
1194
1196
1198
1198
1197
1193
1187
1187
1181
1180
1177
1171
1163
1154
1149
1142
1134
1126
1118
1111
1099
1087
1081
1071
1060
1055
1043
1035
1025
1014
1003
995
990
983
976
969
961
957
953
948
941
936
931
927
924
925
921
917
913
913
911
912
911
909
906
903
903
905
902
899
895
899
903
904
902
898
895
897
898
902
899
897
893
895
898
900
897
896
896
895
900
901
899
897
896
900
903
904
902
901
900
902
905
905
906
904
904
904
906
907
907
907
905
906
906
910
911
909
904
903
904
907
906
907
905
905
909
907
906
903
902
903
903
905
907
905
905
905
905
907
906
904
901
902
905
906
907
905
905
904
905
907
905
904
904
904
906
908
908
907
906
907
910
910
909
909
909
909
909
911
910
906
908
907
913
913
914
911
912
913
914
915
916
913
912
916
919
924
926
926
927
930
937
947
959
978
1001
1052
1146
1269
1377
1417
1406
1387
1378
1371
1356
1334
1313
1290
1273
1253
1229
1206
1178
1152
1120
1086
1046
1003
953
902
847
792
736
690
651
621
597
577
560
546
541
531
517
503
488
476
468
461
458
457
460
481
515
563
608
643
677
703
720
740
752
766
776
789
796
809
820
822
824
828
832
840
853
865
873
883
890
898
912
924
936
949
959
969
980
993
1000
1009
1013
1018
1019
1023
1026
1028
1032
1036
1041
1045
1050
1054
1056
1061
1068
1072
1079
1081
1085
1093
1100
1110
1113
1119
1122
1130
1141
1147
1153
1157
1161
1167
1175
1184
1190
1193
1196
1203
1209
1213
1219
1221
1221
1227
1227
1229
1228
1225
1225
1224
1224
1222
1216
1214
1206
1202
1198
1192
1185
1179
1170
1164
1155
1149
1141
1130
1121
1110
1103
1098
1087
1077
1066
1058
1052
1044
1036
1025
1016
1008
1003
998
992
985
974
970
967
963
960
957
948
944
944
941
938
936
934
932
931
930
929
924
923
924
925
926
926
923
921
921
923
923
921
922
916
920
920
921
920
919
916
918
919
919
918
918
914
916
917
919
919
917
916
917
920
923
922
919
917
918
922
924
925
924
922
921
923
923
923
922
919
918
925
923
924
923
920
922
923
922
923
921
919
922
923
922
922
920
917
919
918
920
918
919
916
916
919
920
921
919
921
922
923
924
927
928
929
933
939
948
958
961
963
965
971
974
980
984
989
991
992
988
984
978
975
976
977
979
977
975
972
975
974
975
970
965
960
953
954
951
946
939
935
933
932
930
926
922
920
922
920
923
921
922
917
921
931
950
986
1060
1183
1310
1391
1393
1362
1337
1323
1315
1302
1284
1265
1243
1224
1206
1191
1169
1147
1121
1092
1070
1041
1011
979
942
902
865
826
783
745
707
670
635
613
598
586
579
572
566
556
539
521
505
494
485
476
473
475
498
534
576
618
658
690
715
731
744
754
769
775
783
790
797
801
806
810
816
824
838
851
863
874
884
892
905
920
936
950
962
970
985
995
1007
1015
1021
1023
1027
1034
1037
1041
1044
1046
1052
1060
1064
1066
1069
1073
1082
1087
1090
1098
1102
1107
1114
1122
1129
1131
1139
1140
1146
1156
1161
1168
1174
1174
1180
1186
1192
1200
1203
1203
1208
1212
1214
1215
1217
1214
1215
1215
1217
1212
1210
1204
1199
1197
1193
1187
1181
1172
1168
1164
1157
1149
1138
1128
1118
1111
1102
1094
1083
1075
1067
1058
1047
1038
1027
1019
1011
1006
1000
992
984
974
969
965
963
954
949
943
939
937
934
932
927
923
923
922
923
919
917
914
916
916
915
912
911
908
910
910
911
912
908
905
910
912
909
908
907
905
904
908
908
907
905
907
907
910
909
910
909
910
913
917
921
925
930
933
943
950
958
962
963
961
964
970
981
983
980
975
973
968
966
964
962
963
964
967
963
962
958
951
952
947
941
936
932
924
924
921
916
910
903
898
896
896
894
891
885
882
882
880
879
876
876
875
875
878
877
873
873
868
871
871
874
872
869
866
868
869
871
870
869
869
867
868
870
867
865
867
868
868
869
868
867
867
870
872
874
871
869
871
873
873
875
875
877
880
884
888
898
910
939
1001
1119
1246
1358
1382
1356
1327
1312
1303
1289
1270
1245
1223
1206
1190
1171
1152
1128
1103
1076
1051
1022
995
961
924
886
846
805
759
718
679
645
614
593
577
567
560
555
550
536
517
500
487
479
473
467
465
470
490
523
560
598
635
672
697
718
732
741
753
764
774
786
798
804
809
809
811
817
826
834
843
851
862
869
883
896
906
920
931
944
956
968
977
988
995
1001
1007
1013
1015
1013
1015
1021
1026
1031
1034
1036
1038
1047
1050
1054
1060
1063
1067
1071
1078
1086
1093
1099
1103
1110
1116
1124
1132
1134
1138
1146
1152
1158
1162
1163
1168
1172
1177
1184
1183
1184
1184
1185
1186
1185
1181
1180
1174
1174
1172
1167
1164
1158
1151
1143
1141
1135
1126
1119
1108
1100
1095
1087
1076
1065
1055
1048
1039
1031
1020
1010
998
992
986
978
971
959
952
949
946
941
939
939
937
939
943
948
953
957
960
963
966
966
966
967
970
972
968
959
953
947
943
945
944
948
946
944
939
937
934
934
931
924
917
910
910
902
898
893
888
883
880
878
876
873
867
870
869
868
865
863
860
862
859
862
862
864
860
860
858
862
862
860
858
859
860
859
859
861
857
857
860
860
856
856
854
855
855
855
854
855
853
853
854
857
857
854
853
854
857
858
854
854
854
854
852
854
855
858
854
858
858
861
859
858
857
859
861
863
863
861
861
861
866
867
865
866
863
866
871
870
869
870
871
873
874
877
878
877
877
880
884
889
888
888
887
892
897
903
912
921
940
996
1095
1222
1336
1384
1372
1343
1327
1316
1302
1282
1258
1238
1220
1202
1179
1154
1127
1097
1065
1034
998
959
914
871
829
789
742
705
668
640
613
595
579
569
561
558
553
540
524
508
496
491
486
485
493
515
546
585
627
664
696
720
737
752
763
779
789
799
809
820
826
832
834
842
848
860
871
882
887
896
903
915
932
942
956
964
976
988
998
1011
1018
1023
1025
1030
1033
1039
1042
1045
1048
1052
1057
1059
1065
1066
1070
1076
1084
1090
1095
1097
1099
1107
1111
1120
1124
1129
1135
1140
1150
1155
1158
1165
1167
1175
1181
1188
1194
1198
1203
1210
1221
1227
1234
1240
1241
1246
1247
1252
1248
1246
1242
1247
1246
1243
1233
1217
1206
1197
1193
1184
1175
1167
1156
1148
1137
1125
1113
1100
1085
1072
1065
1051
1038
1023
1008
999
987
976
963
953
941
934
929
920
915
908
900
896
895
890
888
886
880
881
880
879
877
874
870
872
871
872
869
866
863
863
865
863
864
861
859
858
859
859
859
858
855
857
857
856
857
854
853
850
855
857
857
857
856
856
859
861
858
857
856
858
860
857
856
856
857
858
860
860
858
854
855
856
859
858
857
854
854
855
855
858
860
863
861
862
864
865
865
865
862
864
868
868
867
868
867
867
871
873
870
866
866
866
871
873
873
870
867
871
872
873
876
874
875
875
879
879
880
880
877
882
883
883
880
881
879
884
886
889
884
884
885
887
888
888
891
891
891
894
898
899
899
901
901
909
916
931
966
1032
1153
1280
1354
1337
1282
1246
1231
1223
1205
1179
1152
1125
1103
1080
1057
1033
1003
971
932
899
862
823
779
732
685
642
608
581
556
534
518
509
505
504
500
493
484
477
469
465
462
459
459
474
497
527
562
599
638
681
706
722
731
740
757
772
788
803
815
822
827
834
841
847
858
864
875
886
898
910
921
932
947
967
984
1000
1013
1024
1040
1059
1076
1091
1102
1110
1115
1124
1133
1143
1151
1159
1158
1160
1162
1165
1166
1169
1172
1179
1187
1192
1193
1196
1200
1204
1207
1209
1210
1210
1210
1211
1214
1220
1219
1220
1220
1222
1227
1231
1231
1231
1229
1231
1231
1228
1227
1226
1225
1222
1223
1217
1215
1208
1200
1194
1185
1177
1165
1155
1142
1135
1129
1119
1106
1091
1075
1065
1055
1045
1032
1025
1016
1006
999
991
981
976
965
958
953
947
942
938
929
926
922
917
914
908
905
902
905
901
902
897
893
892
894
895
893
893
895
897
898
899
897
896
893
893
894
898
898
896
896
895
897
899
899
897
895
900
902
905
900
896
898
905
912
912
910
907
908
911
915
913
913
913
912
912
915
915
917
918
914
919
921
921
922
918
915
913
917
917
917
915
917
918
918
916
914
919
919
921
921
922
922
921
920
923
921
923
922
919
922
924
927
926
927
923
923
922
923
927
925
925
922
927
932
932
928
926
926
926
931
938
938
935
929
927
931
936
934
934
933
935
937
939
941
941
940
941
944
949
950
951
956
965
976
1003
1062
1171
1298
1395
1405
1370
1334
1311
1297
1279
1258
1232
1206
1181
1159
1135
1116
1095
1069
1030
986
943
902
857
808
757
715
681
651
619
596
577
567
567
568
565
558
547
539
532
531
527
527
533
554
591
636
682
725
761
788
806
823
840
859
873
889
902
913
915
913
913
915
920
930
940
945
949
952
962
975
992
1002
1006
1013
1020
1029
1038
1047
1050
1054
1057
1062
1066
1069
1072
1072
1078
1088
1093
1092
1095
1098
1106
1111
1115
1119
1124
1127
1137
1143
1149
1151
1156
1162
1172
1179
1185
1192
1194
1197
1204
1211
1219
1224
1226
1227
1232
1235
1238
1239
1235
1239
1244
1244
1243
1236
1231
1229
1225
1221
1217
1207
1201
1190
1186
1179
1173
1163
1154
1146
1141
1127
1114
1101
1093
1084
1073
1063
1053
1042
1035
1020
1015
1012
1008
1003
992
981
973
970
966
963
959
954
954
952
949
944
940
937
940
943
946
940
935
930
929
931
932
931
932
929
930
927
929
929
930
925
926
927
929
928
923
924
924
926
925
926
924
924
926
929
931
928
926
923
927
929
934
935
934
931
933
933
931
930
932
934
936
940
939
939
936
932
935
934
934
933
935
937
939
940
937
939
936
932
931
930
934
935
931
931
932
935
938
940
936
933
937
938
940
940
941
938
935
935
936
939
941
936
938
943
944
945
941
940
939
940
936
939
940
939
940
944
944
944
944
946
947
948
947
946
944
946
952
960
962
962
964
968
974
981
988
997
1008
1023
1053
1113
1222
1349
1431
1443
1412
1385
1365
1356
1337
1314
1294
1276
1256
1235
1208
1181
1154
1126
1090
1050
1009
963
916
863
813
764
724
690
655
629
606
589
575
564
560
550
540
533
525
514
507
507
510
526
557
594
640
681
714
745
769
786
796
801
810
823
833
840
846
853
859
870
880
896
905
913
921
934
950
963
978
990
1003
1017
1028
1037
1044
1047
1049
1053
1062
1066
1070
1076
1079
1082
1084
1090
1095
1103
1110
1117
1125
1131
1141
1146
1154
1159
1167
1177
1187
1194
1200
1206
1213
1225
1236
1240
1243
1246
1256
1261
1265
1270
1271
1274
1276
1278
1284
1286
1282
1278
1275
1271
1264
1261
1254
1250
1245
1239
1232
1223
1213
1207
1197
1187
1182
1171
1160
1148
1135
1118
1115
1110
1105
1094
1078
1066
1059
1052
1046
1035
1026
1019
1015
1011
1006
999
990
987
986
988
986
977
971
967
966
969
972
973
971
964
958
960
964
970
967
960
955
960
962
963
960
958
963
965
965
958
961
963
964
962
957
954
957
959
966
968
966
962
962
960
961
962
963
965
965
964
965
966
964
962
959
963
969
968
965
961
961
964
965
966
963
961
958
958
961
962
961
958
958
957
963
966
963
958
957
958
959
961
960
962
962
964
968
968
970
973
973
974
980
986
993
995
993
995
1000
1005
1011
1019
1023
1024
1025
1028
1030
1029
1027
1025
1025
1027
1026
1023
1018
1018
1021
1021
1016
1008
1005
1000
999
995
988
982
976
973
973
972
968
965
961
958
960
958
959
964
968
981
1009
1056
1150
1277
1376
1405
1376
1341
1325
1315
1298
1276
1254
1238
1220
1200
1177
1154
1139
1126
1109
1085
1058
1027
992
945
892
844
809
777
742
710
682
646
618
605
600
604
600
588
569
553
541
536
532
528
522
525
542
565
591
617
644
681
720
747
764
774
781
794
809
826
838
846
850
855
866
884
901
912
917
923
933
948
959
976
993
1006
1019
1030
1040
1052
1064
1072
1080
1091
1096
1096
1095
1099
1105
1112
1115
1119
1124
1134
1139
1143
1147
1152
1160
1163
1170
