914
920
923
925
922
919
918
918
917
918
916
919
918
918
923
928
930
926
925
929
933
938
943
946
946
950
958
969
975
974
976
980
986
986
987
991
993
995
994
992
989
983
981
979
981
983
982
978
972
970
970
966
960
955
950
947
945
937
929
921
917
917
915
911
909
905
901
898
896
894
892
891
891
891
894
897
897
893
888
888
888
891
889
889
891
889
891
890
889
891
891
891
891
893
894
894
895
893
895
896
897
897
900
908
920
933
954
1004
1094
1221
1344
1394
1381
1350
1328
1319
1309
1288
1259
1230
1201
1178
1157
1132
1102
1068
1035
998
961
918
867
817
767
720
681
646
611
589
576
571
568
563
558
545
528
510
497
485
476
468
467
482
509
546
585
622
661
696
721
734
745
757
767
780
794
808
817
822
827
837
848
858
867
877
890
904
915
929
944
959
976
998
1014
1026
1029
1026
1026
1031
1038
1039
1042
1044
1049
1055
1058
1064
1066
1071
1075
1084
1088
1098
1105
1108
1109
1112
1117
1125
1129
1134
1138
1145
1153
1163
1169
1178
1183
1188
1190
1194
1199
1202
1207
1207
1210
1212
1207
1203
1207
1213
1217
1216
1211
1210
1204
1199
1198
1195
1192
1188
1179
1176
1169
1163
1155
1147
1140
1137
1131
1122
1114
1103
1089
1079
1071
1067
1062
1050
1038
1029
1028
1026
1025
1017
1012
1011
1013
1017
1023
1024
1025
1026
1026
1029
1031
1028
1028
1029
1029
1022
1013
1008
1004
1004
1005
1008
1006
1000
996
997
997
995
993
987
984
975
970
966
963
958
954
948
944
939
933
931
927
926
925
924
922
919
915
915
915
914
915
915
915
913
911
913
913
913
911
912
914
915
915
915
916
917
917
918
916
913
912
911
914
916
914
912
908
907
909
910
912
910
906
912
915
915
914
905
903
904
911
914
912
908
910
912
913
913
911
910
909
909
911
910
909
908
906
907
907
905
907
906
909
910
912
915
914
914
912
914
917
917
917
916
915
916
920
919
918
916
913
916
921
925
927
925
924
930
938
952
973
1024
1129
1256
1348
1360
1326
1292
1272
1265
1251
1232
1210
1188
1166
1147
1132
1114
1092
1066
1037
1006
976
946
909
874
839
807
776
747
717
685
661
646
639
627
615
609
601
586
575
562
552
538
526
516
518
535
558
585
610
644
682
714
738
747
755
765
777
788
795
798
798
799
807
814
821
834
845
859
869
877
890
900
910
926
943
961
974
985
990
1001
1004
1009
1009
1010
1011
1018
1024
1029
1033
1033
1032
1038
1042
1047
1048
1048
1051
1058
1064
1071
1075
1075
1076
1081
1086
1094
1097
1103
1106
1115
1128
1134
1137
1141
1152
1168
1181
1192
1199
1206
1209
1211
1213
1219
1223
1225
1226
1224
1222
1220
1218
1215
1215
1219
1219
1220
1215
1208
1201
1193
1184
1175
1163
1153
1146
1137
1126
1115
1106
1095
1086
1074
1065
1056
1043
1028
1018
1007
997
990
978
969
963
960
956
952
944
935
927
929
930
929
923
918
911
909
906
908
909
909
908
907
909
908
904
899
894
899
899
902
897
892
887
887
890
896
898
899
897
899
900
898
896
893
893
897
900
902
900
895
895
894
899
899
898
897
897
900
902
903
900
899
897
900
899
901
900
901
900
905
908
908
906
904
898
897
900
905
907
906
904
906
907
910
907
907
906
908
910
913
913
912
913
916
918
916
915
910
907
905
901
906
911
914
915
917
917
917
918
917
917
921
922
925
926
920
921
920
919
920
920
923
925
930
932
932
930
927
925
929
929
934
934
930
931
933
937
938
938
936
933
937
937
940
943
948
950
951
957
962
967
976
996
1058
1165
1290
1371
1380
1344
1312
1295
1285
1270
1254
1236
1222
1211
1202
1192
1177
1159
1146
1131
1110
1085
1061
1037
1016
992
964
937
906
873
842
813
788
763
748
734
724
711
699
682
664
644
633
621
604
586
571
563
569
588
620
654
684
710
733
757
775
786
796
800
810
823
837
843
845
844
850
862
876
888
904
922
944
959
974
984
997
1012
1033
1056
1075
1083
1089
1095
1100
1107
1112
1115
1114
1117
1123
1129
1131
1130
1124
1116
1117
1120
1126
1128
1128
1125
1126
1127
1130
1131
1133
1136
1142
1149
1159
1164
1164
1164
1169
1177
1181
1187
1191
1195
1205
1211
1215
1217
1219
1222
1229
1237
1240
1242
1240
1236
1235
1232
1230
1226
1225
1222
1218
1216
1214
1207
1195
1188
1184
1180
1175
1168
1156
1143
1135
1128
1122
1113
1106
1092
1082
1071
1065
1061
1054
1044
1035
1028
1018
1009
999
993
990
987
983
980
977
972
973
965
960
959
956
955
952
949
950
943
944
945
948
948
945
945
940
940
939
945
944
940
932
929
933
944
949
950
945
941
938
936
934
940
942
946
945
947
948
946
940
940
940
947
952
952
949
944
948
947
949
942
944
946
953
956
958
954
949
947
952
955
954
951
950
948
948
949
951
949
946
947
952
957
959
956
953
950
953
953
955
948
944
941
946
952
954
956
953
951
955
960
962
960
955
952
955
958
957
957
959
962
966
967
967
963
961
957
956
958
962
962
960
956
959
960
962
965
964
958
959
963
968
970
970
967
967
965
971
978
976
970
964
964
967
972
971
973
980
994
1018
1062
1134
1237
1340
1396
1398
1373
1348
1331
1319
1305
1288
1276
1260
1248
1236
1222
1208
1191
1170
1144
1120
1099
1083
1059
1031
997
962
927
888
846
810
779
754
739
729
715
699
681
671
662
647
624
605
589
578
566
553
546
540
548
576
611
645
679
712
741
762
775
784
793
802
812
825
833
835
835
839
845
856
873
884
899
909
918
929
936
942
949
959
975
990
1008
1020
1023
1027
1035
1043
1052
1055
1058
1057
1054
1054
1052
1051
1050
1057
1064
1071
1075
1076
1077
1077
1073
1074
1082
1095
1107
1114
1113
1114
1109
1107
1110
1118
1127
1134
1139
1147
1154
1153
1152
1149
1155
1166
1177
1180
1177
1174
1172
1173
1177
1181
1184
1186
1192
1195
1188
1178
1169
1169
1176
1184
1188
1184
1178
1171
1168
1162
1156
1146
1134
1127
1129
1130
1121
1111
1101
1098
1091
1084
1075
1062
1053
1050
1050
1049
1042
1032
1017
1003
995
987
986
989
990
988
986
984
981
975
974
976
974
973
969
961
958
957
958
960
959
962
961
961
957
955
954
953
953
956
957
961
962
961
960
958
954
956
957
954
948
943
946
954
956
956
951
952
957
962
964
961
955
955
957
959
959
959
953
952
950
953
955
958
958
956
955
955
955
960
960
959
953
951
952
951
951
956
960
956
954
953
951
956
956
958
955
950
951
953
961
968
962
958
953
953
955
957
959
963
965
971
979
990
997
996
992
986
995
1007
1017
1020
1016
1015
1019
1025
1025
1020
1005
1000
1002
1006
1013
1015
1011
1007
1007
1009
1007
1004
995
994
996
997
997
991
984
981
988
1004
1031
1088
1189
1306
1383
1396
1368
1344
1326
1319
1306
1289
1270
1254
1241
1233
1228
1221
1205
1180
1156
1131
1115
1097
1077
1053
1027
1000
978
963
943
919
893
879
873
864
850
839
835
833
821
797
773
746
714
688
669
660
660
672
694
717
742
767
778
789
798
807
815
816
812
813
811
812
811
810
814
822
833
842
849
856
867
878
891
901
912
922
938
955
966
975
982
990
998
1000
1003
1005
1012
1015
1019
1016
1011
1013
1019
1027
1031
1037
1035
1040
1045
1050
1054
1054
1055
1059
1067
1071
1071
1077
1079
1084
1088
1094
1101
1104
1106
1112
1119
1124
1127
1123
1122
1127
1141
1149
1148
1142
1141
1147
1155
1161
1159
1159
1159
1162
1161
1160
1156
1154
1154
1158
1160
1155
1152
1146
1139
1135
1131
1130
1123
1122
1121
1119
1115
1105
1093
1082
1068
1063
1060
1057
1047
1040
1033
1031
1025
1019
1014
1004
999
993
989
986
986
983
982
978
975
972
968
965
960
963
967
964
959
954
954
959
961
965
963
961
954
952
953
954
955
952
951
955
957
957
950
948
950
953
954
958
957
958
959
966
972
979
977
976
976
984
995
1005
1010
1012
1006
1003
1004
1010
1017
1024
1022
1020
1017
1019
1015
1013
1012
1010
1013
1011
1012
1009
1006
1007
1006
999
989
986
984
987
986
978
970
966
960
953
946
945
948
946
949
948
946
940
930
928
931
937
942
940
937
936
938
941
939
932
928
926
930
939
942
941
937
931
928
933
935
938
938
938
939
940
940
940
940
938
937
933
937
940
941
943
944
946
950
952
957
959
964
975
984
1013
1072
1175
1297
1381
1399
1379
1351
1334
1319
1311
1298
1283
1264
1251
1238
1227
1218
1200
1175
1148
1129
1118
1099
1075
1051
1033
1019
1005
988
961
933
909
891
883
878
871
863
849
829
804
779
748
718
690
671
663
669
688
706
723
740
764
782
790
789
789
798
813
824
831
837
835
831
829
834
841
856
869
875
883
893
905
918
929
938
947
957
971
986
1003
1015
1022
1028
1030
1031
1034
1036
1042
1041
1038
1037
1039
1045
1052
1062
1067
1067
1069
1073
1074
1075
1077
1078
1081
1086
1093
1100
1109
1116
1118
1116
1115
1118
1121
1123
1132
1138
1149
1155
1156
1157
1160
1163
1170
1174
1174
1174
1173
1173
1175
1179
1187
1192
1190
1182
1182
1183
1180
1179
1178
1179
1183
1183
1178
1165
1155
1149
1149
1151
1148
1141
1132
1127
1128
1126
1120
1113
1106
1100
1099
1091
1080
1074
1076
1079
1082
1083
1080
1077
1073
1073
1072
1070
1065
1059
1053
1048
1044
1039
1041
1038
1036
1024
1015
1013
1016
1019
1015
1007
997
993
990
984
977
968
964
960
955
953
950
945
941
941
941
940
937
930
928
929
931
933
930
923
923
928
932
935
935
928
925
927
931
932
930
929
927
926
931
930
932
932
933
936
932
929
922
921
928
935
939
940
933
923
920
922
926
927
926
927
927
930
930
928
925
925
933
937
938
935
927
923
928
932
933
932
927
928
933
937
940
939
933
931
931
935
935
936
933
932
936
942
944
942
940
938
940
944
945
941
941
943
945
948
951
950
952
954
958
963
967
969
970
984
1030
1120
1247
1366
1413
1391
1359
1340
1327
1309
1288
1268
1254
1243
1226
1205
1176
1144
1114
1090
1060
1025
983
941
896
849
802
758
723
687
660
643
630
621
612
603
591
573
559
550
539
525
520
527
544
575
609
648
690
725
756
777
792
803
814
827
840
847
853
854
860
865
878
888
900
915
931
946
957
966
979
996
1014
1031
1044
1056
1067
1079
1088
1094
1100
1102
1104
1106
1111
1119
1129
1134
1135
1134
1135
1142
1149
1157
1159
1167
1178
1189
1196
1206
1216
1226
1237
1249
1260
1269
1277
1286
1297
1306
1318
1324
1329
1324
1325
1330
1332
1335
1338
1339
1337
1341
1340
1341
1338
1334
1323
1319
1314
1305
1299
1287
1281
1275
1267
1254
1241
1227
1214
1203
1190
1181
1172
1160
1150
1135
1125
1116
1104
1092
1081
1073
1065
1054
1048
1035
1028
1021
1012
1003
996
992
988
985
987
987
982
977
971
971
966
967
965
962
960
960
960
957
957
956
959
960
958
954
953
947
948
948
952
956
957
953
953
955
954
955
955
953
959
960
960
956
957
955
961
963
965
963
959
956
958
958
963
966
967
969
964
963
961
958
959
960
963
966
966
965
961
962
964
967
969
966
965
964
961
961
960
961
961
962
963
965
964
965
967
963
960
959
958
958
961
964
964
966
966
966
966
965
969
970
972
969
967
968
970
971
972
971
970
967
970
972
974
971
974
969
971
971
974
973
976
975
978
977
978
973
977
977
982
984
985
985
988
993
1007
1029
1083
1187
1314
1412
1431
1404
1376
1359
1343
1320
1300
1279
1263
1245
1224
1199
1172
1145
1115
1082
1045
1004
963
925
885
840
801
763
728
701
678
665
652
638
631
624
607
584
572
562
556
550
544
546
559
590
628
671
707
747
778
800
818
832
846
861
875
886
893
898
908
922
939
954
964
971
976
984
993
1005
1023
1044
1059
1073
1081
1086
1093
1099
1105
1102
1098
1092
1092
1093
1096
1093
1093
1092
1095
1100
1101
1104
1102
1101
1107
1115
1120
1124
1126
1127
1134
1142
1146
1154
1159
1164
1170
1174
1179
1184
1189
1193
1198
1202
1205
1206
1205
1205
1210
1213
1220
1219
1219
1211
1210
1211
1211
1207
1204
1197
1194
1191
1184
1178
1170
1162
1155
1149
1142
1129
1117
1104
1099
1094
1085
1077
1064
1052
1045
1038
1028
1020
1010
1001
994
990
983
975
971
968
968
966
967
961
957
951
952
953
951
950
948
944
941
944
944
941
941
940
939
939
938
936
936
935
935
938
940
940
938
935
936
934
937
935
935
934
937
938
938
939
938
938
944
945
942
939
939
941
945
947
946
941
939
936
940
942
943
940
941
939
941
946
947
943
938
941
941
943
947
944
941
940
941
944
944
943
942
938
940
940
942
943
944
945
941
945
943
944
942
942
944
946
947
946
943
944
944
946
946
947
948
943
945
948
948
948
946
944
946
950
950
947
945
944
944
949
949
950
948
947
950
953
955
954
953
951
954
957
960
962
967
970
980
1000
1036
1118
1238
1362
1425
1422
1399
1379
1369
1360
1349
1331
1321
1309
1293
1274
1258
1238
1216
1187
1153
1125
1098
1066
1032
992
947
898
854
810
769
731
703
677
660
646
628
609
583
565
553
540
526
511
502
507
531
568
610
647
681
706
731
745
755
769
778
787
796
802
802
805
810
817
831
846
859
868
878
891
901
914
928
940
955
969
986
999
1010
1019
1023
1024
1029
1035
1040
1040
1042
1044
1051
1057
1061
1061
1061
1065
1074
1082
1086
1089
1094
1101
1109
1118
1124
1130
1135
1140
1148
1158
1166
1174
1179
1183
1190
1197
1200
1208
1211
1213
1220
1225
1230
1231
1231
1232
1231
1236
1235
1233
1231
1230
1228
1225
1222
1211
1206
1202
1198
1196
1190
1184
1171
1163
1155
1148
1138
1129
1115
1104
1098
1091
1082
1071
1062
1051
1044
1037
1030
1022
1012
1007
1001
1000
997
990
983
976
977
976
974
967
962
958
958
957
953
956
953
950
953
952
952
952
949
949
949
952
952
951
948
948
947
948
945
946
946
948
948
949
948
948
945
943
946
952
952
954
952
949
950
949
952
950
951
949
953
957
958
956
957
955
958
957
956
957
955
953
952
955
956
957
955
952
956
952
953
950
951
951
950
948
952
951
951
950
954
954
958
957
958
962
964
969
974
979
986
990
996
1000
1004
1008
1010
1011
1019
1024
1028
1028
1020
1015
1013
1014
1012
1012
1012
1011
1010
1009
1002
997
992
985
984
981
977
972
964
960
958
957
953
945
942
941
947
947
945
941
934
932
933
935
942
944
948
954
970
1002
1070
1178
1297
1374
1384
1358
1329
1313
1300
1284
1265
1249
1228
1206
1187
1167
1147
1124
1099
1075
1048
1020
995
962
924
885
848
807
770
735
700
663
628
599
588
581
579
579
572
560
545
528
515
504
496
485
479
483
499
524
554
581
611
648
684
713
731
740
753
768
783
791
803
807
812
820
827
841
852
861
871
884
899
913
927
940
957
971
989
1003
1014
1024
1036
1048
1056
1063
1067
1068
1076
1084
1088
1090
1091
1098
1103
1107
1116
1124
1128
1130
1135
1139
1150
1157
1165
1168
1172
1178
1186
1194
1203
1207
1216
1221
1226
1232
1238
1242
1248
1251
1255
1258
1262
1265
1267
1268
1268
1267
1267
1264
1262
1261
1261
1255
1251
1248
1244
1237
1229
1222
1214
1209
1205
1197
1187
1175
1161
1152
1144
1136
1129
1121
1108
1097
1087
1080
1073
1059
1048
1038
1034
1029
1020
1006
999
988
985
981
976
971
965
960
956
956
956
952
950
945
945
947
945
944
942
942
944
946
946
941
937
935
936
937
942
944
943
942
948
950
953
955
959
965
970
979
984
987
987
987
994
1002
1008
1011
1008
1001
999
997
994
995
995
993
993
992
992
992
986
982
977
971
967
962
957
951
950
946
945
938
932
926
924
921
918
913
908
908
905
903
904
901
897
897
896
894
893
894
892
888
890
893
892
890
888
886
888
891
887
886
883
883
884
889
887
885
884
882
882
883
885
883
883
880
883
884
882
884
883
881
884
885
883
884
883
881
885
886
884
882
881
878
883
887
888
888
887
888
888
892
894
893
894
898
905
916
937
985
1070
1192
1303
1358
1353
1323
1300
1285
1277
1265
1244
1221
1203
1184
1171
1155
1140
1123
1100
1076
1055
1032
1011
983
950
915
880
849
820
785
756
724
697
671
649
633
622
612
608
598
583
566
551
541
535
528
519
508
508
515
536
558
578
600
628
656
681
699
710
718
727
737
745
756
765
772
774
774
776
785
796
806
817
828
840
852
859
870
879
893
909
923
938
950
965
976
987
996
1000
1004
1006
1007
1011
1018
1020
1023
1026
1028
1032
1039
1040
1045
1047
1054
1057
1063
1064
1068
1071
1077
1086
1094
1099
1104
1108
1111
1120
1126
1132
1134
1138
1141
1147
1152
1159
1161
1163
1164
1172
1177
1176
1178
1176
1177
1180
1178
1175
1176
1177
1174
1172
1170
1167
1164
1162
1156
1158
1156
1152
1148
1148
1145
1143
1142
1139
1133
1128
1122
1116
1113
1109
1105
1096
1084
1070
1059
1047
1035
1026
1020
1018
1014
1007
1000
991
983
976
971
965
955
946
937
931
927
919
909
903
898
896
891
891
889
883
877
877
874
871
868
867
866
865
867
868
867
863
862
865
868
867
865
861
859
859
863
862
863
862
859
865
868
868
867
864
862
864
867
866
866
865
865
868
868
868
864
864
863
864
868
869
866
865
862
864
864
864
866
864
863
865
866
869
866
863
864
865
869
870
870
867
865
869
870
872
870
868
870
873
873
872
873
873
870
871
874
875
874
872
873
873
876
877
875
873
875
876
878
881
878
877
878
880
882
885
883
882
881
884
886
883
886
885
884
887
890
891
893
890
890
895
895
894
898
898
899
902
906
911
914
919
936
976
1054
1174
1294
1363
1366
1338
1314
1300
1287
1269
1247
1230
1214
1198
1179
1164
1148
1129
1109
1086
1059
1032
1004
981
956
930
894
859
819
785
752
722
691
665
643
630
620
611
604
592
575
557
547
533
518
507
494
494
504
525
554
583
618
652
677
699
714
722
728
739
749
762
771
778
777
782
789
797
807
819
831
845
858
868
878
886
899
913
931
948
963
973
985
994
1008
1017
1023
1026
1030
1038
1045
1051
1058
1065
1070
1083
1094
1106
1113
1122
1128
1135
1143
1152
1159
1167
