1175
1179
1183
1190
1198
1200
1202
1203
1207
1210
1212
1211
1211
1208
1206
1207
1210
1209
1207
1202
1199
1199
1197
1191
1184
1178
1172
1170
1164
1158
1149
1141
1134
1126
1120
1111
1103
1094
1085
1082
1073
1063
1052
1042
1035
1026
1021
1011
1005
1000
995
994
989
987
978
973
968
967
968
967
963
961
962
962
963
964
966
964
969
971
972
978
982
989
996
1004
1009
1010
1008
1005
1010
1017
1024
1023
1017
1010
1005
1004
1002
998
1001
1001
1003
1002
1002
998
994
988
985
982
983
979
973
964
959
955
950
947
945
941
939
937
935
931
927
921
924
923
920
921
921
916
918
919
921
917
916
914
914
918
920
920
919
914
913
914
913
912
912
911
911
915
916
912
910
907
909
911
914
913
910
909
910
911
914
916
908
907
909
912
914
914
911
907
910
911
913
913
912
912
911
915
914
914
911
912
913
917
919
919
918
919
924
929
935
946
965
1009
1107
1233
1333
1358
1329
1287
1270
1258
1248
1230
1209
1193
1180
1169
1154
1136
1118
1096
1075
1050
1028
998
966
932
901
872
845
816
785
755
728
711
694
680
668
655
645
633
617
601
587
574
559
543
534
530
538
560
590
619
655
686
712
721
735
747
756
762
769
775
782
783
786
791
797
808
821
837
848
858
866
877
892
910
927
943
958
971
984
996
1009
1014
1017
1016
1021
1023
1028
1032
1034
1036
1040
1043
1048
1050
1052
1055
1061
1065
1069
1075
1077
1080
1086
1091
1095
1100
1107
1112
1118
1119
1128
1133
1136
1140
1145
1153
1157
1161
1165
1167
1172
1177
1180
1184
1181
1182
1184
1186
1189
1184
1185
1183
1183
1186
1186
1184
1185
1182
1182
1185
1187
1189
1189
1186
1183
1181
1176
1171
1164
1158
1153
1144
1131
1121
1107
1096
1088
1083
1080
1074
1063
1051
1044
1035
1029
1019
1008
995
988
983
977
967
958
946
940
934
930
928
921
915
915
914
910
907
900
898
900
900
900
898
895
894
895
895
895
894
894
893
890
888
893
893
890
889
891
893
895
894
893
891
891
894
895
898
896
893
892
896
897
898
896
893
893
896
897
898
894
892
894
896
896
896
896
893
891
894
896
895
896
892
894
896
897
899
896
894
896
897
897
899
899
896
897
900
901
903
900
899
900
903
902
903
901
901
902
903
907
906
905
904
903
902
906
907
907
906
906
908
909
909
908
906
910
912
914
912
913
910
913
917
920
922
923
921
923
928
931
938
951
976
1043
1155
1274
1341
1338
1297
1269
1257
1248
1234
1217
1200
1183
1171
1158
1145
1128
1110
1093
1074
1053
1029
1004
978
948
916
879
843
808
773
749
727
713
700
692
684
682
676
663
641
620
606
589
574
558
551
558
580
612
645
680
706
727
739
751
761
768
775
779
785
793
797
800
799
801
805
813
828
842
855
863
871
884
898
915
932
946
957
974
986
996
1007
1009
1009
1011
1018
1025
1028
1038
1045
1049
1058
1067
1080
1086
1092
1100
1109
1112
1120
1126
1133
1141
1150
1153
1152
1153
1153
1157
1161
1168
1172
1176
1180
1182
1187
1194
1197
1198
1192
1192
1194
1200
1196
1197
1191
1188
1189
1188
1186
1183
1178
1176
1174
1174
1169
1162
1154
1149
1145
1143
1135
1128
1121
1113
1107
1101
1094
1085
1078
1073
1066
1058
1050
1042
1033
1026
1020
1013
1003
993
983
978
970
964
954
947
938
934
930
926
918
916
909
907
903
904
899
900
897
895
894
894
893
890
886
888
888
889
888
883
881
880
881
883
882
882
880
880
885
882
886
884
882
885
884
888
887
886
888
890
889
894
894
891
890
893
894
898
899
901
901
899
900
903
904
902
898
899
903
903
904
904
902
903
905
905
905
901
900
904
904
905
905
902
901
901
904
907
908
904
900
901
902
905
904
905
903
903
905
906
907
907
905
907
909
912
910
906
905
906
910
910
912
912
909
912
911
913
915
914
913
914
915
918
919
918
917
919
921
923
925
924
923
921
923
924
924
924
926
928
931
935
938
941
942
949
967
1005
1081
1193
1300
1356
1347
1315
1288
1274
1259
1246
1227
1211
1194
1174
1150
1130
1110
1084
1061
1032
996
961
927
891
849
807
762
722
679
642
610
583
563
550
544
536
534
528
519
510
499
489
483
475
470
471
480
500
533
572
613
660
705
749
783
800
811
821
829
844
856
867
869
873
878
885
900
911
924
935
945
952
958
967
977
992
1006
1016
1024
1029
1037
1045
1050
1054
1054
1058
1061
1065
1065
1068
1072
1074
1076
1081
1088
1093
1100
1102
1107
1111
1117
1123
1129
1132
1135
1142
1153
1164
1171
1171
1174
1180
1189
1198
1200
1203
1206
1212
1217
1224
1230
1233
1232
1236
1238
1242
1242
1243
1241
1238
1239
1237
1234
1231
1226
1224
1222
1218
1213
1205
1200
1194
1188
1183
1174
1162
1153
1147
1139
1131
1123
1112
1101
1091
1083
1075
1066
1055
1046
1037
1034
1027
1018
1008
1000
995
992
987
980
974
969
965
960
961
957
952
950
948
949
951
948
944
941
938
937
942
935
934
934
934
933
934
932
934
931
929
930
933
930
929
924
926
928
929
933
930
928
926
927
929
928
924
925
926
929
932
932
930
926
926
929
933
932
933
928
927
929
933
931
931
927
929
930
932
931
930
929
930
932
931
931
931
927
928
929
929
929
928
926
926
928
929
927
926
923
923
926
931
928
929
925
923
924
925
926
926
926
926
929
926
928
929
928
927
928
929
927
923
924
926
929
929
929
926
923
924
927
928
929
928
926
929
932
933
934
934
932
931
932
934
933
932
932
936
939
944
946
949
954
962
967
977
992
1020
1075
1176
1292
1370
1381
1355
1328
1321
1317
1309
1292
1277
1256
1246
1237
1228
1214
1203
1188
1171
1157
1138
1115
1092
1064
1038
1007
979
946
915
884
856
836
822
809
800
794
792
790
782
763
749
734
717
698
677
661
650
656
680
712
741
763
776
788
798
803
805
804
802
802
804
811
809
806
799
793
797
805
816
825
833
839
844
854
861
869
877
889
902
913
922
935
944
950
958
963
965
968
965
970
973
974
981
983
983
983
989
992
998
999
1002
1002
1006
1011
1015
1019
1020
1022
1026
1033
1040
1046
1048
1050
1056
1061
1069
1073
1075
1076
1082
1088
1096
1104
1109
1110
1114
1118
1121
1122
1123
1118
1119
1124
1125
1129
1133
1133
1132
1133
1133
1133
1131
1130
1130
1132
1132
1129
1120
1111
1108
1111
1109
1103
1095
1085
1082
1077
1075
1068
1057
1048
1045
1041
1037
1030
1021
1014
1008
999
996
993
987
983
980
977
973
970
966
962
963
965
963
956
954
952
948
952
952
949
947
946
946
945
945
940
939
939
942
947
949
949
946
942
942
941
942
937
936
935
940
944
947
948
947
946
945
945
946
943
938
937
938
944
947
950
952
952
950
951
949
945
947
949
953
953
957
954
955
955
954
955
955
949
943
943
944
949
953
956
958
957
955
955
954
951
947
944
947
950
951
955
958
962
968
975
978
980
979
984
993
1002
1006
1007
1006
1004
1005
1011
1019
1022
1020
1015
1012
1004
1001
1003
1005
1005
1007
1004
1002
1002
1000
1000
996
991
985
976
969
963
961
963
961
960
948
939
939
941
948
945
944
943
945
943
942
945
947
947
952
966
994
1057
1166
1293
1386
1409
1388
1364
1345
1331
1318
1306
1292
1271
1255
1237
1225
1211
1197
1177
1158
1139
1124
1104
1081
1055
1027
1002
981
963
939
913
887
864
854
850
847
849
850
849
841
825
798
779
759
741
717
697
693
703
719
732
751
771
793
804
810
812
817
821
826
824
822
821
826
831
835
839
844
850
863
871
876
879
881
890
910
932
948
963
975
981
987
990
993
999
1003
1003
1007
1012
1018
1021
1024
1021
1028
1034
1044
1052
1056
1057
1058
1064
1065
1067
1068
1075
1086
1090
1091
1093
1097
1102
1110
1118
1125
1131
1129
1126
1128
1132
1140
1141
1141
1142
1147
1153
1156
1157
1154
1158
1156
1161
1160
1162
1161
1159
1163
1166
1163
1154
1144
1135
1136
1142
1143
1141
1136
1125
1112
1108
1108
1104
1097
1081
1071
1065
1062
1055
1047
1042
1035
1029
1021
1017
1018
1015
1006
995
985
981
974
968
965
971
975
971
957
945
942
947
950
955
954
951
950
948
948
949
950
943
936
931
931
933
933
927
924
927
929
932
937
945
958
963
954
946
944
955
967
974
977
979
983
988
993
991
984
978
976
979
982
986
987
983
977
972
970
972
975
975
971
958
950
944
942
938
929
921
918
917
920
916
909
901
895
898
901
900
895
888
886
887
886
884
882
883
886
883
880
874
871
867
869
872
868
867
866
865
870
869
866
858
858
861
866
872
877
876
871
861
854
854
857
862
863
864
867
872
875
875
875
876
874
873
878
880
874
869
863
869
871
874
874
882
906
937
983
1072
1199
1326
1414
1438
1427
1408
1393
1370
1351
1328
1306
1286
1262
1237
1207
1181
1154
1133
1111
1084
1049
1015
984
951
917
884
858
836
816
796
778
754
730
716
713
700
679
655
640
634
622
589
552
525
531
545
563
578
595
618
639
653
661
669
672
673
675
676
683
688
691
688
690
702
719
734
743
746
745
751
764
781
799
808
813
820
827
835
845
852
859
861
862
871
876
880
881
881
879
884
885
884
884
889
899
903
908
915
927
939
944
943
937
931
933
943
952
957
960
967
979
989
996
1003
1008
1009
1015
1023
1028
1029
1030
1031
1031
1030
1024
1024
1026
1027
1026
1022
1020
1019
1017
1011
1009
1005
998
990
982
976
975
972
961
948
939
932
928
926
929
931
927
921
913
911
909
912
907
895
887
879
874
867
857
848
849
850
850
846
842
837
837
837
832
825
814
804
801
797
790
789
789
783
778
773
769
762
757
754
753
759
763
764
762
760
759
755
752
751
754
755
754
755
757
756
756
757
753
748
749
751
759
761
762
764
760
758
754
753
754
754
751
747
747
747
755
755
755
752
751
749
754
760
762
752
743
740
749
762
767
753
741
737
742
747
749
754
754
750
752
750
751
751
751
752
752
755
756
760
759
757
757
762
767
770
762
753
745
743
749
749
754
755
761
766
768
766
763
763
764
769
775
777
777
776
778
782
790
796
805
821
856
934
1061
1188
1315
1437
1431
1400
1374
1355
1334
1311
1289
1263
1236
1213
1186
1152
1120
1083
1043
1000
961
920
884
847
808
768
733
699
669
645
628
609
594
579
572
567
561
552
538
524
513
508
499
492
489
491
501
518
536
551
570
585
600
615
627
636
640
642
646
649
657
659
662
668
683
696
702
711
719
729
747
759
763
769
775
789
807
818
829
839
850
855
858
858
862
865
871
873
882
889
893
893
895
900
905
915
923
931
935
939
948
960
976
990
1003
1012
1024
1039
1052
1066
1070
1067
1070
1081
1092
1093
1097
1095
1106
1112
1114
1114
1106
1102
1106
1106
1108
1104
1097
1091
1089
1080
1071
1057
1045
1035
1028
1021
1011
999
988
972
960
948
940
931
920
909
900
895
891
881
869
859
855
851
843
832
828
823
824
825
819
810
805
802
808
809
809
803
797
793
795
799
798
802
799
798
794
795
796
797
790
783
788
795
799
797
796
787
788
795
802
801
799
797
802
811
809
804
796
793
798
808
815
815
810
807
812
819
821
817
815
814
819
819
817
818
821
824
820
817
814
818
819
821
824
822
824
824
825
824
827
832
835
836
835
830
830
836
839
836
830
829
833
838
840
839
834
834
839
847
852
855
859
857
857
852
851
847
847
848
852
854
853
851
856
858
861
859
857
856
857
861
871
878
878
869
866
861
865
872
879
880
885
887
895
901
898
895
890
895
908
934
968
1025
1135
1262
1389
1516
1543
1518
1492
1469
1450
1429
1398
1367
1333
1298
1271
1246
1218
1187
1152
1114
1075
1041
1008
971
936
909
886
864
837
809
788
768
757
752
741
724
707
693
679
660
640
622
611
602
603
614
627
643
661
680
704
720
733
740
750
762
774
786
797
807
811
813
817
828
843
860
879
891
905
920
928
933
933
939
954
969
985
997
1009
1021
1029
1035
1032
1031
1031
1025
1019
1017
1016
1022
1022
1019
1022
1026
1027
1031
1031
1032
1035
1036
1038
1040
1045
1054
1066
1076
1081
1080
1076
1076
1081
1091
1102
1105
1104
1110
1115
1118
1122
1125
1130
1128
1134
1140
1144
1143
1142
1142
1142
1144
1139
1132
1131
1127
1125
1123
1120
1112
1105
1097
1094
1088
1079
1067
1058
1054
1053
1043
1026
1015
1008
1002
992
985
982
978
974
963
956
948
944
941
937
932
930
931
925
921
917
917
920
921
915
908
904
904
909
908
913
912
910
908
910
909
906
903
899
900
908
913
914
910
905
901
898
896
898
899
899
901
908
909
913
916
914
914
915
915
912
910
916
919
923
921
917
911
907
906
911
918
922
919
916
915
913
915
916
916
916
919
926
926
921
917
915
915
919
925
928
923
921
917
922
926
925
925
918
917
919
924
929
927
923
921
925
931
932
928
920
915
919
925
932
934
935
933
932
930
929
933
932
930
929
932
938
940
937
931
933
935
941
943
944
943
943
943
947
950
957
959
963
967
973
987
1015
1075
1182
1309
1436
1563
1584
1566
1547
1532
1522
1506
1483
1462
1445
1433
1418
1396
1376
1349
1326
1306
1279
1248
1215
1176
1142
1106
1069
1033
1002
975
951
929
910
895
884
873
867
854
834
810
785
761
745
721
704
682
670
669
683
703
726
742
754
764
776
788
793
799
804
805
812
819
821
818
814
810
817
828
840
853
863
873
879
884
890
898
909
924
937
949
955
965
974
980
989
993
989
988
988
995
1003
1009
1009
1006
1005
1005
1012
1018
1027
1031
1032
1034
1035
1036
1034
1034
1039
1041
1047
1056
1062
1071
1076
1080
1085
1090
1099
1109
1114
1119
1122
1120
1125
1134
1142
1150
1159
1164
1167
1167
1169
1172
1174
1177
1178
1177
1175
1177
1180
1183
1182
1176
1171
1168
1172
1174
1169
1156
1137
1125
1128
1132
1133
1125
1116
1106
1093
1084
1070
1062
1053
1047
1042
1041
1039
1035
1027
1017
1011
1006
1005
999
990
976
973
975
977
972
963
955
958
963
964
962
961
961
960
958
956
954
952
954
961
964
960
954
950
947
949
951
952
954
958
962
960
960
958
954
954
955
956
952
948
943
944
949
955
959
959
957
956
954
955
960
964
966
969
970
969
965
961
958
960
963
966
967
967
966
967
961
958
962
966
969
968
964
963
965
968
968
965
960
956
959
960
961
963
963
965
971
973
975
971
966
966
967
970
975
982
983
981
978
977
978
983
985
994
1001
1007
1011
1013
1013
1020
1024
1031
1034
1032
1025
1022
1018
1019
1022
1025
1024
1023
1025
1021
1017
1012
1012
1015
1020
1018
1013
1009
1009
1010
1012
1009
1006
1002
1004
1017
1036
1067
1127
1237
1364
1491
1581
1583
1563
1544
1533
1520
1501
1480
1459
1442
1420
1400
1381
1361
1338
1313
1284
1257
1227
1197
1167
1138
1108
1083
1055
1023
991
962
940
924
915
901
882
864
851
846
846
840
825
803
786
767
749
731
712
695
683
684
695
719
740
760
777
795
807
818
822
830
833
837
840
841
840
839
841
844
843
845
854
862
875
888
898
904
913
927
939
957
968
978
985
994
1009
1024
1032
1032
1027
1027
1025
1030
1033
1042
1048
1053
1055
1058
1060
1066
1069
1073
1079
1087
1094
1097
1101
1101
1102
1105
1109
1113
1119
1123
1127
1139
1151
1158
1162
1164
1167
1173
1183
1192
1195
1201
1204
1208
1212
1213
1215
1220
1226
1233
1238
1236
1232
1230
1229
1227
1223
1222
1220
1222
1219
1216
1217
1215
1209
1199
1193
1188
1184
1181
1176
1168
1163
1156
1152
1147
1137
1127
1115
1103
1092
1089
1080
1068
1058
1053
1053
1048
1038
1026
1018
1015
1014
1010
1005
999
992
998
1005
1003
995
984
971
971
973
978
982
981
973
971
973
977
977
972
970
974
975
973
970
966
966
972
978
982
982
981
977
972
966
967
968
971
974
977
977
980
977
975
977
985
994
998
1000
998
1001
1012
1022
1025
1027
1026
1022
1026
1033
1041
1050
1053
1043
1038
1032
1031
1030
1027
1024
1029
1033
1036
1034
1033
1029
1027
1027
1029
1027
1023
1015
1009
1004
999
997
1000
1000
999
994
982
973
969
972
976
979
975
975
974
973
972
969
970
970
970
974
978
981
978
976
970
968
969
973
975
974
971
969
967
971
976
979
980
978
980
979
982
984
982
982
988
993
995
992
989
981
982
987
997
1010
1027
1051
1101
1189
1316
1443
1554
1581
1575
1560
1546
1534
1513
1491
1470
1454
1439
1420
1401
1378
1353
1323
1289
1257
1226
1193
1166
1138
1103
1071
1041
1018
996
974
948
926
907
892
886
885
872
852
826
799
775
757
735
712
690
679
688
704
726
742
759
778
798
813
824
838
848
853
856
859
866
870
872
871
875
884
896
908
919
930
942
955
969
981
991
1000
1006
1019
1033
1045
1055
1061
1070
1081
1088
1090
1090
1089
1092
1102
1115
1124
1129
1124
1122
1124
1126
1128
1130
1132
1141
1145
1149
1154
1160
1168
1173
1177
1179
1184
1191
1198
1205
1212
1217
1221
1220
1225
1235
1245
1254
1261
1263
1262
1253
1250
1246
1256
1261
1264
1271
1271
1272
1272
1272
1266
1265
1264
1264
1257
1251
1242
1241
1240
1239
1230
1221
1218
1214
1210
1206
1196
1183
1169
1156
1151
1142
1134
1123
1117
1115
1111
1103
1095
1087
1084
1081
1080
1079
1080
1081
1081
1081
1081
1078
1071
1067
1068
1076
1080
1076
1066
1058
1054
1056
1054
1046
1041
1042
1046
1051
1053
1051
1041
1037
1033
1033
1033
1030
1025
1022
1019
1016
1010
1003
997
994
991
987
985
982
978
974
972
972
975
978
978
978
978
974
973
972
974
970
968
971
974
976
973
967
963
966
968
973
976
975
970
966
971
968
967
968
970
974
972
966
960
962
966
973
976
974
968
960
958
962
965
967
968
965
965
967
971
971
970
965
961
965
972
974
973
970
964
965
969
969
965
963
963
969
977
975
970
968
968
971
976
979
981
980
977
979
980
983
982
977
973
975
978
983
981
982
984
992
997
997
996
993
998
1013
1033
1060
1109
1205
1332
1459
1546
1563
1549
1532
1519
1509
1494
1473
1452
1432
1411
1394
1379
1357
1333
1306
1279
1251
1217
1176
1136
