615
615
615
615
615
606
596
583
570
556
543
531
515
508
513
537
580
636
696
739
781
814
837
856
868
880
886
896
905
910
916
924
928
934
945
959
974
984
991
996
1001
1008
1017
1025
1033
1042
1052
1060
1071
1078
1084
1083
1084
1084
1088
1092
1093
1095
1099
1104
1110
1116
1119
1120
1123
1129
1136
1144
1151
1154
1160
1166
1175
1181
1186
1188
1192
1198
1208
1217
1220
1224
1230
1238
1243
1245
1244
1244
1247
1250
1253
1255
1254
1252
1250
1249
1250
1246
1241
1233
1227
1221
1215
1208
1200
1192
1181
1173
1168
1161
1151
1139
1127
1118
1109
1097
1085
1074
1062
1056
1052
1043
1034
1025
1014
1007
1002
998
994
986
979
977
978
974
972
968
961
963
962
960
955
951
949
950
952
951
948
949
946
946
949
947
946
942
945
944
948
948
949
946
945
943
948
949
948
946
941
942
947
946
945
946
947
950
952
954
954
955
954
958
959
958
957
956
954
955
954
957
956
957
953
957
961
960
957
951
949
952
956
959
957
956
952
948
950
952
953
949
949
952
953
954
954
951
951
953
955
953
954
950
951
954
954
954
951
952
951
953
955
955
955
952
952
957
956
956
955
952
950
953
956
956
954
951
951
953
956
959
959
957
952
957
962
964
964
967
968
975
981
986
992
999
1013
1041
1089
1185
1304
1384
1402
1387
1370
1357
1348
1332
1312
1290
1276
1257
1244
1225
1203
1182
1159
1130
1102
1066
1028
989
946
902
851
803
762
724
694
663
635
615
600
590
585
572
555
538
524
518
511
498
489
486
504
545
591
636
674
708
733
756
772
787
797
806
811
822
828
829
830
831
834
849
862
874
886
894
903
913
931
943
956
969
981
990
1005
1017
1024
1033
1034
1034
1039
1041
1045
1045
1048
1053
1061
1067
1071
1075
1077
1084
1091
1096
1097
1098
1104
1111
1122
1129
1136
1141
1144
1151
1161
1168
1174
1179
1186
1193
1200
1206
1212
1216
1214
1218
1223
1227
1226
1226
1226
1227
1231
1231
1226
1222
1217
1214
1215
1209
1199
1197
1190
1184
1182
1174
1168
1158
1148
1141
1132
1123
1114
1101
1088
1082
1074
1069
1059
1048
1037
1032
1026
1020
1013
1006
997
994
991
987
982
980
976
972
972
968
965
962
958
960
958
960
957
955
954
954
957
955
952
949
946
946
950
950
947
945
946
947
949
951
950
947
945
944
947
951
950
946
944
947
955
960
962
957
955
953
955
958
959
956
955
958
959
959
955
953
953
954
955
956
952
953
952
954
954
954
949
949
947
948
951
954
952
948
949
955
959
963
965
965
967
973
982
990
998
1000
1001
1005
1009
1012
1019
1021
1021
1020
1018
1014
1012
1008
1004
1008
1011
1009
1006
1002
1001
1002
1000
994
987
981
974
971
970
965
959
955
950
949
948
947
946
942
937
939
935
936
935
936
939
944
950
958
973
1009
1091
1214
1327
1372
1352
1318
1297
1288
1283
1266
1251
1231
1210
1199
1184
1168
1149
1124
1101
1082
1058
1035
1005
974
945
920
894
865
830
793
754
726
709
700
692
680
673
663
643
622
599
581
566
549
539
529
535
554
583
618
654
689
723
744
755
768
778
788
796
804
809
815
818
822
827
836
847
862
875
892
901
907
919
936
951
969
981
994
1003
1015
1027
1034
1037
1041
1044
1049
1054
1058
1059
1061
1065
1068
1075
1078
1081
1085
1086
1092
1097
1101
1107
1111
1113
1121
1127
1135
1137
1143
1146
1153
1159
1166
1170
1175
1179
1186
1190
1194
1198
1200
1205
1207
1211
1214
1212
1214
1212
1215
1216
1214
1213
1210
1209
1208
1206
1200
1197
1190
1185
1181
1178
1173
1167
1160
1154
1148
1143
1135
1129
1121
1108
1103
1097
1090
1082
1071
1063
1058
1055
1044
1036
1029
1019
1016
1009
1004
997
991
982
982
982
978
974
971
965
965
966
963
962
961
959
956
955
954
953
953
951
952
955
952
950
949
947
949
951
948
948
949
949
950
953
956
958
960
962
970
978
988
994
1000
1002
1007
1012
1014
1017
1019
1021
1025
1025
1019
1013
1007
1004
1004
1005
1008
1009
1007
1004
1009
1008
1005
1002
998
993
991
984
979
975
973
966
963
958
958
952
947
943
940
939
934
936
928
929
930
930
928
925
925
923
925
927
926
926
925
922
921
924
923
922
922
921
922
925
923
923
922
921
922
924
923
920
920
917
918
921
922
923
921
920
918
923
924
924
923
920
921
924
925
924
921
922
921
924
928
929
927
927
929
934
936
939
940
944
954
976
1022
1107
1218
1317
1356
1342
1318
1299
1287
1276
1261
1246
1227
1211
1192
1175
1163
1148
1127
1103
1077
1050
1024
998
966
928
886
844
806
768
732
696
658
626
608
598
590
587
581
574
563
548
530
517
507
498
491
494
506
527
556
578
614
649
684
715
737
748
765
779
795
803
812
821
831
837
841
843
847
857
874
889
900
910
918
930
943
957
970
980
992
1005
1019
1028
1042
1051
1055
1059
1064
1068
1071
1071
1073
1077
1085
1090
1094
1092
1095
1096
1102
1108
1109
1112
1112
1116
1122
1129
1131
1134
1138
1141
1144
1150
1154
1159
1165
1170
1177
1184
1185
1183
1187
1194
1200
1203
1203
1203
1201
1205
1208
1209
1209
1208
1210
1212
1215
1213
1210
1205
1202
1200
1200
1195
1191
1187
1182
1180
1175
1172
1166
1159
1154
1148
1147
1144
1135
1129
1123
1119
1115
1114
1111
1105
1104
1103
1105
1104
1101
1097
1089
1088
1087
1086
1084
1081
1071
1063
1056
1046
1040
1032
1026
1028
1028
1027
1022
1017
1014
1010
1007
1003
1000
994
988
982
978
974
966
960
952
950
944
941
937
932
930
931
928
926
921
917
914
915
916
915
914
915
912
913
914
913
912
911
907
910
914
911
913
909
910
910
913
914
913
914
912
912
915
914
914
911
914
913
916
911
909
905
901
900
903
908
907
907
905
904
906
903
904
907
908
909
909
906
905
901
907
911
915
913
912
910
909
912
910
907
906
906
906
908
910
914
917
916
914
917
921
921
919
915
911
912
914
921
922
922
918
921
921
924
925
925
926
926
928
929
930
930
931
931
933
932
934
937
936
939
943
944
948
959
981
1034
1132
1254
1343
1365
1338
1310
1296
1287
1274
1256
1235
1217
1201
1183
1167
1144
1118
1092
1067
1037
1005
971
937
901
860
819
776
739
704
675
644
623
607
596
590
586
578
565
545
530
514
506
496
488
487
502
532
571
610
650
687
715
732
747
761
778
790
800
811
824
833
836
837
837
841
855
869
884
893
903
914
925
937
949
960
976
991
1005
1015
1027
1036
1042
1048
1053
1059
1061
1063
1064
1070
1075
1081
1081
1084
1086
1092
1100
1106
1111
1116
1121
1127
1132
1140
1149
1155
1166
1177
1189
1203
1210
1220
1225
1232
1240
1245
1253
1258
1263
1263
1263
1263
1263
1264
1264
1266
1264
1268
1269
1266
1261
1259
1259
1256
1249
1240
1233
1225
1219
1213
1203
1194
1183
1173
1164
1157
1151
1138
1130
1119
1110
1100
1089
1079
1069
1060
1052
1045
1033
1023
1010
1002
996
992
985
975
968
960
955
950
944
937
933
929
928
926
923
917
915
911
910
910
908
905
900
896
898
897
898
896
891
893
892
894
892
891
888
886
889
889
889
886
886
886
889
888
886
886
883
886
889
891
891
892
889
889
890
892
895
892
890
890
893
895
896
896
895
895
896
900
900
899
902
899
903
903
902
902
901
901
903
905
904
905
904
903
907
910
910
907
904
902
903
905
905
903
904
902
906
907
908
907
905
904
905
907
907
906
906
908
909
911
911
908
908
908
910
911
912
909
907
906
913
913
911
912
913
914
917
918
916
914
915
911
913
916
916
916
918
917
917
920
922
922
921
920
927
930
931
935
935
940
954
986
1055
1167
1284
1343
1334
1298
1276
1261
1249
1229
1209
1186
1165
1143
1119
1094
1073
1045
1010
972
934
896
857
818
768
722
681
645
611
585
565
545
532
527
522
516
501
486
472
460
449
442
435
436
455
491
536
584
629
670
699
717
739
758
780
803
821
839
855
868
878
889
898
914
935
953
961
965
972
980
994
1008
1023
1038
1045
1056
1068
1078
1082
1086
1082
1079
1080
1078
1077
1075
1072
1073
1075
1078
1078
1079
1075
1078
1085
1088
1089
1088
1092
1095
1102
1107
1114
1120
1124
1127
1134
1142
1147
1152
1157
1161
1167
1173
1176
1178
1179
1181
1185
1189
1190
1187
1186
1186
1188
1189
1184
1179
1175
1171
1164
1159
1155
1147
1143
1132
1129
1119
1110
1099
1091
1080
1072
1064
1055
1044
1033
1024
1017
1011
999
989
977
969
963
957
949
941
931
926
926
924
916
910
905
901
900
900
898
896
893
891
891
891
888
886
883
882
886
886
885
885
882
883
883
888
882
879
880
878
882
882
883
883
885
883
887
889
888
886
884
885
888
890
888
889
890
889
892
895
894
893
891
893
896
901
898
896
893
894
895
900
900
902
898
895
897
898
899
898
896
896
899
899
897
897
896
895
897
899
897
898
898
897
899
897
897
895
894
896
899
902
902
901
899
898
898
899
903
902
901
898
903
904
904
902
900
898
901
908
906
904
902
902
904
903
905
903
904
903
909
909
907
907
907
908
911
913
912
910
909
909
912
916
919
923
927
930
939
961
1009
1106
1229
1313
1316
1280
1247
1239
1231
1224
1210
1193
1173
1152
1132
1113
1099
1081
1051
1016
978
934
893
852
803
750
703
662
628
598
573
560
546
536
534
524
502
482
466
451
442
435
432
434
450
485
526
563
597
628
654
677
699
721
739
753
766
780
788
795
797
801
807
814
833
846
862
873
884
896
916
934
948
957
968
978
990
1006
1015
1020
1022
1026
1030
1037
1039
1043
1046
1049
1056
1059
1063
1065
1069
1072
1077
1082
1089
1095
1102
1107
1117
1119
1126
1131
1138
1144
1153
1163
1168
1174
1178
1184
1197
1203
1207
1212
1212
1217
1222
1226
1228
1228
1226
1227
1229
1231
1228
1224
1219
1213
1207
1202
1195
1190
1181
1174
1169
1160
1151
1142
1133
1121
1115
1108
1099
1088
1078
1066
1058
1053
1042
1033
1023
1014
1008
1001
991
980
969
964
960
956
954
950
947
940
936
939
940
943
941
935
931
933
931
927
925
923
925
926
919
918
915
915
921
927
926
924
923
922
924
923
916
914
920
925
925
922
923
927
926
925
926
928
928
925
923
923
926
928
927
928
926
929
931
933
933
931
926
926
925
934
935
936
933
930
930
927
928
926
925
927
929
930
927
925
924
923
926
927
926
925
925
925
926
927
925
923
920
922
924
929
927
933
932
937
942
945
950
961
970
975
983
987
986
985
987
990
998
1008
1006
1002
997
992
991
990
989
988
985
986
985
981
978
978
973
968
965
962
958
951
945
941
939
939
937
938
938
944
969
1028
1132
1259
1333
1316
1266
1233
1220
1205
1184
1163
1142
1121
1094
1071
1049
1027
999
968
933
905
877
848
821
792
753
708
665
629
597
573
564
556
549
545
540
530
511
494
479
470
461
453
449
457
477
516
560
601
640
673
696
711
729
744
753
762
771
776
783
793
804
813
824
842
862
873
878
884
905
934
964
979
983
989
999
1013
1024
1028
1034
1037
1040
1043
1048
1057
1064
1070
1075
1083
1089
1096
1098
1103
1106
1111
1118
1127
1133
1134
1142
1147
1153
1164
1172
1179
1186
1189
1196
1204
1208
1212
1215
1218
1224
1229
1227
1230
1228
1227
1228
1230
1227
1225
1223
1219
1214
1213
1206
1199
1191
1184
1180
1174
1164
1156
1144
1136
1130
1123
1113
1103
1095
1083
1076
1069
1059
1048
1036
1026
1020
1013
1005
996
987
979
973
970
965
959
953
949
947
943
941
936
932
928
933
932
930
928
926
924
925
925
926
922
920
919
919
921
921
918
919
916
918
919
918
919
917
915
916
919
919
916
917
917
922
924
925
922
923
926
932
937
945
951
959
971
976
984
988
989
988
990
998
1004
1005
1002
995
988
987
986
986
983
979
980
979
978
974
971
968
961
955
954
946
940
932
927
923
921
917
914
908
904
902
903
901
894
889
888
888
893
892
891
893
894
895
896
894
890
890
884
886
889
890
889
887
886
887
886
886
884
884
886
888
891
889
886
887
887
888
892
891
890
888
886
890
896
895
897
898
902
908
918
938
979
1070
1197
1306
1319
1277
1240
1220
1208
1200
1182
1160
1142
1123
1108
1093
1074
1053
1028
1006
978
955
932
904
869
836
801
769
734
702
660
623
596
581
575
570
564
554
544
530
514
499
486
474
465
464
477
499
528
562
598
639
679
702
720
728
744
761
775
787
797
802
809
812
817
824
835
846
859
874
887
902
912
925
942
960
972
985
996
1002
1016
1025
1032
1036
1038
1040
1044
1052
1057
1063
1062
1064
1067
1073
1080
1085
1086
1089
1095
1102
1112
1115
1119
1122
1127
1135
1143
1147
1151
1157
1161
1167
1175
1179
1183
1186
1188
1195
1199
1201
1200
1203
1205
1207
1208
1209
1206
1204
1200
1200
1198
1192
1187
1182
1178
1173
1170
1164
1156
1145
1137
1133
1126
1118
1108
1097
1089
1081
1073
1066
1055
1043
1035
1029
1024
1015
1006
1002
998
994
994
988
986
983
986
992
999
1005
1008
1010
1007
1009
1013
1014
1010
1009
1003
994
993
983
979
974
976
975
980
977
970
966
961
961
959
952
945
939
932
928
923
917
912
905
903
901
902
899
892
890
886
887
887
885
883
881
882
882
885
885
883
880
880
885
883
881
881
880
879
880
880
879
876
873
873
876
876
876
875
873
873
874
875
873
872
869
870
871
874
875
872
868
871
870
874
873
871
871
871
873
872
871
869
870
870
872
873
875
875
873
875
877
879
879
877
874
876
878
880
881
880
880
880
883
885
885
882
881
881
882
885
887
887
886
888
890
892
892
890
891
895
898
900
899
899
898
903
911
921
940
970
1042
1158
1268
1322
1304
1269
1245
1232
1226
1210
1191
1170
1147
1126
1111
1093
1070
1045
1019
993
963
937
905
870
832
796
763
728
694
655
622
591
566
555
546
537
527
520
513
505
490
479
468
457
451
448
447
456
476
504
540
574
609
645
675
696
713
729
746
760
775
790
803
808
812
814
818
828
844
858
865
872
880
894
907
922
937
951
963
976
987
1001
1014
1021
1030
1033
1038
1042
1045
1047
1047
1050
1054
1061
1063
1064
1068
1072
1078
1084
1088
1092
1095
1100
1103
1112
1119
1122
1128
1132
1138
1145
1154
1160
1165
1174
1182
1190
1203
1213
1221
1232
1242
1253
1258
1259
1262
1262
1264
1270
1275
1275
1270
1262
1258
1252
1247
1238
1231
1227
1222
1216
1209
1199
1186
1176
1167
1157
1146
1133
1118
1107
1096
1084
1069
1054
1041
1028
1017
1009
998
985
972
962
956
948
941
932
927
922
918
917
912
911
905
901
898
895
889
888
882
884
886
885
881
881
879
878
876
877
876
876
873
874
873
876
872
867
864
865
868
869
871
870
868
872
873
872
871
868
865
866
867
869
872
868
868
870
869
874
875
875
873
873
875
876
876
876
876
877
877
876
874
871
870
872
876
876
879
875
875
875
878
880
883
878
877
876
879
879
883
884
882
881
885
885
886
882
881
882
884
885
886
887
887
887
888
890
888
887
888
887
886
886
889
890
891
889
890
897
896
893
891
895
898
898
900
898
896
893
894
896
898
898
895
896
898
901
902
902
897
900
904
906
907
908
908
913
919
929
942
970
1032
1142
1253
1307
1296
1260
1233
1223
1212
1196
1178
1157
1135
1114
1092
1071
1048
1027
999
968
939
906
867
826
783
740
700
659
614
579
547
523
504
490
480
473
465
463
458
447
436
423
412
409
405
403
407
421
449
491
536
579
621
654
679
698
714
731
748
759
772
790
803
813
819
828
836
849
867
887
903
917
930
948
968
984
1005
1021
1037
1055
1069
1084
1101
1116
1130
1137
1137
1139
1133
1133
1130
1135
1142
1148
1154
1155
1152
1154
1157
1163
1160
1158
1159
1160
1165
1168
1170
1169
1169
1175
1180
1183
1186
1187
1187
1186
1195
1199
1207
1211
1212
1216
1221
1226
1230
1230
1229
1233
1235
1236
1236
1231
1227
1227
1225
1222
1215
1208
1201
1198
1197
1193
1187
1178
1167
1158
1153
1144
1135
1123
1113
1107
1098
1090
1081
1069
1056
1049
1042
1032
1022
1012
1001
993
985
981
968
963
953
952
943
936
926
919
912
910
913
913
909
901
899
898
898
897
894
892
891
890
891
892
888
884
882
882
886
887
888
886
886
888
891
892
890
888
882
880
883
884
882
882
882
887
890
891
892
889
886
889
893
895
897
894
893
894
896
901
901
902
898
896
896
897
899
899
899
898
899
901
897
896
892
894
899
899
899
896
894
894
897
900
899
896
894
896
898
898
896
895
896
896
900
904
903
902
900
899
900
900
900
901
898
897
902
905
907
906
905
904
902
901
902
903
904
906
905
905
903
900
902
905
908
909
910
908
906
907
909
912
910
908
907
908
909
911
912
911
911
918
921
926
931
935
950
984
1052
1162
1271
1322
1302
1265
1238
1230
1219
1203
1182
1161
1142
1125
1108
1087
1062
1036
1005
978
947
916
882
844
809
775
741
707
674
638
613
593
586
580
575
567
559
540
519
501
485
473
461
451
456
470
501
543
591
633
668
699
714
729
740
753
767
774
777
785
791
793
796
797
802
811
822
830
838
847
863
884
900
916
928
939
946
956
965
978
989
999
1003
1007
1010
1015
1018
1022
1024
1028
1033
1041
1045
1044
1046
1046
1050
1055
1059
1062
1066
1072
1078
1084
1086
1090
1093
1100
1108
1114
1119
1122
1128
1135
1144
1153
1158
1160
1164
1169
1172
1180
1180
1183
1182
1184
1189
1191
1192
1192
1190
1194
1192
1190
1188
1183
1178
1173
1174
1170
1166
1159
1153
1145
1140
1131
1119
1115
1105
1095
1087
1083
1075
1067
1055
1048
1039
1033
1023
1017
1002
995
992
986
979
969
963
959
957
951
950
944
938
934
935
933
930
926
922
921
920
920
920
921
918
915
918
917
917
916
911
911
912
910
910
907
905
907
911
913
913
907
907
907
908
908
909
907
907
910
914
917
918
916
912
912
916
920
919
918
914
915
917
918
918
918
918
920
919
920
919
918
918
918
921
924
922
919
913
914
916
918
917
913
913
912
912
918
918
915
910
913
915
914
916
912
908
908
911
913
