945
946
947
948
950
951
953
950
948
948
946
944
944
945
950
953
954
951
948
948
950
949
949
950
953
948
951
951
949
951
951
952
960
968
975
973
976
976
982
991
996
998
999
1003
1011
1016
1021
1021
1022
1021
1020
1017
1017
1019
1019
1025
1029
1029
1030
1032
1045
1068
1128
1237
1358
1414
1392
1348
1319
1303
1286
1268
1242
1221
1202
1181
1157
1138
1122
1104
1081
1055
1028
998
963
931
894
858
828
797
770
746
728
716
709
714
714
702
685
671
659
646
619
595
583
588
609
644
688
725
757
775
787
797
806
812
813
816
825
829
834
833
835
840
847
858
866
878
888
895
904
917
934
947
961
972
985
995
1011
1023
1027
1026
1029
1030
1036
1041
1045
1052
1054
1053
1057
1062
1068
1075
1079
1082
1082
1088
1099
1110
1120
1123
1126
1132
1139
1146
1152
1154
1157
1164
1173
1180
1183
1184
1190
1199
1202
1205
1202
1202
1203
1206
1212
1213
1210
1207
1201
1201
1198
1196
1193
1185
1178
1176
1169
1163
1154
1148
1142
1135
1128
1123
1118
1112
1100
1087
1079
1069
1063
1056
1053
1044
1035
1024
1018
1012
1009
1001
992
984
981
978
976
972
972
969
965
965
967
967
961
954
952
955
959
960
956
952
950
949
948
946
944
945
950
952
951
947
947
946
952
953
950
945
943
944
947
944
950
950
949
947
947
947
947
947
949
950
953
958
958
960
958
958
954
955
962
968
970
974
976
978
985
992
994
998
1001
1000
1002
1006
1016
1023
1026
1021
1015
1014
1014
1014
1015
1012
1015
1016
1014
1012
1013
1012
1006
1002
997
992
984
976
970
967
965
961
952
946
946
949
944
939
932
928
933
936
936
933
927
925
928
932
933
933
931
929
929
930
933
933
935
933
934
934
933
931
935
937
939
942
948
947
948
949
958
980
1027
1124
1251
1350
1377
1348
1308
1287
1274
1259
1241
1225
1210
1193
1185
1170
1155
1138
1123
1105
1094
1078
1060
1035
1011
990
966
939
911
878
843
810
781
771
773
780
776
762
751
737
725
711
696
675
656
645
656
674
693
714
738
764
783
796
807
821
827
827
830
838
848
853
853
850
848
855
864
875
885
893
900
909
919
930
941
953
967
976
986
999
1013
1020
1023
1022
1025
1028
1031
1034
1042
1050
1052
1048
1049
1051
1056
1061
1065
1072
1078
1080
1082
1087
1091
1097
1101
1108
1113
1116
1119
1122
1131
1136
1141
1148
1151
1155
1155
1155
1161
1168
1175
1175
1178
1176
1181
1187
1185
1183
1181
1181
1184
1182
1178
1170
1167
1169
1170
1172
1161
1150
1145
1138
1135
1130
1125
1116
1108
1103
1098
1097
1088
1074
1065
1059
1055
1050
1041
1035
1023
1014
1011
1006
1003
995
986
979
978
975
973
965
958
953
957
959
956
955
954
952
955
961
965
966
967
967
976
985
987
987
995
1001
1003
1001
997
999
1001
1001
997
992
989
984
981
981
981
984
985
981
978
974
972
972
971
964
957
950
947
947
946
942
932
924
920
920
917
914
911
908
909
909
906
898
896
893
898
903
903
902
898
895
899
898
895
890
890
891
893
892
888
887
886
884
888
890
893
887
884
878
879
881
891
895
895
886
884
883
883
889
887
885
881
883
883
883
881
881
885
891
891
886
881
882
886
885
886
884
882
879
881
890
892
889
884
882
884
889
890
892
890
886
888
891
894
894
893
893
897
899
901
899
903
906
908
914
925
938
966
1036
1157
1284
1347
1333
1294
1258
1248
1242
1229
1209
1190
1173
1155
1140
1124
1106
1083
1060
1042
1030
1012
984
954
918
882
846
814
783
752
716
682
645
617
601
589
579
576
576
570
557
544
534
531
530
523
516
515
532
565
597
624
655
689
717
737
748
756
763
771
782
796
813
818
821
824
829
842
849
855
862
873
883
894
899
908
921
937
950
956
961
972
979
989
999
1015
1030
1031
1025
1019
1025
1032
1039
1042
1045
1048
1056
1068
1071
1066
1064
1072
1084
1094
1098
1095
1099
1106
1114
1124
1130
1137
1141
1142
1144
1149
1156
1164
1169
1173
1173
1180
1193
1202
1203
1199
1196
1207
1219
1222
1222
1222
1219
1220
1223
1230
1238
1241
1238
1234
1235
1234
1226
1221
1219
1221
1219
1213
1207
1193
1180
1169
1161
1154
1144
1135
1123
1118
1114
1109
1095
1084
1070
1056
1049
1036
1020
1009
994
983
978
975
965
955
945
940
937
934
928
920
908
910
910
913
910
905
899
897
899
897
891
890
892
903
902
899
894
890
893
898
898
895
890
885
883
887
893
889
887
883
885
889
888
885
889
892
894
896
892
892
895
896
891
887
886
893
893
891
889
891
894
895
891
888
889
892
898
894
896
895
894
895
896
896
894
895
894
898
899
899
898
898
895
894
899
902
906
906
899
896
901
906
909
907
905
905
905
907
907
908
909
906
904
904
905
910
913
911
910
910
907
909
907
912
915
916
912
910
911
912
916
918
918
916
914
917
918
921
922
921
918
919
919
919
920
920
925
926
929
929
928
929
932
939
945
952
962
982
1038
1143
1266
1359
1379
1347
1305
1284
1275
1263
1243
1220
1199
1182
1166
1146
1125
1102
1080
1058
1030
999
965
931
891
858
820
778
733
696
663
632
602
579
561
550
539
536
535
529
518
505
494
491
486
479
476
475
482
513
548
585
624
659
692
717
735
741
753
763
772
788
802
815
823
830
835
844
850
860
868
881
894
905
917
926
933
946
958
975
990
1006
1017
1029
1040
1054
1066
1077
1084
1093
1098
1107
1115
1122
1126
1132
1145
1156
1162
1165
1162
1164
1162
1168
1174
1179
1185
1186
1188
1193
1199
1203
1206
1206
1207
1210
1212
1216
1215
1214
1216
1218
1219
1220
1220
1221
1219
1222
1224
1224
1222
1219
1216
1215
1214
1215
1209
1203
1198
1195
1190
1186
1177
1170
1159
1153
1145
1137
1126
1113
1103
1093
1084
1077
1067
1053
1043
1032
1027
1019
1009
998
988
981
976
969
956
949
942
939
937
932
930
922
919
915
913
909
904
903
899
898
899
899
894
892
889
890
890
892
890
884
883
884
885
886
887
884
885
886
887
889
888
887
885
885
888
888
885
886
888
890
893
896
896
893
893
898
897
900
900
899
896
901
904
904
906
906
905
907
909
910
909
908
907
910
911
913
909
906
904
910
910
909
909
905
908
912
911
911
912
909
910
911
912
913
912
913
912
915
915
916
914
915
916
916
918
921
921
919
917
920
917
923
920
919
920
922
925
924
924
921
923
925
926
926
927
927
924
926
930
931
931
931
930
932
933
931
932
933
932
932
939
939
941
945
946
951
958
967
983
1025
1113
1240
1349
1382
1353
1312
1290
1282
1271
1253
1234
1213
1193
1174
1158
1134
1113
1093
1064
1042
1013
984
948
911
866
824
780
736
700
669
637
611
595
583
575
573
568
564
554
545
532
521
509
506
506
511
529
558
600
642
685
727
759
788
807
825
836
849
859
869
879
890
894
894
888
886
890
894
902
911
915
920
925
934
945
957
970
985
994
999
1005
1018
1026
1035
1038
1042
1047
1049
1051
1053
1055
1058
1065
1067
1072
1073
1076
1080
1086
1088
1092
1093
1100
1107
1113
1117
1120
1122
1129
1135
1145
1148
1152
1156
1163
1171
1178
1182
1186
1189
1193
1202
1204
1210
1213
1216
1218
1222
1224
1225
1225
1224
1222
1219
1220
1215
1213
1205
1201
1197
1195
1188
1184
1174
1164
1157
1151
1146
1139
1129
1119
1109
1100
1092
1082
1073
1063
1056
1049
1042
1033
1023
1016
1010
1005
998
991
986
977
975
975
973
968
964
960
958
956
953
950
947
945
945
947
945
943
942
939
940
940
940
940
937
935
937
938
936
938
935
933
932
935
935
934
933
931
934
937
938
937
938
936
936
936
937
938
936
937
941
945
946
947
947
939
941
941
941
942
942
939
940
943
943
942
940
937
938
937
936
935
933
933
935
936
935
937
937
935
933
935
932
931
930
931
933
933
932
932
931
929
931
930
933
932
928
929
932
933
929
931
927
928
929
929
929
930
927
927
928
930
931
930
927
927
930
932
932
933
932
933
935
937
941
943
945
946
950
956
963
966
972
976
979
986
993
1000
1014
1028
1049
1083
1159
1278
1388
1438
1430
1406
1386
1374
1356
1338
1316
1295
1275
1250
1227
1201
1173
1141
1106
1070
1034
994
955
919
872
826
779
735
698
664
627
598
573
557
553
552
547
535
521
508
501
499
493
484
478
480
500
531
578
618
656
691
722
746
763
775
786
793
806
817
823
828
827
825
829
834
843
854
866
872
885
894
900
911
921
935
947
962
972
980
985
994
1003
1011
1014
1014
1019
1021
1024
1032
1036
1043
1045
1048
1057
1061
1066
1069
1075
1082
1088
1096
1102
1108
1114
1120
1128
1135
1142
1148
1155
1162
1170
1178
1186
1188
1194
1197
1204
1212
1215
1218
1219
1221
1226
1228
1228
1228
1224
1224
1222
1222
1219
1215
1207
1203
1197
1193
1186
1177
1169
1161
1154
1149
1141
1129
1117
1108
1099
1095
1083
1073
1063
1053
1047
1039
1031
1023
1013
1004
999
995
988
979
973
967
964
963
960
956
955
948
949
947
947
943
941
939
939
940
937
935
934
932
934
933
933
935
934
932
935
935
936
933
931
932
934
936
935
932
932
934
939
942
940
938
936
935
939
939
942
943
939
939
941
945
945
943
945
942
946
946
946
945
941
941
944
944
946
944
943
942
946
946
947
947
948
947
951
953
953
957
962
968
972
981
986
986
987
992
1005
1015
1020
1019
1014
1007
1004
1004
1003
1002
999
997
998
1000
1001
998
994
988
983
980
971
970
962
960
959
957
950
946
945
945
944
945
940
938
936
933
936
937
939
940
938
938
940
947
953
960
970
992
1049
1160
1287
1414
1451
1424
1394
1374
1361
1341
1317
1290
1269
1249
1229
1203
1174
1146
1123
1095
1068
1030
991
942
893
846
803
764
723
686
657
637
622
613
607
604
601
587
572
558
550
543
538
535
536
553
580
617
653
686
720
752
774
787
803
813
824
835
845
856
864
870
877
883
895
905
918
929
937
948
956
967
983
997
1011
1023
1035
1047
1063
1072
1079
1084
1085
1087
1093
1100
1104
1107
1111
1112
1117
1124
1129
1133
1137
1142
1147
1156
1163
1166
1170
1176
1183
1191
1195
1203
1205
1209
1218
1228
1232
1237
1242
1244
1252
1258
1262
1265
1265
1268
1272
1275
1274
1273
1272
1268
1266
1264
1262
1260
1254
1247
1244
1239
1231
1221
1214
1205
1201
1196
1187
1176
1166
1158
1151
1148
1135
1124
1112
1103
1096
1088
1080
1068
1060
1050
1044
1040
1031
1024
1016
1011
1006
1002
1001
996
992
989
990
988
986
984
978
974
974
975
975
973
968
965
967
969
972
969
968
968
971
973
971
974
976
978
985
992
998
1003
1009
1014
1021
1024
1024
1027
1027
1033
1038
1039
1033
1027
1022
1020
1021
1026
1026
1024
1021
1018
1020
1021
1017
1012
1006
1003
1000
999
994
984
979
972
968
967
963
960
956
954
954
950
948
944
943
941
943
945
946
943
939
940
943
941
945
942
939
938
941
945
945
941
937
937
941
942
943
941
940
938
939
940
941
940
939
939
942
941
939
938
938
940
942
945
943
943
942
941
945
946
947
946
947
948
951
952
956
954
956
958
968
978
991
1022
1096
1223
1350
1452
1453
1419
1391
1382
1369
1355
1333
1311
1290
1272
1256
1237
1212
1188
1159
1128
1098
1068
1031
992
952
914
880
846
809
770
734
712
700
688
683
676
660
646
626
615
606
595
586
576
583
602
632
671
705
742
780
805
820
832
839
852
861
874
880
889
888
891
893
897
906
917
924
932
942
952
962
973
982
994
1011
1021
1033
1044
1054
1061
1068
1075
1077
1080
1081
1085
1089
1092
1095
1097
1099
1103
1109
1115
1119
1124
1125
1129
1133
1140
1147
1153
1157
1161
1166
1171
1176
1181
1187
1194
1200
1208
1211
1215
1220
1223
1227
1231
1236
1238
1237
1239
1244
1248
1246
1242
1240
1239
1238
1235
1233
1228
1223
1218
1216
1211
1205
1199
1191
1181
1179
1175
1171
1165
1160
1154
1151
1153
1151
1146
1139
1135
1132
1128
1122
1119
1117
1109
1098
1089
1078
1068
1061
1055
1055
1054
1048
1044
1038
1030
1028
1027
1020
1014
1005
999
993
988
982
978
970
966
962
960
956
954
950
945
944
945
940
936
933
932
935
934
933
930
928
927
929
930
927
928
928
926
930
931
930
928
927
926
930
931
931
930
929
925
928
928
928
928
926
926
927
928
927
924
923
924
926
926
924
923
922
921
924
925
926
923
922
923
924
927
925
926
924
923
925
928
928
927
927
925
926
930
928
930
927
928
929
931
933
931
927
927
931
934
933
932
933
930
931
934
935
935
935
933
937
938
940
939
938
939
938
944
942
943
941
941
947
949
949
949
949
953
958
963
970
980
998
1049
1150
1277
1404
1455
1432
1400
1382
1372
1357
1338
1312
1287
1267
1247
1223
1196
1165
1131
1096
1063
1025
980
933
888
846
804
763
726
691
658
638
626
617
609
599
589
575
560
545
535
526
519
523
543
575
615
655
702
742
771
786
796
806
819
832
847
856
861
868
871
874
882
892
901
911
920
932
943
952
966
978
992
1006
1019
1030
1040
1050
1054
1063
1069
1072
1076
1079
1080
1087
1093
1097
1099
1102
1107
1117
1125
1133
1139
1145
1155
1165
1181
1194
1201
1208
1219
1227
1236
1243
1249
1259
1266
1274
1277
1281
1278
1278
1281
1287
1291
1295
1295
1295
1292
1292
1291
1287
1281
1272
1266
1261
1253
1245
1235
1227
1217
1210
1198
1190
1180
1167
1155
1146
1137
1125
1112
1102
1091
1084
1075
1065
1056
1045
1035
1027
1019
1013
1004
996
987
982
977
970
962
959
954
948
950
945
942
938
932
932
931
927
925
920
920
921
923
920
916
913
912
913
914
913
907
906
906
907
909
909
906
905
904
907
906
905
905
905
904
907
908
908
909
906
904
907
911
909
909
909
910
912
915
917
913
912
914
916
919
919
919
917
918
920
923
921
922
920
918
922
922
922
921
921
919
923
924
922
921
921
920
921
921
924
920
919
921
921
925
923
923
922
921
922
923
925
922
922
922
926
929
928
928
926
924
929
929
929
929
927
927
932
932
933
930
929
928
931
935
934
933
933
933
934
937
936
934
935
936
939
939
941
942
940
942
945
945
946
946
950
953
959
969
979
1000
1054
1166
1293
1414
1437
1410
1379
1358
1349
1334
1312
1285
1260
1238
1215
1198
1175
1146
1119
1086
1054
1022
982
939
894
845
796
757
717
680
648
621
605
596
587
583
574
557
543
535
527
514
503
495
499
513
544
584
630
677
725
759
778
795
808
830
852
874
887
902
912
919
930
943
957
966
976
983
994
1004
1011
1022
1034
1048
1062
1074
1081
1090
1098
1105
1113
1111
1107
1105
1103
1105
1107
1108
1107
1103
1100
1099
1102
1108
1110
1107
1109
1108
1116
1125
1132
1138
1140
1144
1151
1157
1161
1166
1174
1173
1181
1189
1193
1196
1198
1201
1210
1215
1215
1216
1218
1219
1220
1224
1222
1221
1216
1216
1214
1211
1208
1198
1195
1188
1184
1182
1176
1172
1164
1156
1148
1139
1132
1121
1115
1102
1093
1082
1067
1051
1039
1024
1020
1019
1018
1011
1007
1001
993
988
976
972
967
966
964
958
948
942
948
953
956
953
942
933
930
935
942
942
937
933
926
924
924
928
926
925
924
923
921
924
927
929
927
925
921
926
922
919
920
919
915
914
910
913
922
931
934
935
931
931
929
926
928
930
939
943
944
943
941
945
943
939
939
937
939
940
942
940
939
937
938
939
936
933
934
936
940
940
937
934
936
933
935
938
937
938
936
935
938
937
933
932
934
936
940
939
939
941
938
940
938
939
937
937
936
937
937
940
938
942
944
944
945
944
943
945
941
940
942
942
942
941
940
937
942
942
942
941
937
939
946
949
953
950
947
945
950
954
955
953
950
949
954
961
966
971
977
1002
1051
1147
1273
1386
1434
1429
1405
1388
1375
1363
1353
1342
1328
1315
1297
1279
1258
1239
1218
1201
1181
1156
1123
1085
1041
1000
946
895
847
803
767
736
704
679
653
636
628
621
610
597
579
564
551
542
526
511
503
507
521
550
592
634
668
705
733
750
765
775
783
798
815
827
835
844
844
847
850
856
863
870
879
889
899
914
917
927
936
950
965
982
992
1001
1007
1016
1025
1035
1035
1036
1035
1037
1042
1049
1056
1060
1058
1061
1063
1068
1071
1071
1075
1076
1083
1091
1096
1104
1104
1109
1115
1122
1127
1132
1137
1141
1148
1159
1167
1174
1176
1180
1187
1196
1198
1202
1207
1212
1217
1226
1226
1230
1230
1227
1227
1230
1230
1224
1222
1222
1222
1222
1219
1211
1207
1200
1196
1191
1184
1176
1169
1158
1155
1146
1135
1123
1115
1103
1098
1088
1079
1071
1062
1051
1046
1041
1031
1021
1010
1001
998
994
987
980
972
968
963
963
963
957
953
947
947
948
943
941
935
935
932
935
932
931
929
929
930
931
930
929
927
925
927
928
928
924
924
926
927
927
924
923
922
922
922
926
922
923
922
922
923
926
923
922
920
922
921
925
925
925
923
924
926
929
930
931
928
926
927
930
925
925
924
923
928
931
928
925
922
922
922
925
925
924
921
923
924
925
925
922
920
921
921
922
922
921
918
922
922
925
924
922
921
923
922
927
926
924
926
929
929
932
932
932
933
937
942
949
956
963
968
973
976
980
983
988
993
1001
1003
1001
997
992
990
988
989
988
988
987
989
987
989
991
986
979
975
974
972
973
974
966
963
954
952
955
959
977
1021
1112
1238
1355
1415
1414
1385
1362
1344
1331
1312
1293
1276
1260
1238
1219
1194
1169
1148
1126
1104
1084
1052
1020
987
957
926
894
852
808
766
733
703
674
641
623
607
598
593
591
585
571
547
532
522
517
506
496
490
494
511
540
578
612
643
680
717
743
757
766
772
778
786
794
799
804
806
806
811
816
822
831
841
855
866
877
886
893
905
915
929
943
956
968
978
992
1005
1013
1020
1023
1024
1026
1032
1037
1041
1046
1050
1054
1060
1066
1071
1077
1080
1086
1092
1095
1097
1101
1106
1112
1120
1130
1132
1135
1144
1149
1161
1167
1172
1177
1180
1185
1191
1199
1205
1208
1211
1214
1219
1224
1224
1226
1224
1227
1227
1225
1225
1222
1220
1215
1212
1209
1201
1196
1188
1184
1180
1173
1163
1153
1140
1131
1127
1117
1106
1097
1085
1079
