1449
1428
1413
1393
1370
1342
1319
1294
1270
1245
1213
1178
1142
1110
1073
1030
982
934
891
846
797
751
713
675
651
637
628
620
618
612
607
597
584
571
559
549
542
539
542
556
588
632
681
725
755
786
807
823
836
841
849
859
864
865
870
877
887
899
910
921
936
946
957
967
982
994
1014
1030
1041
1051
1063
1074
1084
1090
1094
1097
1100
1103
1111
1114
1120
1122
1121
1126
1132
1138
1146
1150
1154
1158
1167
1173
1179
1187
1190
1193
1201
1210
1215
1221
1226
1230
1239
1245
1250
1255
1257
1262
1267
1275
1278
1282
1283
1283
1285
1287
1290
1287
1286
1283
1284
1283
1282
1280
1275
1271
1268
1265
1258
1250
1247
1238
1233
1231
1222
1215
1203
1193
1187
1179
1170
1160
1150
1139
1135
1126
1118
1110
1101
1093
1085
1079
1073
1066
1059
1053
1049
1048
1040
1037
1033
1026
1023
1024
1022
1017
1014
1012
1010
1011
1012
1007
1006
1004
1004
1005
1005
1004
1000
998
1000
1003
1003
1001
1000
998
1002
1001
1001
1003
1000
999
1002
1004
1003
1001
1002
1000
1000
1003
1004
1004
1002
999
1002
1004
1006
1005
1002
1002
1001
1002
1002
1004
1002
1002
1003
1004
1006
1006
1005
1005
1008
1012
1014
1018
1017
1025
1035
1043
1046
1051
1051
1054
1058
1067
1071
1072
1066
1060
1054
1055
1054
1054
1053
1052
1052
1053
1050
1044
1038
1036
1031
1028
1023
1018
1011
1006
1005
1004
999
992
988
983
982
981
979
977
972
971
970
972
975
972
973
972
974
974
975
975
973
973
979
982
985
988
995
1010
1048
1127
1254
1380
1438
1423
1389
1367
1356
1345
1324
1301
1285
1267
1249
1232
1211
1190
1166
1142
1117
1090
1060
1025
993
958
925
892
859
829
797
773
752
737
726
719
714
706
686
659
638
621
609
597
587
586
601
628
660
694
731
763
785
795
804
818
828
840
849
856
864
868
872
877
885
895
907
924
934
946
954
966
982
999
1012
1025
1035
1048
1059
1072
1080
1084
1087
1087
1093
1097
1102
1106
1107
1111
1118
1124
1127
1131
1133
1137
1143
1150
1153
1156
1161
1165
1173
1183
1187
1191
1196
1198
1204
1212
1218
1223
1230
1231
1239
1244
1247
1252
1255
1253
1259
1263
1265
1265
1263
1263
1262
1264
1263
1258
1255
1250
1250
1245
1243
1234
1228
1223
1217
1214
1206
1197
1189
1180
1173
1166
1157
1147
1136
1126
1119
1109
1099
1091
1080
1072
1067
1061
1054
1046
1038
1033
1029
1025
1020
1015
1009
1002
1003
1001
998
992
990
989
987
986
987
984
980
979
981
983
982
978
978
982
983
988
991
993
997
1001
1014
1025
1032
1035
1037
1039
1041
1048
1049
1049
1049
1045
1041
1039
1034
1033
1031
1030
1034
1037
1036
1030
1029
1024
1023
1023
1015
1012
1004
998
994
989
982
979
971
968
967
965
960
959
956
952
949
950
947
948
945
944
943
945
945
944
943
942
941
942
944
942
939
939
942
943
940
941
940
937
936
940
941
941
938
939
940
941
941
938
934
935
938
940
941
942
937
935
937
940
939
940
939
938
940
941
942
939
940
939
941
944
942
943
943
944
947
950
950
952
951
953
960
969
980
998
1047
1143
1270
1382
1423
1402
1369
1344
1334
1323
1304
1281
1259
1241
1223
1207
1186
1156
1128
1100
1068
1040
1006
966
926
880
839
799
757
716
670
638
619
609
601
591
585
572
555
540
524
513
504
498
502
518
543
576
604
641
686
723
751
766
779
795
811
825
841
851
857
864
866
876
886
903
917
928
943
955
966
978
990
1006
1023
1035
1049
1062
1071
1078
1090
1096
1099
1102
1104
1107
1112
1118
1122
1126
1129
1132
1136
1144
1149
1151
1154
1160
1165
1172
1177
1181
1185
1189
1197
1206
1211
1215
1220
1226
1234
1241
1247
1250
1256
1258
1263
1268
1271
1273
1274
1276
1277
1279
1280
1278
1277
1274
1273
1271
1269
1265
1258
1254
1251
1250
1244
1237
1232
1226
1223
1223
1219
1215
1214
1212
1211
1205
1202
1196
1187
1179
1176
1173
1165
1151
1136
1124
1114
1107
1099
1088
1081
1076
1072
1067
1059
1049
1044
1036
1029
1023
1016
1007
999
992
986
981
974
970
962
955
954
952
947
945
939
937
934
932
931
927
926
924
924
926
926
923
920
920
920
924
923
922
919
919
918
922
920
920
917
918
919
922
920
919
918
915
918
923
923
921
918
918
919
922
920
920
916
918
919
920
920
918
915
915
916
918
917
917
915
917
917
917
918
917
915
916
919
917
919
918
916
916
919
920
920
918
916
918
917
920
921
920
919
920
923
924
923
923
924
922
925
926
927
924
925
924
929
928
928
928
924
925
927
929
931
930
929
927
931
931
931
930
930
929
930
935
937
935
935
935
935
939
940
939
941
944
947
949
953
955
960
970
991
1035
1117
1235
1343
1398
1393
1365
1341
1329
1316
1302
1282
1267
1248
1226
1206
1189
1170
1151
1125
1097
1065
1033
1003
973
938
905
866
829
792
760
724
689
656
630
616
608
601
590
576
558
541
531
520
505
492
485
489
507
536
570
606
641
678
715
734
745
759
772
787
801
813
821
827
830
836
843
851
859
872
881
894
904
918
926
934
948
963
982
997
1007
1019
1030
1042
1053
1055
1059
1059
1067
1071
1077
1081
1085
1089
1094
1103
1110
1118
1125
1131
1138
1153
1164
1175
1182
1189
1194
1202
1212
1219
1228
1234
1237
1241
1244
1244
1248
1250
1254
1259
1264
1269
1271
1272
1274
1276
1278
1278
1275
1272
1271
1267
1268
1263
1259
1252
1245
1243
1240
1233
1224
1218
1209
1204
1200
1188
1179
1170
1162
1156
1149
1141
1128
1117
1107
1098
1092
1081
1073
1060
1048
1039
1031
1022
1012
1003
992
987
981
974
963
959
953
948
945
941
933
932
926
924
921
919
914
911
908
912
910
908
904
903
899
899
902
900
897
896
895
895
896
896
893
892
890
892
893
893
891
889
891
894
897
898
899
895
895
898
899
900
896
896
897
903
905
906
904
902
903
906
908
909
910
908
909
911
913
913
911
909
910
911
914
913
911
907
908
909
914
913
912
911
911
913
915
915
913
914
913
916
917
915
916
914
912
915
919
918
920
919
916
917
919
920
920
919
919
919
923
925
923
920
920
923
923
919
923
922
921
923
924
924
923
921
922
923
927
928
926
926
926
927
928
930
930
928
928
930
932
933
933
934
933
935
938
938
940
941
942
948
951
958
967
988
1033
1120
1241
1350
1397
1383
1344
1325
1316
1303
1285
1265
1243
1227
1213
1193
1172
1151
1128
1104
1077
1044
1013
981
950
916
876
830
784
743
708
677
650
624
605
587
576
572
566
551
535
520
506
499
491
478
471
472
485
517
562
612
661
702
737
765
787
801
816
832
846
871
886
896
900
898
898
904
914
924
933
946
955
972
980
989
999
1011
1022
1034
1045
1051
1055
1060
1063
1070
1074
1070
1070
1067
1067
1070
1076
1074
1073
1074
1074
1078
1083
1085
1089
1090
1096
1104
1112
1117
1120
1124
1127
1135
1145
1147
1152
1157
1163
1169
1176
1181
1185
1189
1195
1200
1208
1208
1213
1216
1218
1223
1225
1225
1225
1225
1222
1225
1225
1223
1217
1211
1207
1205
1200
1194
1188
1179
1174
1166
1160
1150
1140
1130
1120
1110
1103
1090
1078
1068
1058
1048
1040
1030
1017
1009
1001
995
988
982
974
967
962
961
959
952
948
942
938
937
939
936
933
930
928
927
929
927
924
921
921
922
925
924
920
918
919
921
923
920
918
916
915
918
920
918
917
917
917
920
922
921
921
922
922
925
928
928
927
925
929
928
932
932
931
931
929
932
935
933
932
935
932
933
935
936
936
932
933
937
940
937
935
934
934
932
937
934
934
933
930
933
937
938
935
935
934
936
938
935
935
933
934
936
940
938
939
936
937
938
939
938
937
935
933
937
939
939
939
938
936
938
942
943
937
937
937
939
942
942
940
939
940
940
945
944
945
944
941
946
947
946
945
946
944
949
951
952
955
954
959
965
972
981
990
1017
1075
1176
1299
1395
1425
1406
1384
1373
1367
1356
1339
1327
1314
1299
1281
1260
1238
1212
1188
1165
1135
1108
1078
1045
1010
971
931
883
835
788
746
707
677
649
624
607
593
586
574
554
536
518
507
496
488
478
477
486
511
551
593
628
662
692
716
737
752
767
781
792
802
812
821
825
824
827
835
844
855
867
878
886
894
906
921
932
950
959
975
985
997
1008
1018
1027
1034
1039
1043
1044
1047
1050
1052
1057
1063
1068
1070
1070
1077
1083
1089
1094
1099
1100
1105
1115
1123
1128
1134
1141
1148
1158
1167
1173
1175
1183
1191
1200
1208
1213
1219
1223
1227
1236
1239
1245
1245
1245
1248
1251
1254
1253
1250
1246
1244
1244
1240
1235
1227
1221
1218
1211
1206
1196
1189
1177
1164
1157
1150
1141
1128
1116
1107
1099
1090
1079
1069
1058
1049
1039
1035
1026
1016
1006
999
995
990
987
983
975
973
970
968
965
960
958
956
955
957
955
951
949
949
953
952
952
949
946
949
946
948
945
944
942
945
944
946
948
946
944
943
945
947
947
947
945
947
950
951
951
951
949
949
953
953
953
952
951
951
954
957
957
954
951
952
954
954
954
953
951
951
953
954
956
952
951
950
952
954
951
949
947
951
952
954
955
954
952
950
954
956
958
955
957
959
963
967
977
984
988
995
1002
1007
1009
1011
1018
1026
1029
1029
1023
1020
1012
1012
1015
1015
1015
1013
1011
1008
1007
1004
1002
995
985
983
980
975
970
966
960
955
957
956
953
951
948
948
950
951
956
960
973
1010
1094
1219
1342
1395
1378
1342
1323
1309
1294
1275
1252
1229
1208
1194
1173
1149
1123
1094
1069
1042
1010
976
937
897
860
821
781
740
701
664
637
616
605
598
591
587
581
566
545
530
519
512
506
500
502
524
551
588
628
666
702
726
743
755
764
776
788
796
803
810
814
820
829
840
854
867
883
894
905
914
923
940
957
973
987
997
1008
1020
1034
1046
1048
1051
1052
1056
1064
1070
1073
1074
1077
1082
1087
1094
1097
1100
1105
1110
1118
1125
1133
1137
1141
1146
1153
1159
1166
1170
1172
1179
1187
1194
1201
1203
1207
1211
1215
1222
1224
1224
1225
1228
1231
1235
1232
1229
1228
1226
1224
1227
1221
1217
1212
1208
1205
1200
1194
1183
1177
1168
1163
1158
1148
1140
1128
1120
1113
1105
1095
1084
1072
1064
1055
1049
1039
1031
1021
1014
1008
1003
998
989
983
977
976
975
972
966
963
955
960
958
955
955
947
947
948
949
948
944
942
943
946
946
944
941
940
940
942
939
940
940
937
937
941
945
944
941
943
946
953
956
962
965
971
982
992
1000
1004
1004
1003
1007
1011
1015
1020
1016
1010
1006
1004
1002
1001
999
998
1001
1004
1000
998
994
989
984
982
980
973
965
959
954
950
947
941
937
932
930
928
926
926
920
917
918
916
917
916
914
910
911
912
914
914
911
909
909
909
914
911
908
907
907
909
909
909
907
903
904
908
911
909
907
903
904
905
910
908
907
906
907
908
911
911
909
908
911
913
915
917
917
919
926
933
943
957
997
1077
1204
1331
1394
1378
1342
1317
1302
1296
1283
1264
1244
1223
1209
1196
1178
1156
1133
1108
1084
1058
1029
999
966
933
896
865
832
797
760
721
691
673
661
649
639
625
607
585
568
552
537
525
517
511
528
555
595
622
661
697
725
742
753
760
773
787
799
809
817
824
826
830
833
840
850
864
874
889
902
910
921
934
949
968
980
993
1006
1014
1024
1031
1039
1044
1046
1047
1052
1058
1063
1067
1068
1068
1073
1080
1086
1089
1091
1093
1098
1103
1110
1114
1119
1123
1127
1136
1140
1144
1147
1150
1159
1165
1171
1175
1177
1179
1185
1192
1198
1201
1204
1204
1204
1212
1214
1214
1213
1211
1212
1214
1215
1214
1209
1204
1201
1200
1195
1191
1186
1179
1173
1169
1163
1156
1146
1138
1131
1124
1117
1108
1100
1090
1083
1079
1072
1065
1058
1050
1046
1048
1049
1049
1050
1051
1050
1050
1047
1045
1044
1037
1040
1039
1034
1023
1013
1007
1004
1001
1000
1002
996
990
985
986
982
978
970
964
960
956
950
946
938
932
929
925
925
920
913
910
908
908
907
904
901
899
897
900
902
902
900
897
897
897
902
901
899
896
897
899
899
900
898
896
893
898
899
898
897
893
894
895
898
896
894
891
893
894
898
895
894
894
894
894
896
895
892
892
891
894
896
896
896
894
894
896
898
898
896
896
897
897
900
899
898
898
897
899
902
900
902
900
901
904
904
903
907
905
905
907
909
910
908
908
908
911
912
913
912
910
911
913
917
916
919
920
919
925
930
931
936
945
964
1008
1096
1221
1330
1377
1363
1332
1312
1298
1284
1268
1248
1231
1211
1192
1169
1147
1123
1098
1067
1034
1000
961
924
886
847
808
768
730
697
665
638
621
604
591
583
573
558
539
522
508
498
490
487
487
505
536
574
613
654
690
717
732
746
760
775
790
802
810
820
828
831
836
842
852
866
880
892
903
912
921
937
953
968
981
995
1004
1017
1028
1039
1042
1048
1048
1051
1059
1063
1068
1070
1071
1076
1082
1086
1092
1094
1098
1104
1109
1116
1121
1123
1129
1135
1145
1153
1165
1174
1182
1195
1209
1218
1230
1238
1243
1250
1257
1262
1271
1278
1281
1282
1282
1280
1280
1274
1274
1274
1272
1276
1274
1269
1264
1259
1255
1249
1240
1228
1219
1209
1201
1191
1177
1164
1151
1140
1128
1118
1107
1095
1082
1068
1059
1049
1036
1021
1012
1002
995
989
978
969
962
956
949
947
940
935
927
923
920
919
914
910
907
905
906
905
903
900
896
897
900
897
896
893
890
891
891
892
893
890
888
888
887
887
888
886
884
886
889
890
889
889
889
889
889
891
893
892
889
890
893
897
895
890
888
892
898
897
896
895
893
893
895
901
898
897
894
896
898
901
899
897
897
898
901
903
902
902
901
901
902
904
903
903
903
904
910
908
906
901
897
899
905
906
905
909
907
907
910
910
909
907
906
907
909
909
910
911
908
911
910
912
914
913
912
916
916
918
916
913
913
913
915
920
918
916
913
916
920
923
921
922
923
922
926
929
928
927
927
931
940
946
955
966
994
1069
1189
1309
1372
1368
1330
1307
1293
1283
1265
1242
1218
1199
1181
1163
1143
1119
1092
1062
1028
998
964
927
882
831
788
746
705
670
640
613
597
583
571
562
552
534
523
508
496
482
468
461
464
482
513
555
600
649
689
714
732
744
757
771
789
803
817
828
836
851
864
877
891
901
915
931
949
965
982
999
1014
1030
1042
1053
1063
1076
1083
1092
1104
1110
1114
1115
1114
1117
1118
1118
1115
1114
1112
1114
1114
1114
1114
1115
1111
1115
1120
1124
1128
1129
1133
1136
1140
1144
1151
1153
1158
1163
1173
1178
1182
1187
1188
1192
1199
1203
1209
1211
1211
1212
1214
1217
1216
1212
1210
1210
1210
1207
1203
1199
1192
1184
1177
1171
1165
1158
1151
1145
1140
1134
1123
1111
1098
1091
1081
1075
1064
1056
1044
1038
1030
1022
1011
1000
991
982
977
974
971
963
956
949
944
940
935
929
927
926
926
924
919
920
917
916
916
919
914
914
913
910
913
914
914
912
910
907
907
909
908
909
910
910
912
914
914
913
910
912
915
919
917
918
914
918
921
923
923
920
918
922
924
927
928
929
925
926
929
931
933
932
928
929
930
932
931
932
927
930
933
936
936
931
932
932
932
936
933
932
931
933
935
934
931
931
931
933
937
936
937
937
934
934
931
933
934
936
932
933
933
936
935
934
935
937
938
941
941
939
938
939
938
938
936
935
935
935
938
941
939
937
936
936
941
942
941
941
938
940
941
941
941
941
942
943
945
946
946
945
948
951
955
959
963
965
975
998
1051
1150
1277
1374
1399
1375
1346
1329
1318
1305
1287
1271
1257
1246
1234
1220
1203
1183
1157
1134
1105
1080
1053
1023
983
933
877
827
783
749
724
707
689
671
659
650
637
623
598
579
559
547
533
518
509
513
528
565
604
650
688
718
740
757
771
782
790
800
808
816
826
832
834
833
833
841
851
865
874
882
888
899
909
922
935
948
958
975
980
995
1004
1012
1020
1025
1029
1034
1034
1036
1036
1042
1041
1049
1053
1055
1055
1060
1065
1070
1073
1075
1077
1084
1091
1096
1100
1105
1108
1116
1121
1129
1135
1140
1143
1154
1159
1164
1172
1174
1179
1184
1191
1197
1202
1205
1206
1209
1212
1215
1220
1220
1221
1220
1223
1222
1217
1211
1205
1205
1204
1203
1198
1191
1186
1179
1175
1169
1162
1156
1146
1140
1134
1128
1118
1107
1101
1093
1083
1077
1068
1059
1047
1040
1033
1027
1020
1012
1004
999
997
993
988
979
975
970
969
967
968
962
959
955
956
957
958
957
954
953
952
955
954
953
949
949
951
952
951
950
946
948
948
952
953
950
946
948
949
951
950
952
950
950
949
944
945
949
952
955
958
959
956
955
953
954
958
959
961
960
958
958
962
964
965
964
960
958
960
962
963
963
960
960
961
962
963
963
961
962
965
965
965
961
959
958
958
959
958
958
959
962
961
960
960
960
958
957
962
962
961
961
959
958
961
964
967
966
967
969
974
976
975
978
983
989
994
1004
1008
1017
1015
1017
1016
1026
1035
1040
1038
1038
1034
1033
1029
1029
1024
1023
1024
1029
1030
1027
1023
1021
1021
1020
1014
1008
1001
1000
1000
1002
1006
1012
1033
1091
1198
1315
1399
1414
1390
1359
1338
1324
1312
1295
1277
1261
1244
1227
1208
1187
1162
1140
1115
1084
1046
1014
986
956
920
878
835
789
750
717
698
681
658
645
631
628
627
621
605
583
560
544
534
517
510
511
525
560
604
647
687
721
748
774
795
800
802
810
822
835
834
835
838
844
848
856
867
879
891
899
905
912
926
941
959
976
988
1000
1019
1038
1055
1061
1063
1069
1074
1078
1077
1080
1086
1099
1104
1109
1111
1109
1109
1114
1124
1131
1136
1138
1142
1148
1153
1161
1167
1172
1176
1184
1194
1201
1206
1208
1210
1216
1225
1234
1241
1248
1250
1248
1245
1249
1259
1264
1266
1271
1271
1272
1266
1266
1263
1259
1255
1253
1255
1249
1242
1233
1230
1226
1216
1210
1202
1196
1186
1180
1177
1171
1158
1143
1133
1131
1123
1114
1103
1093
1086
1078
1065
1055
1048
1041
1035
1027
1022
1014
1010
1005
999
997
991
986
984
981
980
981
981
975
966
966
972
974
968
962
960
964
969
966
963
960
958
963
969
969
968
963
958
960
964
966
964
965
961
958
962
963
963
965
961
963
966
969
971
968
964
969
975
981
982
983
986
991
1000
1008
1016
1023
1027
1034
