914
912
909
909
910
911
915
910
909
908
912
914
914
913
910
910
913
916
915
913
915
917
920
921
917
920
922
928
936
941
947
957
962
969
978
983
982
979
980
990
999
1001
996
990
982
980
979
979
982
984
987
994
1004
1038
1111
1215
1302
1326
1304
1273
1252
1238
1221
1204
1185
1164
1139
1116
1092
1071
1051
1030
1004
970
934
901
863
829
792
752
709
676
644
614
583
564
547
535
527
523
520
515
505
494
482
474
463
447
434
424
421
430
451
486
525
571
612
639
666
692
708
723
737
743
751
758
762
769
774
776
781
786
798
812
829
843
854
861
873
885
901
918
934
947
958
972
985
999
1008
1015
1017
1020
1027
1031
1037
1040
1040
1046
1053
1059
1065
1069
1070
1077
1084
1094
1099
1105
1106
1111
1118
1126
1131
1136
1139
1146
1151
1163
1171
1177
1180
1182
1192
1197
1204
1211
1213
1214
1219
1223
1226
1226
1229
1231
1232
1230
1230
1226
1222
1221
1221
1218
1213
1204
1198
1192
1186
1177
1172
1161
1154
1150
1146
1137
1125
1110
1098
1090
1087
1083
1072
1058
1049
1038
1032
1026
1018
1009
1000
992
986
981
977
969
961
959
954
950
946
941
937
934
931
926
924
921
921
924
924
922
921
914
915
913
916
920
923
919
917
913
912
913
915
912
908
910
911
913
909
908
906
910
911
910
908
906
903
900
903
907
909
906
906
903
906
912
912
909
908
911
910
914
913
913
912
912
917
915
920
918
916
919
924
934
935
945
953
963
968
976
976
974
972
976
982
982
980
972
964
961
959
957
956
953
951
950
949
947
946
947
942
935
928
921
913
907
904
904
899
900
893
890
881
879
879
878
877
874
869
865
866
866
865
861
861
861
862
862
862
858
859
860
863
866
862
863
863
866
871
878
882
886
896
922
978
1083
1208
1293
1295
1254
1214
1198
1186
1170
1149
1123
1107
1093
1077
1053
1027
1003
975
953
924
896
862
831
800
771
736
705
672
642
610
585
566
556
548
543
539
527
506
486
468
458
448
444
440
453
475
506
538
577
613
644
661
674
690
706
720
729
734
743
749
753
760
769
782
795
812
827
839
851
861
875
891
910
925
934
943
956
969
977
983
983
985
992
998
1002
1003
1006
1007
1014
1020
1028
1034
1041
1040
1047
1050
1058
1066
1072
1074
1078
1083
1090
1097
1102
1110
1117
1125
1130
1138
1143
1149
1156
1161
1159
1163
1163
1167
1173
1177
1175
1171
1167
1159
1154
1154
1149
1143
1140
1132
1126
1123
1118
1110
1099
1090
1084
1076
1073
1058
1046
1033
1024
1014
1008
999
992
981
972
964
954
949
939
928
922
920
919
913
910
903
901
897
893
893
890
887
888
885
879
880
881
882
884
888
894
897
898
902
911
920
928
936
938
940
943
946
950
953
953
950
946
941
935
930
928
924
926
929
930
927
926
921
920
918
916
912
906
902
897
894
889
884
879
874
870
868
867
863
861
858
858
858
856
851
849
848
846
849
855
852
850
849
846
850
849
848
846
845
846
846
846
844
842
841
842
845
849
847
844
844
844
842
842
842
842
841
843
846
845
846
844
842
844
848
847
850
848
848
851
853
855
850
847
846
850
850
853
852
852
852
855
857
859
864
865
861
864
867
870
870
873
877
883
898
920
971
1076
1203
1316
1330
1287
1243
1225
1214
1195
1178
1155
1135
1111
1090
1067
1043
1019
988
955
919
884
848
808
766
723
687
656
623
593
570
554
543
539
536
529
518
502
485
473
467
464
460
467
479
509
540
577
621
665
689
707
718
734
746
757
766
779
788
792
799
808
817
834
849
862
873
885
899
912
928
947
964
980
990
1004
1013
1018
1023
1025
1028
1035
1039
1044
1047
1050
1056
1059
1067
1074
1081
1084
1090
1097
1103
1109
1115
1121
1125
1133
1139
1147
1155
1162
1168
1172
1180
1186
1192
1198
1200
1204
1209
1215
1216
1217
1217
1221
1225
1226
1224
1222
1220
1220
1221
1219
1215
1212
1212
1215
1218
1220
1217
1212
1203
1200
1196
1195
1182
1171
1154
1138
1126
1117
1104
1091
1079
1073
1067
1057
1045
1033
1022
1013
1004
995
987
977
965
960
953
949
940
932
926
921
917
911
908
899
891
888
887
892
899
900
901
900
898
894
891
888
887
891
893
896
892
890
889
888
888
890
891
889
888
892
895
897
897
895
893
892
894
893
890
888
890
894
896
898
896
895
893
891
891
896
897
895
896
895
895
896
898
898
897
897
899
899
896
895
894
897
900
899
899
898
896
899
900
898
901
903
904
904
910
911
911
908
905
906
908
908
908
903
903
911
914
915
916
913
911
914
918
920
917
915
915
918
916
914
920
925
927
927
926
925
924
925
923
928
928
927
928
930
932
937
940
942
952
957
966
988
1044
1151
1278
1378
1386
1348
1322
1309
1297
1281
1252
1230
1212
1194
1175
1152
1123
1094
1062
1021
975
931
889
849
808
764
720
685
656
634
621
608
596
584
579
579
573
556
536
519
507
497
488
482
486
503
537
588
633
677
708
732
749
764
772
779
790
805
816
821
820
826
840
854
871
888
900
910
918
928
942
959
984
1006
1019
1025
1030
1038
1052
1061
1071
1076
1081
1091
1100
1105
1107
1115
1127
1146
1155
1159
1163
1172
1182
1193
1200
1201
1204
1209
1220
1227
1233
1232
1228
1231
1233
1243
1252
1259
1262
1267
1274
1278
1275
1274
1270
1272
1271
1267
1261
1255
1255
1252
1250
1251
1253
1247
1240
1235
1228
1222
1210
1197
1188
1187
1187
1182
1166
1146
1131
1129
1126
1124
1115
1101
1096
1090
1074
1050
1036
1031
1037
1038
1028
1018
1007
1000
995
982
967
964
972
980
982
970
958
955
951
946
940
942
946
955
949
944
935
930
926
932
932
933
933
933
931
931
930
925
926
936
939
940
930
922
926
933
941
947
946
942
935
933
935
943
944
939
935
931
936
939
944
945
945
945
946
951
955
960
955
949
942
950
956
960
955
952
953
951
951
946
942
943
940
942
945
948
947
950
956
961
961
953
950
952
955
955
953
953
951
950
949
950
953
958
960
955
952
952
953
954
956
955
953
958
962
965
962
958
951
955
957
960
961
961
962
962
964
964
960
961
958
960
964
963
961
960
962
963
965
966
969
970
970
976
983
985
985
987
996
1027
1096
1210
1333
1411
1419
1401
1377
1366
1355
1338
1315
1293
1273
1255
1233
1210
1181
1150
1119
1083
1045
999
953
907
862
812
762
716
676
644
618
599
578
567
564
567
568
558
540
522
508
499
492
484
483
497
530
582
637
691
738
779
812
835
853
871
888
904
917
925
928
931
930
932
934
945
965
981
993
998
1006
1018
1025
1037
1047
1052
1056
1067
1075
1086
1088
1086
1085
1089
1087
1088
1089
1090
1092
1092
1095
1098
1101
1103
1105
1111
1118
1128
1129
1133
1135
1141
1147
1154
1158
1164
1167
1175
1181
1185
1189
1192
1192
1200
1212
1220
1223
1221
1222
1228
1230
1236
1233
1234
1232
1232
1232
1232
1228
1223
1218
1216
1215
1210
1199
1190
1181
1179
1176
1166
1159
1147
1139
1131
1125
1114
1107
1097
1087
1079
1069
1059
1050
1045
1035
1031
1021
1014
1004
998
988
983
978
976
973
967
959
954
952
955
951
946
943
941
940
940
938
939
936
933
937
937
934
931
928
929
933
934
933
930
926
927
927
928
927
925
924
924
924
926
927
927
922
924
926
929
931
930
930
929
930
930
930
930
930
931
930
933
932
933
930
933
938
944
939
936
934
934
933
934
936
933
931
932
932
933
932
929
926
926
927
928
929
933
931
930
929
926
929
927
924
925
926
926
926
926
926
924
927
928
926
925
923
924
926
929
930
929
926
927
927
928
927
928
925
927
928
927
925
923
919
922
927
928
929
929
926
926
927
927
928
930
930
932
933
932
931
934
931
933
933
935
935
935
937
939
949
955
968
994
1051
1153
1267
1350
1371
1351
1328
1320
1316
1304
1289
1266
1251
1240
1231
1216
1193
1166
1136
1105
1074
1042
1008
972
930
886
843
799
754
710
672
638
608
586
570
552
540
534
528
517
501
486
473
464
459
451
440
432
433
449
475
508
544
581
611
642
671
694
712
727
736
750
766
781
790
795
793
797
805
818
829
839
854
871
881
892
904
916
929
949
962
978
988
995
1004
1015
1026
1033
1032
1035
1038
1043
1045
1049
1053
1055
1056
1059
1065
1072
1078
1082
1085
1088
1093
1099
1107
1107
1113
1121
1129
1136
1141
1146
1151
1156
1165
1176
1187
1195
1197
1204
1208
1211
1219
1221
1225
1232
1235
1236
1235
1233
1231
1233
1238
1238
1236
1230
1227
1224
1221
1220
1215
1204
1201
1196
1191
1183
1174
1166
1155
1149
1143
1137
1129
1120
1105
1095
1088
1077
1072
1061
1053
1046
1037
1030
1020
1007
1001
994
989
986
979
976
973
972
970
962
957
952
948
943
943
946
948
942
940
943
943
944
941
937
934
934
937
938
936
935
931
932
936
935
937
934
933
935
938
938
935
934
934
935
938
940
939
940
939
941
939
938
938
942
942
944
948
948
948
946
944
946
945
948
950
947
947
946
947
947
946
946
944
943
946
945
943
940
940
941
944
944
943
940
938
942
943
941
941
939
941
941
941
941
943
942
941
942
944
944
945
945
945
949
954
957
959
963
968
977
988
997
1002
1002
1003
1006
1010
1015
1018
1023
1024
1025
1024
1022
1014
1011
1007
1009
1011
1011
1009
1006
1003
1003
1004
1003
996
990
983
979
979
974
970
963
961
959
959
958
955
957
962
973
995
1048
1141
1255
1339
1363
1338
1307
1288
1276
1264
1251
1236
1218
1201
1183
1167
1155
1139
1123
1100
1076
1053
1029
1008
983
955
924
899
871
842
804
769
736
701
671
651
636
621
611
601
599
596
583
559
541
526
517
504
495
489
490
507
535
564
591
620
651
680
707
723
731
739
747
754
766
775
787
791
794
795
803
812
825
837
850
866
880
892
903
914
929
946
965
981
994
1005
1018
1028
1037
1046
1052
1052
1055
1058
1064
1073
1075
1080
1084
1086
1094
1098
1104
1105
1109
1114
1122
1127
1132
1136
1137
1141
1149
1157
1162
1170
1174
1176
1185
1193
1199
1201
1207
1212
1218
1223
1230
1232
1236
1238
1240
1246
1244
1246
1243
1243
1246
1247
1245
1240
1238
1233
1232
1229
1228
1220
1212
1205
1200
1197
1189
1181
1173
1165
1159
1151
1143
1135
1123
1113
1106
1099
1091
1078
1071
1063
1054
1046
1038
1030
1018
1014
1009
1004
1000
991
984
979
978
975
973
970
964
959
959
961
960
957
955
952
954
951
951
950
949
946
947
948
950
948
945
943
945
948
948
947
947
946
948
949
949
947
947
946
949
949
950
948
949
950
955
961
964
966
968
974
983
993
1001
1004
1008
1013
1017
1021
1025
1031
1032
1031
1030
1028
1022
1019
1015
1011
1013
1017
1013
1011
1008
1004
1003
1001
996
989
983
977
974
971
966
960
954
948
948
944
942
937
932
926
926
924
922
919
919
917
919
918
918
918
916
914
915
919
918
917
916
914
917
918
919
918
915
916
917
919
920
921
917
917
920
921
924
922
919
919
920
925
926
930
932
933
939
945
952
972
1016
1110
1237
1342
1363
1332
1294
1273
1262
1254
1237
1219
1202
1189
1178
1168
1157
1140
1120
1103
1085
1071
1051
1028
1001
974
949
919
896
868
833
799
771
748
728
716
701
692
682
670
652
626
604
590
580
567
554
549
555
576
599
623
647
676
699
716
733
745
764
775
783
791
802
811
818
819
821
826
835
848
862
874
884
894
908
924
940
957
971
983
998
1010
1023
1036
1043
1047
1051
1055
1057
1059
1063
1064
1069
1076
1079
1082
1084
1086
1090
1097
1102
1105
1108
1110
1119
1122
1128
1134
1136
1139
1148
1152
1158
1162
1167
1173
1177
1184
1188
1191
1195
1201
1208
1208
1213
1213
1216
1215
1219
1221
1221
1220
1218
1214
1215
1215
1214
1213
1208
1204
1201
1195
1192
1184
1177
1171
1164
1161
1154
1145
1138
1130
1125
1119
1113
1097
1087
1079
1074
1068
1059
1049
1041
1032
1025
1021
1016
1012
1004
1001
1001
999
1002
1004
1007
1013
1025
1034
1038
1038
1036
1037
1038
1041
1043
1038
1034
1026
1018
1014
1013
1009
1005
1004
1006
1004
1002
994
990
985
983
982
977
972
967
958
954
950
944
940
930
930
931
934
931
929
923
915
916
917
918
915
913
913
914
915
914
914
910
907
910
910
912
908
906
907
908
907
904
906
910
911
907
907
906
907
911
912
912
912
911
907
905
907
907
909
908
906
902
903
908
910
911
905
906
906
907
908
910
910
908
906
910
911
911
912
912
909
915
916
916
915
915
918
919
922
923
923
924
924
926
928
929
930
930
931
932
934
937
940
938
943
950
962
982
1031
1121
1247
1342
1368
1337
1301
1279
1266
1252
1236
1217
1199
1179
1159
1143
1122
1096
1068
1038
1006
978
947
911
875
838
802
767
735
701
667
638
612
601
595
587
574
557
540
530
520
508
496
487
490
509
539
573
607
646
681
711
732
747
761
776
788
802
811
817
819
820
823
835
849
863
873
885
894
908
921
935
953
966
981
997
1012
1023
1034
1045
1048
1053
1059
1061
1067
1071
1073
1076
1077
1080
1084
1089
1095
1097
1105
1112
1116
1117
1119
1128
1135
1140
1146
1149
1157
1163
1168
1170
1179
1183
1187
1192
1197
1205
1211
1216
1218
1227
1234
1242
1246
1249
1255
1263
1268
1267
1267
1267
1267
1269
1268
1264
1255
1242
1233
1229
1223
1216
1209
1200
1196
1186
1179
1170
1158
1143
1129
1119
1109
1095
1080
1062
1047
1035
1026
1015
1004
990
982
978
970
960
951
941
937
934
932
930
926
921
917
915
917
917
915
913
908
910
908
909
906
903
901
904
905
904
903
900
899
901
903
902
899
899
900
899
898
899
899
900
901
902
904
904
903
901
902
904
903
904
903
905
902
903
906
907
906
906
904
908
910
908
903
902
903
906
907
908
908
907
907
909
909
909
910
907
907
908
911
911
912
912
910
914
913
915
914
913
913
913
916
917
917
915
916
917
918
921
919
919
919
921
926
925
926
923
921
927
928
928
927
923
923
929
931
931
932
932
932
936
938
939
937
938
937
936
939
941
941
942
941
944
950
953
955
959
965
983
1019
1095
1208
1316
1367
1355
1320
1298
1283
1269
1252
1234
1218
1198
1181
1166
1147
1128
1110
1086
1060
1032
1004
975
943
903
857
809
767
729
700
675
655
634
622
612
606
597
579
562
551
542
531
519
510
511
528
565
605
645
678
705
732
756
773
790
798
807
814
824
831
834
833
835
841
854
866
880
890
898
910
925
941
960
982
1003
1022
1040
1057
1077
1093
1109
1118
1126
1135
1139
1146
1152
1161
1168
1169
1168
1163
1163
1165
1172
1179
1186
1189
1192
1191
1196
1202
1206
1206
1206
1205
1211
1215
1219
1217
1219
1220
1223
1229
1229
1231
1232
1234
1236
1243
1241
1241
1241
1240
1239
1242
1240
1238
1231
1229
1230
1227
1221
1214
1208
1200
1196
1194
1186
1178
1167
1159
1155
1146
1137
1129
1116
1106
1100
1091
1081
1070
1059
1050
1045
1037
1029
1018
1007
999
991
987
981
975
969
964
960
956
951
946
941
939
939
938
938
936
933
931
932
932
931
927
927
926
925
929
928
926
925
924
925
924
925
927
926
924
926
927
925
926
926
926
928
932
933
933
929
930
934
936
937
935
933
934
936
938
938
938
939
937
939
941
940
941
940
939
943
944
946
944
942
942
942
942
943
944
943
943
943
945
944
942
938
939
940
942
944
944
941
940
940
944
945
945
945
945
945
948
947
944
942
942
947
950
951
949
948
949
950
951
950
952
948
948
948
950
952
950
949
949
952
954
952
949
949
949
950
952
954
955
955
952
955
957
958
959
959
961
963
965
973
980
997
1040
1130
1253
1355
1381
1350
1311
1292
1285
1273
1252
1230
1208
1190
1172
1156
1131
1105
1077
1045
1016
985
951
916
875
833
791
752
717
686
662
650
640
639
637
631
619
603
589
580
570
555
547
550
568
606
648
694
731
763
791
812
827
842
851
860
871
876
878
874
868
867
869
872
881
889
897
907
916
928
936
946
961
976
993
1003
1013
1023
1032
1041
1048
1050
1053
1054
1060
1066
1073
1075
1079
1080
1082
1090
1097
1101
1105
1107
1110
1114
1120
1126
1133
1137
1142
1148
1157
1163
1171
1174
1179
1186
1190
1193
1195
1197
1200
1207
1214
1216
1219
1218
1218
1221
1223
1222
1221
1219
1218
1214
1216
1212
1210
1202
1196
1193
1191
1181
1176
1168
1161
1151
1142
1134
1123
1118
1110
1102
1092
1085
1073
1065
1053
1047
1041
1034
1025
1014
1007
1003
999
992
985
976
972
968
969
965
959
953
950
952
948
948
945
942
940
941
943
940
938
938
936
939
938
938
935
937
935
936
937
938
939
935
934
936
939
938
938
938
935
937
939
940
939
940
941
944
943
942
942
940
942
945
950
949
949
948
947
947
951
952
947
948
947
948
946
950
948
948
947
950
951
949
947
946
944
944
947
949
947
947
945
949
950
949
947
946
945
946
949
947
944
940
940
946
947
944
943
942
942
943
946
949
947
944
943
943
947
947
946
947
945
948
949
951
949
948
949
951
952
951
950
950
950
955
958
959
961
962
964
969
977
982
987
992
996
1005
1011
1017
1022
1032
1047
1075
1126
1211
1310
1381
1391
1366
1346
1331
1322
1305
1289
1273
1258
1242
1225
1207
1185
1166
1146
1121
1093
1065
1033
998
964
923
879
837
797
764
732
706
683
664
651
644
640
630
611
593
583
575
565
548
534
530
539
567
605
639
673
696
724
747
764
775
783
788
794
803
812
813
810
808
810
820
832
845
853
864
874
885
898
911
928
940
951
968
976
990
1003
1010
1014
1016
1020
1023
1028
1033
1036
1041
1046
1050
1051
1056
1062
1069
1075
1076
1083
1086
1093
1100
1107
1114
1120
1123
1131
1139
1149
1156
1162
1164
1172
1179
1186
1191
1195
1197
1204
1210
1212
1217
1218
1219
1217
1222
1225
1227
1224
1221
1215
1216
1216
1212
1209
1205
1195
1194
1190
1182
1174
1164
1157
1147
1143
1133
1123
1113
1105
1094
1091
1082
1074
1063
1050
1043
1036
1032
1022
1012
1004
998
994
991
987
981
977
974
974
968
965
963
960
958
959
958
955
957
957
956
954
954
953
952
951
954
957
956
952
951
950
952
952
951
