955
955
955
957
960
968
970
971
972
969
971
972
973
970
970
969
968
970
973
971
971
970
968
972
975
975
973
972
972
975
978
978
977
976
980
983
986
986
986
984
986
987
988
987
986
983
984
984
985
983
980
979
979
980
981
977
972
969
965
965
967
968
967
967
968
971
972
974
972
971
969
972
973
973
972
967
967
969
973
972
968
965
967
965
966
967
968
966
964
966
969
968
966
963
962
965
967
967
968
967
968
970
970
968
968
963
966
965
966
967
965
963
965
964
964
964
962
959
958
961
961
960
963
965
968
971
974
974
974
973
973
978
982
986
988
991
1001
1023
1047
1067
1089
1113
1135
1159
1176
1189
1186
1164
1129
1091
1050
1017
992
975
965
968
972
976
976
974
971
972
971
968
963
960
960
961
959
958
954
953
953
954
955
955
954
953
956
958
958
960
960
962
965
965
968
965
963
963
962
965
967
964
962
960
963
961
964
964
963
964
965
970
971
973
973
970
972
973
974
976
977
976
976
976
977
976
975
975
976
979
982
982
983
982
984
985
986
988
986
982
984
985
985
984
982
982
981
980
983
979
979
979
978
981
977
978
979
974
975
977
979
979
979
979
978
978
980
979
978
977
976
975
979
978
976
974
974
974
977
976
975
973
973
974
976
976
974
970
970
971
973
974
969
967
965
966
965
965
962
961
958
961
964
964
966
966
966
969
971
971
968
968
968
972
976
974
976
979
978
980
984
982
982
979
980
978
979
979
978
977
976
976
977
976
976
973
974
974
976
976
975
972
973
972
975
975
974
970
969
972
975
974
971
968
969
969
972
972
973
975
977
985
996
1009
1029
1048
1070
1094
1121
1141
1158
1171
1181
1178
1161
1127
1085
1043
1014
1003
997
991
987
987
988
988
988
983
980
977
976
975
975
971
970
968
968
968
968
967
967
965
963
963
964
964
964
961
963
966
969
968
968
967
964
966
967
967
966
966
967
968
970
969
970
970
972
973
977
978
979
980
977
980
983
985
984
984
986
987
991
990
992
992
992
994
997
996
998
996
997
997
1000
998
996
995
994
994
996
993
990
986
986
987
990
988
986
983
979
982
982
979
975
968
968
968
969
967
967
964
965
966
967
969
968
968
971
972
974
973
972
971
971
973
974
975
974
972
975
976
981
982
979
977
975
978
980
978
973
973
974
975
974
974
972
971
971
975
976
974
973
971
969
969
970
967
964
963
962
964
966
964
962
960
960
962
964
962
961
959
960
962
965
963
963
962
965
967
970
968
966
967
967
969
971
967
967
964
964
966
967
968
965
966
965
967
967
966
965
967
969
972
974
973
972
969
968
968
970
967
966
964
963
965
967
966
965
962
962
966
965
966
964
963
963
965
968
966
966
964
964
966
968
968
968
968
970
972
975
975
973
972
973
976
976
977
975
975
973
973
973
970
968
967
969
972
971
972
972
971
972
971
971
971
968
967
967
968
968
968
967
966
965
967
969
968
968
967
965
967
967
968
967
965
967
970
971
972
970
970
969
972
974
975
973
970
970
972
976
977
975
973
974
975
976
975
973
977
978
978
983
984
984
984
984
986
988
987
987
987
989
993
999
1001
1003
1012
1030
1055
1080
1107
1134
1158
1180
1199
1215
1212
1194
1159
1118
1074
1039
1007
986
970
965
970
978
982
982
981
978
978
978
974
972
971
972
974
976
973
972
971
972
974
976
975
974
974
976
977
979
978
976
973
974
974
977
974
973
970
972
974
975
975
975
975
977
979
978
979
975
976
976
979
978
977
977
977
977
978
979
979
979
978
981
984
988
989
989
988
992
994
997
995
995
997
999
1000
1002
1005
1005
1005
1007
1009
1012
1010
1008
1007
1007
1006
1007
1005
1001
998
997
995
995
994
989
988
986
985
984
982
979
977
979
979
981
977
978
974
974
976
977
977
974
973
976
976
975
975
975
974
977
979
982
982
979
980
982
985
985
984
982
983
984
986
987
987
986
985
986
984
986
986
984
982
981
985
983
984
981
979
976
976
978
975
973
970
972
974
978
977
977
975
974
978
980
978
978
976
977
979
981
981
979
976
977
978
980
979
977
973
975
977
980
982
980
980
980
981
982
982
983
977
976
977
979
980
978
975
975
978
980
982
980
976
978
979
981
979
978
972
972
972
971
973
969
969
972
972
976
976
976
976
978
978
978
977
976
974
972
974
973
973
973
972
970
971
972
973
971
970
971
973
975
976
972
972
973
974
973
972
972
970
969
970
973
972
971
972
973
975
976
976
975
974
976
978
981
981
981
978
981
985
987
987
987
989
994
999
1003
1005
1007
1013
1030
1051
1071
1088
1108
1126
1149
1168
1187
1203
1212
1201
1178
1144
1107
1066
1029
1005
989
982
979
982
988
988
988
986
985
982
981
977
977
977
978
978
977
974
976
976
978
976
974
971
973
976
977
978
976
974
974
976
976
976
975
974
976
978
979
979
977
976
980
985
988
988
988
983
986
989
993
992
989
985
987
990
992
994
993
991
991
994
997
998
997
995
996
998
1001
1000
998
997
996
999
1001
1004
1003
1000
1001
1002
1004
1004
1005
1003
1002
1004
1004
1004
1001
999
995
996
997
996
994
992
990
991
992
991
992
990
991
991
991
990
990
988
989
988
988
988
986
984
986
987
988
987
986
987
988
990
992
992
990
988
990
992
992
992
992
991
994
996
999
1002
1002
1004
1012
1025
1045
1068
1088
1107
1130
1153
1175
1192
1199
1193
1185
1170
1153
1122
1085
1052
1029
1020
1020
1015
1006
997
995
994
995
991
986
981
980
981
980
978
977
973
975
976
978
978
975
973
971
972
974
974
971
967
969
970
971
970
970
967
968
968
973
972
974
972
972
974
975
977
978
976
976
978
979
979
980
977
977
981
982
981
982
982
984
984
989
989
988
988
993
995
997
999
998
999
1002
1008
1008
1009
1010
1009
1011
1013
1016
1015
1014
1011
1013
1013
1014
1013
1011
1007
1007
1007
1007
1004
1001
997
996
995
997
995
993
990
985
984
984
983
980
977
975
975
977
976
976
975
975
977
977
976
976
974
978
979
983
983
983
981
983
983
983
984
982
981
982
983
984
984
984
983
986
991
994
1001
1010
1019
1040
1063
1083
1100
1117
1137
1160
1180
1192
1199
1199
1188
1166
1136
1099
1055
1017
997
992
991
990
984
980
978
976
976
975
973
969
967
968
968
970
967
967
964
964
964
964
965
962
961
962
963
965
966
963
962
962
964
965
966
966
965
969
971
972
973
971
971
974
975
976
978
976
974
973
972
972
968
967
967
969
969
972
970
970
970
970
972
976
977
978
977
979
982
983
984
983
982
983
985
985
982
981
981
980
980
979
982
981
980
979
980
981
981
979
974
973
975
976
974
973
972
973
972
972
973
971
967
969
969
970
969
967
964
966
967
965
964
963
960
962
960
961
960
959
958
960
960
962
960
958
959
959
961
963
962
962
964
965
966
970
969
970
967
967
968
970
968
965
964
965
969
970
968
967
965
967
969
970
972
971
970
970
972
975
974
973
969
968
968
972
973
970
965
967
966
969
970
970
965
967
966
969
970
968
965
965
967
967
969
968
966
967
967
968
971
969
966
968
969
968
969
967
964
965
965
967
967
966
964
961
962
965
964
962
960
963
963
966
967
969
972
977
981
987
996
1012
1028
1048
1074
1098
1125
1149
1168
1188
1207
1213
1199
1170
1131
1087
1042
1010
985
969
957
952
954
963
969
969
967
967
968
965
964
960
959
960
961
961
959
957
954
956
956
956
955
954
951
952
953
955
954
952
952
953
954
955
956
952
951
955
957
958
959
958
959
962
964
968
965
964
963
965
967
968
966
967
965
969
972
974
976
975
975
977
978
979
980
979
977
980
981
983
983
981
980
981
984
985
988
986
986
988
989
993
991
990
989
988
991
994
991
989
984
984
985
984
984
978
975
975
977
980
978
977
972
971
972
975
974
975
973
975
977
979
978
976
975
976
975
976
976
973
967
969
969
970
972
970
967
967
968
970
972
969
966
966
968
969
969
967
964
965
965
969
970
968
968
969
968
970
968
967
964
965
965
966
966
966
964
967
970
973
971
970
968
969
970
972
969
970
967
969
970
971
972
970
970
970
970
970
970
969
966
966
968
968
969
967
965
965
965
965
963
958
953
957
960
963
962
962
962
961
963
963
965
963
963
965
968
970
969
967
965
967
968
970
970
968
965
968
969
971
970
964
963
964
966
966
966
963
960
962
965
966
963
965
963
962
960
962
963
961
959
960
962
963
960
960
958
958
960
960
960
963
962
965
970
972
971
970
967
969
970
974
971
971
969
970
970
973
972
972
972
972
975
976
975
975
972
973
975
974
973
972
971
973
970
971
971
971
969
971
973
971
972
971
968
969
969
971
970
969
966
967
968
969
967
966
963
967
968
970
970
970
970
974
977
979
979
980
976
976
979
981
977
977
972
978
982
988
989
993
999
1013
1033
1054
1077
1098
1119
1142
1160
1176
1190
1188
1167
1134
1097
1057
1022
998
983
974
969
975
980
984
983
984
982
982
980
977
974
974
973
975
974
973
969
971
972
973
975
975
974
974
975
977
977
974
974
973
977
982
981
977
975
978
978
979
976
973
973
974
974
976
976
972
972
975
974
977
976
975
973
975
977
980
979
981
981
983
985
987
987
988
989
991
993
993
990
990
989
991
993
997
1000
1001
1001
1003
1007
1009
1009
1007
1005
1004
1004
1004
1000
996
993
993
992
992
987
986
983
983
984
984
981
981
978
981
982
983
981
977
976
980
980
980
983
981
980
982
983
983
983
982
982
983
985
988
988
986
985
987
988
990
988
990
989
993
996
1000
1006
1011
1021
1039
1064
1091
1114
1136
1156
1180
1200
1211
1210
1198
1173
1139
1101
1062
1026
1008
1001
999
994
995
992
992
988
985
985
983
982
978
974
973
975
976
976
971
970
971
971
971
970
968
965
965
968
969
971
971
970
973
974
976
974
975
973
973
975
979
978
978
976
976
978
981
980
980
979
980
982
986
985
983
982
983
985
988
989
988
990
995
995
1000
1001
999
999
999
1002
1005
1004
1000
1001
1002
1005
1006
1006
1005
1004
1003
1004
1005
1004
1001
998
996
995
994
992
987
985
984
986
986
984
983
981
980
982
983
982
983
979
979
982
982
983
985
980
981
984
985
984
981
980
979
980
980
977
975
972
974
976
977
975
974
972
973
974
974
973
970
970
973
973
975
974
973
971
972
973
975
976
974
972
973
973
973
973
970
968
969
971
972
970
969
967
971
972
976
978
977
976
977
978
979
979
978
976
977
980
982
978
978
976
978
979
981
981
980
978
979
983
985
985
982
984
983
985
988
991
989
991
996
998
1005
1013
1028
1047
1066
1087
1111
1135
1153
1165
1178
1185
1177
1153
1120
1082
1045
1014
997
986
980
976
977
982
985
982
976
971
968
967
968
966
962
960
961
962
966
968
967
965
964
966
969
969
966
962
967
968
970
969
968
966
968
969
971
971
967
969
967
970
975
975
974
973
974
975
977
977
975
974
977
979
982
982
979
977
978
977
978
978
974
973
976
978
980
978
978
977
980
984
985
987
986
983
988
990
991
992
991
989
990
991
993
991
988
986
988
988
987
987
983
978
978
982
983
982
979
977
978
978
980
980
978
976
979
979
978
978
974
972
973
972
973
972
969
969
969
971
971
971
970
968
970
972
973
972
971
970
970
972
972
973
974
972
972
970
972
971
972
973
974
974
978
978
978
977
977
978
981
979
977
975
975
976
974
975
974
972
973
972
971
970
967
967
966
967
967
967
964
964
966
965
970
969
966
964
964
966
968
966
964
962
964
966
967
965
965
964
969
973
974
973
972
970
971
972
972
970
967
967
967
968
967
970
969
967
970
972
971
973
971
972
971
972
975
974
972
972
971
973
973
972
970
967
967
968
969
967
967
966
967
969
970
969
969
968
969
969
968
968
967
966
968
969
971
975
975
970
970
970
969
970
970
967
970
971
973
971
969
971
970
970
974
973
971
969
971
975
975
976
973
973
973
974
974
974
971
970
971
971
976
974
971
972
973
976
977
975
975
974
974
977
979
977
979
981
983
989
992
993
1001
1016
1040
1062
1086
1112
1134
1154
1176
1200
1215
1213
1189
1148
1100
1059
1024
998
978
964
959
963
974
980
977
974
971
973
971
969
966
963
966
967
970
970
969
969
969
970
972
972
971
970
970
973
974
970
967
965
966
967
970
970
966
966
968
969
971
971
972
972
973
976
977
975
972
969
969
977
976
976
974
973
976
977
979
981
979
981
982
983
984
985
984
982
986
989
992
991
991
992
994
999
1000
999
1001
999
1002
1002
1001
1000
997
995
992
995
994
992
992
990
991
991
990
987
985
983
982
979
978
975
972
970
971
971
971
969
968
968
969
970
970
969
968
966
969
971
971
972
970
969
970
973
974
973
972
972
974
977
977
978
980
980
980
982
983
983
979
977
978
980
981
981
980
979
981
986
986
986
985
981
982
980
979
979
977
976
975
975
978
977
974
973
973
973
975
974
973
967
968
969
968
965
964
964
967
967
970
972
975
976
981
985
989
992
998
1008
1027
1047
1063
1078
1098
1121
1146
1159
1171
1181
1178
1162
1134
1101
1064
1028
1009
1002
998
994
992
991
988
982
978
975
974
972
970
966
965
966
962
962
960
957
959
958
960
960
960
958
961
964
964
963
963
962
965
966
969
970
971
970
972
974
976
977
977
980
982
986
985
986
984
981
984
988
991
990
989
988
989
991
994
992
991
989
992
995
995
995
991
991
992
993
995
993
992
988
990
990
992
991
986
985
986
984
983
981
979
974
977
979
980
979
977
974
976
975
975
973
971
970
970
971
973
970
966
963
963
966
968
967
965
964
962
965
965
964
961
959
959
961
962
959
958
955
957
958
960
959
956
957
957
961
962
960
957
955
957
959
959
958
955
954
953
957
958
960
959
961
967
971
975
976
976
973
976
977
977
976
975
972
976
974
977
973
973
971
971
973
973
972
969
968
967
966
968
966
965
962
964
964
965
963
961
958
959
961
961
959
958
958
957
961
963
961
961
960
963
964
966
964
964
962
964
964
964
963
963
961
964
966
966
968
970
970
974
977
979
978
977
973
974
978
980
981
981
981
984
988
990
995
1001
1016
1036
1056
1077
1099
1122
1139
1152
1163
1171
1162
1140
1110
1077
1040
1007
987
976
973
971
975
978
979
975
974
973
975
973
973
967
968
970
971
970
969
965
964
964
966
965
963
960
961
963
966
970
970
970
968
970
973
973
972
969
968
971
972
971
969
969
969
970
974
972
971
971
971
973
977
979
977
977
977
980
983
985
987
987
989
989
993
994
993
991
991
992
995
995
996
995
992
997
998
999
1000
996
996
997
995
993
990
987
983
986
986
985
983
982
982
982
984
983
981
978
978
981
980
980
980
976
974
976
977
977
978
975
974
975
980
981
982
979
978
980
982
983
980
979
977
978
980
978
978
977
974
973
975
975
974
971
971
971
973
973
973
972
971
968
970
970
970
969
967
968
970
970
970
969
965
966
965
968
967
968
973
977
981
984
984
983
984
984
987
987
987
985
985
986
986
987
984
983
983
982
982
981
982
979
979
980
981
981
979
975
974
975
976
976
974
974
971
972
973
971
969
969
969
970
972
972
973
972
974
977
984
988
991
992
997
1010
1027
1047
1066
1083
1106
1132
1154
1172
1189
1201
1202
1190
1164
1131
1087
1045
1007
985
974
967
965
969
975
986
991
992
989
987
982
982
983
981
980
975
975
978
976
978
975
972
968
971
970
970
969
969
967
966
969
972
971
969
972
974
974
976
976
974
973
976
976
977
976
975
975
977
979
980
981
981
982
983
987
986
987
985
984
984
985
986
988
987
986
988
990
990
988
988
988
988
991
991
991
990
991
992
994
995
996
997
999
1002
1005
1004
1003
1001
1002
1002
1002
1002
998
995
994
995
994
992
989
987
985
987
987
987
986
984
982
986
985
985
984
983
983
981
984
984
980
978
978
980
980
979
978
977
976
977
977
976
974
971
970
970
968
969
967
965
963
965
965
963
962
960
960
965
968
973
976
978
978
982
986
986
987
986
984
988
989
989
989
988
987
987
991
990
989
988
987
988
989
989
988
985
984
986
988
987
984
985
984
982
983
984
981
981
978
979
977
975
974
971
973
970
973
972
970
969
968
969
972
974
972
969
968
970
970
970
971
971
974
978
983
986
984
984
985
987
988
991
990
990
991
995
1000
1002
1006
1006
1009
1016
1026
1042
1061
1077
1097
1119
1142
1158
1172
1186
1201
1204
1188
1158
1124
1080
1043
1014
998
989
979
973
974
981
985
984
980
977
975
976
977
979
977
977
974
977
978
977
976
974
973
975
979
978
977
976
976
974
976
977
977
980
981
987
990
992
993
989
989
990
990
991
991
991
990
990
993
995
992
993
990
992
993
992
993
990
990
989
992
992
990
991
991
991
992
993
995
994
996
999
1001
