981
982
984
986
986
982
983
983
986
988
988
986
985
985
988
988
986
985
982
982
986
989
988
984
980
984
983
986
986
983
982
982
984
987
987
984
982
983
983
984
984
981
980
979
979
978
980
978
976
974
974
974
975
974
972
972
975
975
976
976
973
973
975
978
979
977
975
975
975
977
978
979
978
979
980
981
984
983
983
980
981
982
984
982
980
979
979
982
980
980
978
977
979
982
982
982
979
979
980
980
978
977
975
976
980
980
982
982
984
987
992
997
1001
1007
1016
1029
1054
1074
1095
1118
1143
1167
1191
1211
1228
1232
1213
1175
1130
1083
1039
1006
988
974
972
977
983
990
991
989
988
987
986
980
979
978
977
977
976
976
974
975
975
976
976
974
973
973
975
975
973
974
972
970
970
971
970
969
967
969
970
974
973
975
975
977
978
982
982
983
982
983
983
985
986
986
985
983
986
987
989
987
986
987
988
991
991
991
990
988
990
991
992
991
990
990
992
993
995
996
993
995
997
999
1000
1000
997
997
999
999
999
998
992
991
993
990
992
986
984
984
985
985
985
982
981
979
980
980
977
974
975
973
975
977
977
976
976
975
978
980
982
981
981
981
984
984
982
982
980
979
984
983
981
981
979
980
982
984
985
984
982
982
985
985
985
984
981
981
981
984
984
983
979
979
980
979
980
978
977
978
978
981
981
981
979
978
977
980
980
977
974
975
977
980
979
976
976
976
977
980
978
978
976
975
977
979
979
977
976
974
976
977
977
977
975
975
974
976
978
976
976
973
975
977
978
977
976
972
974
975
978
975
974
974
976
976
974
974
974
973
974
975
976
974
973
974
976
976
975
974
975
974
975
977
975
975
975
973
975
977
978
976
977
979
980
981
980
979
980
979
982
980
980
980
978
978
979
979
980
978
977
975
976
978
979
977
978
978
980
985
989
995
996
1001
1014
1034
1055
1076
1098
1120
1145
1166
1185
1198
1209
1209
1193
1171
1140
1104
1065
1032
1011
1003
993
991
992
997
1001
999
994
990
987
985
985
983
981
978
974
974
972
975
970
970
968
966
967
969
968
967
963
962
965
969
971
972
970
971
972
974
974
973
970
971
975
975
977
976
977
977
981
983
981
983
982
984
984
987
984
983
984
984
988
990
990
989
987
988
990
991
989
987
983
985
988
992
991
990
992
995
1000
1005
1004
1003
1003
1002
1004
1006
1006
1003
1001
1000
1002
1003
1002
1000
999
998
999
1000
1000
997
994
992
993
998
995
994
990
991
990
992
991
988
982
983
985
985
985
982
980
980
981
980
982
980
978
979
979
980
980
981
979
976
977
979
978
978
975
975
975
974
976
976
975
977
979
982
982
982
981
980
981
985
986
986
984
986
989
990
990
990
990
990
992
990
990
988
988
988
990
990
987
988
988
987
987
987
986
985
983
983
988
990
992
996
998
1001
1007
1019
1035
1050
1063
1076
1091
1115
1134
1145
1154
1165
1173
1172
1154
1130
1100
1063
1034
1017
1007
997
991
986
986
989
988
986
982
979
981
980
982
982
982
980
980
983
981
980
982
980
981
981
978
976
976
974
977
977
976
976
974
974
974
977
976
977
976
977
978
978
978
981
979
977
980
981
980
981
980
981
983
984
983
983
982
983
986
987
985
985
984
987
989
992
993
993
993
995
998
1000
1000
998
998
998
1002
1001
1001
1000
999
998
1001
1003
1002
1002
1000
1001
1000
1000
997
994
992
992
992
994
991
988
986
985
984
986
982
979
978
979
980
980
978
974
973
974
975
976
974
971
971
973
976
977
976
974
974
974
979
982
982
984
983
981
983
985
981
981
982
981
982
982
981
982
983
983
988
989
985
985
983
983
985
985
984
983
982
981
983
983
981
980
979
978
979
981
976
977
975
975
975
975
975
974
972
972
973
977
976
975
971
973
975
978
975
974
972
972
972
975
975
975
973
971
970
972
975
975
976
976
978
980
982
985
985
984
989
988
987
987
986
985
985
986
987
987
984
985
987
989
988
988
987
986
985
988
988
986
986
984
988
988
990
994
994
999
1001
1009
1022
1040
1059
1079
1102
1127
1151
1169
1184
1198
1205
1197
1173
1140
1102
1060
1030
1010
997
987
984
988
996
1003
1003
999
995
994
993
993
992
992
990
989
990
992
990
988
985
983
984
984
980
981
980
979
981
981
981
980
978
980
980
983
983
981
979
979
980
981
982
980
980
981
986
986
987
987
987
987
988
989
987
985
984
984
990
992
990
990
991
993
995
998
996
996
994
995
999
1002
1001
1000
999
1001
1004
1006
1005
1006
1002
1004
1008
1009
1009
1006
1006
1005
1006
1007
1007
1006
1002
1002
1004
1004
1001
999
996
996
998
999
998
996
994
991
993
994
994
992
989
987
988
989
987
983
984
985
984
989
987
986
984
984
985
989
988
985
982
983
985
985
984
982
982
983
986
989
988
987
986
987
990
993
991
991
990
991
994
997
995
994
990
991
992
991
991
989
986
987
986
989
988
987
988
986
989
989
989
987
986
986
987
988
988
987
984
982
983
983
981
980
980
980
981
985
985
985
985
985
985
986
986
984
983
986
988
991
991
989
988
987
987
988
989
988
987
987
990
993
996
999
999
1004
1011
1029
1051
1074
1092
1118
1146
1173
1194
1212
1219
1216
1192
1157
1114
1070
1029
1002
988
980
977
978
982
989
990
986
986
982
981
981
983
983
986
984
981
979
981
984
980
977
977
976
978
978
978
977
975
979
979
983
983
980
977
978
981
983
984
982
980
980
983
986
985
985
983
983
986
988
987
987
985
987
989
992
993
990
989
991
996
998
999
1000
997
997
1001
1002
1000
999
996
1000
1001
1004
1002
1002
1001
1002
1001
1001
1001
998
995
995
999
999
999
996
995
995
995
997
996
993
991
991
991
991
992
988
986
987
985
989
988
985
984
984
986
989
988
988
988
989
991
990
990
987
986
983
986
987
985
982
981
983
985
987
985
983
982
981
986
986
989
986
985
986
987
988
990
987
985
985
988
989
989
988
986
985
988
991
989
986
983
985
986
987
986
987
986
987
986
990
990
991
989
988
990
990
989
985
984
984
985
988
987
985
984
984
987
988
988
988
986
987
992
995
998
999
999
1003
1010
1021
1035
1054
1071
1092
1115
1137
1160
1174
1186
1199
1197
1181
1154
1121
1077
1042
1022
1012
1006
999
994
997
998
1000
995
990
986
986
985
983
982
981
980
979
981
979
980
978
976
975
977
980
980
980
977
977
979
982
984
983
981
984
982
987
988
986
985
984
985
985
985
983
981
982
984
988
989
987
987
988
990
990
994
994
993
996
1001
1001
1003
1001
999
1000
1003
1006
1005
1004
1005
1006
1009
1007
1004
1003
1001
1003
1003
1003
1001
998
998
998
1001
998
997
994
992
990
990
991
988
987
985
986
985
988
986
985
984
984
986
991
992
992
991
991
992
995
996
995
994
995
996
998
999
995
990
992
994
996
993
991
985
985
986
986
988
989
990
992
996
1001
1006
1011
1021
1040
1066
1088
1106
1127
1148
1173
1194
1201
1204
1188
1159
1123
1086
1050
1024
1013
1009
1008
1007
1004
1003
998
993
992
990
990
988
985
982
981
983
981
980
977
973
975
975
974
974
971
968
970
971
971
971
969
966
967
969
973
971
971
971
972
973
974
973
972
972
973
977
978
977
977
977
977
978
980
978
980
981
983
988
994
998
999
1000
1004
1007
1007
1006
1005
1006
1006
1006
1011
1011
1011
1010
1011
1012
1013
1011
1009
1007
1005
1004
1004
1002
998
993
993
992
992
989
988
986
986
984
985
984
983
983
982
984
984
983
982
982
983
983
982
981
981
981
984
987
984
982
980
977
979
981
982
983
985
985
985
988
989
990
988
988
988
989
988
986
984
983
983
984
983
983
981
979
980
979
979
978
977
975
976
976
975
975
977
973
973
972
974
976
975
974
976
978
979
977
975
974
977
978
978
979
977
974
976
976
977
977
977
976
975
973
976
976
973
972
973
977
980
982
981
982
985
986
985
987
985
984
982
985
987
987
984
983
983
984
987
988
986
983
983
986
988
988
987
987
988
990
990
991
991
988
989
991
992
993
990
988
990
990
991
991
988
987
987
989
991
994
997
998
1001
1006
1018
1034
1053
1072
1096
1122
1145
1165
1180
1195
1205
1199
1171
1131
1083
1039
1011
996
984
979
981
985
994
996
996
992
990
988
988
988
985
982
981
980
979
980
982
979
979
977
977
977
978
976
974
971
972
971
970
971
972
971
970
971
972
972
971
969
971
972
975
976
975
973
973
974
976
977
981
982
985
989
993
997
998
1000
1001
1004
1009
1008
1009
1008
1009
1011
1013
1013
1013
1009
1012
1015
1014
1015
1015
1012
1012
1013
1014
1016
1015
1011
1010
1008
1009
1008
1004
1002
1000
1000
999
999
994
992
992
993
994
992
989
985
986
988
990
991
991
988
988
991
992
993
990
988
989
990
993
992
994
992
992
994
995
995
995
994
995
995
995
995
993
992
993
995
994
992
990
987
988
989
991
992
989
988
987
989
991
991
991
987
985
986
988
988
988
983
984
986
989
991
991
987
987
987
988
988
986
983
984
987
988
988
986
983
986
992
997
999
1003
1016
1037
1058
1077
1099
1116
1136
1159
1181
1198
1200
1183
1149
1105
1064
1030
1003
985
971
970
980
988
996
993
987
984
986
985
986
983
982
981
984
985
984
983
979
979
980
981
981
978
975
975
977
980
980
977
974
973
977
977
979
976
974
973
976
978
978
975
975
975
977
975
977
975
974
974
974
977
975
972
971
972
976
978
982
985
985
988
992
997
997
998
997
999
999
1000
1001
1001
1000
999
999
1000
1000
997
996
997
997
995
993
989
985
985
986
987
986
982
981
981
981
981
982
978
975
976
975
975
975
972
969
970
968
971
971
969
967
967
969
970
973
972
972
974
973
973
972
970
971
972
972
977
979
981
984
986
991
991
991
990
986
989
992
993
991
989
985
986
987
987
985
981
980
981
982
984
983
979
979
980
981
982
982
980
978
979
980
980
978
977
975
976
976
977
977
975
972
974
976
977
977
975
972
973
973
970
969
965
962
962
966
970
971
974
974
976
978
982
980
980
979
981
980
982
981
981
980
980
980
981
979
978
977
977
980
982
983
985
988
992
999
1009
1022
1040
1055
1073
1094
1117
1142
1152
1163
1175
1180
1172
1149
1118
1084
1049
1023
1012
1003
997
989
987
986
986
982
981
977
975
973
973
973
974
973
976
977
976
976
975
975
975
977
980
980
977
975
979
979
980
979
982
981
981
982
982
979
979
977
978
980
980
978
975
971
970
971
973
972
971
971
973
973
976
975
975
974
975
977
980
980
978
976
978
978
979
978
977
974
976
979
983
982
980
980
984
986
991
993
995
995
999
1002
1004
1003
1000
998
998
1001
1001
1000
997
996
996
996
995
996
993
992
991
992
992
991
986
982
982
983
980
979
978
975
976
977
977
975
971
969
971
971
971
971
970
969
971
972
972
972
970
969
972
972
973
972
971
966
970
970
971
971
968
966
966
967
971
970
971
972
976
983
988
989
987
985
986
986
988
987
982
983
981
984
984
982
980
977
976
979
979
978
976
974
974
974
975
974
970
968
966
969
968
968
966
963
963
965
967
967
964
961
961
962
964
965
965
963
966
969
969
970
967
966
966
966
968
967
964
963
968
970
974
978
978
978
980
980
979
977
975
972
973
975
975
974
972
970
970
973
976
974
972
970
970
971
971
971
969
966
966
967
968
967
965
962
963
966
967
968
965
965
967
970
972
973
971
971
970
971
973
974
971
969
969
970
972
972
971
969
971
975
981
984
993
997
1002
1009
1017
1028
1045
1062
1080
1101
1124
1145
1160
1171
1185
1186
1170
1141
1104
1067
1029
1007
997
988
983
980
983
986
989
985
980
975
973
975
974
975
971
969
971
970
972
970
969
968
968
971
968
967
967
966
968
971
973
971
969
971
975
977
980
983
981
980
986
985
986
985
984
981
983
984
985
985
981
978
982
984
985
986
985
983
985
986
988
988
985
985
987
989
993
991
990
988
989
991
992
992
993
992
994
996
998
998
996
997
997
1000
1000
1000
996
992
993
994
996
995
994
992
991
992
995
994
991
988
992
992
992
990
985
983
981
985
986
986
984
982
985
985
986
984
981
979
980
980
981
978
977
975
976
977
977
979
976
976
975
976
978
979
978
977
979
981
983
981
980
978
978
979
983
982
981
979
980
981
982
981
981
979
981
983
984
984
983
982
983
983
984
981
977
976
976
977
977
975
975
974
973
972
973
973
970
969
970
969
972
971
969
968
969
970
968
969
967
966
966
968
969
971
969
969
972
972
972
972
971
970
971
971
974
973
971
971
975
980
981
981
979
977
978
982
981
978
977
980
980
980
980
979
979
976
977
978
978
977
974
973
976
976
978
975
974
972
973
975
977
973
970
970
971
971
975
974
972
970
974
975
977
975
973
969
969
970
971
973
974
970
972
976
977
975
971
970
970
973
975
975
973
970
971
974
976
978
977
976
978
978
980
980
977
975
975
977
977
979
977
975
974
979
980
979
979
979
980
982
981
980
979
979
977
979
979
979
979
977
979
978
980
978
976
976
978
979
982
983
981
979
981
982
981
980
979
978
978
979
978
980
981
978
982
983
983
985
984
983
986
987
993
996
997
997
1004
1017
1034
1054
1075
1094
1121
1146
1167
1185
1201
1216
1218
1208
1183
1142
1099
1057
1025
1002
988
977
969
970
976
985
992
991
989
985
983
983
982
982
977
976
977
977
978
978
976
974
975
973
975
974
976
972
975
977
977
977
978
977
978
979
982
982
981
982
979
983
985
985
983
983
983
984
984
986
985
982
983
983
984
981
981
978
981
981
982
982
981
980
984
989
990
992
993
993
994
994
997
997
996
995
997
998
999
1000
996
995
998
1000
1004
1003
1004
1003
1004
1004
1007
1005
1004
1003
1004
1006
1004
1003
999
996
999
998
998
998
994
990
992
993
993
991
990
990
990
990
990
989
989
986
990
993
993
990
987
984
983
981
982
983
982
982
984
985
986
985
986
983
984
984
985
983
984
982
985
987
988
987
986
986
986
989
990
987
986
983
987
986
987
984
983
981
982
985
986
984
981
981
980
983
984
984
982
979
982
984
985
985
981
979
978
980
981
978
976
973
976
978
981
981
976
971
971
972
972
972
972
973
974
979
983
986
985
985
987
987
989
988
988
988
987
986
988
987
986
983
984
985
986
985
984
982
983
985
984
984
986
985
985
987
988
987
987
987
987
989
991
991
993
995
997
1001
1008
1020
1036
1054
1078
1098
1121
1144
1161
1173
1185
1190
1183
1160
1134
1101
1068
1039
1020
1007
997
990
986
985
986
986
985
985
987
984
985
983
979
978
979
981
980
980
976
975
975
975
975
974
975
972
972
974
974
973
973
970
974
975
974
972
970
971
975
979
980
981
980
979
981
982
985
984
983
981
983
986
986
984
982
979
983
986
987
986
983
984
986
986
987
986
985
984
984
986
989
991
992
995
998
1002
1003
1002
1002
1002
1002
1001
1000
998
997
997
996
994
995
994
992
989
990
990
990
989
986
985
986
988
988
988
985
981
982
982
982
982
978
977
978
979
979
976
974
974
976
975
977
976
976
973
974
976
977
976
973
970
971
975
971
971
966
963
963
964
965
966
966
969
974
978
977
978
976
975
975
978
979
980
979
981
981
982
981
980
978
976
975
976
977
975
973
971
973
972
973
973
971
970
972
972
972
971
968
966
967
968
969
965
966
964
967
966
966
964
963
962
962
967
966
966
963
962
964
964
964
967
965
962
964
966
970
973
974
977
981
984
982
982
981
979
980
981
983
983
983
982
984
984
984
985
982
981
983
985
987
986
984
987
990
995
998
999
1003
1014
1036
1057
1077
1095
1116
1139
1159
1173
1185
1189
1181
1161
1132
1099
1061
1026
1003
990
985
983
982
982
983
983
981
983
983
981
977
977
975
976
975
975
970
971
972
974
977
977
978
979
980
980
982
980
979
978
979
981
981
979
979
977
978
980
979
979
978
978
979
979
981
980
977
979
979
981
983
982
983
982
983
985
985
987
984
985
989
992
992
994
991
992
991
995
995
995
995
994
999
1000
1000
1002
1001
1000
1002
1004
1002
1000
1000
1001
1001
1003
1003
1003
1002
1001
1000
997
999
997
993
992
990
989
991
990
989
986
986
987
986
986
985
985
985
987
987
988
984
982
983
985
986
983
982
980
980
979
983
980
977
974
978
978
980
981
979
978
978
980
981
979
979
978
980
981
981
979
979
980
982
986
986
985
982
979
981
983
984
983
979
978
980
984
984
984
981
981
983
984
982
980
979
978
976
976
974
973
969
969
967
968
968
966
965
963
962
964
966
966
967
969
972
974
980
981
981
980
981
980
983
982
981
980
982
985
988
989
989
987
989
989
991
991
989
988
989
993
994
993
990
989
992
990
990
987
986
984
986
989
990
988
988
987
989
996
1001
1003
1011
1031
1060
1087
1113
1141
1166
1189
1209
1221
1213
1183
1141
1094
1049
1014
989
972
962
963
973
982
984
984
983
981
981
980
980
980
978
978
979
978
979
980
978
