977
978
980
980
980
977
974
975
978
978
979
975
974
977
981
982
981
979
977
978
979
979
980
978
975
978
979
981
981
979
978
979
980
982
980
980
978
981
985
984
984
987
988
989
993
996
998
1001
1003
1008
1011
1014
1013
1014
1013
1015
1016
1018
1015
1014
1011
1011
1012
1011
1008
1004
1003
1004
1004
1004
1001
997
995
994
996
995
992
988
988
991
990
987
986
982
982
982
983
983
982
977
974
974
976
976
975
976
975
978
978
979
979
977
977
982
985
987
989
989
989
990
992
989
989
989
990
990
992
993
992
989
989
991
989
988
986
987
984
985
987
987
987
984
981
983
984
984
981
980
978
977
980
979
979
975
974
974
976
976
976
970
969
971
972
975
976
975
979
984
987
990
989
985
983
986
989
992
990
988
987
988
988
987
986
985
983
985
987
985
985
984
984
984
985
984
984
980
978
979
980
980
979
977
975
977
976
978
977
975
974
974
978
980
979
978
977
981
981
982
979
976
974
975
976
979
978
976
976
976
974
977
978
978
982
988
990
994
994
990
992
997
1003
1007
1009
1013
1019
1040
1063
1084
1101
1119
1144
1164
1181
1192
1200
1193
1172
1143
1110
1069
1031
1007
996
990
988
988
989
990
989
992
991
991
988
987
986
983
984
983
980
978
979
978
979
979
976
975
973
974
974
973
971
970
971
973
975
976
981
982
985
987
989
991
989
987
986
987
990
989
989
989
987
989
990
990
992
991
992
994
995
994
995
993
994
995
1000
1001
1005
1004
1003
1005
1008
1008
1011
1008
1009
1009
1010
1011
1011
1009
1006
1003
1005
1004
1003
1000
997
995
994
994
993
989
985
984
984
987
986
985
984
985
988
987
988
986
984
984
984
984
984
981
979
978
981
981
979
978
979
981
983
984
985
982
982
983
984
985
984
983
983
986
989
989
987
986
984
983
983
985
984
982
981
982
983
983
982
977
976
977
976
977
977
977
976
978
981
982
980
977
978
979
979
980
980
979
977
979
981
981
983
979
979
980
982
983
982
979
979
980
984
985
986
982
979
983
984
984
981
980
980
981
983
981
980
979
979
981
981
981
978
976
975
973
977
976
974
969
969
968
968
968
968
970
972
976
979
977
975
972
973
974
973
976
976
974
975
978
979
980
979
976
977
980
982
982
981
981
981
985
992
996
999
1002
1015
1037
1061
1085
1108
1134
1154
1172
1186
1190
1178
1151
1116
1078
1041
1014
1000
992
987
987
990
991
989
986
982
983
984
985
985
980
977
975
975
977
973
972
974
975
976
977
975
972
973
975
976
976
974
974
975
978
979
977
974
976
975
977
977
974
973
975
974
977
983
986
986
985
987
990
992
993
993
987
987
990
992
994
998
999
999
1002
1005
1008
1007
1008
1008
1009
1014
1015
1014
1013
1010
1009
1009
1006
1006
1003
1001
1000
999
998
996
993
990
987
988
987
985
982
980
979
981
981
980
980
977
979
982
984
983
981
979
982
984
984
985
982
982
982
984
983
981
980
980
980
982
984
982
983
982
986
986
988
990
987
989
987
987
988
986
984
982
983
985
985
982
978
979
978
980
980
978
977
976
978
979
983
985
985
986
994
1001
1010
1018
1027
1040
1059
1078
1097
1113
1133
1153
1173
1189
1197
1200
1182
1153
1121
1083
1046
1012
989
980
979
979
982
986
986
987
986
984
983
979
978
975
975
974
974
975
973
970
969
969
968
968
967
964
965
966
967
967
969
967
969
970
971
972
971
971
972
973
974
973
971
972
973
975
978
977
977
979
981
982
983
982
983
986
988
991
994
997
995
994
997
998
997
997
994
996
999
1000
1001
1003
1003
1004
1005
1004
1007
1004
1007
1004
1004
1001
1002
1001
998
994
993
992
990
988
984
982
980
980
978
974
971
970
971
972
972
971
970
968
970
972
973
973
972
971
974
976
975
976
975
974
974
973
974
972
971
970
969
972
973
971
969
969
971
972
973
972
971
969
971
972
972
973
969
970
971
971
972
970
968
968
966
968
968
968
967
967
970
973
974
973
972
969
975
975
975
976
976
976
976
978
978
977
979
978
981
981
981
980
978
976
976
975
978
975
970
971
972
972
973
972
971
970
972
971
972
973
970
970
970
970
972
971
969
969
970
971
969
968
968
966
967
969
968
968
969
967
969
970
971
967
967
966
966
968
969
972
970
972
975
976
977
976
977
980
980
983
983
980
977
975
974
974
973
974
974
977
980
980
981
978
977
973
974
976
973
971
971
969
972
972
970
970
968
970
969
968
969
969
967
968
969
971
970
971
969
968
970
971
971
968
967
966
971
973
973
973
972
975
977
978
978
976
976
976
978
980
981
982
982
980
983
985
987
989
989
993
998
1000
1006
1008
1011
1018
1033
1054
1073
1091
1112
1136
1158
1174
1188
1201
1210
1206
1190
1165
1132
1095
1056
1026
1005
990
980
976
975
980
982
981
978
973
969
971
971
973
971
971
973
972
975
976
974
974
973
972
973
975
976
975
972
975
976
977
980
981
980
980
983
985
984
983
980
979
980
979
979
978
976
974
975
977
974
974
971
970
975
978
977
976
974
973
977
976
978
976
974
976
977
982
979
979
980
982
986
990
993
995
996
998
1000
1004
1003
1004
1004
1003
1008
1012
1012
1013
1010
1011
1013
1016
1014
1013
1009
1006
1006
1004
1002
997
993
989
988
987
986
986
982
980
979
981
980
977
976
975
977
979
979
980
978
977
977
981
980
980
979
975
979
979
980
981
983
982
985
990
993
993
990
990
990
991
993
992
992
988
990
991
991
989
988
986
986
985
984
982
980
977
976
977
976
974
972
969
969
970
969
967
967
964
965
966
965
966
965
965
967
969
968
968
966
964
968
971
973
976
978
982
987
994
1001
1011
1027
1045
1061
1075
1091
1114
1136
1154
1168
1179
1176
1161
1134
1097
1063
1041
1030
1020
1013
1004
1002
999
998
994
988
987
986
982
981
978
975
973
973
972
970
969
966
965
965
966
965
962
958
959
960
961
962
960
960
959
961
962
963
963
959
963
966
967
968
969
966
967
972
973
976
978
979
980
984
987
988
987
985
985
987
989
990
990
991
990
992
993
993
996
995
997
1000
1002
999
998
995
995
996
1000
999
996
993
992
993
991
990
989
986
981
983
984
982
979
978
975
977
978
976
975
974
972
976
980
979
978
975
979
980
983
984
983
981
980
981
981
985
980
980
979
981
982
980
979
977
976
978
978
977
976
974
972
972
974
971
968
967
968
969
972
973
975
975
975
979
978
979
980
979
980
983
984
985
985
984
982
984
982
981
979
976
975
979
979
980
979
978
978
978
979
978
980
977
976
975
977
974
973
972
970
972
973
973
970
967
966
965
966
965
962
959
957
960
961
958
957
955
955
955
958
957
955
954
956
961
965
969
969
969
971
973
978
979
980
980
980
984
986
988
989
989
990
993
996
998
998
1000
1003
1005
1012
1019
1034
1051
1068
1088
1112
1137
1156
1170
1186
1198
1198
1177
1145
1109
1072
1035
1009
995
983
972
967
971
976
979
976
971
968
969
968
971
969
968
969
971
973
974
972
971
972
972
975
976
977
978
978
979
981
983
983
981
981
982
983
984
982
982
984
984
986
986
985
983
980
979
979
981
978
978
977
979
982
981
981
979
978
981
984
985
983
982
980
986
986
986
984
984
987
987
992
993
992
991
990
992
994
997
1000
999
1001
1004
1009
1011
1010
1008
1008
1009
1009
1008
1008
1005
1003
1001
1000
998
996
994
991
990
992
991
990
989
987
987
990
990
987
985
983
984
984
984
982
980
980
981
983
984
983
982
979
983
983
986
984
982
983
984
984
984
985
984
982
983
985
984
983
982
978
978
981
982
981
980
982
985
988
989
988
986
986
989
991
990
989
989
986
988
989
988
986
984
983
984
986
987
986
985
984
983
985
985
985
984
983
988
990
995
998
1001
1004
1014
1028
1047
1069
1087
1108
1132
1159
1176
1191
1198
1191
1171
1140
1102
1059
1025
1003
988
979
974
976
982
987
988
984
982
978
974
969
968
969
970
970
970
971
973
973
974
975
972
969
972
975
975
974
974
972
972
974
974
973
971
971
973
976
977
976
973
977
979
981
982
980
980
980
983
985
984
985
984
984
987
989
988
989
989
987
991
995
998
996
996
994
994
997
997
997
995
994
997
999
1000
999
998
996
997
998
1001
999
997
997
1001
1002
1004
1002
1000
997
996
998
997
995
994
992
992
994
992
993
985
983
986
987
987
984
979
980
982
984
984
983
981
979
980
983
985
987
987
986
989
990
987
985
983
981
984
984
986
983
980
981
982
983
983
983
980
980
980
982
980
978
974
972
972
976
978
979
981
983
987
991
991
987
985
988
988
989
990
986
986
985
987
988
987
985
982
982
986
986
987
987
983
982
984
987
987
988
984
985
984
985
985
982
981
979
981
982
982
981
975
976
978
982
980
976
977
975
977
979
978
979
976
975
977
978
978
975
976
975
978
980
981
985
987
993
999
1011
1027
1048
1069
1089
1110
1135
1160
1176
1186
1199
1207
1201
1179
1150
1119
1081
1049
1030
1019
1006
998
998
999
1001
1001
997
992
989
985
984
982
981
976
975
978
980
978
976
977
973
974
973
972
970
969
967
967
968
969
970
967
967
965
967
967
965
964
965
967
969
969
969
968
969
974
978
983
989
991
994
997
999
999
998
996
995
995
998
997
997
994
993
995
998
996
995
996
995
995
999
1000
999
996
997
1001
1000
1000
1002
1001
1000
1001
1001
1000
999
998
994
991
994
991
990
986
984
983
985
982
980
979
981
981
984
983
981
979
977
980
979
980
983
986
989
997
1001
1001
1000
997
994
995
996
995
994
992
991
992
993
994
990
991
989
991
991
989
991
987
984
985
987
987
984
984
981
982
986
985
983
980
978
978
981
979
978
975
976
977
978
976
974
974
974
977
978
976
975
975
973
974
977
977
976
974
974
977
981
986
988
990
990
989
990
990
990
986
986
988
986
986
987
984
984
984
984
983
981
980
978
981
982
983
982
980
980
980
981
982
981
980
979
981
980
981
980
980
982
988
993
997
998
1001
1005
1020
1039
1056
1073
1091
1113
1140
1160
1170
1178
1187
1181
1165
1144
1111
1072
1039
1016
1006
1002
999
996
995
997
1001
999
994
989
986
983
983
985
982
982
977
976
976
977
974
973
971
970
972
972
973
968
968
971
972
975
974
975
978
979
981
984
982
981
980
979
981
982
983
981
981
979
980
984
982
979
982
979
981
981
982
982
979
979
981
982
981
984
983
986
989
993
999
999
997
995
1000
1005
1004
1005
1003
1004
1004
1005
1007
1006
1005
1005
1006
1008
1006
1004
1000
996
998
999
999
996
992
989
989
992
989
990
986
984
986
987
983
983
979
978
980
981
980
978
977
975
977
976
973
971
971
969
970
971
971
969
968
968
970
972
971
970
971
973
977
984
988
990
991
991
995
994
995
995
993
993
994
995
994
992
991
989
990
990
988
986
984
985
985
986
984
984
982
979
978
981
977
980
978
977
977
978
976
976
974
973
973
974
974
972
971
969
971
973
972
971
970
967
970
972
972
972
973
973
977
984
988
991
992
993
994
993
993
991
990
987
989
991
991
989
987
985
987
988
985
985
981
981
983
984
983
979
977
978
979
979
980
978
975
974
977
978
977
975
974
974
976
978
978
977
972
974
976
976
974
975
975
976
980
982
982
983
984
986
988
992
993
992
995
995
997
995
994
991
990
990
991
993
991
991
989
989
993
998
1002
1004
1007
1008
1020
1034
1056
1080
1099
1124
1149
1173
1190
1206
1213
1205
1180
1141
1093
1044
1009
985
974
968
963
967
975
979
982
983
981
982
981
981
981
982
981
978
980
983
982
983
984
984
983
984
986
990
990
989
988
985
988
989
987
985
984
983
984
986
985
986
985
981
982
984
985
985
984
981
985
986
987
986
984
985
986
987
988
987
988
987
989
989
991
990
992
993
999
1002
1002
1003
1004
1005
1007
1010
1008
1007
1008
1009
1015
1018
1023
1020
1016
1016
1016
1018
1018
1016
1013
1009
1009
1009
1006
1002
999
997
996
996
994
990
987
987
987
986
984
981
980
978
980
981
978
978
976
977
981
983
983
984
982
982
984
986
988
988
988
988
992
994
993
992
990
989
992
994
993
992
992
991
991
993
989
988
987
987
989
991
992
991
987
985
985
986
985
985
981
980
982
981
980
977
973
972
972
976
974
975
974
976
979
982
980
981
979
982
985
987
985
985
982
983
984
986
984
984
982
984
985
986
983
983
981
981
982
984
983
981
979
979
981
980
981
980
980
981
983
985
984
983
981
979
981
984
983
982
981
980
980
981
979
980
976
977
980
981
980
978
977
978
983
987
987
989
986
986
987
989
985
984
983
983
985
987
983
983
980
980
982
982
983
982
982
982
985
987
987
986
984
982
984
986
983
982
979
979
981
980
979
978
977
978
980
980
977
976
977
978
980
983
982
980
981
982
988
991
992
993
994
995
995
996
994
993
991
990
993
994
994
994
994
995
997
997
997
997
998
1001
1006
1010
1013
1014
1023
1038
1060
1081
1100
1124
1147
1166
1184
1201
1213
1209
1188
1155
1118
1079
1042
1012
994
984
980
987
995
1000
1000
996
995
992
991
988
985
987
987
988
988
988
984
987
987
991
991
989
991
991
993
996
994
994
992
992
992
992
992
992
989
987
987
989
991
989
987
988
989
991
991
990
987
990
992
992
992
992
990
989
990
992
993
993
992
994
996
1000
1002
1002
1003
1003
1007
1009
1008
1008
1007
1007
1009
1010
1011
1008
1006
1008
1009
1013
1012
1010
1007
1009
1010
1010
1009
1005
1004
1000
998
998
997
992
992
989
988
991
989
989
987
982
982
985
986
985
983
985
985
990
991
990
989
989
994
996
997
997
996
997
998
1000
1000
999
999
999
999
1002
999
994
990
991
991
992
991
989
988
989
988
990
988
987
986
986
988
989
987
987
983
985
984
984
982
981
979
980
981
982
979
978
976
976
980
982
981
980
980
986
990
991
993
991
991
992
992
994
991
991
991
993
996
995
993
988
986
986
986
986
985
983
981
983
986
986
984
982
982
982
983
982
981
980
976
978
978
980
980
978
977
978
977
979
977
978
977
979
981
983
982
981
981
982
985
987
990
991
993
999
1006
1013
1025
1037
1056
1077
1095
1114
1136
1160
1177
1190
1202
1206
1191
1164
1133
1095
1061
1036
1020
1008
1004
1000
1002
1003
1002
997
992
990
988
987
984
982
980
979
980
981
980
977
974
975
976
975
975
973
969
969
972
974
975
975
973
974
977
979
977
976
977
980
984
988
991
992
991
992
993
996
997
996
994
993
996
998
996
995
994
997
998
1001
1003
1001
998
997
998
1000
1000
1000
999
998
1000
1002
1003
1000
997
995
999
1002
1002
999
997
997
998
1002
1002
1000
1000
1001
1003
1003
1001
1003
1000
1000
999
999
998
998
996
998
997
1000
999
996
993
993
995
994
994
992
990
992
992
992
991
987
984
984
984
985
985
984
980
979
980
981
981
977
977
976
977
978
977
975
973
971
971
975
972
973
971
973
975
975
976
976
975
977
979
979
981
982
980
984
984
986
985
985
985
990
992
993
991
989
988
987
991
992
991
990
985
986
988
989
989
988
985
983
986
986
982
979
978
977
979
982
982
980
976
982
982
984
985
984
983
986
988
992
993
994
995
1001
1004
1013
1028
1045
1061
1077
1100
1126
1148
1164
1181
1195
1199
1180
1149
1109
1067
1029
1005
995
990
988
989
995
997
996
991
988
985
983
982
981
979
976
974
974
974
974
974
973
971
972
975
976
977
976
975
978
978
981
986
985
982
985
985
985
984
984
982
984
985
986
985
983
984
984
983
984
987
984
984
984
986
986
987
986
985
988
993
997
1000
1000
1000
1001
1005
1009
1011
1009
1011
1010
1012
1017
1016
1018
1017
1018
1018
1019
1016
1014
1010
1010
1009
1008
1006
1002
997
996
995
992
992
987
984
984
984
983
983
980
977
977
978
977
978
974
971
971
972
972
973
970
968
970
969
970
967
968
966
968
972
977
978
977
978
980
984
986
985
983
983
986
988
989
989
987
984
985
988
988
989
987
986
989
991
991
987
985
984
986
986
987
986
986
981
982
982
984
983
980
977
978
976
974
973
972
969
969
972
973
972
972
972
969
971
974
975
975
974
976
979
980
979
978
976
979
979
979
978
977
976
975
978
980
979
979
977
979
982
982
983
981
982
981
984
984
987
986
983
983
984
985
985
984
980
979
980
980
977
975
971
971
973
973
972
971
969
971
972
972
972
970
970
971
972
973
972
969
967
968
969
970
971
970
970
971
973
974
973
971
968
973
974
976
976
972
972
975
976
978
979
977
975
976
977
981
981
979
978
982
982
982
983
980
979
979
982
981
982
980
978
979
981
983
982
981
979
980
979
981
981
979
976
977
978
981
979
978
978
979
982
984
985
986
986
990
994
1000
1005
1007
1013
1026
1047
1069
1090
1112
1137
1165
1185
1205
1222
1227
1213
1186
1150
1111
1071
1038
1017
1004
996
993
998
1002
1004
1003
1001
998
996
989
985
984
982
982
980
980
978
977
977
979
974
971
972
973
972
973
973
971
972
975
978
982
982
981
981
981
981
982
984
983
983
