934
934
934
935
935
934
933
934
934
939
938
938
936
936
937
937
939
938
936
936
939
942
942
946
946
947
952
958
956
955
953
955
956
959
960
959
961
959
961
963
963
962
961
961
964
967
967
969
969
972
977
980
983
983
984
984
989
992
992
994
993
993
996
998
996
991
989
990
989
990
986
984
981
982
982
981
980
974
972
971
972
972
971
969
969
972
973
975
976
976
976
977
979
980
981
979
979
977
976
977
977
973
972
972
971
972
973
972
971
969
970
970
972
971
969
970
969
970
970
969
968
968
969
970
972
969
965
967
967
970
969
970
967
966
968
968
969
967
966
965
966
968
966
966
963
962
961
962
962
960
957
958
964
967
968
967
967
965
968
969
970
969
970
969
971
972
971
972
969
970
970
973
973
973
972
972
974
975
975
972
969
971
972
975
974
972
971
971
973
976
976
979
979
981
987
994
999
1008
1020
1042
1062
1087
1111
1139
1163
1180
1203
1222
1223
1203
1170
1131
1086
1049
1017
994
980
970
973
980
980
979
973
969
966
967
965
961
959
960
962
966
968
970
971
970
972
972
968
968
967
964
967
967
968
966
965
964
963
967
965
965
962
963
965
966
966
965
965
965
966
966
969
968
970
968
971
973
972
970
970
969
971
973
973
971
969
966
970
971
972
971
972
972
975
976
976
976
976
976
979
984
987
988
990
989
994
997
999
1001
1002
1003
1006
1012
1011
1014
1015
1015
1015
1015
1017
1014
1012
1011
1012
1013
1011
1010
1009
1006
1006
1007
1005
1005
1001
1001
1000
999
999
997
994
994
995
996
996
993
990
988
988
989
989
987
988
987
988
989
990
987
986
985
986
986
987
986
986
985
987
986
986
986
983
985
986
988
988
986
983
984
984
987
987
988
989
991
995
999
1004
1016
1030
1047
1067
1086
1103
1125
1144
1156
1167
1172
1172
1162
1144
1115
1080
1057
1045
1037
1025
1010
999
994
994
991
987
983
981
981
978
976
974
972
973
975
974
974
972
973
975
976
976
974
973
974
974
975
973
974
972
970
970
972
973
971
969
968
968
972
968
968
968
967
970
972
972
972
970
971
973
976
976
975
975
976
979
981
978
975
977
976
977
982
982
984
983
985
989
992
991
991
989
989
991
993
991
993
991
994
997
998
997
998
996
996
996
998
995
992
989
989
989
991
988
985
983
980
978
979
979
978
976
974
974
975
974
974
976
974
979
980
978
976
975
974
978
979
978
975
975
976
980
984
983
983
981
980
982
985
986
985
986
986
987
988
986
986
983
984
987
985
984
984
980
981
981
982
983
982
979
977
980
981
980
980
981
983
985
989
994
1001
1011
1028
1049
1067
1085
1110
1132
1149
1165
1174
1170
1150
1119
1079
1043
1017
1000
990
982
981
982
987
988
983
982
979
978
979
975
974
973
972
971
977
976
974
970
968
970
975
973
970
970
969
970
973
971
969
966
965
964
969
966
964
965
962
965
969
967
966
965
965
967
970
971
969
969
966
965
969
969
967
965
962
964
966
967
967
966
968
970
974
974
977
977
978
979
984
984
986
985
985
988
991
993
994
993
995
998
1002
1003
1001
1002
1000
1000
1003
1001
1001
1001
999
1001
1002
1001
997
996
993
994
997
993
992
989
988
987
989
989
986
985
983
983
985
986
983
980
979
981
982
980
978
976
976
978
979
978
976
975
975
979
981
981
980
979
979
980
982
983
979
978
980
985
986
984
984
983
982
983
985
983
986
983
985
988
994
999
1002
1006
1018
1036
1057
1072
1086
1099
1116
1138
1154
1163
1165
1164
1152
1130
1103
1065
1028
1002
991
985
983
977
974
971
972
972
972
967
963
960
959
958
958
957
953
952
951
954
954
953
953
951
952
955
958
958
959
957
959
964
965
966
964
963
962
965
966
964
964
963
961
962
965
965
965
963
965
967
968
965
965
963
967
970
973
972
973
970
968
969
970
970
969
967
968
971
971
970
972
970
969
973
973
972
973
971
972
974
975
974
973
973
974
975
980
978
979
975
977
979
981
979
977
973
971
971
972
971
972
971
972
973
975
973
972
972
973
975
977
975
977
972
973
974
975
973
973
971
971
973
976
973
973
974
974
976
979
974
976
974
978
981
987
989
995
1002
1012
1034
1057
1075
1093
1112
1131
1158
1180
1194
1200
1200
1185
1161
1130
1087
1041
1006
992
989
987
981
975
972
971
973
971
968
963
961
961
962
962
958
955
954
954
953
955
956
954
954
954
956
957
956
953
953
953
953
952
951
949
949
948
950
953
951
952
949
950
952
954
953
951
950
951
952
956
955
953
952
951
955
959
956
955
953
954
955
958
954
954
954
956
960
960
961
961
961
962
966
969
968
969
971
972
976
979
980
984
985
986
990
992
990
990
987
990
991
992
990
988
985
984
983
985
982
978
976
976
976
977
974
972
971
970
972
974
973
971
971
971
973
974
974
972
972
970
973
972
969
970
968
968
968
971
970
970
967
967
968
969
968
968
966
964
967
969
969
968
966
964
968
968
970
969
972
972
974
980
980
979
979
981
985
990
992
993
994
998
1008
1025
1038
1053
1067
1084
1106
1129
1149
1162
1173
1181
1177
1164
1136
1103
1068
1037
1014
1004
992
984
978
975
976
976
974
970
967
964
964
963
961
959
958
955
956
958
957
955
953
953
956
958
958
957
954
951
952
956
957
956
955
956
955
957
958
960
960
960
964
966
964
965
965
965
967
970
970
970
969
970
971
971
970
971
970
970
972
972
971
969
967
967
966
970
970
968
966
966
969
967
968
969
966
967
970
972
972
970
969
972
972
979
976
979
978
979
981
982
980
981
982
984
986
989
986
987
987
986
989
992
989
988
985
988
986
986
984
985
981
983
985
986
985
985
984
985
987
988
987
984
983
985
985
986
985
983
982
981
983
983
982
981
977
976
975
979
976
976
974
974
974
978
976
975
971
971
975
975
976
974
973
971
971
975
973
973
970
967
967
969
968
966
965
966
967
970
968
967
967
968
972
974
974
973
972
973
977
980
979
979
978
979
982
984
984
984
983
983
984
987
984
984
983
980
984
987
987
986
983
982
984
984
983
982
979
980
981
983
982
981
977
977
980
983
984
981
977
978
978
979
977
976
975
976
977
978
976
976
976
978
982
988
990
993
997
1007
1023
1041
1055
1070
1087
1111
1134
1153
1164
1174
1178
1176
1162
1143
1113
1077
1046
1026
1016
1010
1004
996
992
992
992
993
990
985
982
980
982
982
981
979
977
976
976
978
977
976
973
972
974
975
974
973
969
971
972
972
971
972
970
968
968
970
967
962
964
963
966
968
966
968
964
963
967
969
971
970
970
969
973
975
974
975
975
977
979
982
981
981
981
983
986
988
988
987
986
986
986
990
990
988
989
988
992
994
991
991
991
992
993
994
994
994
995
996
999
1001
998
999
997
1000
1002
1007
1008
1007
1008
1006
1010
1011
1010
1008
1005
1005
1008
1008
1006
1001
998
997
1001
1002
1001
997
995
992
992
994
994
993
990
990
991
993
993
991
992
990
994
996
995
993
994
994
995
996
995
996
993
994
996
999
1001
1005
1013
1026
1041
1055
1063
1071
1075
1080
1085
1088
1083
1075
1062
1055
1055
1056
1059
1058
1058
1063
1070
1075
1079
1077
1077
1077
1079
1082
1077
1069
1057
1045
1035
1031
1024
1018
1011
1007
998
994
988
982
974
969
969
970
967
963
960
958
958
959
955
954
954
955
956
957
958
956
953
951
954
955
953
952
951
952
954
957
955
955
954
955
955
958
956
955
953
953
955
956
954
953
953
953
955
960
962
964
963
966
972
979
978
980
982
985
988
994
994
994
995
995
998
1001
1002
1001
1002
1006
1008
1012
1012
1014
1014
1016
1019
1022
1023
1021
1021
1019
1022
1023
1020
1019
1014
1015
1015
1016
1011
1009
1005
1003
1002
1001
996
993
990
987
985
986
981
977
975
973
972
972
969
966
962
961
962
962
960
962
961
963
967
969
967
969
967
969
973
975
976
976
977
975
978
980
979
978
977
976
978
979
978
976
976
975
976
978
977
976
973
976
977
977
976
975
970
970
970
970
970
967
965
966
967
968
966
963
964
963
964
967
966
964
960
960
962
963
962
961
959
958
961
962
962
960
957
957
959
960
961
960
962
963
965
967
968
966
964
962
964
965
962
962
959
959
962
965
967
970
973
976
980
985
985
988
988
996
1001
1006
1015
1029
1049
1072
1096
1122
1148
1171
1188
1207
1220
1223
1210
1183
1143
1102
1057
1021
996
982
968
963
967
972
974
974
972
969
968
968
965
961
960
959
960
962
960
960
958
960
964
967
968
967
963
964
965
966
964
963
962
963
964
967
965
962
961
962
965
967
964
961
960
961
962
964
963
960
956
956
958
959
961
961
961
963
967
969
969
967
967
965
968
970
967
967
964
966
966
969
969
970
968
966
970
973
974
974
973
975
978
981
982
984
984
985
992
995
994
995
997
998
1003
1005
1008
1006
1003
1001
1001
1004
1003
1000
999
997
998
998
998
995
990
988
987
987
987
983
980
980
980
981
975
974
971
971
970
972
970
968
966
968
970
972
974
974
974
976
978
978
976
977
976
977
979
982
982
983
981
980
984
985
984
983
981
986
988
989
992
991
991
993
997
1004
1008
1015
1024
1044
1066
1083
1099
1117
1136
1156
1176
1185
1184
1170
1145
1115
1079
1041
1015
1000
991
985
978
976
974
972
966
962
961
962
959
959
956
956
958
960
955
954
955
956
960
962
963
961
962
963
964
967
967
968
967
970
974
973
972
973
972
973
977
978
977
974
973
973
973
975
974
971
969
970
968
968
968
966
966
964
963
965
964
963
960
962
962
965
964
963
963
964
965
967
968
969
968
969
973
977
979
981
981
980
982
984
986
983
983
981
984
987
984
983
982
983
985
990
993
993
989
990
993
994
993
992
988
987
988
990
988
986
982
982
984
982
982
979
976
975
975
975
972
971
969
968
968
968
969
969
966
967
968
970
968
967
966
965
967
971
972
970
970
971
972
974
975
974
974
974
975
976
975
970
972
972
973
974
972
973
974
974
977
980
979
979
979
980
981
982
982
978
976
972
975
973
973
971
970
968
969
969
967
964
962
964
963
964
963
964
962
962
962
962
961
960
959
959
963
963
964
963
963
964
965
968
970
971
971
973
975
977
977
978
979
985
990
994
997
1006
1022
1043
1062
1084
1107
1133
1153
1166
1179
1186
1175
1152
1116
1077
1042
1022
1010
1000
992
987
987
988
985
979
973
970
968
968
967
964
962
962
963
963
961
959
956
957
960
960
961
960
956
959
960
962
960
958
955
956
957
960
962
961
962
965
967
969
969
969
968
972
976
975
976
978
976
974
977
978
976
978
978
977
977
979
978
977
972
975
974
977
976
976
973
975
976
979
980
979
979
983
985
990
991
991
989
991
993
996
996
994
992
993
994
997
996
996
993
993
995
993
992
989
989
987
986
985
984
981
983
982
983
984
980
980
977
978
977
978
977
975
973
974
977
979
978
978
974
975
977
978
976
975
974
975
976
980
979
980
978
982
984
985
984
981
979
979
980
981
981
982
979
979
979
979
982
979
978
978
978
981
980
979
980
978
980
980
980
979
978
979
977
979
980
979
978
980
980
984
985
988
991
1004
1021
1037
1052
1067
1089
1111
1132
1148
1158
1158
1146
1122
1092
1057
1028
1005
994
987
985
983
985
983
982
976
976
974
975
973
971
974
976
976
975
976
974
974
975
976
977
976
971
974
975
979
978
976
974
974
973
976
974
971
969
970
971
972
972
970
968
967
968
969
969
964
961
963
963
965
965
967
964
966
968
970
970
970
970
970
972
974
974
973
970
972
971
975
974
973
972
973
973
975
978
975
975
975
978
979
982
983
982
984
986
989
989
986
985
985
984
985
984
979
977
976
974
974
973
972
970
969
969
968
967
965
965
966
965
967
966
965
964
964
965
967
968
968
967
968
970
971
971
970
967
967
968
971
970
970
968
969
970
973
973
973
970
970
971
970
970
970
969
971
975
976
974
973
970
969
970
972
970
970
967
967
967
968
968
966
963
964
965
968
970
969
971
976
983
993
1011
1032
1049
1068
1092
1122
1147
1165
1178
1178
1159
1128
1086
1043
1010
987
976
973
971
975
976
979
977
975
974
968
964
962
962
962
961
959
956
955
954
955
954
953
950
952
950
952
952
951
948
948
950
951
951
952
948
950
947
956
955
953
952
954
954
957
957
958
955
956
959
962
963
959
958
961
965
966
967
968
966
968
969
974
974
973
971
972
974
976
975
975
973
975
978
981
982
981
980
984
985
988
987
989
985
987
988
987
983
980
974
976
976
974
974
970
965
967
968
968
964
961
961
962
962
963
962
959
959
957
959
960
959
959
955
958
958
960
960
958
954
958
958
959
961
960
958
960
964
964
965
963
961
965
965
966
964
963
963
963
963
965
964
964
963
966
968
970
969
970
967
968
968
967
965
963
961
961
961
962
961
961
960
960
962
963
965
965
964
967
973
978
983
988
1001
1019
1041
1059
1076
1097
1120
1142
1160
1175
1181
1175
1150
1113
1072
1035
1000
978
962
954
954
958
961
965
961
959
959
958
957
955
952
951
950
951
950
953
952
954
955
959
959
959
956
957
957
957
956
955
954
955
957
960
959
957
956
958
958
959
961
960
958
958
960
962
960
960
960
959
962
964
963
962
960
961
964
963
965
963
963
963
964
967
968
969
966
967
971
972
972
970
968
970
971
971
972
972
973
975
976
979
981
979
977
979
980
981
980
981
977
976
976
975
974
970
969
969
970
971
971
969
969
971
971
970
969
967
965
966
966
967
967
966
967
965
966
968
969
968
965
965
967
970
969
968
966
967
966
967
968
967
967
971
972
972
971
969
968
970
971
970
969
968
967
970
970
972
970
968
966
967
968
967
969
967
966
965
966
966
964
962
960
962
961
963
962
962
959
962
963
965
965
965
965
965
967
968
967
967
966
963
966
968
966
967
964
965
969
967
970
966
967
968
969
973
975
978
979
982
987
996
1003
1019
1035
1053
1072
1095
1118
1136
1149
1162
1174
1179
1169
1144
1114
1076
1041
1019
1007
997
990
986
984
985
979
978
970
966
965
965
965
966
966
966
968
968
968
966
965
967
967
966
965
962
961
961
962
964
964
960
957
959
961
964
963
961
958
961
962
964
963
962
961
961
962
965
964
962
961
962
962
963
964
964
964
964
967
968
969
968
967
966
969
971
972
972
969
970
972
972
969
969
966
969
972
975
976
975
975
976
978
977
977
979
978
977
982
984
985
985
984
985
989
991
990
990
986
987
987
986
986
987
985
983
985
985
983
979
979
981
981
981
979
976
974
976
976
975
976
972
971
972
974
975
974
973
971
972
974
975
976
976
974
975
978
980
980
979
977
977
979
980
979
978
975
974
977
977
977
975
973
972
972
974
974
971
968
968
969
970
971
969
966
968
969
971
972
971
970
970
972
974
972
969
968
969
969
972
969
967
964
964
964
966
965
965
961
962
961
964
961
960
957
959
959
961
961
962
960
960
962
963
965
964
962
961
966
966
966
969
968
969
970
972
972
971
969
971
972
974
974
973
970
972
972
972
972
972
970
970
973
974
973
972
972
971
973
974
972
970
968
971
970
972
971
970
967
968
969
969
970
969
966
967
968
967
967
966
964
966
965
966
965
965
961
964
964
968
966
966
965
967
969
970
968
969
970
973
977
984
986
992
1001
1021
1042
1058
1077
1095
1114
1133
1149
1165
1172
1163
1135
1102
1063
1032
1007
995
986
982
984
985
987
984
980
978
975
975
974
971
967
966
970
968
967
964
962
964
965
965
963
962
960
960
963
964
964
962
958
961
964
964
963
962
960
962
963
964
965
963
962
961
963
967
966
963
963
966
968
972
972
970
969
971
972
974
974
975
974
976
977
978
979
979
979
981
982
982
983
980
978
979
980
982
983
983
981
981
982
983
985
986
983
984
985
989
992
990
988
992
991
993
993
991
990
988
989
988
986
987
985
984
986
987
987
985
981
982
981
981
982
977
974
975
976
975
975
972
971
972
973
977
977
976
977
979
980
982
984
982
981
981
982
982
979
979
976
977
978
979
979
977
977
977
976
977
977
977
975
977
976
977
979
977
975
977
976
980
977
975
974
978
979
980
982
983
986
990
998
1006
1019
1036
1049
1066
1083
1105
1128
1148
1161
1171
1176
1168
1145
1112
1074
1038
1012
995
984
977
970
975
979
982
981
976
973
972
971
971
970
969
966
966
966
968
965
964
964
965
963
962
963
962
959
960
961
962
960
960
959
958
958
961
963
960
960
960
961
964
964
963
962
963
964
964
965
964
962
963
966
970
969
969
966
967
970
972
973
972
971
974
977
977
979
982
982
984
987
987
987
986
985
988
989
992
989
991
991
990
993
993
991
990
989
991
992
992
989
987
984
983
983
982
980
977
974
972
972
971
970
968
964
966
966
966
964
963
960
961
963
962
962
958
958
957
961
962
962
961
958
960
961
963
965
965
965
966
970
973
972
972
