973
975
977
979
979
977
976
976
977
977
977
974
971
972
973
973
971
968
966
965
963
964
964
964
963
962
966
970
969
968
964
964
965
965
964
960
958
961
960
961
960
957
955
956
957
958
957
955
953
954
955
956
956
952
952
954
956
961
960
963
963
966
969
970
970
968
968
970
972
976
975
973
972
973
975
976
977
974
973
973
974
976
976
972
969
968
970
969
970
967
967
967
970
970
970
971
970
971
972
974
973
970
966
967
968
968
970
970
970
972
976
981
983
988
991
1012
1032
1053
1073
1092
1116
1144
1164
1182
1196
1198
1182
1156
1120
1080
1044
1022
1007
996
988
988
992
992
990
988
987
985
983
979
979
978
979
979
977
974
971
972
971
970
968
966
965
966
968
969
969
969
969
969
968
967
967
968
965
965
963
967
965
964
961
962
964
965
967
965
964
966
967
969
968
968
968
969
971
972
972
972
972
971
971
973
974
974
972
975
976
978
978
977
977
980
985
987
991
988
992
993
994
995
997
995
994
997
998
1002
1001
1001
1000
1001
1003
1002
1001
1001
998
997
998
998
995
991
987
988
991
991
988
988
986
987
986
988
985
983
981
982
983
985
984
982
978
980
981
983
982
979
978
980
980
980
979
979
976
976
978
979
978
976
973
976
978
979
978
976
974
975
978
975
976
975
973
974
978
980
979
979
980
984
989
990
987
986
984
985
985
986
985
984
983
985
986
986
986
985
983
983
984
986
984
981
983
982
985
987
985
982
980
979
981
982
982
980
977
978
978
979
976
974
971
974
974
975
974
971
972
972
975
976
975
972
971
973
974
975
973
973
971
973
974
978
976
975
973
973
973
971
971
970
971
977
983
988
988
988
988
992
994
994
994
993
990
992
994
993
994
989
989
991
995
997
1000
1002
1004
1010
1022
1042
1061
1077
1095
1123
1149
1167
1177
1186
1185
1176
1156
1128
1090
1050
1024
1010
1007
999
993
989
988
988
984
983
978
978
975
975
975
974
972
971
969
970
970
973
971
970
969
969
971
972
972
970
968
968
970
976
978
980
983
986
987
989
987
989
987
987
989
990
988
987
985
987
986
987
987
984
982
983
983
986
985
983
981
983
983
984
985
984
983
983
984
986
986
983
980
983
983
983
985
984
981
982
985
984
984
983
981
984
986
988
990
989
986
987
990
992
990
991
990
992
992
993
991
990
986
987
988
990
990
990
991
993
994
995
994
989
988
989
989
990
989
988
987
987
988
987
986
985
983
985
987
987
988
987
986
988
987
989
989
986
986
985
985
986
985
981
981
983
979
980
980
977
976
976
977
979
976
973
971
971
972
972
972
969
969
970
972
971
972
971
969
970
971
971
971
967
967
969
970
967
967
964
961
961
962
962
963
966
963
970
975
979
981
982
983
983
987
988
987
985
984
985
987
989
987
986
984
985
986
985
985
983
979
980
981
982
978
975
975
976
977
978
978
975
974
976
976
976
974
973
971
972
973
975
976
974
973
975
973
977
979
976
975
982
987
989
992
1000
1014
1038
1057
1076
1095
1119
1141
1158
1173
1181
1174
1155
1124
1088
1047
1017
996
984
980
981
985
989
992
988
985
981
981
979
979
976
975
973
972
973
971
969
967
968
969
969
967
965
962
963
966
965
967
967
965
967
968
967
965
964
964
965
965
965
966
964
964
964
965
967
967
968
967
968
972
976
975
975
974
977
980
978
978
978
977
976
979
982
982
981
982
986
990
993
994
994
993
995
996
1000
999
998
996
995
999
1000
996
995
993
994
993
993
993
988
983
984
985
985
983
977
974
975
975
974
974
973
970
971
971
972
971
973
973
974
975
976
976
975
972
971
974
976
975
974
971
973
972
973
971
970
969
972
975
979
980
981
979
983
986
992
998
1005
1014
1033
1054
1078
1097
1112
1130
1157
1181
1194
1202
1196
1177
1147
1109
1066
1023
996
989
989
986
982
977
977
974
973
971
971
968
965
962
962
964
963
962
959
956
957
956
956
953
952
950
952
955
955
954
952
953
955
957
957
956
954
955
957
960
962
961
963
966
967
971
971
971
968
971
970
973
974
972
974
972
975
977
977
977
976
977
979
982
981
982
981
981
982
982
985
985
985
982
986
986
988
987
987
987
990
990
990
989
988
985
985
983
983
979
976
975
971
971
971
968
965
963
965
964
966
963
960
957
958
957
959
958
957
957
961
965
969
972
972
969
973
973
973
974
975
972
970
972
974
974
972
971
973
972
974
971
970
966
967
968
971
969
967
965
966
969
970
971
968
968
969
970
971
972
970
967
969
970
969
966
963
964
965
967
966
967
964
961
962
962
965
965
963
963
967
968
971
973
974
975
979
981
981
980
979
979
979
978
978
977
978
977
978
981
982
982
981
984
990
994
999
1009
1026
1045
1071
1098
1126
1148
1166
1180
1195
1189
1164
1127
1084
1039
1011
994
985
980
981
981
986
983
980
976
973
973
973
972
973
973
972
970
971
971
972
972
971
969
969
971
974
974
972
971
972
972
974
974
977
973
974
975
974
972
971
969
971
971
970
969
967
966
967
968
969
968
968
967
971
974
977
976
974
973
976
976
977
978
978
979
981
981
983
984
983
983
986
990
990
992
992
991
995
998
1000
1000
999
999
1000
998
998
999
998
995
994
996
995
991
991
990
990
991
991
989
986
985
985
983
985
984
983
981
981
984
984
983
980
980
982
983
984
985
982
982
980
982
981
980
979
978
978
981
980
981
979
977
979
980
981
981
979
982
984
986
988
986
986
984
986
985
986
985
986
983
984
986
986
986
985
985
985
987
988
987
987
985
985
987
989
992
995
999
1006
1019
1035
1055
1072
1089
1112
1137
1155
1166
1171
1165
1154
1134
1104
1070
1042
1022
1015
1010
1003
996
992
991
991
989
986
983
978
974
974
975
976
975
973
970
972
976
977
979
978
977
978
978
978
977
975
972
973
976
975
974
974
972
972
973
974
973
971
970
971
973
975
971
969
969
972
973
972
972
971
972
973
975
976
975
970
970
975
975
977
975
973
971
974
974
976
974
974
976
977
979
981
982
981
983
985
989
991
991
992
993
996
999
999
998
996
994
996
996
995
991
988
986
986
987
989
986
985
985
986
987
989
987
985
985
984
985
986
984
984
983
986
986
985
984
983
981
982
982
982
979
978
975
976
976
974
973
972
968
970
969
969
969
966
965
966
964
962
963
958
955
957
959
956
955
953
950
950
951
952
956
958
961
963
965
966
967
968
965
967
968
970
970
970
970
971
973
973
972
973
969
970
972
973
975
975
972
972
973
973
973
969
969
971
969
971
971
968
968
967
967
968
966
964
961
963
966
966
966
963
961
961
963
965
965
962
961
961
964
963
963
960
956
960
960
963
962
959
958
957
961
963
960
963
967
975
981
984
984
984
986
988
994
997
1000
1002
1009
1024
1043
1062
1080
1100
1121
1141
1156
1169
1174
1174
1155
1129
1096
1060
1024
1003
992
987
984
985
984
985
984
982
981
979
977
974
972
971
974
974
971
967
966
965
967
967
965
963
964
964
964
965
964
963
963
966
970
971
972
970
968
969
969
971
968
969
970
973
975
979
978
978
977
977
980
979
978
979
978
979
979
980
979
975
975
976
979
980
978
977
976
974
978
976
975
974
972
974
976
979
977
975
976
977
979
981
980
979
980
983
985
989
989
989
987
988
991
991
992
991
990
991
991
992
991
990
987
987
986
984
982
981
978
979
978
979
981
982
984
987
987
987
988
987
983
985
986
989
988
987
985
986
986
986
984
982
981
981
984
982
982
979
976
978
975
977
976
973
973
972
973
974
972
971
972
971
969
971
968
968
966
968
970
970
968
967
966
968
970
972
969
970
969
969
966
965
964
965
963
965
965
968
968
969
970
974
976
976
975
974
973
973
975
975
976
972
972
974
976
973
974
973
972
972
973
973
971
971
969
969
971
972
971
970
968
969
970
969
968
965
963
965
965
967
966
964
964
967
966
967
966
965
966
966
967
966
965
964
962
963
965
967
967
966
964
966
969
973
975
976
976
980
982
985
984
986
986
994
1002
1007
1014
1030
1050
1073
1097
1121
1147
1169
1185
1199
1208
1199
1175
1140
1101
1056
1021
995
980
967
963
966
972
978
977
974
969
969
969
969
968
967
966
967
968
966
967
965
964
965
965
964
964
962
962
964
966
967
966
965
965
966
968
969
971
971
970
971
975
974
974
974
975
977
979
980
981
979
978
980
981
979
979
978
979
979
979
979
979
976
976
977
978
977
977
979
977
979
983
982
981
982
982
986
989
989
990
989
988
992
995
996
997
996
997
999
1000
1000
1000
998
997
1001
1001
1000
999
996
993
993
994
991
989
990
985
986
986
985
984
982
981
982
983
982
982
978
978
978
980
982
981
979
979
981
983
982
981
980
977
979
979
980
980
978
980
982
983
989
992
995
998
1008
1020
1034
1055
1074
1096
1118
1139
1159
1181
1200
1212
1215
1214
1201
1176
1146
1112
1073
1041
1024
1020
1014
1005
999
996
993
990
989
985
985
984
983
980
978
976
978
976
976
974
973
970
972
975
975
974
973
973
973
976
974
974
971
970
967
971
973
972
970
968
970
972
974
973
971
973
974
979
981
982
980
979
982
986
988
988
987
986
988
989
990
991
989
988
991
993
993
994
993
993
995
996
997
996
994
996
998
999
999
1001
1001
1002
1003
1005
1006
1006
1006
1005
1006
1007
1007
1006
1002
1001
999
999
999
997
994
991
991
992
989
989
986
983
984
986
985
986
984
983
986
988
987
987
988
986
987
988
989
987
986
985
987
987
988
988
987
986
987
989
988
987
986
986
986
987
985
985
985
984
986
987
985
984
983
979
979
979
978
977
977
976
976
977
975
974
974
970
973
973
973
971
969
969
974
978
978
979
980
980
981
986
987
991
992
991
999
1003
1007
1013
1023
1039
1057
1074
1090
1114
1137
1157
1173
1188
1197
1193
1179
1155
1130
1098
1064
1038
1022
1013
1008
1003
1002
1003
1002
1000
999
996
994
991
988
986
985
986
985
982
982
981
980
981
981
978
974
972
974
975
974
972
970
969
970
973
971
971
971
968
970
970
971
971
969
969
973
976
974
973
975
976
979
979
981
981
980
981
983
985
984
984
986
984
985
988
989
988
987
989
990
992
993
993
991
992
994
994
995
993
990
989
990
992
991
991
989
989
994
996
997
996
995
994
996
997
997
997
995
994
993
995
993
991
988
985
986
986
986
984
981
979
979
979
979
981
978
978
978
979
979
980
979
977
978
980
982
981
980
979
981
983
984
986
987
990
993
996
994
994
992
994
994
995
995
992
992
991
991
991
992
991
989
988
988
989
988
989
987
985
986
988
985
985
982
981
981
983
981
977
975
974
975
975
977
975
973
971
976
976
975
973
972
970
972
973
974
974
974
974
975
977
978
980
977
976
977
978
980
978
975
974
976
976
976
975
971
971
977
981
983
984
982
983
983
982
983
984
982
982
983
986
982
983
984
981
982
983
984
979
978
977
978
977
978
976
975
973
974
974
973
973
970
969
972
973
973
971
971
970
971
971
973
970
971
970
971
971
973
972
970
972
973
978
978
979
979
977
980
983
985
981
980
980
984
987
988
991
992
994
1000
1004
1005
1010
1014
1028
1050
1070
1090
1109
1132
1152
1171
1184
1193
1190
1170
1140
1105
1067
1032
1010
997
994
992
993
995
996
994
990
987
988
984
982
981
976
980
981
979
976
975
973
973
974
974
972
972
972
974
973
975
976
976
976
979
981
982
981
981
981
983
984
985
984
984
984
986
986
985
983
985
982
985
986
985
986
985
985
985
986
987
987
985
985
986
986
988
988
986
987
989
992
990
991
991
993
995
998
998
999
999
998
998
1002
1002
1004
1001
1002
1004
1004
1003
1002
1000
998
1000
1001
998
995
993
991
990
991
990
991
990
994
997
998
998
995
994
991
991
991
991
989
986
985
986
987
986
985
985
985
987
988
988
987
986
984
987
988
987
986
984
985
983
986
985
984
981
983
984
985
984
984
980
981
982
982
980
981
979
978
979
979
978
978
978
977
978
979
978
977
976
975
974
974
974
977
976
974
975
976
976
974
974
974
975
977
978
980
977
979
981
985
984
983
981
983
983
987
986
984
983
982
984
986
987
987
988
993
996
1004
1007
1022
1038
1063
1086
1111
1136
1161
1181
1197
1210
1213
1200
1172
1134
1094
1048
1016
994
981
972
973
980
988
989
986
983
978
976
975
972
969
968
966
966
966
967
967
965
964
966
967
969
971
968
970
972
972
974
972
972
970
971
971
971
972
968
967
969
971
971
972
973
974
977
979
979
977
978
976
977
981
984
983
984
984
985
987
988
987
986
988
990
990
991
991
989
989
989
993
991
991
989
989
991
993
992
992
991
991
994
994
994
991
989
985
988
988
987
982
980
979
980
984
983
982
980
980
984
983
981
981
981
982
984
984
984
984
984
983
987
989
988
987
989
988
990
992
991
991
990
990
991
991
992
992
991
992
994
1001
1007
1014
1028
1048
1074
1095
1118
1137
1159
1179
1200
1211
1211
1197
1171
1135
1094
1053
1017
1000
998
996
990
984
981
981
977
974
974
973
971
968
964
963
964
967
967
967
966
966
969
970
974
973
971
971
976
979
976
974
974
972
973
974
974
971
966
968
970
973
972
971
970
969
970
971
972
971
969
968
970
973
974
975
974
976
977
979
981
980
980
979
982
983
984
985
985
986
987
991
992
993
996
998
998
999
999
1000
999
999
1002
1002
1002
1001
999
996
997
997
995
993
989
986
988
990
988
987
984
980
981
983
982
980
979
979
980
979
980
976
974
976
977
980
980
980
977
979
978
979
978
977
973
972
974
975
974
972
968
968
970
972
973
974
974
973
978
978
979
976
977
978
980
981
979
978
979
978
980
981
982
979
977
974
976
974
976
974
974
971
975
976
975
975
971
972
972
974
973
974
971
971
973
974
976
973
972
973
973
974
975
974
971
970
972
972
971
971
971
968
972
972
973
972
972
971
972
977
979
978
978
979
982
983
983
981
980
980
983
985
987
988
986
987
990
990
989
987
986
985
987
988
988
986
987
987
988
988
988
986
985
984
987
990
989
988
986
986
988
990
992
995
996
999
1003
1008
1024
1041
1060
1080
1105
1133
1150
1163
1174
1175
1166
1145
1115
1079
1044
1024
1015
1010
1005
1000
1000
1002
999
999
994
990
987
985
985
987
987
985
983
980
984
985
983
983
982
979
982
983
982
984
981
979
982
983
982
980
978
979
979
981
982
980
978
978
979
980
979
976
977
977
980
981
984
985
984
984
987
988
989
989
988
987
990
992
992
993
991
991
993
997
995
996
994
992
995
999
1000
1001
1000
1001
1004
1007
1006
1008
1007
1007
1013
1014
1013
1014
1015
1014
1015
1015
1015
1013
1012
1012
1014
1015
1013
1010
1007
1005
1006
1006
1005
1003
1001
1002
1003
1003
1002
1000
998
997
998
999
999
998
995
993
994
994
995
993
992
991
991
993
990
990
988
989
992
995
997
996
995
994
997
996
997
994
994
992
995
997
996
995
992
990
992
996
994
993
991
990
991
994
996
997
1000
1005
1013
1026
1041
1060
1074
1086
1105
1122
1140
1154
1161
1165
1164
1152
1130
1097
1056
1025
1011
1010
1009
1002
995
991
994
994
990
987
985
982
984
984
983
980
978
980
981
983
982
980
977
976
978
979
979
978
977
980
981
986
986
984
983
980
983
983
984
983
982
981
983
984
983
980
981
980
983
984
984
984
984
985
986
990
990
991
988
988
990
993
991
988
987
988
990
993
993
992
989
988
991
992
992
991
992
991
992
997
997
997
996
994
996
997
996
995
995
992
992
992
992
990
988
986
987
985
984
982
982
981
981
983
984
983
980
980
980
980
979
977
977
977
979
978
977
977
976
974
975
976
977
977
976
975
976
977
977
977
976
975
975
976
979
979
978
975
979
979
980
980
978
977
978
981
981
978
977
974
976
977
977
975
976
974
976
977
977
977
978
977
976
979
979
980
978
975
977
978
976
975
973
974
973
977
975
973
972
971
973
976
976
975
974
974
974
974
975
971
967
965
967
969
967
967
965
967
973
976
976
977
978
976
980
983
980
977
975
973
976
977
976
978
976
976
976
979
979
977
978
977
979
982
982
981
979
979
981
985
984
984
983
987
995
1002
1004
1011
1022
1044
1070
1094
1119
1143
1162
1181
1203
1216
1208
1181
1138
1089
1040
1009
986
971
962
964
975
987
984
980
977
974
973
975
973
970
967
967
973
977
978
980
981
981
984
985
986
981
979
981
984
985
986
981
979
979
979
981
982
977
978
977
977
980
979
980
978
977
979
981
979
981
979
977
978
979
979
977
977
976
979
981
978
978
975
976
977
978
978
979
979
981
983
983
984
983
984
983
988
992
989
992
994
994
998
1000
1003
1003
1002
1003
1006
1006
1004
1005
1003
1002
1003
1004
1005
1005
1001
1000
1002
1003
1003
1001
998
997
1000
1002
1000
1000
995
995
997
998
996
995
992
990
992
995
994
993
991
