972
971
972
973
973
974
971
969
970
971
972
972
972
968
971
969
970
971
971
970
971
970
973
972
970
970
969
969
971
972
969
967
969
970
972
970
969
967
970
970
972
970
969
966
968
969
971
969
968
968
967
970
971
970
969
967
969
969
972
971
967
967
968
970
975
972
970
967
970
971
972
970
970
968
970
972
972
971
970
967
969
968
970
970
972
969
971
972
972
971
969
967
968
971
971
969
969
968
969
970
971
972
970
970
970
969
972
972
970
971
971
975
973
972
971
970
972
972
974
973
972
972
971
970
973
972
972
971
971
971
973
974
971
972
972
972
973
972
973
970
972
973
974
975
974
974
975
976
980
980
981
983
985
985
986
987
989
988
989
993
992
993
994
993
996
999
995
994
991
988
991
989
990
987
987
983
983
983
983
981
979
977
975
972
976
974
973
968
969
971
971
973
970
970
970
970
971
971
970
969
971
973
971
972
971
970
972
972
973
972
971
970
970
975
976
977
979
981
985
988
993
1005
1021
1041
1066
1089
1113
1131
1148
1167
1191
1205
1201
1178
1142
1099
1059
1027
1003
977
958
949
956
967
972
974
974
968
968
970
970
967
965
966
964
967
968
966
966
964
966
968
968
967
965
963
965
966
968
969
966
966
967
970
971
969
968
967
969
971
971
972
970
970
971
973
973
973
972
972
977
981
988
990
987
987
988
991
993
994
996
998
1001
1005
1005
1003
998
996
994
996
995
993
991
989
990
993
997
998
999
1001
1003
1005
1006
1007
1004
1001
1005
1009
1010
1009
1008
1007
1008
1010
1009
1009
1005
1001
1002
1005
1004
1001
1000
996
998
996
998
995
991
988
988
988
988
986
982
980
980
981
980
977
976
973
975
977
975
975
974
971
974
975
975
975
974
973
974
975
976
975
974
972
974
977
977
977
976
975
975
978
979
976
976
974
978
978
980
978
977
975
977
977
978
979
976
973
975
980
978
979
977
978
977
979
980
980
978
977
977
978
981
979
978
976
978
977
980
978
975
974
975
978
979
978
976
973
974
974
978
977
974
974
975
973
976
974
975
972
974
976
976
975
973
970
971
972
973
973
971
970
972
972
975
975
971
971
972
973
974
974
973
972
971
973
975
974
972
971
974
974
976
973
971
972
973
974
972
972
972
971
973
974
975
972
972
971
972
974
975
976
973
972
974
974
975
973
973
972
974
975
975
975
973
974
975
976
978
977
975
975
975
977
978
976
975
975
975
976
979
975
973
973
974
975
977
977
974
974
975
978
979
976
975
974
977
978
978
978
976
975
976
978
980
979
977
977
978
979
981
979
978
975
977
979
980
979
979
977
979
982
979
982
980
978
980
979
980
981
981
980
983
982
988
988
990
994
999
1009
1013
1022
1027
1031
1039
1047
1049
1042
1030
1012
998
975
946
913
881
859
857
868
881
887
891
892
894
895
895
896
899
897
899
903
905
904
900
894
891
889
891
893
900
907
920
938
953
966
974
980
984
987
990
991
993
993
995
999
1000
1000
999
1000
1002
1003
1006
1008
1007
1007
1008
1011
1013
1015
1014
1016
1017
1019
1022
1022
1021
1024
1028
1028
1030
1032
1032
1033
1035
1037
1041
1042
1044
1045
1051
1053
1056
1060
1062
1064
1069
1074
1078
1082
1084
1088
1093
1094
1099
1103
1105
1106
1111
1116
1121
1123
1125
1125
1127
1130
1131
1131
1127
1125
1124
1123
1120
1116
1111
1102
1098
1093
1090
1084
1076
1068
1063
1056
1051
1045
1037
1031
1026
1024
1020
1015
1008
1004
1003
1003
1000
998
994
991
991
992
992
990
987
986
986
984
984
985
983
984
981
982
985
984
983
982
982
985
984
983
982
981
982
981
981
981
979
979
980
979
980
981
980
980
979
979
980
980
978
977
977
978
978
978
976
976
975
978
976
976
976
974
975
973
975
974
973
972
974
972
973
975
972
971
971
972
973
971
970
968
970
971
970
968
969
967
969
970
969
970
969
966
968
970
971
969
969
968
967
970
971
970
969
966
969
969
970
969
967
966
967
969
968
970
969
969
969
970
971
971
970
969
972
973
971
974
974
972
976
980
980
980
979
980
983
987
989
989
988
984
984
987
988
990
988
987
988
987
985
985
983
980
980
982
982
982
978
976
975
975
974
971
966
965
966
967
969
967
965
963
964
962
963
963
963
962
964
967
965
964
963
962
962
964
963
964
962
960
960
964
964
962
960
959
960
962
963
961
960
961
961
964
967
967
969
973
977
978
982
984
992
1005
1031
1054
1082
1107
1126
1146
1174
1199
1210
1204
1178
1138
1093
1053
1021
991
967
948
945
948
959
962
964
963
963
963
963
960
956
953
955
957
959
956
956
955
956
958
959
957
955
956
958
959
958
956
957
957
959
960
960
962
960
959
960
963
963
963
963
960
963
965
965
966
965
964
967
970
973
970
971
969
971
972
975
974
974
973
975
976
978
979
978
976
979
984
986
986
986
987
990
992
994
995
993
993
996
998
999
999
997
998
1001
1002
1004
1006
1002
1001
1006
1005
1006
1006
1004
1002
1002
1000
1001
998
997
993
992
992
992
991
987
982
981
982
983
981
978
978
976
977
976
976
975
974
975
976
977
976
972
971
972
974
974
973
974
972
972
975
974
975
973
970
970
974
974
974
973
973
972
975
975
976
973
971
972
976
975
975
973
971
971
974
973
973
971
971
971
972
974
974
973
972
972
974
975
974
973
970
971
975
975
976
974
970
970
973
974
973
973
969
971
970
971
972
971
968
969
972
972
971
971
967
969
970
970
971
969
968
969
970
972
971
969
968
969
970
970
971
969
965
967
968
967
967
967
965
965
967
969
967
965
965
968
968
968
967
968
967
968
969
970
970
968
968
967
968
971
971
970
968
968
970
970
969
968
967
967
970
970
969
968
968
969
968
970
970
970
968
972
970
969
969
967
967
968
973
972
971
969
971
969
972
972
971
972
970
972
973
974
973
973
972
970
973
973
972
970
971
973
974
974
974
973
971
973
975
972
973
974
971
974
976
976
975
974
974
975
976
975
973
973
971
973
972
974
975
976
975
976
977
979
978
978
974
975
975
978
977
976
976
977
978
977
978
976
974
978
981
981
982
980
980
984
989
991
989
990
990
993
996
999
998
994
993
994
997
1000
1000
998
992
992
994
992
990
990
988
989
989
988
985
981
979
977
978
979
977
976
973
974
973
973
973
973
970
970
974
974
973
973
971
972
974
974
975
973
971
972
972
973
973
973
971
976
979
985
988
989
989
997
1011
1031
1051
1072
1095
1118
1137
1155
1175
1186
1190
1173
1146
1110
1066
1029
1001
981
970
969
978
983
981
980
978
974
972
970
969
969
970
970
969
968
965
967
968
968
969
969
968
969
972
972
972
969
970
971
973
974
973
973
972
972
973
974
974
973
973
975
975
978
977
975
975
978
978
980
978
979
977
981
982
984
984
985
984
986
988
990
990
992
990
992
994
998
998
997
1000
1001
1004
1006
1007
1007
1007
1009
1012
1014
1015
1014
1014
1018
1018
1018
1018
1017
1017
1017
1016
1016
1012
1011
1009
1008
1006
1007
1002
1001
998
997
997
996
993
991
988
987
986
987
986
984
981
981
984
983
982
980
979
979
981
982
981
981
979
979
981
980
981
980
978
980
981
980
981
979
979
979
980
981
980
980
977
978
981
981
980
977
977
979
981
980
980
978
978
979
980
980
980
979
977
979
979
980
980
978
977
978
980
979
980
978
976
979
980
981
980
979
974
976
979
979
978
977
977
977
979
977
977
975
974
975
976
977
978
975
974
976
977
978
977
977
974
976
976
976
977
977
976
977
977
979
977
975
973
973
975
977
976
975
973
975
977
978
975
976
974
975
976
976
976
976
973
977
977
977
978
975
975
976
977
980
979
974
975
976
977
980
979
978
976
977
978
978
977
977
975
976
978
978
980
979
977
977
979
980
978
978
977
977
978
981
980
978
977
979
979
981
979
978
976
979
983
980
979
978
976
979
979
978
979
976
977
978
980
981
980
980
977
980
981
981
980
979
978
980
981
982
981
981
980
981
982
984
981
980
978
981
983
982
981
980
977
979
980
981
982
981
981
979
981
982
981
981
979
979
980
982
981
981
979
980
983
984
983
981
978
979
981
983
983
979
978
979
983
982
982
981
979
979
983
982
980
980
979
981
984
983
985
986
985
986
988
987
987
987
986
991
992
994
993
992
990
992
993
994
992
993
995
996
997
995
992
989
988
990
993
992
991
988
984
983
987
985
985
983
981
981
979
980
978
977
977
978
977
979
978
976
976
977
977
978
980
978
976
977
979
981
980
978
977
980
981
982
987
990
992
997
1001
1007
1021
1039
1061
1088
1114
1138
1155
1177
1196
1213
1210
1184
1141
1096
1054
1023
1000
980
969
967
975
985
988
987
984
979
977
978
977
978
976
972
972
976
973
973
973
973
972
973
974
974
975
974
974
975
976
977
977
976
973
977
978
978
978
979
977
979
980
980
981
981
981
981
983
984
984
983
984
987
988
989
988
987
988
990
992
995
995
994
995
995
998
1004
1002
1003
1003
1006
1009
1010
1011
1012
1012
1014
1017
1018
1019
1018
1019
1022
1024
1024
1023
1027
1026
1027
1028
1031
1030
1028
1026
1027
1026
1026
1025
1023
1019
1020
1019
1017
1015
1011
1008
1007
1006
1006
1004
999
997
997
998
998
995
994
992
993
994
994
993
991
989
990
992
990
991
990
986
988
989
991
990
988
986
988
989
991
991
989
989
989
991
990
989
988
989
990
992
992
992
991
988
989
991
993
992
991
989
990
991
991
991
988
988
988
992
992
993
990
989
990
991
991
991
990
988
990
992
991
990
989
985
987
989
989
987
987
986
987
987
990
987
986
982
983
986
987
986
986
983
983
985
988
986
985
983
984
985
986
985
984
984
983
983
985
985
984
983
984
984
984
985
984
980
980
984
985
987
982
981
982
985
986
985
982
980
983
985
985
984
985
982
984
985
987
985
984
983
984
985
986
986
986
984
985
985
986
988
987
985
986
988
988
988
986
986
985
987
987
986
987
986
986
988
988
986
985
984
988
988
989
989
986
985
988
988
987
989
987
987
986
987
988
988
988
987
988
989
988
988
989
989
987
989
990
990
987
987
989
990
990
989
989
987
990
989
989
990
989
988
989
990
992
991
986
988
989
992
991
990
990
989
991
992
993
993
992
992
993
992
992
992
991
990
992
992
992
991
992
991
990
991
991
992
992
990
994
995
994
993
993
992
995
996
998
996
998
1001
1002
1004
1005
1007
1005
1007
1010
1011
1015
1012
1012
1010
1011
1014
1015
1015
1011
1008
1008
1010
1009
1006
1003
1004
1004
1007
1005
1002
998
996
995
993
994
991
991
988
988
990
988
986
986
986
987
986
989
988
987
985
987
988
987
987
985
985
986
987
987
988
986
985
987
989
988
988
988
987
989
994
998
1000
1000
1002
1008
1016
1030
1045
1061
1079
1102
1126
1142
1161
1178
1194
1208
1210
1194
1167
1135
1101
1069
1044
1024
1003
988
980
983
990
995
996
993
989
988
988
988
987
982
979
981
982
983
982
980
977
978
979
979
980
978
977
978
980
983
981
980
979
981
981
983
982
981
982
985
984
985
985
984
986
988
988
991
990
991
990
994
996
999
999
999
999
1004
1008
1010
1011
1011
1011
1013
1016
1014
1017
1017
1018
1018
1018
1013
1010
1008
1006
1008
1012
1012
1014
1013
1013
1021
1024
1020
1023
1021
1022
1024
1026
1028
1027
1026
1024
1026
1026
1025
1026
1024
1024
1024
1026
1024
1021
1019
1017
1018
1021
1021
1016
1011
1009
1009
1008
1005
1002
1000
996
995
995
994
992
991
990
989
992
991
991
988
987
990
991
991
990
988
988
989
990
991
989
987
989
992
992
993
993
993
991
991
996
995
997
995
992
988
989
987
984
984
983
983
982
986
989
988
988
992
994
994
995
991
992
991
993
990
993
989
987
990
990
990
987
987
986
985
988
987
987
985
986
988
989
988
989
988
987
988
989
991
989
987
984
986
985
984
985
984
983
983
984
986
983
981
981
982
980
982
980
979
977
978
978
979
979
975
975
976
978
978
976
971
969
971
979
981
984
985
983
985
986
984
987
983
984
984
985
987
986
986
985
985
983
985
983
981
979
981
982
982
980
979
978
978
978
980
978
976
975
977
979
977
979
978
975
977
977
976
975
973
971
973
975
975
974
972
971
972
973
974
973
973
972
975
977
976
971
970
970
973
974
972
972
970
969
971
973
975
981
981
982
987
991
991
989
986
987
988
988
989
987
986
985
986
986
986
983
979
978
980
980
981
980
977
976
977
979
979
975
974
973
974
975
978
975
976
973
973
976
976
974
972
973
975
978
977
976
975
975
976
979
979
979
980
977
981
987
990
994
999
1008
1016
1024
1030
1038
1042
1041
1036
1029
1019
1007
990
969
946
920
905
903
909
919
923
923
917
907
898
894
898
904
907
908
915
924
936
951
958
964
965
966
970
972
973
972
971
970
973
976
976
976
975
977
978
984
985
985
983
985
986
988
989
988
989
987
989
993
992
992
991
991
994
996
996
996
993
995
998
1002
1002
1003
1004
1007
1015
1020
1024
1024
1023
1022
1026
1031
1036
1037
1038
1039
1043
1046
1048
1050
1050
1050
1056
1062
1066
1066
1069
1070
1076
1081
1083
1086
1087
1090
1095
1098
1099
1101
1101
1102
1102
1102
1100
1098
1093
1086
1083
1082
1075
1064
1055
1049
1046
1042
1036
1030
1023
1017
1012
1007
1005
998
991
986
985
986
984
984
981
981
983
986
985
981
977
977
979
980
981
979
976
976
977
978
975
975
974
973
975
975
975
975
974
974
977
978
980
981
984
986
990
994
999
1007
1023
1038
1052
1061
1070
1078
1089
1099
1108
1109
1100
1092
1083
1077
1074
1072
1071
1074
1073
1077
1077
1077
1075
1075
1074
1073
1071
1065
1054
1042
1028
1019
1010
1006
998
990
985
979
976
971
962
956
951
952
952
953
951
951
949
945
946
948
947
947
946
947
950
950
950
946
946
944
947
946
947
946
946
945
949
950
951
950
948
946
949
948
949
945
946
945
947
949
945
945
942
942
943
943
943
943
942
941
944
943
943
943
944
943
943
946
950
950
948
949
952
956
956
956
955
957
959
964
967
970
972
975
980
985
988
988
991
995
999
1000
1000
1001
1004
1003
1006
1009
1011
1009
1009
1007
1008
1008
1006
1004
1002
999
998
996
994
991
988
985
983
982
980
978
975
974
978
988
1000
1011
1019
1028
1038
1045
1053
1054
1050
1042
1037
1034
1032
1032
1035
1038
1042
1051
1053
1058
1059
1060
1061
1062
1062
1062
1061
1058
1054
1047
1038
1027
1017
1010
1003
1000
998
994
990
981
973
969
963
960
955
954
953
949
946
944
941
939
937
939
933
931
929
927
929
930
930
928
927
926
929
929
931
931
930
928
933
933
935
937
936
936
939
941
942
944
943
948
948
952
951
953
951
953
956
954
956
955
954
956
958
959
959
960
960
959
962
966
967
969
969
969
971
973
976
974
974
976
980
983
983
985
985
983
984
987
988
987
985
986
987
988
988
987
985
982
983
983
982
981
976
979
978
981
981
979
977
975
976
976
975
973
973
973
973
975
973
972
970
969
969
970
967
969
966
967
968
968
969
965
963
964
964
965
964
961
963
961
962
964
963
963
959
959
960
961
961
959
957
956
957
957
959
957
956
957
958
961
963
963
964
965
967
969
968
970
968
967
968
970
967
966
964
964
963
965
966
964
962
959
963
963
962
960
958
958
959
960
959
958
957
956
959
959
960
960
958
957
958
959
962
961
960
960
965
970
975
976
978
988
1005
1025
1042
1062
1082
1106
1130
1149
1164
1181
1188
1183
1163
1139
1106
1067
1036
1015
1003
995
987
985
981
980
981
980
975
970
967
966
964
967
966
963
960
958
962
962
963
963
960
958
961
961
960
959
956
954
955
958
959
956
957
955
955
958
957
955
955
953
954
957
956
957
956
957
960
962
961
958
958
961
962
966
966
968
966
966
967
972
970
972
972
969
970
973
975
974
972
970
972
974
973
974
974
974
975
978
977
977
977
977
980
982
984
984
982
983
987
989
990
988
987
988
987
989
987
986
983
985
988
990
990
989
986
985
986
987
988
985
983
982
985
987
986
986
984
983
981
986
987
986
984
982
984
986
985
984
982
981
983
985
984
983
985
989
997
1011
1023
1031
1040
1048
1057
1065
1066
1061
1051
1041
1037
1040
1044
1045
1048
1055
1063
1066
1066
1066
1068
1067
1068
1062
1054
1044
1031
1023
1019
1015
1011
1004
996
991
986
983
978
975
970
967
966
965
962
960
957
957
954
956
954
952
949
948
950
950
949
945
943
942
947
947
946
945
944
943
943
948
948
948
949
950
951
952
951
951
951
950
953
957
956
957
957
957
961
963
965
966
964
964
969
972
973
974
978
980
985
991
992
994
995
997
1001
1006
1008
1008
1008
1009
1012
1014
1015
1014
1012
1011
1012
1013
1010
1009
1006
1003
1005
1003
1003
1000
998
995
994
996
995
994
991
990
994
1004
1015
1024
1030
1039
1049
1061
1068
1072
1073
1068
1062
1055
1050
1052
1050
1052
1058
1062
1069
1071
1071
1072
1075
1079
1079
1076
1072
1066
1057
1049
1037
1030
1023
1017
1011
1006
997
988
975
966
962
960
959
954
950
946
944
943
943
939
936
934
936
938
937
937
