1003
1002
1002
1001
1002
1007
1006
1006
1004
1004
1005
1009
1006
1003
1003
1001
1001
1002
1000
1000
999
997
999
1000
997
992
990
986
988
989
991
991
991
992
995
999
999
999
997
994
994
999
997
997
994
991
994
996
997
996
993
993
995
996
996
997
995
995
997
1001
1002
998
996
995
996
997
997
995
994
992
994
995
996
994
992
988
990
990
988
987
984
983
981
982
982
980
978
975
978
979
979
975
976
973
972
974
973
972
970
975
979
984
988
992
992
992
994
997
997
996
993
994
992
995
997
994
996
995
997
999
998
996
995
993
993
996
993
993
994
989
990
991
990
987
983
983
984
986
986
985
981
981
985
986
987
987
990
990
994
999
1011
1026
1042
1061
1084
1107
1133
1152
1168
1183
1196
1195
1183
1158
1122
1085
1050
1029
1018
1011
1006
1002
1004
1007
1007
1002
998
995
996
996
994
992
988
986
988
988
985
983
980
979
979
978
978
973
974
973
974
975
974
974
971
970
972
973
971
969
969
970
972
974
976
974
972
973
976
981
981
981
981
984
989
993
998
1000
997
999
1002
1005
1007
1004
1005
1003
1002
1005
1008
1007
1008
1007
1008
1011
1012
1010
1008
1009
1011
1012
1013
1010
1009
1007
1010
1011
1008
1007
1000
1001
998
1000
1000
999
996
995
993
995
995
993
990
988
988
987
989
989
989
985
987
989
988
986
988
985
986
986
989
992
991
993
996
997
997
997
994
993
993
991
991
990
988
989
991
994
994
993
991
992
991
991
989
987
986
985
988
988
985
985
984
984
986
988
988
986
985
982
986
986
985
987
984
983
983
982
981
979
979
977
980
981
980
976
975
973
975
975
974
974
975
976
978
981
982
982
981
982
985
987
988
987
987
987
989
989
990
988
986
987
989
992
990
988
986
986
988
989
988
984
983
981
985
987
986
985
984
984
988
989
988
987
984
983
985
990
989
988
986
985
986
988
990
987
986
985
987
987
986
985
984
983
982
983
985
989
992
999
1005
1012
1019
1030
1047
1067
1088
1107
1132
1153
1168
1183
1197
1203
1188
1156
1120
1081
1046
1018
999
988
980
978
982
987
990
992
987
983
983
982
981
980
976
976
974
976
976
977
975
976
977
974
974
974
971
970
972
974
975
973
971
969
971
975
975
973
973
972
975
975
977
977
977
979
983
987
989
990
994
993
993
994
995
993
992
992
993
996
996
995
993
994
996
1000
1001
1000
999
998
1000
1004
1002
1006
1004
1003
1007
1010
1009
1009
1008
1008
1011
1011
1010
1008
1003
1000
999
1000
999
996
995
992
991
991
991
988
986
985
987
990
992
990
990
988
989
995
995
991
990
988
990
992
989
985
984
984
985
985
985
982
980
981
983
985
982
980
979
977
979
980
980
977
975
974
978
977
978
975
974
973
976
978
979
983
980
982
982
986
987
988
986
985
987
992
992
994
993
993
994
996
994
991
993
990
990
990
991
988
984
984
984
985
986
983
981
981
980
980
981
979
978
976
978
981
981
978
978
977
980
981
983
982
981
980
983
985
987
986
984
984
985
988
986
982
979
977
980
980
982
984
986
992
1002
1008
1017
1034
1052
1074
1099
1123
1150
1169
1185
1200
1213
1216
1197
1163
1121
1076
1031
1003
988
977
972
979
989
993
992
986
984
980
980
978
977
976
974
974
976
977
979
978
977
976
978
982
979
976
975
976
978
979
975
974
968
968
971
969
969
970
967
969
971
973
975
976
978
981
985
987
987
987
989
989
990
991
993
994
993
996
1000
1001
1002
1002
1002
1002
1003
1004
1005
1003
1004
1005
1009
1010
1011
1013
1013
1014
1014
1015
1012
1009
1007
1002
1003
1000
999
996
992
990
988
988
987
983
982
978
979
978
979
977
974
973
973
973
972
972
971
975
982
987
987
986
986
984
985
987
988
986
985
985
984
986
987
986
984
982
983
985
984
983
981
978
981
983
982
979
980
983
985
987
986
985
982
980
981
983
981
980
976
975
974
978
977
973
970
969
970
969
971
970
971
975
983
988
990
991
989
989
990
992
992
992
990
988
991
991
991
991
989
986
986
986
987
986
982
983
980
982
981
979
979
978
977
980
979
975
972
972
973
977
977
977
976
970
972
973
971
968
965
965
970
976
980
982
983
985
987
988
988
987
985
986
988
989
990
987
985
984
985
986
986
986
982
981
984
986
985
981
979
978
980
983
980
981
978
977
979
979
978
978
977
976
977
978
977
979
977
979
983
988
992
995
1000
1003
1005
1011
1026
1042
1058
1077
1101
1129
1151
1171
1184
1191
1183
1160
1123
1080
1045
1020
1009
1006
1002
1003
1003
1002
1002
1000
996
992
990
989
989
990
988
986
984
980
982
982
981
978
976
976
978
979
979
977
975
976
979
978
979
978
977
977
981
979
980
979
978
977
978
979
979
980
979
978
981
981
980
979
981
980
984
990
995
997
997
998
999
1002
1004
1003
1000
1002
1001
1004
1005
1003
1002
1001
1004
1007
1008
1007
1005
1005
1005
1006
1005
1003
1001
998
997
998
997
996
992
991
992
994
990
987
985
984
985
985
984
985
981
980
984
988
987
987
984
985
986
987
987
986
986
985
989
991
991
991
988
991
992
993
992
991
989
987
988
987
987
987
984
983
982
983
983
981
980
978
978
980
981
979
977
975
976
977
975
975
973
973
974
975
973
972
970
971
973
973
975
975
975
972
974
973
973
971
970
972
974
978
980
981
981
978
979
982
981
983
979
977
975
975
975
977
975
976
977
977
979
979
973
974
975
975
976
975
975
973
973
976
977
976
977
979
984
987
991
1001
1017
1035
1057
1076
1097
1120
1139
1154
1169
1177
1172
1155
1123
1091
1053
1023
1003
994
987
985
988
992
993
991
987
983
982
982
980
979
977
977
979
981
983
980
976
975
974
975
972
970
967
965
967
969
970
966
965
965
967
969
967
965
964
961
961
964
965
963
963
963
967
968
970
969
966
969
970
973
975
973
972
971
977
978
979
979
979
979
982
987
988
989
989
990
994
998
999
1002
1001
1002
1004
1007
1007
1005
1001
998
998
998
996
991
987
986
985
986
984
980
975
975
973
974
972
969
965
962
965
965
964
962
960
961
961
962
961
959
957
956
959
960
960
960
958
959
961
963
964
964
964
965
966
966
962
963
961
958
961
960
962
960
961
962
967
970
972
972
970
970
971
974
975
974
973
974
975
975
976
972
972
970
972
972
970
968
964
965
966
967
966
966
962
963
965
965
966
965
963
964
967
971
971
971
969
967
966
969
970
969
965
963
966
970
971
970
969
968
969
972
973
970
969
969
969
968
968
967
964
964
966
967
965
964
964
961
965
969
971
969
966
966
965
966
967
967
964
964
964
967
966
967
965
969
972
978
980
987
987
998
1014
1035
1054
1076
1098
1121
1148
1168
1184
1196
1195
1179
1148
1111
1071
1032
1001
982
969
965
962
964
967
972
977
978
975
972
970
969
970
970
970
969
967
968
971
972
970
972
968
967
967
969
968
966
965
963
966
966
967
965
965
964
966
964
964
961
959
959
961
960
963
964
961
964
968
970
972
972
973
972
975
977
976
977
976
975
978
983
982
984
982
982
986
988
989
988
989
990
992
995
997
995
993
995
997
998
999
997
995
993
995
994
993
991
989
987
986
986
984
982
979
975
975
975
972
970
967
965
967
970
971
969
968
966
968
969
968
968
965
965
966
967
966
966
966
966
968
971
973
973
971
971
973
975
977
977
974
973
974
975
976
975
972
973
975
976
978
978
972
970
973
975
975
972
969
967
969
970
971
969
970
969
974
974
974
973
970
968
970
972
973
972
971
971
973
976
981
985
987
991
1003
1019
1037
1054
1066
1081
1103
1127
1142
1154
1160
1158
1147
1121
1089
1050
1018
997
988
986
982
979
978
977
978
976
975
972
968
967
968
969
967
967
966
966
969
970
967
966
964
962
963
966
965
963
963
962
965
969
969
966
966
967
970
970
972
969
971
971
975
978
978
977
975
974
976
976
977
975
975
976
976
981
980
981
981
983
985
988
988
988
986
988
987
990
991
991
990
991
992
996
994
993
993
994
995
995
994
992
990
988
991
991
990
986
984
980
979
980
976
974
971
971
974
974
974
972
971
969
972
973
973
974
970
971
972
973
973
972
970
972
973
976
976
973
970
971
973
974
975
973
973
973
973
975
974
972
973
970
974
974
973
969
968
965
967
970
970
972
973
972
973
974
976
975
972
972
973
974
973
974
970
968
971
972
971
971
970
969
971
973
972
970
968
968
971
972
972
970
971
971
972
974
973
974
973
971
973
975
973
972
970
971
973
974
973
970
967
965
966
966
965
963
963
962
965
966
966
967
967
968
970
972
972
973
974
973
975
976
976
976
975
980
986
989
992
996
1003
1019
1040
1057
1077
1096
1117
1135
1154
1168
1176
1175
1163
1140
1110
1077
1041
1012
998
990
986
984
981
980
977
973
971
970
968
966
960
961
964
964
962
960
960
959
963
964
965
965
962
965
967
971
971
971
971
974
974
975
975
975
972
970
972
974
973
974
973
972
974
977
976
977
975
975
976
979
978
976
973
974
975
976
977
977
974
972
973
975
975
975
970
971
973
973
973
971
970
971
972
976
980
979
980
979
982
985
988
988
989
988
991
995
994
990
989
987
989
990
990
986
981
981
983
984
982
981
978
976
979
980
979
977
974
973
975
976
975
973
972
970
970
971
970
968
965
964
966
967
966
962
965
962
965
967
966
965
964
965
967
968
969
966
967
966
968
968
967
965
960
961
960
960
957
957
959
961
967
969
970
972
971
971
974
973
973
972
971
969
969
972
970
968
965
966
969
970
967
966
965
966
966
968
970
968
968
967
969
972
972
972
972
972
975
979
980
980
982
984
988
992
994
999
1014
1029
1045
1060
1079
1099
1117
1132
1149
1162
1166
1155
1134
1108
1078
1045
1018
998
985
979
980
984
985
985
984
978
977
975
973
969
966
965
964
965
963
963
963
962
962
961
960
960
959
959
963
965
966
967
966
967
970
972
970
970
966
965
967
970
969
969
967
966
968
970
971
969
968
967
970
971
970
968
968
969
973
977
978
980
979
980
983
987
988
990
988
987
987
989
987
986
985
985
986
986
984
984
984
985
987
989
989
990
987
987
988
987
987
987
984
983
983
983
981
978
978
974
974
974
975
973
970
966
967
967
965
964
962
964
966
967
968
967
964
966
966
967
966
965
965
967
968
969
966
962
962
965
968
971
973
975
978
979
980
980
981
979
979
978
979
981
978
975
971
975
977
979
977
975
974
972
975
977
975
975
971
971
972
974
973
972
974
975
978
984
991
997
1007
1021
1043
1064
1082
1097
1115
1138
1156
1167
1172
1169
1154
1128
1095
1059
1020
991
977
972
971
972
974
977
977
974
972
970
967
965
963
965
966
968
968
970
970
970
973
973
970
971
969
968
968
970
967
967
964
964
965
967
968
965
964
966
968
968
967
966
964
962
965
968
968
968
967
967
968
971
972
970
969
970
971
973
975
973
974
975
978
981
982
983
984
984
986
988
987
989
988
988
991
992
992
991
989
987
987
989
985
984
981
982
986
986
985
979
979
977
979
982
980
980
977
976
976
976
974
972
970
969
970
971
971
969
968
966
970
973
974
973
971
972
975
977
976
974
971
972
973
973
973
972
971
971
975
976
975
976
974
978
984
992
1001
1015
1032
1055
1078
1100
1120
1140
1162
1181
1200
1207
1201
1181
1155
1120
1085
1051
1021
1005
1001
1002
997
991
984
981
979
976
973
972
970
969
965
962
964
964
964
963
961
959
960
962
961
960
957
957
958
961
960
959
956
956
954
956
952
951
950
947
948
949
951
951
950
951
954
956
957
954
953
955
955
959
957
958
957
959
961
962
964
961
963
965
967
969
971
970
971
972
975
976
979
981
983
984
986
989
986
986
985
985
987
987
986
983
981
980
979
977
976
971
970
965
966
965
962
960
959
960
962
962
960
959
957
957
957
959
957
958
957
959
960
963
963
963
965
966
967
971
970
971
970
970
970
970
971
968
966
964
965
967
967
967
967
968
971
972
969
966
966
963
965
964
964
962
959
960
960
962
962
959
958
957
958
961
963
960
957
957
958
958
958
955
954
953
953
958
960
957
957
957
959
963
965
963
965
966
968
972
972
970
968
967
969
971
971
969
967
968
968
968
967
966
964
963
962
963
963
960
958
955
955
958
954
952
954
953
958
960
958
955
954
954
953
956
954
953
956
955
956
960
957
957
959
961
964
965
965
965
965
966
966
970
969
970
971
972
973
975
974
974
972
973
974
977
976
973
972
972
971
972
973
972
970
971
972
974
974
977
980
984
992
996
1008
1023
1042
1060
1082
1107
1128
1143
1154
1167
1169
1155
1128
1093
1053
1021
1001
991
985
982
981
981
984
984
981
976
975
972
971
971
970
967
966
966
967
968
971
969
970
970
972
973
972
967
967
965
966
968
966
965
962
963
965
970
970
969
968
967
969
971
970
970
969
968
970
972
970
972
971
971
972
976
978
976
975
975
976
979
980
979
978
979
982
984
984
984
983
983
984
987
987
987
988
992
996
998
998
998
998
1001
1001
1004
1000
1003
1001
1001
1001
1002
1000
999
997
998
999
998
995
991
988
985
987
988
986
984
981
981
982
982
982
980
979
977
978
983
982
978
977
976
977
980
981
979
977
974
975
976
977
976
974
978
977
979
979
977
975
977
979
980
981
981
981
980
983
985
985
981
980
981
982
984
982
980
978
976
978
980
978
976
974
974
975
975
975
972
970
969
971
973
973
970
966
967
970
971
970
968
966
965
967
969
968
967
965
966
969
972
973
970
970
973
975
978
978
974
974
972
976
976
973
974
974
973
975
975
974
973
973
973
973
973
973
972
969
968
970
972
970
968
967
967
969
970
970
969
968
970
973
978
982
986
989
998
1018
1041
1062
1081
1101
1124
1147
1164
1176
1184
1171
1139
1103
1064
1021
991
973
964
964
967
970
974
974
970
971
972
971
967
967
966
968
970
972
969
966
964
964
967
965
965
964
964
965
965
965
963
962
961
963
963
964
962
960
960
962
963
964
965
966
966
967
970
970
971
967
969
968
973
974
973
970
972
974
975
977
975
974
976
980
982
984
983
982
980
987
991
991
992
991
992
997
998
999
997
996
993
996
996
994
991
990
986
986
986
982
980
975
974
976
975
974
972
969
970
970
968
968
965
962
963
964
967
963
961
959
960
963
967
967
965
966
966
969
970
972
972
974
975
977
981
981
979
979
979
982
981
979
976
975
974
976
976
976
976
974
973
973
972
971
969
970
967
969
969
968
966
966
965
966
968
967
964
965
966
966
966
965
966
965
965
966
966
965
963
963
965
966
969
967
967
969
971
973
972
974
975
976
975
978
979
981
980
975
976
977
980
979
976
975
976
977
978
974
974
974
973
976
975
973
973
969
970
970
971
969
967
967
967
969
969
969
967
966
967
969
972
972
970
971
971
974
977
979
981
985
988
992
1000
1008
1025
1047
1067
1089
1112
1136
1152
1170
1183
1198
1202
1185
1154
1117
1069
1027
998
982
973
971
977
982
983
979
973
970
967
967
966
965
963
962
960
960
963
963
961
960
961
962
964
963
965
964
964
966
970
971
971
970
973
975
976
976
977
977
977
978
982
984
985
985
988
989
989
989
990
986
987
989
992
989
987
985
985
987
988
988
986
984
984
985
987
987
985
983
982
986
989
988
987
987
986
986
987
983
982
980
982
982
982
981
980
977
977
979
982
981
981
979
979
981
983
984
984
983
984
984
986
985
983
981
981
981
983
982
981
981
979
980
983
983
982
978
977
978
980
980
977
974
973
977
978
976
974
972
972
973
974
972
973
972
974
975
979
976
977
976
976
980
983
983
984
981
981
982
984
982
981
981
980
981
985
983
981
979
979
980
981
979
977
977
976
977
978
976
972
972
971
973
975
973
970
972
970
971
972
971
969
967
967
968
969
968
969
967
969
971
971
972
970
967
970
970
972
976
980
978
978
980
981
981
981
978
976
979
980
979
979
979
980
979
983
985
985
986
989
995
999
1006
1015
1034
1054
1073
1092
1113
1132
1145
1155
1166
1167
1154
1127
1091
1052
1018
998
989
984
979
976
978
982
981
981
977
974
976
976
977
980
978
977
978
982
983
984
983
982
982
986
985
986
984
984
985
987
986
984
981
980
979
980
979
980
977
976
977
980
981
982
981
979
981
982
981
980
979
979
979
982
982
979
979
980
982
984
984
983
982
982
985
989
988
988
986
986
991
993
993
993
993
992
995
998
999
997
995
994
998
997
995
996
996
995
995
998
999
999
994
991
991
991
991
988
983
983
983
983
982
981
979
978
978
977
975
973
973
972
976
977
975
972
971
967
969
972
971
970
970
970
971
975
974
973
972
972
974
978
977
978
979
978
982
986
985
986
987
986
988
990
988
987
985
984
986
988
987
985
983
982
984
986
983
981
978
979
980
982
980
979
977
977
977
976
975
974
974
972
972
973
