958
958
963
967
965
963
962
964
967
970
968
964
963
964
966
967
966
965
966
966
968
967
967
963
965
972
974
974
972
974
970
973
975
980
979
976
977
978
980
980
980
978
979
982
987
991
991
991
998
1007
1024
1049
1076
1105
1135
1167
1202
1242
1274
1297
1314
1330
1335
1315
1275
1222
1161
1103
1065
1038
1016
997
984
981
982
980
972
964
953
953
952
952
947
945
942
942
943
947
945
940
939
942
942
944
942
944
939
943
944
949
945
943
944
944
947
947
948
947
945
946
951
952
951
950
948
945
952
954
953
955
951
953
957
962
963
961
960
963
965
967
966
964
964
964
969
971
968
963
965
967
968
971
973
973
971
974
976
978
976
972
973
971
975
974
972
970
971
971
974
972
970
969
965
963
966
968
965
963
958
959
960
960
960
956
956
957
961
960
960
956
957
956
962
963
958
955
955
956
956
959
955
951
951
954
957
955
954
950
949
950
955
955
952
949
945
947
951
950
946
945
943
945
945
949
947
944
946
947
953
954
955
952
953
955
960
959
956
954
953
958
959
960
959
954
952
956
958
963
963
958
959
963
967
968
963
962
956
958
963
964
961
955
957
959
963
966
965
962
961
961
965
967
965
964
962
964
966
970
973
974
976
985
993
1009
1028
1052
1080
1110
1145
1177
1203
1224
1244
1273
1291
1292
1272
1235
1192
1140
1093
1054
1021
994
972
962
965
969
967
961
953
949
947
947
941
936
933
933
935
934
935
931
927
930
929
935
932
928
927
926
930
930
930
927
924
925
929
930
930
926
923
925
929
930
932
924
924
927
933
933
935
931
930
933
939
941
944
943
943
947
951
952
951
951
949
951
955
957
955
953
954
957
961
962
961
960
961
963
966
966
962
957
959
959
962
960
958
953
950
947
951
948
944
941
939
938
939
941
938
937
932
935
940
940
938
934
933
934
940
940
940
937
934
936
939
941
941
936
936
941
944
946
946
940
941
943
950
950
951
948
948
950
954
956
954
951
952
954
956
959
958
954
956
957
963
964
961
957
954
953
957
958
955
950
945
944
949
950
947
945
942
941
944
946
943
941
940
941
941
944
944
940
937
939
943
944
944
942
939
943
944
949
947
944
942
941
946
946
947
944
943
945
947
952
948
944
944
945
949
950
949
945
942
942
948
948
947
947
945
948
951
950
949
949
952
954
958
963
962
959
956
956
957
960
956
956
955
956
958
960
962
964
967
973
984
993
1007
1027
1049
1071
1100
1131
1160
1184
1203
1227
1251
1266
1266
1249
1225
1191
1149
1104
1071
1043
1021
1001
987
972
969
965
959
957
956
950
946
940
935
936
938
939
937
932
929
930
934
933
931
926
925
924
928
929
928
925
923
923
926
929
928
927
924
925
928
932
931
927
927
927
931
930
930
930
927
929
934
935
935
932
933
935
938
943
945
943
944
947
953
955
956
954
953
955
960
961
963
962
961
963
970
971
972
970
970
970
973
979
974
970
965
968
967
967
964
962
953
957
956
957
955
952
949
949
950
950
948
943
941
940
943
941
940
937
935
938
939
938
939
935
933
935
938
942
942
938
939
938
941
942
941
941
940
942
945
950
947
944
948
945
949
953
954
950
948
949
954
954
952
951
949
949
952
954
954
952
952
952
954
955
952
952
948
948
951
953
952
947
944
947
948
948
947
944
943
945
949
953
953
949
947
948
951
952
953
950
947
952
954
955
953
948
949
949
954
956
956
956
957
956
957
959
957
953
952
951
957
958
957
954
953
957
956
961
959
959
958
960
965
964
960
958
956
958
958
958
960
958
956
959
958
960
960
956
953
958
961
963
965
967
970
979
988
1002
1012
1032
1061
1092
1121
1154
1190
1224
1254
1282
1312
1332
1337
1319
1290
1249
1200
1143
1087
1047
1016
993
983
980
980
974
970
972
968
969
965
959
955
958
958
958
955
950
946
947
948
950
947
944
942
941
943
945
946
943
941
943
942
943
943
940
936
939
941
943
940
939
937
934
938
943
944
944
947
949
949
952
954
953
953
955
957
962
962
960
960
961
965
966
970
965
965
970
972
972
971
969
969
975
976
978
978
974
975
977
982
985
982
979
978
979
980
981
978
977
973
973
974
974
969
964
962
963
962
968
965
962
953
959
960
961
960
956
955
956
958
960
957
956
956
957
957
961
958
957
960
960
964
966
967
965
965
965
970
971
971
969
969
972
976
977
974
973
972
974
977
979
979
975
976
975
977
979
974
977
974
976
978
978
976
973
971
973
977
977
976
975
975
975
979
978
977
974
973
975
976
978
977
973
971
972
974
974
971
967
965
964
967
966
965
964
962
965
967
967
959
961
959
963
965
963
961
958
961
961
964
968
966
960
964
964
966
966
965
962
957
961
961
962
960
958
959
963
967
969
968
968
967
968
971
972
970
970
967
970
974
976
979
977
979
983
993
1003
1009
1019
1040
1067
1099
1132
1164
1195
1230
1261
1291
1314
1326
1314
1287
1249
1198
1144
1089
1048
1017
995
981
975
973
971
968
965
963
958
954
948
946
947
945
949
948
945
945
946
949
948
948
944
942
945
945
950
947
946
947
948
951
953
950
949
948
948
953
956
955
952
951
952
957
960
960
958
957
959
963
963
963
962
959
962
965
969
968
964
960
963
967
968
967
962
962
961
965
962
964
965
960
965
970
974
972
970
967
965
971
970
968
967
963
963
965
964
962
955
954
956
959
960
958
956
952
955
958
960
957
953
951
953
956
958
955
953
951
952
954
955
953
950
947
948
952
954
953
948
948
951
954
957
953
952
951
951
954
955
954
952
949
951
954
956
954
952
948
954
956
956
958
954
956
958
962
962
960
957
958
958
963
963
962
961
964
969
981
987
993
1002
1019
1041
1067
1089
1114
1141
1171
1201
1226
1245
1254
1242
1223
1193
1156
1108
1067
1039
1018
1000
985
977
972
970
964
960
957
954
946
943
937
936
934
938
935
931
928
931
935
934
931
929
928
930
933
933
933
932
929
930
932
937
933
934
933
936
938
941
939
937
939
940
942
944
944
942
943
945
948
950
950
948
948
948
951
954
951
950
950
954
958
960
960
957
954
956
960
965
964
963
964
966
970
970
967
965
961
962
962
961
960
954
952
951
952
953
950
944
941
940
941
945
941
937
937
939
942
943
941
938
937
939
941
943
938
938
938
940
941
943
939
938
935
936
939
941
939
938
935
937
941
942
939
939
935
939
941
941
940
937
936
937
940
941
940
938
938
941
943
944
943
942
938
941
944
942
941
939
938
939
940
943
941
940
940
939
941
941
940
939
938
939
940
939
937
934
934
932
936
937
937
934
934
934
936
938
937
937
935
936
938
942
939
937
934
935
934
933
933
929
929
930
933
934
933
929
929
934
938
939
936
934
933
932
935
937
934
931
932
932
935
938
935
932
929
933
937
941
939
938
936
937
941
940
938
935
929
932
933
934
930
929
928
931
933
933
928
926
925
927
930
931
931
926
925
927
927
927
928
923
922
926
929
929
932
932
931
935
940
942
938
939
939
940
942
946
945
941
940
939
945
945
945
942
942
948
950
952
950
945
948
951
953
953
951
949
948
946
950
951
950
946
946
947
949
955
949
948
947
945
948
950
950
943
944
944
946
950
949
946
947
950
955
956
956
955
955
964
972
976
985
993
1016
1044
1075
1108
1139
1173
1197
1228
1257
1280
1283
1264
1227
1178
1124
1073
1028
1001
981
968
967
972
972
968
963
960
957
950
947
942
939
935
937
940
936
934
929
928
933
937
935
933
930
931
935
936
934
930
926
930
930
935
938
935
933
932
938
939
938
936
935
938
941
941
946
944
944
947
950
952
954
950
950
953
958
961
956
956
958
959
966
966
964
963
959
962
967
970
970
966
965
969
972
977
976
974
973
977
979
984
981
977
978
976
978
981
977
974
971
970
974
975
971
966
961
963
965
967
961
960
960
961
962
965
965
963
960
961
967
970
971
965
962
963
962
966
964
960
954
956
962
961
959
955
956
958
961
964
961
956
956
960
962
966
963
962
961
960
964
967
966
965
964
966
969
975
971
975
978
984
992
1006
1019
1033
1058
1088
1122
1158
1188
1223
1259
1287
1307
1322
1317
1291
1242
1186
1118
1055
1007
976
957
954
956
961
964
962
958
956
956
954
948
946
947
944
947
950
943
945
943
940
943
945
941
940
934
936
936
940
937
938
938
937
940
942
943
941
940
942
944
947
947
946
945
947
951
952
947
948
948
949
954
956
955
950
951
955
962
963
967
963
966
972
973
976
980
978
978
980
985
988
985
985
984
985
986
985
983
976
973
973
977
971
969
964
964
966
966
963
959
956
955
958
956
960
955
951
951
953
954
954
952
947
946
949
952
954
950
947
949
952
954
955
954
949
949
951
955
953
956
954
955
956
959
961
965
964
963
965
965
967
965
965
961
962
963
967
966
963
959
961
967
969
968
962
960
960
963
967
965
962
958
958
960
964
962
957
953
952
955
957
956
952
952
951
957
960
958
956
953
954
957
957
956
954
956
958
961
961
961
955
956
962
973
976
980
983
993
1011
1037
1064
1093
1120
1152
1192
1226
1257
1281
1302
1311
1300
1275
1235
1181
1122
1069
1034
1006
987
972
966
965
966
964
962
957
948
946
944
943
942
938
935
932
935
932
934
933
926
922
925
925
925
923
921
922
924
928
928
928
927
926
929
932
932
934
933
929
932
935
938
936
932
931
933
935
936
933
937
935
939
942
946
946
943
942
945
946
946
944
945
946
951
954
956
957
954
953
953
955
958
957
955
956
959
962
961
960
956
954
958
959
959
955
951
950
951
950
952
947
947
945
948
946
948
947
945
942
944
946
948
948
943
942
946
946
950
950
948
950
955
960
963
961
963
964
969
973
984
993
1005
1024
1055
1095
1130
1160
1189
1222
1252
1269
1273
1264
1237
1204
1157
1106
1058
1025
998
979
968
967
971
964
957
951
948
947
948
944
940
938
938
941
940
936
931
929
929
933
931
931
927
928
928
930
929
927
925
920
922
928
930
926
923
923
923
928
929
933
928
927
931
937
937
939
940
938
939
944
945
945
945
944
945
951
954
955
952
951
954
958
962
962
960
964
965
968
972
974
973
973
979
980
983
982
978
976
974
976
978
976
971
965
965
962
965
961
959
955
956
955
954
955
952
951
951
952
952
953
948
946
947
946
950
949
945
942
943
948
950
948
949
947
950
950
954
960
961
968
978
995
1019
1047
1074
1097
1125
1160
1199
1232
1257
1272
1282
1282
1267
1232
1185
1130
1074
1042
1016
994
972
960
952
953
952
947
941
937
937
938
939
935
928
927
926
926
927
924
923
922
922
926
924
924
919
918
919
920
921
918
915
913
912
916
915
915
912
907
909
913
911
911
907
906
910
911
916
916
915
915
916
920
924
922
920
920
922
923
924
923
925
924
926
931
934
936
936
933
939
942
947
947
947
945
948
952
954
954
949
949
952
954
957
955
952
950
949
951
949
950
942
942
942
943
944
942
938
935
934
937
938
937
930
927
930
933
931
934
931
931
932
935
936
938
935
935
936
937
938
941
939
937
939
942
942
939
939
936
940
943
944
943
942
939
940
948
949
952
956
963
974
984
1003
1022
1046
1067
1093
1115
1145
1173
1198
1217
1236
1249
1248
1232
1205
1170
1124
1076
1039
1008
986
970
956
950
948
944
939
931
928
927
925
920
913
914
911
912
915
912
907
902
906
910
911
908
906
907
907
909
910
908
908
905
906
911
910
911
912
913
917
920
922
922
922
921
924
927
928
925
923
921
924
927
930
929
927
926
927
929
932
927
923
927
926
928
932
930
926
927
931
933
935
934
932
935
936
940
941
944
941
940
942
945
945
944
938
935
938
939
939
938
932
931
927
931
935
934
928
924
929
933
931
929
927
926
928
931
933
931
930
931
932
939
938
938
934
938
941
945
944
942
939
940
940
943
945
942
939
937
940
945
946
945
943
939
941
945
945
943
940
936
936
939
939
939
936
936
935
937
939
936
933
933
930
935
933
932
928
927
928
926
930
930
926
925
926
925
925
928
926
925
931
936
938
938
937
938
937
939
942
941
939
942
940
941
945
943
944
943
943
945
947
945
940
940
943
943
948
948
948
950
949
953
955
953
951
951
954
953
957
957
955
955
955
957
957
953
952
952
956
962
966
967
971
978
986
1000
1022
1049
1074
1104
1138
1171
1199
1227
1251
1270
1290
1292
1268
1228
1178
1119
1068
1031
999
973
954
947
951
957
957
954
949
942
942
944
943
938
933
929
931
931
930
931
928
925
927
928
929
931
927
930
930
935
934
931
929
927
930
935
935
930
930
927
927
932
933
934
930
929
932
934
938
936
932
931
931
937
935
935
933
933
936
938
939
938
935
934
932
938
941
937
940
939
942
945
949
951
948
946
948
955
955
955
956
957
963
964
968
967
962
964
965
968
970
969
966
963
964
963
965
963
961
958
964
963
962
959
958
953
955
956
960
959
953
953
955
957
959
957
951
951
954
956
960
956
955
954
956
959
959
955
951
952
954
957
961
962
960
961
962
967
970
969
969
969
967
974
971
970
969
968
972
974
976
974
972
974
978
982
983
981
978
975
976
981
982
982
981
984
992
996
1009
1019
1040
1063
1090
1118
1148
1179
1209
1236
1261
1284
1296
1294
1270
1231
1183
1131
1079
1034
1000
974
964
961
963
963
963
961
958
957
955
951
946
943
939
941
943
938
939
935
938
941
942
940
938
937
936
938
942
941
938
939
939
943
944
947
944
941
943
942
943
944
938
938
937
942
940
941
939
939
939
942
943
941
938
938
939
941
943
942
939
937
940
943
944
942
941
942
942
946
946
945
946
947
950
954
954
954
950
954
955
957
960
962
956
955
954
960
962
960
959
956
960
964
964
964
957
957
957
959
961
960
953
950
950
952
951
949
945
942
943
947
946
945
941
939
941
946
947
946
945
942
943
946
948
947
944
943
947
950
952
950
948
946
946
946
947
944
946
944
944
948
949
949
945
944
942
946
948
945
943
943
941
943
946
942
940
939
942
944
948
949
948
944
946
948
951
948
944
946
948
949
951
948
943
943
944
944
946
947
943
942
944
947
950
947
946
946
948
949
951
952
950
948
948
952
953
949
946
944
944
944
946
945
943
943
943
948
947
946
943
941
941
945
948
946
944
943
946
949
948
948
943
944
945
947
949
948
944
942
946
950
949
947
948
947
950
953
953
954
950
950
952
955
957
957
954
953
959
963
962
961
959
959
958
962
965
964
964
967
974
982
988
997
1012
1034
1060
1090
1119
1149
1176
1204
1234
1262
1282
1285
1267
1237
1198
1149
1101
1053
1015
986
969
961
959
958
957
953
952
951
945
941
937
932
931
935
936
936
933
932
933
938
939
934
933
932
933
936
935
936
931
931
932
935
937
935
931
930
934
939
939
936
934
933
935
940
938
937
933
932
933
937
936
937
935
931
931
936
938
938
934
936
932
940
938
940
934
932
935
936
942
939
939
939
942
946
946
951
950
949
951
955
958
956
953
955
956
963
963
962
958
956
960
963
963
963
959
958
957
957
957
955
950
942
945
949
949
947
942
942
944
946
943
942
939
942
944
946
947
947
943
946
943
947
951
950
945
947
947
949
951
950
945
944
943
944
944
944
941
938
941
946
946
944
940
940
943
947
949
948
946
942
946
949
947
944
943
939
940
944
945
942
937
936
938
940
941
938
934
934
935
938
939
933
931
929
928
930
931
928
924
924
926
927
926
924
921
920
919
921
924
921
919
917
919
917
917
914
915
912
913
916
915
909
911
906
910
913
910
911
909
908
912
914
914
914
911
910
914
917
918
917
913
914
916
919
922
921
920
920
923
928
928
933
933
935
943
954
965
982
1002
1028
1059
1089
1124
1155
1182
1207
1234
1255
1255
1235
1202
1160
1108
1063
1028
1002
977
963
955
954
953
948
940
938
936
937
935
932
929
926
929
931
933
934
930
928
932
932
931
928
925
926
927
930
929
927
924
922
923
925
925
924
921
920
922
925
924
923
924
920
922
924
925
924
920
920
924
929
928
927
923
924
927
931
933
935
930
929
933
935
937
938
936
935
940
941
946
946
946
947
949
955
959
960
955
959
961
962
965
963
959
956
958
959
960
954
954
953
951
952
952
948
946
942
942
943
942
942
942
939
942
945
945
945
943
943
943
946
947
947
943
943
944
949
952
951
947
949
950
952
957
954
955
955
958
960
963
961
954
954
958
961
963
961
960
957
961
965
967
965
963
962
966
966
969
963
957
954
957
957
955
951
948
946
945
950
952
945
940
942
944
945
948
947
943
944
946
948
951
948
945
943
947
949
950
951
947
946
947
950
956
951
951
954
954
954
953
951
951
951
952
956
962
963
962
958
960
963
965
964
961
959
963
967
966
966
963
960
963
963
964
963
961
