965
966
968
971
970
966
962
965
967
970
968
965
964
964
969
969
969
965
964
960
966
967
966
964
960
957
958
961
960
957
955
955
956
958
951
954
951
953
957
959
955
950
950
955
956
960
956
955
952
957
960
965
966
967
964
967
971
972
974
972
970
970
973
976
974
971
970
972
975
979
983
979
984
996
1003
1012
1027
1049
1077
1106
1142
1179
1211
1239
1266
1297
1320
1332
1315
1273
1221
1162
1104
1054
1014
978
954
949
951
959
960
955
951
950
949
951
947
944
941
944
946
946
947
945
943
944
943
942
941
940
944
947
953
956
956
950
950
948
955
959
958
956
954
953
958
960
956
954
953
955
956
955
957
955
952
954
958
959
958
961
960
963
964
965
965
963
962
964
969
973
973
971
969
970
975
978
977
973
974
975
980
982
980
977
973
972
974
974
971
966
963
961
962
962
962
959
958
958
957
959
956
954
949
948
952
950
952
945
943
943
944
947
946
944
942
941
946
946
945
943
942
944
947
951
950
947
946
944
947
949
948
948
942
945
946
952
953
951
948
951
952
956
955
952
952
951
953
959
958
958
954
952
956
959
956
956
953
953
955
957
961
961
958
960
961
962
962
960
957
956
959
962
960
958
956
956
960
961
960
958
962
960
961
962
965
961
957
957
956
961
959
957
955
953
956
959
956
953
953
953
953
959
959
954
952
954
957
957
959
956
953
953
954
956
956
955
951
951
952
953
952
949
947
949
953
956
958
958
959
965
972
985
986
994
1004
1028
1057
1088
1119
1146
1176
1211
1240
1268
1289
1296
1287
1260
1227
1178
1121
1073
1037
1014
992
984
975
968
963
960
958
955
951
945
938
935
937
938
938
933
931
927
930
933
930
927
925
926
927
930
930
928
928
930
935
937
939
937
939
940
944
944
942
942
937
943
949
952
956
953
951
951
957
960
959
956
955
957
961
964
963
959
957
961
966
969
967
964
962
966
969
971
968
967
965
967
968
973
972
968
965
965
967
966
965
959
954
953
954
952
952
948
948
948
946
946
943
938
936
933
939
940
938
938
935
935
936
939
936
931
931
932
938
940
942
938
937
939
940
945
942
936
935
936
936
939
938
937
937
935
936
937
934
935
934
934
938
942
940
938
937
937
940
941
938
940
935
936
938
942
941
937
936
936
940
943
944
940
938
941
946
947
946
942
943
940
944
950
950
947
941
944
947
950
950
945
943
944
946
947
946
945
942
939
939
943
943
940
939
941
942
943
942
941
942
940
945
949
943
943
939
940
939
941
942
937
934
937
935
936
935
934
932
934
938
939
940
935
929
932
937
938
937
935
934
937
942
943
943
940
940
940
945
948
944
943
943
942
946
948
947
945
942
944
947
947
948
945
944
948
949
950
948
943
943
945
947
949
947
945
944
946
946
947
948
944
942
943
945
950
947
947
944
946
949
949
947
945
944
941
945
946
945
942
941
942
946
946
945
943
941
944
949
953
951
951
951
956
960
968
972
976
980
989
1007
1029
1054
1077
1100
1133
1164
1194
1221
1238
1260
1277
1282
1272
1242
1199
1147
1094
1054
1025
999
977
965
961
964
969
965
954
946
944
945
945
940
935
930
931
932
930
931
927
925
926
930
933
928
923
924
926
930
930
928
928
925
929
932
934
934
931
930
931
935
939
941
937
936
938
941
943
945
942
937
941
945
950
948
948
947
950
952
958
959
959
957
958
961
966
968
966
963
965
971
972
974
973
971
974
975
977
978
976
972
974
977
979
978
974
971
969
970
972
970
962
960
959
959
958
957
950
945
945
945
944
942
940
937
938
939
940
936
935
935
933
933
936
940
941
944
947
948
952
948
946
943
941
946
947
943
943
943
944
947
948
949
945
947
945
949
950
951
948
947
945
951
953
953
950
948
952
953
955
954
951
950
948
953
955
954
951
946
946
951
953
954
949
947
949
953
953
951
949
946
945
946
948
946
943
941
940
944
949
948
950
950
952
955
958
957
955
955
955
958
958
957
955
950
950
952
958
955
951
949
948
950
952
950
946
945
945
950
952
950
950
947
948
949
950
953
947
947
948
948
951
952
951
952
950
957
960
961
960
962
969
977
982
987
994
1003
1028
1055
1084
1116
1146
1178
1210
1238
1268
1294
1308
1306
1288
1254
1207
1148
1090
1046
1010
989
971
960
962
966
969
968
963
957
954
947
944
944
943
941
936
934
932
932
934
934
930
926
932
932
937
935
932
932
934
937
939
939
936
932
933
933
937
933
935
935
935
945
949
949
947
946
949
951
955
953
952
949
951
959
960
962
958
959
961
963
967
966
964
967
970
972
978
978
977
975
978
982
984
985
984
981
980
980
979
977
975
970
971
971
972
967
963
961
959
963
964
963
959
956
958
959
959
954
953
951
954
953
954
951
949
947
948
950
952
950
946
941
943
945
946
946
942
940
941
942
945
945
941
942
941
940
942
940
940
937
937
939
938
935
932
934
939
948
946
948
948
949
954
954
960
959
956
955
955
960
961
961
960
953
955
958
957
956
954
952
954
956
957
958
953
951
952
954
954
955
952
948
949
953
954
952
949
948
949
950
955
952
948
945
948
950
954
948
949
948
949
953
955
957
953
954
954
956
958
957
955
952
954
956
962
960
956
956
957
959
960
960
959
958
960
964
968
963
964
965
968
975
983
989
990
999
1019
1048
1079
1105
1136
1164
1199
1231
1261
1285
1303
1311
1300
1275
1232
1177
1121
1069
1030
1000
975
963
953
953
960
965
963
960
956
952
953
952
953
949
944
939
937
941
943
941
938
935
937
939
942
943
938
937
936
939
940
940
935
935
936
939
940
937
937
936
935
940
939
938
938
935
934
940
941
943
939
940
942
945
948
948
947
944
949
953
959
958
958
960
960
966
968
966
965
965
965
969
972
972
969
966
971
977
979
980
977
974
972
976
974
973
971
969
964
966
965
962
954
951
952
952
953
953
948
946
946
946
948
945
944
940
940
942
943
941
940
937
936
939
941
940
940
935
938
942
944
943
942
941
940
944
944
946
940
939
936
941
940
940
939
937
940
941
943
943
942
939
941
942
942
942
941
938
939
940
942
940
939
937
938
943
943
943
940
938
936
941
944
945
944
944
944
950
954
951
954
955
957
960
959
957
958
956
954
957
962
959
957
956
953
959
962
958
956
954
953
959
959
961
961
961
963
966
972
973
972
975
980
985
996
1008
1026
1048
1076
1104
1134
1165
1197
1222
1249
1274
1292
1296
1283
1262
1230
1186
1135
1082
1038
1010
988
973
965
961
954
953
948
945
942
941
937
933
933
934
933
933
933
931
932
935
934
934
932
930
931
935
938
938
934
933
932
937
937
936
933
929
934
936
940
941
938
935
935
937
938
938
938
932
933
937
938
939
940
938
941
943
946
947
945
944
945
949
953
951
952
950
951
953
958
957
954
953
956
960
960
961
960
957
960
963
964
962
956
954
954
956
954
951
946
942
938
940
941
947
946
947
947
952
953
951
946
946
945
947
948
946
945
942
941
942
945
944
939
940
938
941
943
939
938
936
936
939
939
940
938
933
935
935
940
938
939
934
935
940
942
943
942
940
941
941
946
944
943
940
941
945
946
947
942
943
945
950
948
947
947
946
948
953
956
959
961
967
975
984
995
1011
1030
1052
1077
1099
1129
1157
1188
1217
1240
1258
1264
1253
1222
1186
1138
1085
1041
1005
982
966
961
959
961
960
955
948
943
945
940
935
932
928
928
931
927
928
927
926
926
928
931
929
926
922
923
925
928
926
922
921
921
924
925
928
925
922
921
921
926
924
922
918
919
923
924
925
929
927
934
941
944
943
944
942
944
948
948
951
950
949
953
957
959
956
955
955
954
962
964
964
963
963
963
968
971
968
966
963
962
963
962
958
955
951
952
949
949
945
940
939
939
938
938
938
936
931
929
931
934
930
929
923
924
927
931
931
927
926
929
931
935
934
932
931
930
934
933
934
934
933
939
940
945
947
942
943
948
949
955
954
952
948
948
950
950
947
945
943
944
946
948
945
943
943
946
949
952
950
949
947
944
948
949
946
945
941
943
946
945
940
940
940
940
939
941
943
938
936
938
944
942
944
940
936
935
940
943
941
939
937
941
942
942
942
942
939
942
940
943
941
935
937
937
941
943
941
939
940
945
945
949
947
944
940
941
943
944
944
943
939
938
941
943
939
936
935
935
938
940
940
938
935
936
940
940
938
939
936
938
941
942
943
940
940
941
943
947
947
947
946
947
950
951
952
950
952
952
955
955
955
952
952
952
957
961
960
960
963
968
976
985
988
999
1016
1046
1077
1112
1144
1177
1202
1236
1270
1295
1303
1287
1254
1202
1144
1091
1046
1008
974
952
941
952
955
961
959
956
954
955
948
948
947
948
946
947
940
943
939
939
942
941
943
937
935
939
940
943
942
938
933
937
937
940
938
934
932
931
934
937
934
935
933
934
939
943
941
937
939
942
945
948
946
947
945
944
946
949
951
946
946
948
951
955
955
955
954
955
957
963
964
962
961
962
965
968
968
968
965
966
969
973
972
966
963
964
966
966
967
961
959
960
960
961
958
953
952
948
950
950
950
946
942
942
944
948
948
946
947
948
950
953
953
950
949
950
951
953
955
953
950
952
956
959
958
952
952
953
957
960
959
959
958
961
962
964
964
961
959
960
959
962
960
959
956
958
960
961
960
957
955
952
954
956
956
953
951
955
955
955
956
951
948
947
948
949
946
948
945
944
948
950
952
950
953
952
954
957
957
955
952
951
953
954
951
952
952
954
955
958
954
953
951
952
952
953
950
947
946
946
946
945
946
946
942
942
943
943
941
939
936
938
940
942
942
938
936
938
939
942
940
940
938
939
939
941
940
935
935
940
941
948
949
947
946
946
951
954
952
949
946
947
950
956
956
956
956
958
961
962
961
957
957
957
959
961
963
960
959
960
965
968
965
966
967
972
982
989
995
1004
1019
1049
1080
1114
1146
1176
1206
1237
1265
1292
1301
1288
1254
1205
1150
1095
1046
1010
978
961
955
962
966
964
959
960
957
956
949
948
945
943
947
946
945
941
940
939
939
943
943
939
938
938
937
943
943
939
935
936
938
940
937
937
934
935
939
941
939
937
935
934
940
942
942
938
939
940
941
944
945
943
943
946
948
954
951
949
950
951
951
953
954
950
949
950
951
954
955
950
949
952
955
956
952
953
953
953
954
957
955
951
947
948
949
951
948
949
945
946
947
951
946
943
943
943
942
947
949
949
946
947
951
954
951
952
949
948
954
955
955
952
950
953
956
959
955
953
950
954
957
961
959
958
955
953
959
960
960
956
954
956
957
957
958
952
951
951
956
955
950
946
944
944
945
947
946
942
939
942
945
950
947
944
943
942
946
948
946
943
945
945
947
950
951
954
951
956
960
960
960
957
951
954
955
957
954
951
950
953
953
954
953
946
948
948
949
951
949
945
944
944
946
945
945
943
939
937
940
942
938
933
930
933
935
940
938
936
934
934
937
938
937
936
932
933
935
940
938
937
934
934
939
943
943
939
936
941
944
948
947
946
950
950
957
966
962
963
959
959
963
964
964
963
960
959
958
959
958
954
950
951
952
958
957
953
950
948
950
954
953
948
947
948
949
949
949
943
946
948
953
955
950
956
955
957
962
968
978
981
989
1003
1028
1054
1077
1096
1127
1159
1189
1216
1244
1266
1279
1277
1258
1227
1177
1121
1070
1030
1007
990
979
976
970
970
969
965
955
948
942
935
935
937
935
933
928
927
930
931
929
929
925
925
929
929
928
925
924
924
926
928
928
928
928
929
935
938
939
935
934
935
940
945
946
942
941
945
948
951
952
952
950
951
955
957
955
955
953
957
961
963
963
962
960
965
971
971
968
966
964
968
971
973
971
971
967
968
968
967
968
965
962
963
964
962
961
958
956
953
956
958
956
952
947
951
952
953
950
948
946
947
945
945
945
942
939
937
939
939
936
935
930
933
937
938
938
934
932
936
936
939
939
935
933
937
939
943
943
942
939
941
944
950
947
946
946
947
954
954
955
952
951
952
958
960
959
954
956
957
959
964
965
965
965
971
983
993
1003
1019
1040
1063
1087
1113
1137
1166
1192
1218
1237
1251
1242
1221
1183
1139
1092
1052
1023
999
979
966
962
960
958
956
949
944
944
939
940
937
932
935
937
938
936
933
929
930
929
931
930
925
925
924
925
929
931
926
923
927
929
932
930
932
932
933
938
941
941
939
939
940
941
943
946
947
946
944
951
955
956
955
955
959
964
968
969
968
970
970
973
978
976
976
977
978
980
983
985
984
982
981
982
983
978
973
969
967
966
967
963
957
956
952
949
952
950
945
938
940
939
944
941
940
937
934
939
942
944
942
942
943
946
948
949
948
944
944
945
949
949
947
946
947
949
950
946
949
948
950
950
953
951
947
945
948
949
951
952
950
951
949
951
951
950
947
946
944
948
947
946
944
942
942
947
945
943
941
942
941
943
944
944
945
942
943
945
950
947
945
946
948
951
951
954
953
952
954
958
959
959
958
956
956
959
961
959
957
954
953
957
957
958
951
950
951
956
954
953
946
945
948
948
950
947
945
947
947
950
949
949
946
945
944
947
947
947
944
939
942
945
948
943
943
941
943
944
948
949
945
950
952
956
959
959
960
958
961
963
959
961
961
962
962
967
967
967
965
961
962
962
965
963
960
959
957
958
959
957
953
952
953
953
956
955
951
952
951
953
955
955
954
952
949
951
953
953
952
953
952
956
960
959
961
960
963
973
980
985
989
987
1000
1020
1050
1080
1114
1147
1185
1220
1254
1287
1310
1317
1307
1278
1226
1161
1097
1046
1004
978
961
954
956
961
965
966
964
958
952
949
948
946
944
944
941
936
935
939
940
941
939
935
937
940
945
944
942
938
940
946
944
946
945
944
945
944
949
950
947
946
946
947
952
952
950
950
951
952
956
954
953
949
952
952
957
954
952
949
956
958
961
964
961
959
961
967
970
972
973
975
978
981
984
982
983
981
984
985
992
989
985
982
985
987
988
986
982
979
978
978
978
974
973
966
966
968
967
967
960
955
956
958
957
954
951
950
952
953
955
953
953
949
949
951
954
953
948
948
948
952
954
954
951
949
950
953
957
959
956
959
963
969
974
975
972
972
973
978
982
985
982
987
996
1007
1022
1036
1060
1086
1117
1152
1188
1221
1255
1280
1299
1312
1312
1293
1257
1214
1159
1102
1054
1024
1002
991
977
968
967
964
959
950
945
945
943
940
932
930
931
932
933
931
928
925
928
931
933
933
931
926
927
933
935
931
927
929
935
938
942
939
938
936
939
942
943
941
940
937
939
942
941
942
941
938
941
943
944
942
941
942
945
948
953
950
947
946
951
954
956
959
955
955
954
957
960
964
962
963
964
963
967
964
963
964
963
962
967
962
959
952
955
956
955
954
949
944
943
942
947
944
941
937
936
940
945
943
943
941
942
943
947
945
943
940
940
945
947
945
944
942
942
942
946
945
939
941
943
944
945
942
939
934
937
941
945
943
942
942
942
944
946
946
946
946
947
951
955
950
948
943
944
949
951
950
946
941
943
944
946
945
942
942
940
943
946
943
940
940
940
940
943
940
939
936
938
941
945
946
944
942
944
947
944
940
942
938
942
943
947
944
941
938
941
942
947
944
941
937
939
940
944
947
942
939
944
946
948
949
946
941
945
945
949
947
943
942
941
943
946
946
941
942
941
947
949
947
943
940
942
944
948
946
944
942
942
945
947
945
938
938
937
938
941
937
934
936
938
940
947
945
944
943
943
945
947
951
948
947
948
953
953
954
950
951
954
955
960
960
957
954
955
959
961
957
953
949
953
954
953
949
949
945
945
948
951
952
952
949
951
952
955
951
951
951
954
958
960
959
957
963
967
974
986
992
1011
1031
1056
1078
1106
1133
1162
1186
1208
1236
1259
1267
1261
1241
1213
1175
1132
1087
1051
1021
999
982
970
962
957
953
956
957
955
949
945
942
940
941
942
937
932
931
932
931
937
935
931
927
927
928
931
929
924
921
924
927
930
927
924
922
923
927
928
927
926
922
925
926
927
928
926
926
927
928
933
933
931
931
930
934
937
938
935
935
936
940
944
945
946
944
946
954
957
957
958
956
961
963
968
964
966
966
969
970
972
970
969
967
967
969
971
969
968
964
961
963
960
957
951
947
949
950
951
949
947
947
947
948
949
942
943
941
939
942
944
942
940
940
939
942
942
940
940
938
939
943
944
941
943
942
942
946
950
947
942
944
944
948
950
949
946
946
944
947
951
948
945
947
948
949
951
951
946
943
942
948
952
952
951
949
950
953
956
952
947
946
941
942
944
945
941
941
941
945
947
946
945
943
943
945
944
945
943
941
941
943
944
944
940
