971
969
973
976
977
972
969
971
975
975
976
975
970
973
975
978
976
975
972
973
973
979
977
976
973
975
978
983
981
978
977
978
984
988
988
988
987
994
1003
1011
1019
1030
1047
1074
1098
1128
1160
1187
1214
1238
1266
1294
1314
1322
1307
1280
1239
1191
1142
1097
1059
1024
1002
989
985
985
985
985
984
981
979
972
965
962
960
960
957
949
951
951
954
952
952
948
943
948
951
953
955
952
951
954
955
957
956
953
952
954
956
961
964
963
967
968
972
977
978
976
972
974
975
978
978
975
971
973
975
978
977
976
973
975
975
980
980
977
974
977
982
986
987
985
985
986
986
990
992
987
989
991
993
997
995
988
990
988
990
994
991
988
985
983
982
985
981
978
974
974
973
974
968
968
964
965
966
964
967
968
964
966
970
970
965
962
959
960
962
965
964
961
959
958
960
963
961
959
958
958
963
967
964
962
960
960
963
967
966
967
963
967
971
972
972
969
965
965
966
971
970
967
964
963
965
973
971
968
969
972
972
977
974
973
972
973
976
981
979
977
974
977
978
979
977
974
971
971
973
978
977
969
968
967
969
972
971
966
960
960
964
969
970
964
961
963
966
969
969
967
964
964
966
966
968
961
961
963
966
967
966
968
964
965
967
971
969
968
967
962
965
970
967
965
959
958
961
965
966
963
960
964
967
969
972
970
965
962
966
971
972
966
966
966
966
970
969
966
963
963
966
967
964
963
960
965
968
969
971
969
965
966
964
967
971
966
966
966
967
970
972
972
972
973
976
978
981
975
974
973
978
981
979
977
976
978
978
977
981
980
976
977
983
991
993
999
1000
1017
1040
1070
1097
1122
1146
1177
1209
1240
1265
1288
1299
1295
1277
1243
1192
1133
1084
1046
1021
1006
993
985
983
985
986
983
978
974
971
967
969
972
973
969
964
964
963
964
962
958
957
955
957
958
961
957
955
953
958
960
960
958
955
956
957
962
962
957
956
956
958
960
961
958
957
962
964
969
975
973
971
972
977
981
983
984
984
987
989
994
999
1000
1000
1004
1007
1010
1015
1012
1011
1011
1014
1017
1016
1016
1012
1009
1009
1012
1008
1004
998
997
994
993
993
987
984
979
981
983
977
974
969
968
968
970
969
965
961
960
961
963
964
961
957
958
962
966
967
969
964
967
971
973
973
974
969
970
973
978
975
971
968
968
969
974
974
974
970
969
970
973
974
969
965
966
963
969
969
967
963
963
963
968
966
968
965
963
967
969
968
968
966
965
968
968
967
966
964
962
962
969
967
967
965
968
971
978
983
980
977
980
983
985
988
980
977
981
979
985
982
981
978
980
981
984
984
978
978
978
980
982
980
979
981
983
989
996
1002
1012
1032
1058
1091
1123
1158
1192
1223
1255
1289
1315
1321
1304
1264
1213
1153
1097
1047
1007
980
969
973
979
978
972
967
967
969
971
967
966
965
965
968
967
967
963
961
960
962
968
968
966
961
965
966
965
965
958
957
957
958
960
963
960
957
958
960
960
959
960
955
955
960
966
966
965
964
966
969
970
972
973
973
977
983
989
986
986
983
989
989
996
995
994
994
997
999
1003
1002
999
992
990
996
994
990
984
979
977
977
979
975
966
964
962
963
967
963
959
957
956
958
959
958
954
952
952
955
956
955
952
949
951
949
953
956
957
954
951
954
954
956
952
950
949
952
955
954
955
952
956
958
961
960
957
954
954
960
959
961
959
957
957
960
961
962
958
955
956
958
960
959
957
955
953
954
958
954
954
950
952
951
952
954
952
952
952
954
957
955
950
948
951
954
955
957
954
952
954
957
961
962
956
956
956
960
966
966
965
964
965
963
966
965
968
966
967
967
969
962
960
959
963
962
966
965
962
958
962
966
964
963
961
958
958
959
963
964
964
961
962
959
965
964
962
960
960
962
965
963
960
959
960
962
966
964
964
959
961
965
967
967
964
964
969
970
973
970
969
971
976
982
991
996
1001
1014
1039
1072
1105
1131
1161
1191
1221
1250
1280
1297
1305
1286
1256
1209
1158
1106
1061
1024
997
982
982
986
985
980
979
974
970
967
960
955
956
956
959
959
957
951
949
950
952
952
948
943
946
949
952
953
951
949
950
954
957
957
954
952
950
956
959
954
954
951
952
953
959
959
960
961
964
970
974
972
970
972
973
980
981
983
983
979
987
989
995
996
996
995
995
999
1001
1004
998
996
995
996
998
995
994
988
990
989
990
986
981
977
976
975
976
972
969
965
964
963
968
963
960
959
957
960
962
960
956
954
955
955
957
957
954
952
953
957
961
963
962
964
969
973
976
977
975
972
975
978
980
979
975
972
971
972
970
973
968
965
967
970
970
968
964
963
964
967
967
962
961
959
960
961
963
960
958
956
954
955
956
955
952
949
949
953
955
953
949
949
950
955
963
964
961
962
964
965
965
964
960
962
966
970
975
977
974
970
970
974
976
973
969
968
966
967
967
969
965
963
962
966
967
966
962
959
961
962
965
963
961
958
959
961
963
962
959
957
958
960
964
960
958
955
957
959
961
960
959
958
960
965
967
965
963
957
961
962
964
961
960
961
960
963
964
961
957
959
961
966
978
974
973
970
971
971
973
970
970
966
968
971
971
972
968
967
967
969
971
971
969
967
965
969
973
969
970
968
973
977
981
984
988
990
998
1012
1036
1060
1083
1109
1139
1173
1209
1238
1262
1285
1299
1294
1271
1230
1176
1121
1075
1045
1023
1004
993
991
990
994
992
990
982
979
977
977
980
977
973
968
968
969
971
970
967
962
962
965
969
967
965
958
962
962
966
966
962
960
961
961
962
962
961
960
962
969
974
973
971
967
973
976
977
974
974
973
973
980
983
982
980
981
984
988
992
992
990
985
992
993
998
1001
996
999
1002
1007
1010
1007
1006
1007
1006
1005
1003
1006
1000
998
997
996
996
994
987
984
983
986
986
983
976
973
974
976
976
974
972
971
972
976
976
973
970
968
969
971
973
970
963
963
966
966
971
973
971
966
968
973
977
974
970
967
971
975
976
974
973
972
977
979
980
979
977
975
974
980
982
983
979
977
981
985
988
988
985
984
987
989
994
996
1000
1005
1012
1024
1044
1070
1096
1121
1148
1179
1214
1243
1265
1281
1287
1280
1249
1201
1144
1083
1031
1008
995
982
972
971
973
976
975
970
964
961
961
962
961
956
955
955
957
960
962
959
959
955
958
957
964
960
957
956
956
959
963
963
963
963
965
965
969
967
967
965
968
970
977
976
974
973
975
977
981
980
978
977
981
984
988
986
986
984
987
992
994
992
989
988
993
997
999
997
996
995
997
1002
1001
1000
995
996
997
997
998
994
988
982
981
984
986
983
980
977
978
980
978
975
973
972
971
972
974
971
968
970
970
970
974
968
967
966
969
969
973
970
969
967
967
969
971
966
965
961
962
967
964
965
966
962
962
964
967
965
962
960
961
966
964
963
963
962
966
970
976
979
980
980
980
983
985
984
979
978
979
981
981
980
977
972
978
980
982
979
978
974
979
981
980
979
976
974
974
977
979
977
972
972
973
975
974
972
971
971
970
972
974
972
970
966
968
970
973
970
968
968
969
971
970
970
968
966
963
968
968
970
967
967
967
969
969
966
964
963
966
969
974
972
972
971
975
978
982
980
978
978
979
980
982
982
978
975
976
977
980
980
977
974
976
975
978
977
975
974
977
981
979
981
980
979
977
978
982
979
977
977
980
982
983
982
980
982
981
984
982
984
982
979
979
980
983
988
988
995
1000
1011
1033
1053
1072
1095
1126
1157
1187
1211
1239
1262
1290
1314
1320
1305
1273
1225
1170
1123
1082
1043
1012
990
981
984
989
991
984
979
975
975
978
973
970
964
963
963
965
967
961
959
959
962
965
963
961
956
953
956
957
956
953
952
952
953
957
954
950
950
950
953
954
955
955
955
957
959
963
965
964
963
964
967
967
969
965
962
967
973
975
975
980
980
980
985
989
987
987
987
990
994
995
996
993
990
991
995
999
998
996
998
999
1001
1003
1001
995
994
991
993
993
987
981
978
978
978
978
974
970
966
966
967
972
968
967
966
966
968
968
966
962
961
963
962
964
962
959
961
965
965
968
968
962
957
963
966
969
965
964
962
962
968
972
973
968
968
972
977
976
977
973
970
973
972
974
973
967
967
972
973
973
969
967
966
968
968
972
970
965
965
967
972
974
973
971
971
972
976
979
976
974
972
975
978
980
981
978
981
984
991
995
1000
1001
1008
1026
1047
1071
1090
1111
1132
1162
1196
1221
1244
1261
1269
1266
1248
1218
1172
1122
1087
1062
1042
1024
1010
995
989
987
986
984
976
969
964
962
962
962
956
952
950
952
951
950
951
946
946
946
949
951
949
946
946
948
952
955
954
954
955
957
958
958
956
955
954
956
958
960
960
961
959
961
965
966
968
968
970
970
974
974
976
975
974
975
982
984
984
982
979
982
984
987
984
981
983
985
987
991
989
985
985
984
988
989
983
980
980
976
979
978
973
968
964
963
962
964
959
957
956
956
959
958
956
954
954
956
957
959
964
960
959
959
961
963
964
958
958
957
960
961
960
957
954
957
960
960
959
952
953
957
957
961
960
959
955
955
959
961
958
957
955
958
957
960
958
956
955
957
959
956
958
955
956
957
959
957
956
954
951
952
955
953
956
951
952
957
955
962
962
959
961
961
965
966
966
962
962
963
967
969
969
966
964
967
968
971
965
967
964
968
970
970
968
969
968
970
973
977
978
979
980
988
1000
1022
1036
1052
1072
1096
1120
1150
1172
1194
1219
1242
1262
1270
1255
1227
1190
1142
1098
1068
1035
1008
990
981
979
978
980
978
972
968
967
965
963
959
958
955
956
957
952
951
948
951
949
951
950
947
947
947
947
950
949
946
945
947
948
949
950
949
948
948
952
951
953
953
954
952
956
960
960
958
958
960
962
966
965
963
963
964
969
970
968
967
967
970
976
978
977
979
979
984
989
995
995
995
995
997
996
999
996
996
993
993
993
991
987
984
978
977
977
977
974
967
963
965
962
962
954
952
950
951
954
955
952
949
946
949
951
952
950
947
946
947
954
958
956
957
954
953
957
958
955
953
951
953
959
960
956
956
955
960
962
966
967
964
962
963
966
967
965
962
958
959
961
963
963
958
955
955
955
955
957
954
955
955
957
961
957
957
953
955
959
961
960
956
952
955
958
956
957
953
954
955
957
959
957
957
960
962
963
967
966
966
965
967
970
970
967
963
964
967
970
970
969
968
966
968
970
971
968
965
963
962
966
967
966
962
960
960
961
964
965
962
964
965
968
967
967
966
963
966
970
974
972
969
965
968
970
976
978
979
979
985
993
1003
1014
1029
1052
1080
1110
1139
1172
1199
1228
1256
1284
1298
1294
1271
1232
1187
1135
1089
1049
1015
992
979
978
982
982
977
971
967
967
966
960
956
951
950
950
948
946
943
941
942
944
945
945
943
944
943
947
948
948
946
946
949
953
953
952
950
950
954
956
959
960
960
965
968
973
977
976
975
975
976
978
982
983
981
979
980
987
987
988
984
985
990
992
994
991
989
990
990
993
995
992
991
989
991
991
992
990
987
982
984
986
987
983
978
975
975
978
976
972
970
968
964
966
968
966
964
963
963
967
969
967
964
964
966
970
968
969
969
968
966
970
973
972
972
972
974
976
979
976
975
973
973
976
978
977
973
974
975
979
979
977
973
973
972
976
976
975
972
970
968
974
973
973
967
968
970
972
971
968
970
970
972
975
979
979
976
977
977
982
985
984
982
982
987
992
1000
1005
1010
1020
1034
1059
1083
1102
1125
1157
1191
1219
1249
1274
1294
1295
1283
1256
1217
1161
1108
1063
1030
1009
991
981
978
979
983
981
977
973
967
960
960
955
952
953
950
947
946
946
950
948
946
947
947
950
950
950
948
947
948
952
953
952
948
951
952
956
957
954
949
948
951
954
955
955
954
954
955
957
959
958
956
958
964
969
971
971
971
974
977
982
986
986
984
982
986
993
994
992
993
991
997
997
998
996
992
988
991
991
987
985
980
979
977
979
979
977
975
970
970
971
968
968
962
959
961
963
968
966
965
964
966
969
968
967
961
961
963
965
967
965
962
960
959
965
966
963
960
958
961
965
967
968
968
966
968
970
969
969
965
966
965
969
969
968
963
961
967
971
970
969
966
966
964
966
969
970
966
964
967
968
972
970
966
968
970
971
973
969
965
966
965
968
970
967
962
960
962
963
967
963
959
957
961
962
968
966
964
961
965
967
971
966
964
961
964
968
969
969
963
962
967
968
971
969
965
964
968
972
972
972
968
969
972
975
974
974
974
972
975
979
978
976
977
975
975
978
982
981
979
981
976
983
987
983
989
993
1001
1007
1018
1035
1057
1084
1110
1140
1172
1201
1228
1251
1279
1299
1299
1279
1243
1203
1152
1107
1073
1044
1018
999
991
990
994
989
981
973
973
971
971
968
966
966
967
968
966
963
960
960
958
958
960
960
961
957
962
968
969
968
965
963
964
966
969
967
961
959
962
968
968
967
966
967
970
971
976
974
974
974
975
979
982
980
978
978
980
984
987
984
983
982
988
993
996
996
993
995
998
1003
1004
1006
1001
1004
1005
1006
1009
1007
1000
997
995
996
994
989
985
984
986
990
989
984
981
979
980
979
982
979
974
975
978
979
979
979
973
974
974
978
975
978
976
973
974
975
975
976
974
972
971
975
977
974
972
971
974
976
978
979
978
977
980
982
984
984
987
990
996
1006
1017
1031
1055
1083
1117
1147
1175
1205
1233
1262
1290
1304
1298
1270
1225
1167
1110
1066
1038
1021
1004
995
994
997
993
992
985
976
974
975
973
974
966
962
962
965
962
961
958
956
954
953
952
953
948
946
950
951
952
953
949
947
947
953
956
953
950
950
955
957
958
957
953
952
953
963
965
967
963
963
968
977
981
981
984
986
991
995
996
997
997
996
1002
1008
1009
1007
1001
1004
1007
1011
1010
1007
999
994
998
1000
998
994
986
985
981
982
982
978
976
972
972
975
976
972
969
968
969
973
973
969
965
963
965
969
971
969
965
962
965
969
967
965
964
962
967
970
972
974
976
974
974
980
980
978
977
978
980
982
983
981
979
977
980
983
982
982
980
976
979
982
989
989
995
1003
1017
1032
1056
1083
1108
1136
1165
1195
1229
1256
1274
1285
1294
1285
1257
1212
1159
1100
1054
1025
1006
993
982
978
979
980
975
970
962
962
960
962
963
960
958
956
956
956
956
955
951
951
951
952
953
953
952
950
953
955
954
954
952
948
952
954
956
955
950
952
954
956
958
958
957
954
960
961
962
965
961
961
966
971
974
973
967
973
976
978
978
977
975
976
978
984
985
984
983
983
987
991
992
990
986
982
986
986
987
982
980
977
978
978
979
972
968
968
968
972
970
967
962
960
961
965
963
961
959
957
961
965
963
962
962
963
964
969
969
969
967
965
968
969
969
971
968
967
968
971
969
969
965
965
968
968
969
968
963
963
961
963
963
965
964
964
964
969
970
969
965
966
967
971
972
971
962
964
967
969
968
967
966
963
965
966
968
963
964
963
964
966
968
967
965
961
964
966
968
965
963
960
963
964
965
963
959
959
958
966
967
965
963
962
961
966
968
969
963
967
966
969
972
968
965
967
970
972
975
976
970
975
980
988
996
1000
1004
1016
1037
1065
1094
1125
1152
1184
1216
1249
1282
1302
1311
1301
1274
1234
1183
1122
1072
1035
1009
990
985
980
980
982
979
977
972
967
959
952
955
959
956
955
951
949
948
951
952
950
944
943
946
947
947
946
944
942
945
947
950
950
947
946
948
951
952
950
946
950
951
956
959
956
956
958
959
963
967
966
965
967
967
971
974
974
972
970
973
980
982
981
978
978
982
983
986
984
979
978
980
984
982
983
979
977
978
979
981
975
970
967
968
971
970
968
960
959
961
963
962
957
953
952
956
961
961
965
961
962
964
969
971
970
968
965
969
972
974
973
970
969
965
973
973
974
973
973
975
981
979
977
973
972
972
973
976
972
968
968
967
971
970
970
967
966
966
964
966
958
958
959
960
962
959
960
956
954
956
958
958
956
954
951
956
958
961
960
960
958
961
963
964
965
965
966
970
973
975
971
974
972
974
977
976
973
971
972
973
974
974
973
968
968
971
971
970
967
960
960
964
966
965
966
962
963
962
961
963
963
963
963
967
967
969
968
968
967
971
975
979
979
983
990
1004
1030
1060
1088
1118
1150
1181
1212
1243
1272
1289
1292
1276
1245
1199
1146
1099
1062
1031
1002
987
982
977
977
979
975
973
970
964
959
959
960
958
957
953
953
950
954
954
950
945
941
945
946
946
946
942
942
944
948
949
945
943
946
942
946
949
946
945
946
949
953
952
952
950
953
954
960
958
958
958
960
962
965
965
965
965
962
966
969
969
967
960
964
967
969
971
969
968
966
970
974
973
970
968
969
971
971
973
970
965
966
965
969
971
969
969
968
969
970
971
965
961
