959
960
953
950
954
957
959
959
959
958
961
966
966
967
960
960
963
969
966
965
960
961
965
966
969
967
961
963
966
968
968
967
965
963
964
967
967
967
962
960
964
964
967
966
961
958
961
963
964
964
959
958
960
962
961
957
952
952
955
956
953
947
940
939
939
942
942
938
935
936
937
941
942
942
938
941
944
947
948
948
953
951
956
960
962
961
962
965
972
974
974
978
974
973
979
982
983
984
981
986
991
999
1004
1011
1025
1050
1078
1110
1146
1177
1212
1248
1280
1310
1322
1310
1282
1232
1169
1114
1068
1035
1007
994
986
986
984
981
974
964
961
958
958
953
946
944
943
941
941
939
933
932
934
932
936
933
928
923
925
930
932
930
929
929
932
934
935
938
936
937
939
944
946
943
943
945
950
957
962
960
957
957
959
962
963
962
958
958
964
969
968
968
965
967
968
974
978
975
974
974
977
982
980
977
976
978
977
979
977
973
965
964
965
968
964
957
954
952
953
954
949
947
941
940
940
940
940
936
935
934
935
938
939
937
933
937
938
942
941
946
947
948
952
957
955
957
953
956
959
962
963
962
961
962
965
971
976
973
971
973
974
975
979
977
974
974
978
981
979
975
970
971
972
975
977
979
977
975
978
980
979
975
975
974
974
975
976
974
970
969
969
970
971
969
966
966
966
965
964
962
958
954
956
957
954
953
952
949
951
955
956
954
951
954
956
967
971
980
982
1001
1033
1070
1111
1150
1193
1238
1279
1315
1349
1376
1383
1368
1335
1280
1206
1133
1074
1028
996
982
980
983
985
981
978
976
972
967
956
956
952
954
953
949
947
940
942
947
948
947
942
944
943
948
948
946
944
941
945
945
943
942
938
937
938
942
941
940
932
929
929
931
929
930
926
927
927
929
930
926
920
920
920
923
927
927
926
927
932
936
937
941
943
947
951
956
960
958
959
964
971
978
983
985
983
982
985
985
987
983
978
972
975
976
978
974
972
971
971
975
974
973
969
969
969
970
974
969
965
966
968
970
972
972
967
966
970
972
972
970
965
964
967
969
969
966
961
958
960
960
960
956
957
954
956
957
955
950
951
949
952
956
955
954
955
956
956
962
963
963
961
960
963
966
965
966
966
969
976
978
980
977
971
971
972
975
975
974
971
972
972
973
973
975
972
971
972
972
971
970
968
968
966
973
971
973
969
968
973
976
979
978
978
979
986
1000
1016
1043
1068
1100
1139
1186
1229
1269
1303
1329
1349
1348
1324
1274
1209
1137
1078
1036
1000
975
960
960
963
966
959
956
949
945
947
952
949
944
943
943
943
947
947
947
948
951
953
955
955
952
949
949
952
955
952
949
948
945
947
954
950
952
951
950
955
956
955
952
951
951
951
954
953
951
950
945
950
954
951
947
949
944
948
949
948
948
947
948
948
951
953
952
950
948
952
952
952
952
948
947
948
950
949
948
945
944
946
947
947
946
942
944
947
950
948
950
951
950
952
954
954
954
956
956
961
963
964
966
962
963
965
964
964
964
961
961
961
962
962
962
960
962
963
966
965
967
961
960
960
964
964
964
960
960
960
963
960
961
958
957
959
960
962
959
956
954
951
954
955
953
950
948
952
950
947
944
941
940
940
942
943
942
939
938
940
941
943
943
944
949
954
962
969
983
1007
1036
1070
1105
1146
1186
1226
1263
1301
1333
1353
1352
1328
1290
1234
1173
1118
1077
1038
1012
999
995
995
992
987
980
976
975
973
966
960
959
957
958
954
951
946
944
947
950
948
945
944
939
940
944
939
941
937
937
942
943
942
939
932
934
936
938
937
934
928
926
928
931
930
927
922
917
922
926
927
921
917
917
921
923
923
922
921
924
926
930
933
931
929
928
935
939
944
945
944
946
953
958
962
965
966
970
973
976
978
976
970
971
971
975
970
966
963
962
962
964
964
962
959
957
960
959
954
955
950
952
952
955
954
949
948
950
950
953
953
949
948
946
949
951
950
949
948
946
947
950
950
946
945
942
944
948
946
943
936
932
937
938
939
936
933
932
936
938
937
935
934
934
938
943
942
941
942
943
947
950
953
951
950
950
955
961
962
965
966
968
970
969
973
969
968
966
970
975
973
971
970
968
970
973
973
972
970
964
967
970
970
971
965
967
969
971
971
970
965
964
967
969
971
968
965
967
968
970
969
964
960
961
960
965
964
962
957
953
956
956
958
956
952
948
952
953
953
946
943
944
946
950
956
958
957
960
966
976
980
987
999
1017
1046
1080
1114
1150
1186
1227
1270
1305
1335
1350
1349
1330
1299
1250
1189
1130
1083
1045
1018
1000
989
986
984
983
979
978
973
969
963
958
957
958
957
954
949
946
945
949
946
947
940
937
939
941
943
941
939
936
938
940
940
937
932
932
931
931
929
925
921
919
920
922
924
922
917
916
918
922
924
924
923
924
928
932
934
934
937
940
944
945
945
946
945
946
952
961
965
968
972
976
981
981
985
985
984
984
989
991
989
987
984
984
984
985
985
982
975
973
976
978
976
975
971
967
967
969
972
968
961
964
964
967
969
963
960
960
963
961
961
960
958
955
956
958
958
955
949
946
945
949
949
948
946
945
944
947
945
943
938
935
939
943
944
941
941
943
947
952
952
957
957
954
957
961
963
962
961
962
968
973
977
974
973
971
971
973
974
971
966
967
968
972
974
968
968
969
972
975
973
974
969
968
973
972
975
974
970
971
974
976
977
976
976
977
981
985
989
992
1001
1018
1045
1074
1103
1141
1178
1218
1258
1296
1328
1350
1354
1337
1305
1258
1193
1130
1071
1026
990
965
953
952
953
951
953
952
948
943
939
936
938
944
943
941
942
939
942
946
946
945
943
948
952
955
958
957
954
954
951
956
958
954
950
951
955
958
960
959
954
954
958
958
957
955
954
954
956
960
959
959
954
954
958
960
961
957
956
956
955
959
961
959
952
959
959
962
963
960
956
958
962
963
962
965
957
956
957
960
957
950
946
944
948
951
950
944
942
940
942
944
947
943
943
944
949
953
956
953
952
948
952
953
955
956
954
957
961
967
970
969
968
966
968
971
971
968
967
967
969
971
972
972
967
968
969
973
972
970
969
969
969
973
971
971
968
966
966
970
968
967
964
963
967
970
970
968
963
961
966
967
967
965
961
959
961
962
963
956
954
948
949
950
951
947
944
939
942
942
942
942
940
940
943
943
946
946
945
948
952
957
958
958
959
958
961
965
965
965
966
969
977
983
982
979
978
977
980
983
985
980
979
983
987
991
987
990
988
991
1001
1007
1015
1022
1038
1064
1091
1123
1153
1186
1223
1255
1290
1322
1347
1358
1351
1330
1297
1241
1182
1131
1084
1046
1019
999
989
986
980
979
977
975
969
962
954
950
948
947
945
940
935
934
936
936
936
932
926
924
928
929
934
932
931
930
933
937
935
938
939
938
940
942
943
943
939
943
945
953
954
955
954
953
957
963
960
960
958
953
958
962
964
962
961
960
962
965
967
966
964
962
966
970
970
969
968
972
973
975
982
982
979
980
980
986
984
981
977
977
972
973
971
973
967
965
966
966
962
958
953
953
952
951
947
946
941
939
940
941
939
937
936
936
937
940
940
938
937
939
939
946
948
947
945
949
952
960
961
958
959
960
963
968
971
971
970
973
976
979
981
979
976
977
979
983
983
981
979
979
984
986
985
981
976
978
979
981
985
983
978
976
978
979
979
980
975
973
976
979
981
983
976
976
978
982
980
975
976
973
975
976
975
975
972
970
971
970
968
972
970
970
975
989
1001
1018
1041
1067
1099
1133
1170
1215
1251
1288
1325
1347
1351
1332
1294
1239
1178
1122
1071
1036
1004
984
981
984
991
987
983
975
973
970
967
961
958
954
953
954
955
952
951
951
952
954
949
947
945
944
946
946
949
946
941
942
944
947
946
945
938
939
940
945
946
943
938
936
943
943
943
943
940
940
943
944
943
937
936
935
936
938
935
931
928
930
931
934
932
931
926
927
931
934
938
938
940
943
949
955
955
957
956
961
966
968
970
967
965
963
969
974
974
973
971
973
977
981
978
974
972
968
969
975
977
974
970
968
972
975
972
974
971
970
973
975
975
973
971
968
969
973
972
970
965
966
968
971
973
974
971
969
971
974
973
973
969
969
970
970
969
968
963
959
955
954
958
953
950
948
949
948
949
949
944
946
947
951
954
952
948
949
956
961
961
961
960
959
962
968
970
971
971
977
979
985
985
979
977
977
976
980
981
979
976
976
981
982
981
979
976
975
979
980
981
980
978
977
981
984
986
987
984
986
993
999
1009
1024
1046
1075
1112
1146
1187
1229
1264
1300
1334
1363
1366
1346
1302
1240
1172
1117
1071
1033
1002
984
977
977
973
967
960
953
950
951
951
948
946
943
946
951
950
950
948
945
952
953
951
952
952
956
961
966
965
965
961
959
961
965
964
963
965
965
963
970
967
966
964
964
967
970
971
966
963
965
970
973
971
970
967
966
971
976
975
973
970
973
978
981
984
981
979
981
985
988
987
983
977
978
976
977
976
972
967
968
966
965
963
957
953
952
955
956
955
954
953
954
957
960
962
959
957
960
966
969
972
972
972
975
980
983
980
980
977
977
979
985
982
979
976
973
979
982
981
979
975
978
978
979
977
976
970
973
973
974
975
974
971
972
974
975
979
977
973
968
969
973
974
970
966
965
968
968
969
964
960
957
953
954
954
952
947
946
946
949
949
948
946
947
951
951
955
953
954
959
964
969
970
968
963
967
971
976
982
981
982
987
989
991
991
985
982
983
984
989
988
984
984
988
992
992
992
988
988
989
990
994
994
994
990
992
997
1004
1006
1008
1013
1026
1056
1091
1127
1163
1202
1240
1280
1314
1346
1366
1367
1347
1313
1261
1194
1131
1078
1034
1003
984
979
974
975
970
965
963
958
952
947
944
948
952
950
950
946
947
952
956
957
957
951
952
953
954
957
955
956
958
960
967
967
963
963
962
965
966
966
965
959
961
965
967
967
966
964
965
968
971
970
969
968
965
969
971
970
969
966
966
968
973
973
970
969
970
974
978
979
974
974
974
973
977
976
971
969
969
967
967
964
958
950
948
950
952
953
950
948
952
956
958
960
961
960
966
969
972
973
970
969
972
977
982
985
983
984
984
986
988
989
986
986
986
988
991
992
990
987
989
989
992
993
993
992
992
992
999
999
999
998
999
1004
1013
1019
1028
1040
1066
1101
1139
1175
1207
1239
1279
1318
1353
1376
1379
1360
1320
1259
1184
1110
1055
1018
990
980
974
972
967
960
950
951
946
941
939
935
933
933
936
938
935
936
938
940
942
941
941
939
942
945
951
951
949
948
949
949
952
952
950
947
948
949
953
952
952
947
944
950
956
953
952
951
952
953
955
956
958
956
957
960
966
966
966
965
965
968
972
975
974
972
973
973
975
979
973
967
963
961
964
960
958
951
947
952
953
950
945
942
938
942
947
948
946
946
948
950
955
959
958
954
955
960
964
964
965
966
969
976
980
979
978
977
974
978
978
980
975
979
980
982
983
982
980
978
976
981
981
982
978
977
975
978
978
976
975
973
973
972
973
971
970
970
967
968
971
969
965
959
960
958
958
956
953
951
946
948
951
947
947
944
942
940
942
943
944
941
940
943
945
946
949
949
949
954
957
955
953
951
952
957
963
967
967
965
963
968
969
971
967
967
964
965
972
973
971
968
964
968
972
972
969
967
966
969
969
970
965
966
962
966
972
972
969
965
966
966
970
970
971
971
971
975
982
984
988
998
1012
1041
1071
1102
1135
1167
1209
1246
1281
1313
1336
1345
1334
1310
1266
1203
1136
1079
1033
1004
986
972
964
959
960
961
961
958
951
947
945
942
944
945
944
942
947
952
955
954
952
947
947
948
947
950
945
945
944
947
949
950
950
944
944
948
951
950
944
940
941
945
948
948
944
943
943
946
947
946
945
942
942
947
947
945
942
942
944
943
946
943
941
940
940
943
946
946
947
947
946
946
951
949
950
946
946
949
950
951
948
947
946
949
955
952
950
947
948
951
953
957
955
958
956
960
963
959
959
955
954
956
960
963
960
956
953
955
958
959
956
954
956
958
961
960
960
954
954
958
960
960
956
955
954
961
965
964
963
962
963
971
979
988
1002
1026
1059
1098
1134
1168
1202
1240
1278
1309
1328
1324
1301
1259
1198
1130
1068
1025
994
974
958
950
952
952
949
943
939
938
939
936
934
933
935
941
944
945
940
936
933
934
941
941
937
935
934
938
941
940
938
937
935
935
938
937
934
934
935
937
938
937
935
937
936
934
938
940
940
938
941
938
941
943
941
939
939
943
945
947
946
944
942
943
948
947
947
944
945
948
949
949
947
938
942
942
943
942
941
938
936
942
944
942
942
942
939
941
943
944
946
945
945
948
953
955
953
951
949
953
954
956
953
947
951
954
956
954
955
949
949
953
957
957
953
950
951
952
955
954
954
949
950
953
956
953
954
953
951
954
955
954
953
951
951
957
964
968
972
979
997
1023
1047
1077
1106
1135
1174
1210
1244
1272
1295
1303
1295
1269
1230
1171
1109
1054
1015
985
970
958
953
949
945
942
943
938
936
935
932
937
939
937
930
927
924
928
931
931
928
925
924
924
929
930
925
923
921
921
924
926
924
921
918
920
922
920
919
915
915
917
918
920
919
915
912
915
920
919
915
912
911
912
915
914
912
911
910
908
912
910
908
905
905
907
907
913
914
909
913
914
920
918
920
919
919
922
927
930
929
927
927
932
937
939
936
932
930
935
939
941
942
942
942
946
951
952
947
948
946
949
951
950
950
948
944
949
952
950
948
947
944
947
953
952
952
948
949
951
955
957
952
952
953
956
961
961
963
962
968
976
990
1001
1016
1035
1067
1099
1130
1162
1197
1230
1264
1291
1311
1317
1304
1271
1220
1158
1092
1041
1002
978
958
948
943
941
943
937
935
934
933
933
930
925
925
927
929
928
925
925
924
930
931
932
926
926
927
930
934
936
934
929
931
932
938
938
935
933
932
933
937
936
935
931
930
933
933
934
930
930
931
933
936
936
936
931
931
933
937
938
936
935
939
941
944
947
948
948
944
948
951
950
944
941
939
941
943
941
936
935
931
931
933
930
928
927
928
931
933
933
931
931
932
936
942
941
937
936
939
945
949
949
952
949
950
953
959
958
956
954
954
957
960
960
959
959
959
963
963
964
961
959
960
963
966
966
964
961
962
962
967
965
966
962
962
968
969
970
968
970
975
984
995
1012
1029
1047
1073
1101
1132
1163
1192
1222
1252
1286
1314
1321
1312
1282
1241
1185
1129
1079
1035
1003
976
962
958
957
954
949
947
944
943
942
938
931
928
932
934
933
932
931
932
936
941
939
934
932
930
931
937
936
933
929
929
930
934
932
931
926
928
931
934
930
928
925
924
924
927
926
923
920
920
921
924
922
921
918
916
919
920
916
914
911
909
912
914
914
914
912
910
914
915
916
912
912
912
917
919
923
921
922
924
923
926
927
923
922
925
925
930
932
929
927
927
931
937
936
935
934
936
938
941
940
938
938
941
946
949
951
952
951
952
950
953
953
950
950
952
954
957
958
955
952
954
955
960
960
961
957
958
958
963
962
957
959
956
957
961
964
961
958
960
963
966
968
966
970
970
974
984
994
1009
1032
1059
1085
1111
1140
1170
1198
1229
1260
1286
1299
1300
1279
1246
1207
1153
1100
1059
1025
993
972
957
949
943
941
940
937
937
932
930
928
926
927
930
926
923
920
922
925
931
930
929
928
929
933
933
933
931
929
926
930
935
932
931
928
927
928
933
934
930
928
929
931
934
932
930
926
927
926
929
925
923
919
920
924
923
924
925
920
922
925
930
930
927
924
928
929
936
938
935
935
934
939
943
941
941
935
932
935
937
935
934
925
925
923
927
925
923
921
921
921
928
926
924
921
924
929
933
933
930
929
933
935
939
942
943
944
945
949
955
955
955
953
954
954
953
955
953
954
952
954
958
959
957
955
956
957
960
958
958
956
954
956
959
958
958
956
958
961
962
962
965
964
970
974
984
993
1006
1024
1048
1072
1100
1125
1154
1186
1217
1245
1270
1289
1294
1284
1265
1229
1184
1128
1081
1044
1011
982
966
951
945
940
936
935
933
928
923
923
922
923
926
925
921
920
920
924
925
929
929
929
930
931
934
931
929
925
925
927
931
932
930
928
931
931
935
934
931
924
929
930
932
930
926
924
923
923
928
927
925
922
922
923
924
923
921
918
918
922
925
925
921
919
919
926
928
928
927
924
927
932
936
935
933
933
931
927
932
932
930
923
922
926
927
926
924
921
918
922
927
926
923
924
927
932
935
935
932
932
932
937
944
945
944
945
944
951
954
953
952
951
950
952
954
955
951
952
954
956
955
956
955
955
954
957
958
960
957
955
957
956
961
963
961
960
963
972
979
984
989
1004
1026
1058
1085
1111
1134
1158
1195
1229
1260
1282
1296
1298
1286
1265
1224
