962
958
960
962
969
972
970
968
968
971
973
982
980
980
980
979
984
988
986
982
980
983
984
987
987
982
980
980
986
988
987
981
982
983
987
992
990
987
985
986
989
987
987
988
985
987
990
991
987
982
980
983
987
992
990
987
988
993
997
1008
1014
1020
1036
1060
1083
1110
1134
1158
1189
1228
1260
1289
1313
1326
1321
1302
1269
1222
1160
1105
1062
1036
1016
998
989
980
978
979
974
974
972
967
967
969
972
974
969
966
959
963
964
966
962
958
955
956
956
957
959
953
952
952
956
959
956
954
950
952
954
955
957
952
949
951
951
955
952
949
948
951
950
952
951
947
944
943
951
952
949
945
939
942
943
941
943
942
940
940
941
946
947
948
948
950
955
957
956
950
953
955
959
963
960
959
956
958
962
968
967
968
965
969
971
974
971
972
976
976
980
984
981
980
983
983
984
987
984
982
982
983
984
986
986
985
985
986
990
991
988
987
983
985
987
990
988
986
986
990
992
996
992
993
994
994
1000
1002
1005
1008
1017
1033
1056
1082
1109
1132
1156
1187
1224
1257
1285
1308
1324
1328
1317
1284
1231
1170
1109
1066
1039
1018
995
977
968
968
969
969
961
960
955
957
956
957
956
951
951
952
956
960
961
960
958
958
961
963
962
958
958
959
959
961
959
957
954
956
957
957
955
955
955
953
954
957
954
951
949
948
952
952
952
948
949
951
952
953
952
947
946
948
952
954
954
950
948
956
961
960
960
960
959
960
963
962
962
961
955
960
963
961
960
955
954
957
957
958
959
956
956
959
962
966
962
964
965
968
974
978
975
976
976
983
986
987
988
986
986
986
987
989
989
987
988
989
991
994
992
988
989
992
995
997
995
989
987
989
993
996
992
989
990
992
996
995
993
991
992
992
994
1002
1001
1002
1004
1009
1019
1034
1054
1077
1100
1128
1153
1188
1217
1247
1280
1310
1334
1344
1329
1293
1246
1189
1133
1086
1048
1006
983
973
970
977
974
970
964
962
963
965
963
957
955
957
961
964
965
963
962
963
965
963
960
958
955
958
960
966
961
958
956
958
960
962
961
955
957
955
958
963
960
956
950
953
953
953
951
949
946
948
951
952
951
947
947
946
951
952
949
944
944
947
953
956
955
955
952
959
964
964
964
959
957
963
966
970
967
964
958
959
962
963
961
960
958
959
964
970
971
969
967
969
972
977
977
975
974
975
981
984
988
985
987
988
989
991
994
990
991
990
993
994
994
992
991
988
991
990
992
991
988
992
992
994
992
990
988
990
995
996
992
993
988
990
994
995
994
997
997
1001
1006
1012
1018
1027
1042
1070
1095
1126
1150
1176
1205
1238
1276
1306
1332
1352
1357
1348
1325
1278
1209
1142
1087
1048
1019
994
979
966
968
969
969
963
959
956
950
950
953
952
947
944
943
941
948
949
954
953
950
956
958
958
956
951
949
949
954
956
954
951
949
948
951
954
951
950
945
948
952
953
948
946
943
945
946
949
946
943
938
941
943
944
943
937
938
938
938
946
944
943
941
944
949
950
951
947
950
950
956
957
955
953
951
952
955
956
953
947
949
948
950
951
952
950
953
950
954
962
961
959
963
966
966
967
971
970
970
971
978
981
982
982
980
982
985
987
984
986
981
980
987
989
987
985
983
982
986
989
988
986
986
989
991
992
992
987
985
987
991
992
994
994
993
994
999
1003
1001
1006
1013
1027
1049
1075
1103
1128
1151
1179
1217
1256
1285
1309
1331
1343
1342
1327
1289
1234
1173
1118
1079
1051
1021
992
972
967
965
966
960
951
946
942
945
943
942
937
938
936
939
940
941
938
934
937
942
943
944
942
942
945
946
949
947
942
942
940
947
948
948
943
942
943
946
945
941
938
939
941
943
944
942
937
936
938
939
942
941
936
934
936
939
938
938
939
938
939
943
943
944
947
947
950
952
957
957
958
958
957
961
962
960
955
955
953
954
955
954
951
945
947
946
949
948
944
940
942
943
951
950
948
947
951
953
959
959
956
959
960
962
968
969
971
971
975
978
984
983
982
981
981
982
984
981
979
977
979
979
982
981
981
976
980
982
983
981
978
976
978
978
980
980
978
975
978
979
982
981
976
977
976
979
983
985
978
978
982
985
990
993
995
1001
1012
1037
1061
1086
1105
1131
1167
1208
1245
1276
1299
1317
1324
1306
1284
1235
1178
1122
1079
1048
1023
994
976
966
968
967
969
963
954
948
944
945
948
946
946
945
949
952
951
950
947
941
946
948
950
946
943
941
942
945
944
943
940
938
938
943
944
943
943
938
940
942
944
940
937
934
936
938
940
937
935
933
934
936
939
937
933
929
929
934
937
934
933
933
931
935
939
939
935
933
936
939
942
945
944
938
942
945
947
948
947
942
946
946
953
951
951
951
952
954
957
955
954
958
958
964
968
967
967
967
966
971
974
971
968
967
969
968
969
968
967
965
967
966
971
971
967
966
968
970
972
969
970
969
968
970
972
970
969
969
969
972
971
972
969
967
969
971
971
973
973
969
969
973
977
981
981
984
993
1000
1024
1043
1067
1089
1115
1144
1179
1213
1240
1265
1291
1306
1308
1287
1246
1190
1126
1073
1032
1004
982
967
963
968
971
968
961
958
956
960
961
960
958
955
955
959
960
956
951
950
954
954
957
955
950
950
952
952
953
951
949
947
946
949
949
948
946
944
946
947
949
948
948
949
951
951
953
951
950
948
947
949
952
947
945
943
944
944
950
947
943
940
943
944
946
949
947
950
952
955
957
957
953
953
954
956
958
960
956
958
959
961
964
963
962
960
958
963
968
972
971
970
973
977
980
979
978
974
976
979
980
979
975
973
972
976
977
981
979
978
978
982
984
981
979
976
977
979
981
982
978
977
976
981
984
985
982
982
984
989
995
1001
1005
1018
1041
1072
1103
1130
1153
1183
1220
1258
1290
1313
1322
1313
1286
1249
1191
1125
1069
1040
1016
1003
984
973
968
967
967
965
966
961
956
953
955
958
962
959
961
957
957
960
960
959
955
952
953
957
958
958
954
955
954
957
957
954
954
953
952
954
958
955
950
948
949
952
954
954
950
945
948
951
953
952
948
945
946
949
949
948
943
944
947
952
955
956
951
952
955
957
958
960
958
958
959
960
959
957
954
952
951
954
957
957
956
955
958
960
963
961
960
962
963
965
970
970
969
973
976
980
979
979
981
977
981
983
985
983
982
981
980
984
986
984
981
981
982
983
986
983
982
978
982
985
986
986
984
984
984
985
987
983
982
982
985
987
993
994
996
1001
1011
1031
1057
1085
1107
1131
1162
1196
1232
1263
1293
1312
1321
1313
1285
1231
1159
1100
1055
1028
1006
986
975
969
976
977
976
969
966
958
960
962
964
968
967
965
965
965
968
965
964
961
962
965
966
965
963
961
958
963
965
963
959
957
955
960
962
960
958
954
953
954
954
954
950
949
948
955
956
956
951
949
948
949
953
951
949
946
948
950
952
953
946
950
951
955
958
959
956
956
959
963
966
967
962
963
963
967
970
970
967
970
971
975
976
971
970
971
975
979
983
981
978
979
978
982
985
981
982
982
981
984
987
985
981
979
981
985
985
986
979
981
984
985
988
987
982
985
985
984
988
988
987
986
987
990
991
992
993
994
996
1008
1018
1029
1049
1076
1104
1134
1164
1197
1232
1267
1298
1325
1339
1334
1306
1256
1190
1128
1076
1031
999
981
971
972
977
975
973
966
964
965
963
963
959
959
961
964
967
962
958
953
956
959
960
956
950
952
950
954
956
955
951
946
949
952
953
951
949
948
947
951
951
951
945
946
946
947
948
945
945
940
942
944
943
944
943
941
941
945
947
946
943
947
949
954
958
958
957
955
953
958
960
960
956
957
959
960
962
964
960
959
960
967
969
967
967
962
964
969
973
973
976
975
978
981
979
980
979
975
977
979
981
980
978
976
979
981
985
982
980
978
980
983
984
981
976
973
977
981
983
980
977
977
976
980
984
980
974
975
976
976
978
974
974
973
972
969
970
969
968
970
972
982
989
1004
1026
1057
1089
1129
1172
1219
1260
1298
1335
1358
1360
1347
1303
1240
1169
1111
1061
1025
1000
990
992
997
998
988
980
971
970
970
968
964
961
954
955
958
959
956
953
949
948
949
950
950
945
944
942
944
945
943
939
935
936
937
939
937
935
934
932
935
937
938
933
929
926
928
929
929
923
920
917
918
918
912
910
907
910
911
915
916
915
913
920
922
928
930
932
937
942
947
952
952
953
956
961
961
962
963
960
962
966
970
973
973
972
973
976
976
975
973
970
971
973
975
974
974
972
972
973
976
978
975
973
972
972
974
977
976
971
971
972
974
976
975
974
973
973
974
977
973
967
969
970
970
970
968
964
963
961
961
961
958
952
951
951
954
955
953
948
946
949
952
955
956
957
958
959
966
973
981
983
993
1016
1048
1083
1116
1147
1187
1235
1277
1313
1344
1359
1361
1340
1299
1237
1171
1112
1072
1044
1024
1005
998
990
986
981
978
972
967
960
956
953
953
954
952
946
947
948
949
951
944
943
940
940
943
943
938
940
936
934
935
937
934
931
926
924
924
924
926
922
922
921
923
922
918
918
918
916
918
921
923
920
920
925
929
933
934
939
939
944
949
952
959
959
964
969
975
978
981
978
974
977
976
978
976
975
968
970
971
970
969
967
963
966
967
967
966
965
962
963
963
966
964
960
959
959
960
961
961
961
957
958
958
961
958
957
954
955
956
959
956
952
949
948
948
948
947
943
941
942
944
947
945
939
935
936
943
946
948
944
946
946
951
956
958
957
955
958
964
968
967
969
971
977
982
983
980
979
976
974
978
984
981
978
976
980
982
985
979
979
975
978
980
982
980
976
974
975
980
982
979
974
973
976
976
979
979
975
973
973
977
980
979
978
978
983
990
995
999
1009
1029
1057
1087
1121
1154
1188
1225
1265
1301
1328
1344
1340
1316
1282
1227
1169
1110
1062
1028
997
982
974
974
970
961
963
960
957
954
946
947
949
953
956
955
949
947
947
950
947
945
942
942
943
947
948
947
943
940
944
943
943
944
941
938
942
944
945
946
939
939
940
943
943
943
939
940
939
944
946
945
942
938
940
943
944
941
938
935
939
938
940
936
933
934
939
943
947
943
945
944
944
951
954
953
953
953
952
958
961
959
959
959
958
965
968
963
960
959
965
970
974
975
972
972
975
976
977
977
973
972
971
975
979
974
975
975
975
979
979
979
976
973
975
977
977
975
972
969
972
975
973
974
970
969
970
969
974
974
969
969
968
973
973
972
970
968
967
968
971
968
963
958
960
959
959
960
957
952
953
958
960
961
963
966
977
995
1021
1051
1078
1106
1136
1169
1210
1248
1277
1300
1315
1321
1306
1268
1211
1147
1086
1050
1021
999
986
980
980
983
982
976
971
961
961
960
959
957
949
943
946
947
948
948
941
940
937
942
942
941
937
936
937
938
940
941
936
936
936
937
941
941
934
935
934
937
938
936
932
929
930
934
933
930
931
929
930
936
933
933
931
931
935
941
946
948
947
951
959
966
970
972
972
973
977
980
986
986
988
985
987
990
991
988
984
981
981
980
979
979
976
972
971
976
977
973
972
969
972
971
971
969
968
964
965
969
971
970
967
967
967
969
970
967
965
962
966
967
968
965
963
961
959
961
963
961
956
953
952
952
954
951
949
945
946
947
947
944
942
941
942
944
947
949
947
946
951
951
957
957
955
956
955
960
961
966
965
966
967
973
976
973
970
969
972
975
973
971
966
969
968
972
974
970
969
970
971
973
972
973
970
971
970
974
979
974
973
972
976
980
981
983
986
985
993
1005
1020
1042
1064
1093
1125
1163
1201
1234
1264
1295
1323
1341
1343
1326
1285
1230
1170
1117
1070
1030
996
969
957
962
963
963
956
951
951
952
953
950
945
944
946
949
950
948
945
944
947
953
957
959
955
955
957
960
961
960
954
952
954
958
960
960
960
960
959
963
961
961
957
958
957
961
963
963
961
960
962
964
963
961
959
958
958
961
965
964
963
959
962
963
965
965
961
962
965
969
969
968
966
964
968
968
970
969
965
965
968
970
968
965
961
958
960
958
961
956
956
956
958
967
969
968
965
965
966
967
973
972
969
970
971
977
981
981
982
980
985
988
989
984
982
981
987
989
993
993
991
987
987
992
992
993
990
988
989
989
991
987
987
985
986
988
992
991
986
986
986
988
995
995
992
989
993
995
1000
1004
1007
1014
1026
1042
1067
1092
1114
1140
1165
1199
1234
1267
1292
1316
1334
1335
1326
1294
1247
1186
1118
1067
1034
1007
989
975
971
974
976
974
968
964
962
961
962
959
956
955
957
958
962
964
963
963
963
964
962
963
962
960
959
962
965
959
959
959
960
962
961
959
956
957
958
961
963
961
961
958
958
958
960
958
956
954
957
963
960
958
958
959
961
965
968
966
962
961
961
965
966
964
962
961
963
969
971
969
966
963
966
969
970
967
961
962
961
964
962
960
958
957
960
962
964
961
958
960
965
967
969
969
964
964
960
970
972
975
973
978
979
982
983
981
979
977
981
985
986
982
984
984
982
984
990
991
986
983
984
988
991
987
983
982
983
987
988
986
987
984
985
988
992
988
985
983
984
987
990
995
995
997
1001
1012
1024
1038
1060
1079
1103
1134
1165
1200
1230
1258
1289
1316
1333
1332
1317
1286
1244
1190
1139
1099
1064
1035
1010
994
984
982
979
975
970
969
969
964
961
956
959
960
963
964
960
957
958
960
961
959
954
951
951
952
955
955
951
949
946
951
951
951
948
944
945
946
945
940
936
939
938
936
935
933
932
930
929
935
937
936
932
933
935
940
937
930
924
924
926
929
934
931
932
929
932
937
938
936
932
931
935
940
943
943
942
938
938
938
942
941
940
940
944
948
948
950
946
945
947
951
956
957
956
953
954
956
961
963
965
964
968
970
974
975
973
968
969
970
973
971
971
969
969
975
976
972
974
970
976
980
979
975
971
969
972
973
972
972
971
974
973
971
973
973
975
977
977
978
979
980
980
983
991
1003
1015
1036
1057
1082
1105
1134
1163
1198
1227
1259
1280
1301
1307
1297
1272
1230
1173
1117
1074
1042
1017
994
979
967
965
965
960
956
953
953
954
950
944
943
942
943
946
947
942
942
941
945
943
939
934
930
939
941
943
944
942
939
941
944
946
944
939
937
939
941
943
942
938
934
935
940
941
937
932
930
931
936
939
936
935
933
932
935
940
939
935
931
933
940
945
945
946
943
945
948
949
945
946
946
948
946
949
944
942
937
935
940
941
938
936
934
936
941
941
940
941
939
942
946
950
953
951
950
953
960
965
967
963
959
959
963
965
964
960
957
957
962
963
962
960
956
960
965
968
966
962
958
959
964
967
965
962
960
961
966
969
969
963
965
966
973
979
982
985
992
1003
1025
1052
1076
1099
1120
1149
1183
1215
1242
1264
1285
1295
1292
1269
1228
1169
1108
1061
1025
999
973
958
950
951
955
953
946
942
937
936
939
937
934
930
932
933
939
943
946
942
943
941
943
945
942
940
934
938
940
941
941
936
933
934
938
937
934
931
931
933
935
936
936
932
929
930
934
935
932
930
929
927
933
935
936
932
928
927
931
937
937
938
937
938
939
944
943
944
941
941
941
943
943
941
936
935
936
937
933
934
931
934
939
942
941
939
936
937
943
946
947
945
943
947
949
956
963
961
958
959
966
969
968
967
965
964
966
966
964
959
960
966
968
969
967
963
963
967
970
972
970
966
964
965
971
974
970
969
967
963
967
973
977
977
979
985
995
1004
1017
1035
1055
1087
1115
1142
1171
1204
1231
1258
1286
1307
1310
1295
1262
1212
1151
1099
1054
1019
989
969
963
962
960
954
948
946
945
944
944
938
938
938
941
945
945
943
939
943
944
945
945
944
940
939
941
941
942
938
938
939
943
944
942
935
935
936
937
940
939
939
936
935
936
936
937
931
929
931
934
934
934
931
927
929
932
934
935
934
932
933
942
946
948
947
945
946
947
946
942
942
941
944
945
946
942
937
937
937
942
943
942
941
940
944
949
949
952
952
950
956
960
962
961
964
962
967
970
971
969
970
968
972
973
973
971
966
972
971
976
979
979
978
976
976
979
978
977
973
972
975
980
978
976
972
970
974
975
975
979
981
981
984
986
987
989
992
996
1009
1029
1053
1078
1100
1123
1152
1191
1226
1255
1281
1306
1322
1320
1295
1249
1188
1122
1071
1033
1001
974
956
954
955
956
952
946
943
944
943
941
944
939
937
936
939
944
944
946
948
945
946
948
946
944
940
939
942
944
943
943
939
938
937
941
941
938
937
935
937
939
937
937
933
929
933
933
935
933
932
931
928
931
932
932
930
928
931
936
941
942
938
940
937
942
946
943
942
939
939
941
943
943
938
935
934
939
938
933
932
932
933
940
945
944
942
941
943
948
951
950
945
949
951
957
958
960
958
959
963
966
970
968
963
962
962
965
968
969
968
965
966
967
970
968
966
964
967
970
971
968
964
966
962
965
966
967
969
970
976
980
980
977
979
985
1000
1023
1051
