951
952
955
955
955
953
954
954
958
963
963
962
960
961
964
965
966
960
964
963
964
966
967
963
965
968
970
971
973
973
968
973
974
980
981
981
980
980
984
988
989
988
986
989
989
994
994
990
990
988
992
993
987
985
984
981
982
984
980
975
977
977
979
981
979
974
972
975
977
976
974
971
968
967
970
973
971
970
964
967
967
967
969
966
964
964
967
971
970
969
966
966
970
972
972
969
968
967
971
973
973
970
968
968
970
973
969
970
971
972
974
977
977
978
974
974
980
983
986
984
981
983
985
988
987
981
980
983
983
985
982
983
979
980
988
991
993
991
991
994
1000
1005
1011
1017
1030
1049
1074
1101
1128
1153
1182
1208
1236
1263
1282
1288
1280
1263
1235
1198
1149
1105
1072
1048
1030
1014
1000
993
987
984
982
979
976
968
966
968
966
967
966
964
959
956
959
960
959
955
951
950
953
954
953
949
948
944
949
953
950
949
948
948
950
953
951
950
947
946
951
953
953
951
950
950
952
957
953
952
951
952
956
961
961
959
955
958
961
966
965
962
964
967
971
972
981
979
977
980
985
988
990
985
984
982
988
987
990
984
981
979
985
986
982
979
975
970
974
973
970
969
962
963
964
968
968
963
959
959
963
965
966
961
957
957
960
962
960
958
956
955
956
962
962
958
956
954
960
963
963
961
960
960
965
970
971
970
963
965
971
974
973
971
970
972
975
979
979
975
973
973
976
978
976
972
967
968
968
972
972
967
965
965
970
969
967
962
963
962
961
965
967
963
960
961
964
964
964
961
959
960
964
965
965
963
960
962
965
969
966
962
959
963
968
971
974
972
970
967
974
976
977
975
973
973
978
979
980
975
971
976
975
982
980
976
973
973
973
975
979
971
972
972
973
974
973
969
967
971
972
972
971
973
971
971
971
971
970
967
965
967
968
968
970
966
965
964
969
969
970
968
967
971
973
973
978
977
980
983
991
999
1005
1009
1015
1033
1057
1089
1115
1142
1173
1204
1233
1263
1286
1299
1299
1283
1248
1202
1148
1097
1060
1031
1014
1005
999
992
993
992
987
985
976
972
969
965
966
967
964
961
956
957
957
960
961
958
956
957
959
963
961
963
960
963
966
969
969
966
965
968
969
973
970
971
971
969
972
976
973
973
973
974
974
976
975
974
972
975
980
980
984
985
983
982
989
990
990
987
987
985
987
988
992
990
989
991
993
996
994
994
991
990
993
994
994
988
987
986
988
990
988
988
987
987
989
988
984
980
981
981
983
987
986
984
981
978
982
985
985
983
978
981
982
983
981
982
978
978
978
983
982
981
978
977
982
980
980
977
976
978
979
978
979
978
978
977
980
982
980
976
975
975
978
981
981
978
975
975
977
979
978
975
973
975
978
980
981
976
972
974
976
979
976
977
973
974
977
980
980
977
973
974
979
980
979
978
976
978
980
984
984
981
978
978
981
987
984
977
977
976
978
979
978
977
972
973
973
978
978
976
972
972
978
978
978
974
975
975
979
982
983
979
979
979
983
988
988
987
987
991
998
1008
1013
1020
1030
1050
1083
1116
1144
1177
1209
1244
1271
1301
1320
1318
1297
1264
1219
1167
1116
1073
1038
1013
998
998
1000
1000
993
991
989
985
982
978
973
974
972
975
973
970
968
966
969
972
969
966
963
965
967
968
966
965
961
961
964
969
967
967
964
966
970
973
974
971
971
973
973
979
979
976
972
976
977
981
980
975
978
980
983
986
986
986
985
987
993
995
994
993
994
997
999
1000
1000
1000
999
998
1002
1004
1002
997
995
994
993
996
993
991
988
987
988
984
982
981
977
977
976
979
977
972
969
974
972
978
977
977
972
975
975
983
979
978
976
979
983
986
986
982
980
980
983
987
986
983
980
983
982
985
986
984
980
981
984
985
985
984
982
981
981
985
983
980
977
980
982
985
985
983
981
981
983
987
987
986
981
982
983
985
984
982
979
979
981
983
981
979
980
980
982
983
985
984
983
982
987
991
992
996
997
1002
1008
1016
1026
1043
1063
1090
1120
1151
1184
1211
1236
1265
1289
1305
1300
1277
1240
1194
1144
1099
1057
1028
1004
989
988
994
993
988
982
979
979
979
975
972
968
966
966
966
966
963
959
960
962
965
963
960
956
955
958
959
960
956
952
955
957
961
961
957
955
954
960
961
960
964
958
960
965
968
970
970
970
970
973
977
977
972
974
977
978
985
984
981
984
987
992
995
996
995
995
996
997
997
996
995
991
989
994
995
994
990
985
983
983
981
979
976
969
969
969
971
969
963
961
958
959
961
961
958
956
955
958
961
960
959
956
959
962
964
963
961
957
962
969
972
971
966
967
968
971
973
973
972
970
969
973
973
972
970
967
969
971
972
970
967
965
963
963
966
967
966
963
962
961
964
961
958
953
955
954
957
957
955
953
955
956
958
957
954
952
950
952
954
953
950
950
954
954
961
961
960
962
963
965
968
973
968
965
968
971
972
973
972
969
966
970
972
969
966
963
963
963
966
968
966
963
961
966
969
969
967
962
963
966
968
969
966
959
962
965
968
961
961
961
963
967
968
967
965
963
966
967
970
969
967
965
966
974
978
978
978
977
981
983
987
988
985
987
992
995
1000
1008
1008
1012
1026
1048
1077
1101
1125
1152
1189
1217
1246
1272
1290
1292
1282
1257
1220
1166
1111
1071
1040
1022
1006
999
993
986
983
981
976
972
967
961
961
963
968
965
964
960
961
962
964
963
960
958
959
961
964
964
963
960
963
966
968
967
965
959
958
963
965
964
962
958
960
963
964
965
964
964
962
964
966
970
968
965
968
972
975
974
971
971
974
976
982
979
980
976
981
985
990
991
989
984
988
991
993
992
986
983
982
984
985
982
979
973
978
976
980
977
972
973
973
974
974
973
970
967
968
970
972
969
966
963
961
964
967
965
962
961
962
965
967
966
964
961
966
970
974
975
971
970
971
973
976
975
975
973
973
975
980
981
979
976
977
980
981
979
977
971
971
976
976
975
973
969
968
975
975
976
975
974
974
977
976
973
973
971
971
972
975
974
973
969
971
973
973
969
969
965
967
970
972
972
972
971
974
975
977
975
976
975
975
976
979
979
975
975
975
980
981
982
978
974
976
981
984
985
981
982
984
990
997
1000
1000
1004
1020
1043
1068
1087
1113
1140
1176
1204
1234
1255
1276
1285
1288
1275
1244
1201
1146
1099
1059
1030
1015
998
989
982
984
987
989
983
978
971
967
970
969
969
963
960
960
962
965
962
959
955
957
959
962
957
956
955
956
959
962
961
959
957
960
964
966
967
966
964
967
970
973
972
968
967
968
971
972
975
972
971
968
970
973
975
971
968
970
976
982
983
981
981
980
985
989
990
988
989
989
990
993
996
993
992
994
997
998
997
995
991
988
990
992
992
985
983
980
979
984
981
980
979
977
979
982
979
979
976
977
976
980
978
976
976
976
979
982
979
979
976
977
980
983
983
980
976
977
979
982
981
978
973
972
971
976
977
978
973
979
986
991
997
999
1004
1012
1033
1060
1093
1121
1150
1180
1215
1251
1274
1288
1300
1293
1271
1235
1186
1122
1070
1035
1018
1005
994
987
985
985
985
986
983
976
970
970
968
974
968
963
959
956
963
965
960
957
952
954
957
959
956
954
951
952
952
956
953
951
953
952
954
956
955
954
954
957
957
964
961
957
957
960
960
963
964
962
963
963
967
969
971
970
967
971
977
983
980
980
978
982
985
989
989
988
989
992
998
1001
997
993
991
991
993
992
991
982
981
977
980
982
978
973
972
971
973
973
970
972
966
967
970
972
973
970
965
965
974
976
973
971
968
969
972
974
975
972
971
974
975
978
976
971
972
972
978
980
980
974
974
973
976
977
975
975
972
974
980
978
978
971
973
972
975
978
977
972
968
967
975
976
974
971
969
969
973
973
973
970
966
970
972
974
975
974
971
973
975
974
975
971
969
969
973
976
976
967
969
968
969
972
969
968
964
964
970
972
970
970
967
964
971
971
970
965
963
967
973
976
976
974
970
970
975
976
977
975
972
970
973
973
977
971
971
967
974
976
976
974
969
972
974
980
978
977
974
977
982
988
990
987
987
994
998
1009
1014
1022
1035
1056
1083
1110
1138
1162
1191
1221
1249
1278
1304
1317
1316
1303
1275
1236
1185
1134
1091
1056
1029
1014
999
990
992
989
988
986
981
976
970
967
964
967
963
959
952
956
956
957
958
955
950
952
953
954
954
948
950
950
949
953
952
947
948
948
952
954
952
948
947
949
953
954
953
951
953
952
956
957
957
955
953
951
954
958
956
956
951
955
954
956
956
955
954
956
963
963
964
963
961
962
964
967
968
963
964
963
968
969
971
968
967
969
973
975
976
973
971
973
974
977
973
972
968
973
974
974
972
971
967
969
970
974
972
969
967
967
972
974
973
971
970
973
974
974
971
966
965
967
967
971
968
967
965
964
968
968
966
964
961
963
968
967
964
962
963
964
964
968
968
966
966
969
972
975
971
969
969
972
973
975
972
970
968
968
972
972
974
972
969
971
972
974
973
967
968
967
973
976
976
973
970
972
973
975
976
974
970
975
979
980
980
975
975
974
976
971
970
970
967
968
970
971
971
966
967
966
968
973
970
968
970
972
975
978
975
974
973
976
977
981
981
979
976
982
986
991
998
999
1004
1021
1047
1072
1096
1120
1147
1180
1214
1241
1261
1279
1289
1283
1268
1243
1200
1151
1110
1081
1059
1041
1023
1008
999
994
995
991
985
977
970
969
968
968
964
961
956
955
959
960
958
955
950
949
954
954
952
950
947
945
949
951
951
949
947
949
951
954
955
954
953
955
955
956
958
956
958
956
962
964
964
964
963
963
963
966
966
967
963
966
970
972
972
970
969
973
978
980
981
979
977
979
982
984
984
982
979
976
984
983
984
982
978
978
982
979
976
974
973
971
973
972
970
966
965
964
965
968
966
961
962
964
963
962
964
962
962
962
966
968
964
964
959
959
963
965
963
960
958
959
962
965
962
961
960
961
966
967
966
962
960
960
964
966
962
963
957
955
959
961
957
957
955
955
960
963
961
957
956
957
959
960
958
955
953
955
959
960
954
959
953
953
953
956
957
954
949
950
955
960
957
957
952
955
955
959
955
954
953
957
961
963
963
960
956
958
959
963
962
959
955
958
959
962
958
960
957
960
962
962
958
958
956
960
962
963
959
962
958
959
956
961
960
955
957
955
957
961
962
959
958
962
967
969
967
967
967
967
971
972
972
971
965
965
969
973
972
969
969
972
974
974
972
972
969
969
969
972
972
969
967
969
973
973
973
970
969
972
973
976
973
971
970
971
975
978
975
975
972
976
979
985
988
992
995
1001
1019
1038
1062
1087
1112
1143
1179
1210
1235
1257
1279
1290
1285
1264
1229
1182
1135
1094
1060
1039
1022
1007
1002
1003
1004
1001
994
984
981
975
977
975
974
968
966
964
964
964
960
954
955
955
956
957
957
953
950
950
952
954
953
952
951
954
955
959
960
959
957
959
964
966
967
966
967
971
974
976
976
978
977
979
982
986
987
987
985
985
989
995
995
996
995
999
999
1003
1004
1001
1000
998
1003
1004
1003
1000
999
1000
1000
1002
999
993
991
988
990
992
987
984
979
980
980
982
978
976
969
971
975
976
974
971
969
970
973
976
974
970
968
971
975
977
976
973
972
972
978
979
980
976
975
975
976
979
978
975
972
975
975
979
979
978
975
976
978
981
978
976
975
974
979
979
980
980
978
979
981
984
982
981
981
982
989
989
990
986
983
985
988
989
987
987
984
984
984
988
985
983
982
980
982
985
983
980
976
981
983
986
983
981
978
979
980
982
981
977
976
977
982
981
979
975
974
974
977
976
978
974
975
974
977
980
980
975
976
979
977
980
979
977
974
974
977
979
981
980
980
979
983
985
983
980
978
977
982
984
984
980
979
979
984
985
984
980
976
980
984
985
984
980
981
981
986
988
985
985
982
986
988
990
987
984
980
984
986
988
986
985
986
987
987
990
990
986
985
983
982
986
982
981
979
981
983
985
983
980
979
982
983
985
984
984
982
985
987
991
986
983
983
982
988
991
992
988
988
985
988
989
988
987
982
983
988
986
989
986
984
986
988
990
989
987
983
986
987
988
989
988
984
988
991
991
989
989
987
988
992
991
989
987
988
987
989
993
992
988
986
986
989
992
991
990
985
992
995
996
996
991
996
998
1003
1007
1005
1002
1002
1000
1003
1004
1001
997
993
998
998
1000
999
997
995
996
999
1004
1005
1006
1009
1017
1026
1038
1048
1065
1096
1130
1170
1205
1241
1273
1305
1338
1362
1363
1336
1287
1226
1162
1104
1064
1024
998
984
984
993
998
1000
998
992
990
995
997
995
989
989
989
987
990
990
986
985
980
981
983
981
981
975
976
979
979
980
975
972
975
972
976
978
978
975
978
980
983
983
981
979
978
981
983
984
983
980
983
987
989
988
986
985
988
992
991
991
990
989
992
997
1000
1001
1002
999
998
1001
1005
1002
1000
999
999
1003
1004
1003
1000
997
996
1000
1003
1000
998
995
995
993
994
993
990
986
985
988
987
987
986
983
980
986
988
985
981
979
982
983
985
987
984
982
983
987
988
990
987
984
988
992
995
994
992
989
990
995
996
993
994
991
990
992
994
995
990
988
988
990
993
994
989
986
987
993
994
992
989
987
991
992
994
993
993
987
992
994
995
995
992
990
990
994
992
994
989
988
987
992
993
992
988
988
993
993
992
993
992
993
995
996
1001
999
1000
1000
1001
1004
1004
1005
1003
1005
1008
1015
1018
1020
1028
1044
1069
1099
1129
1160
1187
1220
1254
1290
1317
1336
1339
1326
1299
1262
1213
1154
1107
1073
1047
1027
1017
1007
1004
1000
996
992
989
985
979
974
978
977
978
972
970
971
968
970
972
968
967
968
968
971
972
972
970
970
971
972
975
978
974
971
972
976
978
979
975
975
977
980
983
981
982
983
983
988
989
991
988
991
992
995
996
996
995
992
992
993
996
996
993
994
999
1002
1002
1004
1001
999
999
1001
1005
1003
1000
998
998
996
997
992
989
984
982
983
981
982
979
972
974
977
976
975
975
969
972
971
976
974
972
971
971
973
974
975
974
973
974
973
978
975
976
971
974
976
975
976
971
970
972
971
977
977
975
975
973
978
980
979
979
979
980
982
985
982
979
976
975
977
978
981
978
975
976
980
983
980
977
977
977
982
985
983
983
987
995
1001
1009
1017
1029
1049
1077
1101
1129
1158
1190
1221
1247
1273
1286
1285
1260
1224
1175
1123
1080
1047
1025
1010
1000
995
997
997
988
982
978
977
978
974
967
966
963
966
967
967
960
963
962
966
966
963
961
959
962
963
964
962
961
957
959
961
961
960
958
956
956
961
964
962
961
959
958
963
965
964
959
958
962
967
971
972
972
973
978
984
988
989
988
985
989
993
999
997
997
995
995
999
999
997
992
992
993
996
997
992
989
984
984
987
987
984
976
971
976
976
975
975
971
969
968
968
971
967
967
966
966
970
972
973
967
965
966
970
974
973
969
970
969
975
977
978
974
969
968
972
972
972
969
967
965
966
971
973
971
971
974
979
980
978
978
977
976
977
977
978
977
976
972
977
977
979
977
977
979
979
981
980
979
978
981
982
983
982
979
975
973
980
983
979
976
972
975
979
980
981
980
976
975
977
976
977
974
969
971
972
970
974
969
964
969
972
974
975
973
969
973
977
979
977
972
972
974
976
979
976
976
974
977
979
983
981
981
979
982
986
988
985
985
986
988
989
992
989
985
983
983
986
990
990
987
990
993
999
1001
1004
1007
1010
1019
1039
1066
1095
1121
1155
1189
1224
1257
1288
1316
1336
1338
1320
1277
1220
1151
1092
1048
1016
992
980
975
981
988
987
989
985
978
971
971
973
973
971
968
967
969
970
969
970
966
963
963
964
967
967
966
964
969
971
972
971
964
963
965
969
969
969
964
962
970
971
973
974
970
969
973
976
979
979
978
975
978
982
984
987
984
984
988
993
993
994
992
993
997
1002
1003
1001
1003
1001
999
1003
1007
1008
1007
1004
1007
1011
1010
1008
1006
1005
1002
1003
1007
1005
1002
999
996
997
994
991
988
986
983
984
986
984
981
979
977
979
979
981
976
974
976
980
983
981
978
977
978
981
983
984
977
976
978
981
985
983
980
981
982
984
985
985
978
982
984
985
988
987
985
984
985
988
991
990
986
983
984
986
989
988
984
980
984
988
989
989
985
983
985
988
992
992
987
987
991
994
996
995
992
991
990
992
996
992
993
990
991
993
996
993
992
987
987
988
990
993
988
984
986
988
987
985
980
979
978
981
980
978
976
977
976
976
977
980
976
975
978
980
983
982
984
982
983
987
991
989
988
989
988
988
992
992
990
989
991
993
996
995
994
994
997
999
1006
1006
1006
1005
1006
1012
1019
1024
1028
1032
1044
1070
1099
1128
1155
1190
1229
1265
1299
1327
1352
1361
1351
1322
1271
1205
1137
1082
1039
1010
991
979
984
984
990
991
990
989
987
