973
973
972
968
967
970
971
970
971
968
967
970
973
976
975
971
970
974
982
987
991
990
998
1014
1035
1059
1087
1113
1150
1188
1227
1259
1288
1315
1340
1354
1350
1322
1278
1219
1162
1115
1077
1039
1009
989
980
980
980
979
965
958
951
947
948
946
943
939
938
939
942
940
937
936
934
939
943
946
945
942
941
942
947
951
950
948
952
954
962
962
956
956
954
957
961
962
959
956
955
959
961
963
963
956
957
964
964
966
964
961
960
962
967
971
969
967
968
972
977
978
977
972
973
975
981
985
983
981
980
982
986
990
990
988
985
990
995
996
994
988
989
988
990
990
989
982
976
971
974
970
967
963
959
961
964
964
961
956
955
960
965
965
965
962
960
962
967
972
971
971
971
973
979
977
971
969
970
969
975
976
976
971
972
971
976
977
976
974
972
971
973
974
975
972
971
973
974
977
977
975
972
970
972
971
971
972
966
970
973
972
971
968
966
965
967
966
962
963
960
961
959
963
959
953
950
952
954
953
949
947
941
942
944
945
943
940
942
943
946
944
944
945
944
945
951
955
954
954
953
957
958
961
962
964
969
968
975
975
971
971
969
969
972
974
974
972
973
975
976
982
984
985
992
999
1006
1018
1035
1057
1092
1125
1160
1198
1232
1265
1294
1326
1348
1353
1337
1300
1247
1190
1136
1089
1050
1018
997
987
988
986
982
979
969
969
964
961
955
949
948
946
947
947
943
939
935
937
938
935
930
927
928
930
934
935
933
933
933
933
937
939
940
939
939
941
950
950
949
947
948
949
951
953
957
958
957
961
964
965
967
964
962
965
970
970
968
969
970
972
973
974
971
969
972
976
976
980
978
975
977
980
982
986
985
982
986
991
991
993
989
987
982
982
986
982
977
974
969
968
965
966
962
955
954
952
951
948
945
939
936
937
939
941
936
931
931
934
936
937
937
935
936
939
942
942
943
939
942
948
953
954
950
948
947
954
957
959
959
958
959
964
967
969
964
962
960
965
966
970
967
965
965
965
967
970
970
968
966
971
973
971
973
971
969
970
972
971
973
972
974
980
989
994
1003
1020
1049
1077
1112
1144
1183
1221
1258
1295
1327
1348
1347
1324
1281
1217
1157
1097
1047
1008
979
967
965
967
963
956
947
942
941
939
937
929
930
930
928
932
934
932
931
936
936
938
935
935
934
935
940
946
943
945
943
945
948
951
946
945
943
945
949
949
947
946
944
949
950
949
950
947
947
950
953
953
954
949
949
952
956
957
957
955
954
954
960
962
960
955
957
959
964
966
964
960
961
967
974
972
970
969
964
963
963
960
956
947
946
946
947
942
941
937
936
937
939
940
937
936
934
941
945
948
949
949
949
950
951
953
953
952
955
956
959
963
963
962
963
963
965
967
965
964
959
964
965
967
965
962
964
963
967
964
963
964
963
962
965
968
965
962
958
959
963
964
963
956
956
957
959
958
956
949
947
951
954
955
949
946
946
948
947
947
944
941
939
941
944
946
944
941
941
941
946
947
946
944
946
951
954
955
951
949
948
954
955
957
958
954
953
960
966
970
967
966
966
967
969
971
971
969
972
975
983
990
995
1005
1021
1045
1077
1110
1139
1177
1214
1251
1285
1315
1331
1333
1312
1275
1223
1162
1110
1067
1033
1010
994
988
986
979
974
970
964
960
954
948
945
945
944
942
935
932
928
929
928
928
925
921
919
919
922
920
919
915
910
915
920
923
922
920
921
922
927
931
932
932
932
935
938
939
939
938
941
945
948
951
952
950
952
955
961
962
961
956
961
963
968
969
969
966
967
969
976
975
977
976
978
981
987
990
990
987
988
991
994
992
993
987
980
981
983
983
977
973
971
972
969
969
964
959
955
956
956
954
949
942
944
942
944
944
940
937
939
938
942
941
938
935
936
937
939
939
936
936
932
936
940
940
941
941
943
944
947
949
946
942
949
951
958
960
958
954
953
957
959
960
958
955
954
954
958
959
955
956
954
953
957
957
953
954
951
953
955
956
954
951
952
953
953
954
952
947
949
952
953
955
951
946
946
948
951
952
948
945
944
942
939
942
941
937
933
935
939
934
936
934
928
928
934
937
935
934
936
939
942
943
943
940
941
941
948
947
945
940
943
946
951
954
955
954
957
963
964
965
962
959
957
963
964
965
959
959
957
963
966
963
962
957
957
959
961
962
963
960
957
959
961
963
959
958
959
960
961
960
958
957
955
959
959
962
959
955
954
954
954
954
955
950
949
952
952
949
945
941
940
944
946
944
947
947
945
945
948
955
953
952
953
954
959
962
964
964
964
968
973
979
985
991
1000
1017
1046
1074
1101
1132
1166
1205
1241
1276
1303
1325
1337
1334
1315
1279
1226
1168
1120
1082
1052
1027
1010
999
996
994
992
989
983
973
969
970
966
965
962
957
953
956
957
955
952
950
947
948
949
952
947
943
940
942
945
945
943
937
938
938
939
940
939
933
933
936
938
943
941
938
936
941
945
949
948
946
949
948
953
960
961
956
959
964
971
971
975
975
977
984
987
990
991
990
992
994
995
999
999
1000
999
1004
1007
1009
1007
1008
1007
1011
1014
1012
1007
1004
997
999
998
995
988
984
981
980
981
979
977
971
970
970
973
971
967
962
961
963
963
964
961
955
953
957
956
955
951
946
945
948
945
948
943
941
938
939
941
942
941
936
939
940
944
945
944
942
946
950
953
956
955
951
951
952
955
961
962
961
962
964
968
970
968
963
962
966
965
967
967
964
962
962
964
966
967
963
966
966
967
969
967
966
963
967
968
967
968
966
965
967
971
973
974
975
975
978
990
998
1014
1035
1065
1098
1140
1179
1216
1252
1286
1320
1339
1332
1308
1258
1192
1123
1070
1024
992
965
959
960
965
963
957
946
942
945
947
946
941
937
938
939
943
945
943
941
940
945
948
948
948
948
945
950
957
956
952
949
948
952
954
956
955
950
954
957
960
962
961
958
958
962
964
966
966
962
962
965
967
969
969
965
964
967
972
977
973
973
972
975
978
979
975
973
972
976
980
982
979
978
976
979
980
980
975
970
966
965
962
961
957
952
948
949
949
949
947
944
940
944
947
948
947
947
945
947
949
950
950
946
947
951
958
958
958
955
955
956
957
958
953
953
952
956
958
962
960
956
957
960
962
961
958
958
956
957
959
960
958
956
953
957
961
959
956
954
955
956
959
961
958
953
953
954
955
955
953
949
949
948
950
949
945
940
939
938
942
942
940
935
932
935
935
937
935
931
932
938
939
940
937
937
938
946
947
949
949
948
946
951
954
957
956
955
957
961
963
963
967
963
966
968
969
968
968
969
968
971
973
973
969
969
969
972
976
975
977
977
976
982
987
989
991
997
1003
1020
1042
1071
1098
1127
1162
1200
1242
1277
1309
1336
1355
1355
1341
1302
1244
1177
1119
1076
1037
1009
986
976
978
978
975
969
959
951
946
946
946
945
939
935
933
932
934
934
930
928
927
925
931
932
929
929
933
938
938
942
937
936
936
939
946
945
942
942
943
949
953
954
956
951
950
954
958
958
952
954
953
956
962
960
961
958
958
960
965
968
965
959
961
964
970
970
970
968
969
970
976
979
976
973
974
980
982
985
985
983
983
986
987
987
984
978
974
973
973
970
963
956
950
951
951
949
943
937
937
935
939
938
934
930
929
930
932
935
936
932
935
935
941
941
942
941
941
941
944
945
945
944
946
949
951
952
952
951
954
958
958
962
960
958
958
961
963
965
964
966
966
964
967
968
968
969
968
971
972
972
968
969
970
973
981
984
985
987
997
1010
1032
1057
1082
1107
1135
1170
1210
1248
1278
1304
1320
1327
1317
1287
1237
1172
1117
1077
1050
1024
996
977
966
964
961
953
944
941
935
932
930
927
925
919
918
921
922
919
922
919
918
924
927
926
925
924
926
924
929
929
930
928
931
934
937
940
938
940
940
940
943
941
938
940
941
943
942
946
942
939
944
945
947
949
946
944
947
950
953
953
949
948
948
952
956
957
955
955
954
960
961
965
962
960
966
970
971
969
966
963
964
962
964
965
961
954
951
950
949
946
942
933
934
933
933
932
927
926
924
925
925
926
920
915
918
919
921
924
924
919
922
925
930
931
930
933
932
936
940
942
938
935
937
945
948
950
949
946
947
953
955
958
955
955
954
956
960
961
960
957
957
959
962
962
958
955
957
959
962
961
960
958
959
963
966
968
968
967
968
975
984
994
1006
1023
1047
1074
1099
1125
1155
1186
1219
1250
1284
1308
1319
1313
1293
1262
1212
1152
1098
1054
1019
994
978
966
961
954
948
944
939
937
931
922
919
918
923
921
921
917
916
919
922
922
922
920
918
921
923
924
920
917
921
921
926
927
929
928
929
930
935
934
934
929
931
928
937
936
934
932
932
936
937
936
935
935
932
934
935
937
936
933
934
936
942
942
939
938
937
940
945
945
944
942
943
946
949
950
946
946
948
952
956
960
957
956
952
952
957
956
952
948
944
944
942
939
936
932
927
927
929
927
924
919
920
917
920
920
920
922
918
921
923
928
927
925
925
931
934
937
936
933
935
933
938
942
939
939
941
945
948
951
948
948
948
946
951
953
951
950
949
952
955
953
955
952
950
952
958
954
952
948
949
952
955
958
956
949
946
951
953
953
950
951
950
953
955
952
954
950
947
948
952
953
950
944
945
947
948
949
947
945
944
943
945
948
945
943
940
945
952
955
961
967
980
1010
1038
1069
1101
1137
1176
1219
1256
1292
1316
1323
1316
1294
1251
1198
1135
1077
1034
995
974
960
954
957
958
960
960
957
949
946
940
941
944
941
935
932
934
935
937
935
935
932
932
932
934
934
934
930
930
932
933
933
930
931
931
933
936
935
933
928
926
928
932
930
930
927
930
930
935
934
929
932
929
929
931
932
929
927
923
929
927
927
927
923
923
920
925
925
922
919
923
924
926
930
927
927
929
932
936
940
941
940
942
946
948
953
949
950
949
948
951
949
948
947
947
950
956
953
955
953
953
954
957
957
955
955
955
956
957
959
957
956
956
957
959
956
958
957
958
959
961
960
956
957
957
961
962
962
960
957
959
961
966
964
962
961
960
963
964
966
963
959
958
960
962
965
961
962
961
965
972
974
983
994
1012
1040
1073
1099
1130
1162
1202
1239
1273
1301
1321
1325
1313
1283
1234
1172
1112
1063
1022
991
974
960
955
958
957
955
956
954
949
948
946
947
949
947
944
939
938
939
944
942
941
935
935
938
940
942
939
937
936
936
942
941
940
938
936
938
941
941
938
935
936
939
940
939
939
932
937
940
942
943
943
938
938
941
941
943
941
938
938
938
943
940
937
934
934
938
938
938
936
930
931
935
940
940
941
939
939
940
945
946
948
945
944
949
950
950
951
949
947
950
954
954
952
947
946
950
951
953
951
952
953
956
961
961
960
956
954
958
963
963
961
959
960
963
964
966
964
961
962
964
965
969
967
966
964
966
969
970
965
964
965
966
968
971
967
967
965
969
974
975
974
971
972
976
985
990
996
1003
1021
1051
1080
1108
1137
1167
1203
1243
1276
1306
1328
1343
1338
1317
1280
1226
1158
1102
1056
1022
998
977
964
956
955
959
955
946
941
938
936
938
940
938
935
929
930
928
931
932
931
930
932
934
936
938
935
933
933
935
935
936
932
929
931
935
936
936
934
931
930
934
938
936
935
933
931
933
937
934
933
930
928
930
933
932
931
930
926
926
931
931
927
924
923
925
930
930
928
928
927
929
931
934
932
933
937
941
943
942
941
937
937
936
937
932
930
924
923
928
930
926
925
922
920
920
923
928
926
926
926
930
932
934
935
933
937
938
938
940
941
940
942
946
951
952
955
954
956
959
960
961
961
955
957
957
963
965
962
961
959
962
965
967
965
965
962
967
966
967
965
963
960
964
966
966
969
965
964
968
970
971
967
974
979
986
994
1005
1024
1048
1075
1105
1138
1178
1219
1249
1288
1316
1336
1331
1306
1257
1200
1137
1087
1047
1012
984
964
961
961
958
947
938
934
933
937
933
930
926
927
926
930
932
929
927
923
925
926
927
928
927
929
932
935
936
935
934
931
931
936
935
935
934
932
930
933
936
934
932
931
932
936
936
935
932
930
933
935
935
933
931
931
935
934
936
935
932
932
934
936
939
934
932
933
940
943
945
943
943
943
949
953
951
947
945
940
941
942
940
936
930
930
932
932
932
925
922
921
923
927
929
926
925
923
930
934
936
934
932
933
939
943
943
942
941
943
948
956
953
954
951
953
956
957
959
958
957
956
959
960
959
957
959
956
961
964
964
962
960
963
962
965
966
963
965
961
966
967
968
967
968
970
976
981
986
992
1002
1018
1045
1073
1101
1127
1156
1195
1229
1262
1293
1311
1307
1293
1265
1217
1158
1105
1061
1025
998
980
970
964
954
948
944
941
938
936
931
930
928
929
931
928
927
926
925
929
926
924
923
925
928
933
933
933
933
930
935
937
939
935
931
928
933
933
933
931
928
929
930
932
933
932
930
930
929
935
933
930
928
927
929
929
931
931
930
927
930
931
930
929
929
931
936
941
944
940
942
942
946
950
950
950
948
944
946
948
947
943
939
938
937
938
937
932
927
929
931
929
930
930
928
931
933
936
938
937
936
938
943
945
946
944
943
944
948
956
958
954
951
954
956
960
956
955
955
957
963
962
965
958
959
960
963
961
964
961
960
960
962
966
967
963
963
962
966
970
970
967
966
966
968
976
980
980
983
991
1011
1029
1057
1080
1102
1129
1166
1203
1233
1260
1279
1292
1286
1260
1215
1156
1099
1052
1015
992
974
965
959
956
957
955
949
942
936
931
934
934
933
931
926
926
926
928
926
929
926
927
932
935
938
933
932
931
932
933
935
933
933
930
931
935
934
935
931
934
936
940
940
936
931
935
935
937
938
935
932
932
935
937
939
938
934
933
937
940
940
940
936
936
937
942
943
941
942
942
948
952
955
955
953
952
952
955
956
953
945
944
943
943
942
938
932
932
936
937
933
929
925
928
931
934
936
934
930
934
938
943
946
945
944
943
947
952
954
951
952
955
959
961
962
961
958
960
960
966
967
965
960
962
969
970
969
967
966
965
965
967
969
967
965
963
968
968
967
968
963
964
967
971
967
965
961
959
964
970
966
965
963
964
964
965
965
965
958
958
965
965
965
961
957
954
958
961
959
957
951
955
956
956
961
961
964
969
975
986
1006
1033
1065
1104
1147
1193
1235
1271
1306
1334
1349
1344
1313
1260
1194
1126
1070
1028
996
977
970
978
984
984
978
972
962
954
956
957
957
954
953
950
949
954
955
950
947
943
947
948
948
943
942
939
943
946
946
943
942
940
942
942
945
942
937
938
943
945
945
940
938
935
941
944
944
940
936
935
937
938
936
934
932
930
929
932
931
928
923
924
929
931
930
931
927
928
935
936
939
943
941
944
950
956
961
959
959
957
959
964
965
963
964
968
969
974
975
973
971
971
975
979
975
969
969
969
970
975
972
972
964
968
972
972
973
971
967
967
968
972
973
969
968
968
973
975
977
973
969
970
971
974
971
969
967
966
969
973
969
971
964
964
964
966
965
962
958
957
956
960
960
958
954
955
955
958
959
955
952
953
954
961
958
957
958
958
964
968
965
964
961
963
968
972
973
974
970
980
987
999
1009
1024
1048
1083
1121
1162
1204
1243
1279
1311
1346
1366
1368
1345
1302
1241
1174
1120
1068
1029
998
984
982
986
990
979
970
968
964
961
958
953
949
946
947
945
943
942
937
935
938
937
937
932
930
929
929
932
927
927
925
925
926
929
927
925
923
926
927
927
927
928
925
925
925
932
932
932
930
932
934
937
938
939
935
936
937
942
942
939
938
941
946
949
951
951
950
950
956
961
965
965
966
965
969
974
972
975
971
969
973
975
973
967
964
961
962
963
963
961
957
957
960
962
961
958
955
953
955
956
958
951
950
952
956
956
953
952
947
945
948
951
950
947
945
944
947
948
949
950
947
947
951
953
950
946
943
942
948
954
953
951
946
947
950
951
949
946
943
944
949
952
952
949
949
950
952
954
952
954
952
954
955
956
956
954
951
955
954
956
953
950
947
950
954
955
955
954
951
948
951
954
952
949
946
948
949
951
949
948
945
943
944
948
947
944
945
943
945
946
946
943
942
940
939
941
941
939
932
934
936
938
932
931
926
923
925
925
925
926
923
927
929
934
937
937
938
936
940
944
944
948
945
947
951
954
956
957
954
954
957
958
960
958
957
960
958
965
967
965
964
961
966
968
968
965
962
961
962
966
967
965
964
961
963
965
967
964
962
961
965
966
965
961
957
959
961
965
965
962
961
964
967
964
965
964
962
960
963
966
961
965
960
960
960
964
964
962
961
960
958
963
965
963
959
966
971
978
988
1004
1023
1049
1077
1112
1146
1180
1213
1247
1282
1306
1322
1318
1300
1276
1242
1197
1148
1100
1058
1027
1005
