1083
1109
1139
1166
1199
1230
1261
1285
1302
1307
1290
1266
1225
1177
1123
1076
1041
1017
1000
989
986
986
985
987
986
981
978
973
973
972
972
969
965
963
960
962
963
961
957
956
955
960
959
959
956
952
950
953
955
956
953
950
952
955
957
959
959
958
961
962
965
968
965
959
961
964
970
970
969
969
967
971
977
977
975
977
978
980
983
985
982
983
985
988
992
995
994
992
991
993
996
993
994
989
989
995
995
993
990
987
985
988
990
987
985
977
974
973
977
975
970
969
964
965
968
969
967
963
962
966
972
969
968
967
967
973
975
975
972
969
971
973
973
971
969
965
968
969
973
974
977
973
971
974
980
978
977
975
973
974
977
975
974
970
973
974
978
974
977
973
971
972
976
978
976
974
970
971
977
975
973
971
969
970
974
975
974
967
967
971
973
974
973
971
970
973
974
974
972
971
969
970
974
973
973
973
974
974
975
976
974
969
970
971
974
975
972
969
968
971
972
973
973
971
970
974
976
977
975
973
969
972
978
974
976
975
974
975
979
979
977
974
975
977
980
978
978
975
974
975
980
978
975
978
978
979
980
980
982
982
985
990
994
997
1002
1006
1011
1023
1042
1066
1094
1121
1155
1192
1227
1254
1279
1306
1329
1337
1326
1293
1248
1189
1137
1090
1053
1024
997
983
981
989
991
990
983
979
975
973
976
972
967
965
960
962
965
962
960
955
954
956
957
957
956
954
953
956
963
964
957
958
957
961
964
962
959
958
956
958
961
963
961
960
962
965
971
972
975
972
970
975
978
979
978
970
975
979
981
982
980
979
976
978
983
983
981
981
981
988
992
990
991
987
985
992
992
990
992
990
988
990
992
992
989
987
987
988
987
986
981
978
977
977
979
978
972
968
968
969
970
970
969
968
964
968
971
971
967
965
964
967
972
970
968
966
966
967
968
970
968
972
969
972
973
975
970
967
966
970
972
972
971
966
969
972
975
975
974
973
975
975
980
981
980
978
976
979
983
984
979
976
974
979
981
979
978
975
974
976
982
983
979
975
975
981
983
979
979
976
975
978
980
977
975
974
975
978
978
978
977
977
977
978
980
981
979
977
971
974
973
975
973
971
972
976
980
979
979
978
977
979
985
985
986
984
988
993
1001
1008
1012
1020
1042
1072
1103
1133
1167
1199
1230
1264
1292
1312
1319
1307
1278
1237
1187
1131
1085
1048
1015
1000
996
993
991
986
985
984
981
975
969
965
964
965
966
964
959
957
957
960
959
961
956
956
955
956
957
963
958
957
959
961
965
963
961
956
959
962
964
963
962
962
961
962
966
967
965
964
967
967
974
973
973
972
973
981
982
984
986
988
989
990
993
993
993
992
994
997
1002
1001
1000
1000
1001
1001
1000
997
995
991
990
988
989
982
981
976
973
975
977
975
970
965
965
967
967
965
964
961
958
962
966
966
962
960
961
958
965
961
963
958
960
964
967
966
967
967
965
966
970
970
966
966
968
973
975
974
973
971
971
972
974
971
973
972
972
976
978
977
972
971
970
971
975
972
968
967
969
971
971
970
969
971
972
977
982
987
987
992
1004
1026
1051
1071
1092
1117
1145
1180
1205
1229
1248
1258
1255
1235
1204
1155
1105
1064
1039
1024
1013
1002
992
990
988
985
979
973
969
966
962
960
960
960
957
952
953
955
956
957
954
948
947
946
950
950
947
945
941
945
949
949
946
945
943
946
948
948
946
942
943
945
949
951
952
950
949
954
960
961
964
965
967
972
977
979
978
973
973
979
986
987
984
982
987
986
993
993
990
991
990
990
993
992
990
985
982
983
984
984
979
973
971
974
976
974
971
969
967
967
969
965
963
959
960
963
963
963
959
957
954
957
961
964
960
955
958
958
964
960
955
951
952
958
958
956
952
949
950
951
953
951
951
952
952
955
956
957
955
949
952
955
956
954
951
952
952
960
967
967
966
964
966
967
970
967
962
964
963
965
965
964
960
957
961
965
967
967
965
963
963
967
971
969
966
963
962
964
966
965
963
959
960
960
965
963
961
958
956
957
960
960
959
957
958
957
957
957
954
952
947
949
949
948
947
944
944
948
953
955
954
953
955
955
960
961
960
958
961
965
968
966
964
964
963
967
971
971
970
967
965
965
968
969
967
958
963
964
969
969
969
964
970
975
980
979
982
983
988
997
1009
1026
1053
1076
1109
1145
1181
1213
1241
1267
1285
1286
1271
1231
1184
1128
1078
1043
1016
994
979
974
978
984
984
979
973
970
969
969
966
965
965
960
956
959
960
956
955
950
950
951
956
953
951
946
948
949
953
954
951
949
948
950
951
951
949
948
946
946
952
953
952
948
951
950
954
956
954
952
953
953
961
963
965
964
965
968
974
976
976
977
980
985
992
993
994
990
990
996
1001
1000
1001
999
997
999
1001
998
996
989
986
986
988
985
980
975
973
972
975
972
967
960
960
963
965
961
960
957
952
959
961
959
956
957
957
960
964
967
965
964
966
970
972
971
967
969
970
973
977
981
979
977
977
976
978
979
975
974
973
974
977
976
975
972
970
972
975
973
969
966
963
965
968
966
964
960
958
955
959
954
956
952
947
948
951
951
952
948
951
953
958
957
954
952
955
957
960
961
962
959
957
964
967
969
973
972
974
975
979
979
977
976
976
980
982
979
979
977
974
977
980
980
977
974
974
975
975
973
970
966
966
966
969
965
962
962
959
964
964
963
959
958
958
961
963
962
961
959
959
964
967
966
965
963
961
965
967
965
962
961
959
960
964
966
967
968
969
976
982
980
982
981
980
984
987
986
984
981
978
981
980
981
979
974
973
975
975
975
973
971
970
971
976
974
970
969
969
970
972
971
972
970
973
973
975
972
971
971
971
973
975
975
974
973
975
980
983
985
984
983
981
984
989
988
987
985
985
984
992
991
989
989
988
992
997
995
993
993
994
998
1001
1006
1007
1009
1017
1027
1045
1069
1096
1124
1162
1202
1232
1264
1298
1325
1340
1339
1313
1266
1202
1141
1089
1050
1023
997
984
977
986
992
997
991
986
981
980
980
979
976
975
970
970
971
972
969
966
963
963
964
968
964
963
961
962
964
967
967
964
963
962
961
967
967
965
963
964
967
971
970
968
965
965
968
968
971
970
967
971
975
977
980
980
978
979
985
988
988
984
985
985
989
994
993
988
986
988
992
995
993
992
990
992
997
998
998
994
992
990
991
991
988
980
977
977
979
977
976
969
962
967
969
965
968
965
959
960
965
968
967
962
958
960
963
969
968
962
967
969
973
979
978
977
975
976
981
982
984
984
982
982
985
986
988
986
986
988
990
994
991
993
992
992
995
994
993
991
988
987
990
990
989
987
983
978
981
981
977
972
971
971
973
975
971
970
966
967
972
974
973
970
969
974
977
983
984
983
984
991
1000
1010
1023
1040
1061
1078
1108
1137
1169
1200
1223
1252
1277
1296
1295
1276
1243
1200
1150
1105
1072
1043
1024
1011
1007
1007
1006
1000
993
988
985
988
984
979
974
970
973
975
971
966
963
962
962
964
963
960
956
952
952
952
953
952
950
950
951
957
956
956
954
953
956
961
959
956
954
957
958
965
967
967
966
968
969
975
977
977
977
977
980
986
986
986
987
987
991
995
997
997
995
997
1000
1001
1002
1001
1001
1000
1001
1009
1009
1008
1003
1002
1002
1002
1004
1000
993
991
990
991
986
981
975
973
976
978
974
973
967
966
971
972
970
966
963
962
963
969
968
967
967
964
969
972
968
965
963
967
970
973
969
969
965
964
966
971
970
968
969
967
968
972
974
970
967
969
969
973
974
970
969
967
969
973
973
968
965
968
969
972
970
968
966
965
967
968
969
962
963
962
962
964
967
968
963
961
964
966
965
964
963
963
966
970
971
967
967
967
971
973
970
972
969
968
971
970
971
969
967
970
974
979
974
975
968
968
972
975
975
974
971
970
974
977
977
976
972
969
973
980
979
978
972
972
973
978
977
974
971
971
973
974
975
971
966
966
969
973
974
969
969
968
968
971
972
966
963
960
964
966
967
967
966
964
967
974
973
972
970
970
972
974
974
973
971
971
973
979
977
974
972
971
973
977
975
975
972
972
975
974
975
974
974
976
974
978
976
976
970
976
978
981
974
976
972
972
975
978
976
975
973
974
972
977
976
976
973
971
974
978
976
973
970
972
977
981
979
975
971
974
977
980
981
980
982
984
985
986
991
988
988
991
996
1001
1001
1000
998
998
1002
1008
1011
1015
1020
1024
1042
1062
1086
1107
1135
1166
1199
1232
1257
1283
1304
1323
1320
1303
1266
1217
1161
1115
1078
1049
1026
1007
998
997
999
1000
995
985
980
977
977
977
973
969
967
962
964
970
962
963
961
957
960
961
960
957
956
958
963
968
969
969
966
970
974
978
980
976
973
973
975
979
978
973
971
974
976
978
979
976
976
976
977
980
983
980
978
980
982
986
986
984
983
984
988
992
994
991
988
991
995
998
999
997
1000
1000
1004
1009
1007
1004
1005
1003
1002
1005
1003
999
997
993
996
995
995
991
989
990
990
998
1000
996
990
988
988
988
988
986
985
983
985
984
982
978
974
972
976
977
975
973
968
966
971
975
974
971
970
971
974
975
974
973
969
970
971
974
975
972
971
972
973
978
977
975
972
971
973
979
978
976
974
974
975
975
975
975
976
978
981
986
987
985
988
990
995
995
994
992
990
992
992
995
993
989
986
986
988
991
987
988
985
988
993
1002
1003
1005
1011
1024
1042
1067
1091
1114
1134
1161
1195
1224
1250
1266
1282
1285
1273
1248
1201
1149
1097
1053
1026
1008
989
980
979
979
985
984
980
975
968
964
963
963
963
959
956
952
955
960
962
964
961
960
968
969
969
966
963
963
965
969
966
966
964
961
963
965
964
961
959
960
963
965
964
962
961
958
961
963
967
965
964
965
969
974
974
973
973
972
977
978
980
980
980
980
982
989
984
985
985
986
991
995
996
994
991
991
994
993
994
990
989
989
993
992
994
990
990
990
989
989
988
986
983
981
981
987
983
976
971
972
975
973
972
971
966
966
968
971
966
964
966
963
963
966
964
964
964
963
965
966
967
963
962
959
962
966
965
968
964
965
967
971
969
967
965
965
967
969
968
964
962
962
964
966
967
965
965
967
974
978
979
978
977
977
981
982
982
981
977
977
980
981
980
977
970
966
972
974
970
969
966
967
969
973
973
968
966
967
967
970
967
966
960
963
965
969
969
968
966
967
969
978
978
973
972
975
978
981
979
975
973
969
973
980
979
978
980
985
993
1002
1009
1018
1028
1054
1084
1116
1145
1178
1206
1240
1273
1307
1333
1340
1327
1293
1253
1199
1143
1091
1049
1017
994
985
983
986
986
982
980
978
974
966
959
959
959
965
960
960
958
956
960
964
965
962
960
959
960
963
961
959
955
954
959
962
960
958
955
954
960
964
965
963
964
965
969
974
974
974
972
972
972
975
976
972
967
971
971
978
976
973
969
969
970
974
972
970
966
967
970
973
972
973
970
972
974
979
978
978
978
978
981
983
985
982
978
978
978
980
981
976
972
970
968
971
972
967
966
967
970
973
972
969
969
971
975
978
978
978
976
977
976
978
979
974
972
973
973
972
972
971
967
965
962
968
968
964
961
958
962
964
963
960
957
958
961
963
963
959
957
957
959
962
960
958
956
958
961
964
962
959
960
960
963
967
966
962
959
962
961
966
965
963
962
963
969
974
974
975
970
972
973
976
972
971
967
966
970
976
974
973
970
970
973
975
975
970
968
966
970
973
973
972
969
972
974
976
978
976
976
979
986
993
999
1002
1007
1024
1052
1081
1111
1136
1166
1199
1230
1258
1283
1298
1299
1284
1261
1230
1183
1126
1080
1045
1020
999
988
984
981
983
981
977
977
970
967
967
967
968
967
965
961
958
958
962
960
957
953
955
954
953
954
953
947
950
950
948
948
950
948
948
948
952
952
950
949
947
949
956
954
950
950
951
954
957
958
956
953
957
961
967
967
965
965
967
967
971
968
968
966
968
975
980
979
976
977
978
981
984
987
987
983
982
983
989
986
981
977
975
974
973
970
966
961
959
957
960
956
952
950
951
951
954
951
949
946
945
946
948
947
945
942
941
945
952
953
953
952
954
958
963
959
960
957
960
962
966
967
965
964
967
974
975
977
981
982
988
997
1008
1022
1038
1066
1096
1124
1151
1179
1210
1234
1260
1278
1281
1267
1233
1189
1134
1079
1039
1013
997
981
970
971
968
960
955
948
947
943
946
944
940
934
938
937
943
937
938
938
938
939
942
939
935
934
938
941
944
946
941
941
942
945
949
949
945
945
949
949
953
952
947
944
944
949
951
949
950
949
949
953
955
951
950
949
947
956
959
958
955
956
958
961
961
963
960
960
962
969
973
977
977
976
976
975
980
977
975
975
972
974
974
973
967
965
965
964
966
967
963
960
963
964
967
966
962
962
963
964
970
963
965
960
961
963
963
962
962
957
956
959
961
964
961
960
958
960
962
960
956
955
956
955
958
959
955
953
953
955
955
958
955
951
955
956
957
954
954
950
950
954
954
953
951
951
953
954
959
959
955
955
956
958
962
962
958
957
957
961
963
960
959
955
957
962
961
962
961
957
958
960
960
963
960
961
959
961
965
963
959
954
954
957
957
956
954
951
954
958
962
959
959
954
954
955
960
959
956
958
959
964
968
969
965
968
972
980
989
991
997
1003
1026
1053
1085
1112
1140
1168
1201
1236
1264
1285
1295
1286
1261
1226
1179
1126
1076
1041
1017
999
989
984
980
977
976
972
972
964
958
951
952
953
955
953
949
944
945
945
949
946
943
939
941
945
945
947
946
944
943
948
952
953
952
949
952
954
957
955
956
953
956
958
960
959
957
956
960
964
965
966
964
963
964
966
970
969
968
967
969
971
973
973
971
967
967
974
979
979
981
979
976
982
984
983
981
981
981
986
987
985
982
979
978
978
981
980
976
972
971
972
973
971
969
965
967
968
969
969
969
964
964
966
972
970
969
964
965
967
965
966
962
963
961
963
968
969
967
965
965
969
969
970
968
966
968
970
975
972
969
969
970
975
976
976
977
971
970
979
980
978
973
969
970
975
977
974
970
969
968
970
975
974
971
969
971
970
972
972
967
968
970
973
974
973
970
966
970
971
972
973
974
971
975
979
988
991
996
1000
1018
1045
1075
1104
1138
1168
1199
1235
1269
1293
1298
1285
1244
1198
1145
1092
1047
1008
982
971
975
980
981
973
970
964
965
961
956
948
947
950
952
952
949
946
948
949
949
949
946
945
946
950
950
951
951
949
951
956
960
960
958
959
962
965
965
966
963
963
963
966
966
967
965
966
966
968
971
970
967
967
967
970
973
974
971
970
974
977
981
980
978
978
977
978
979
979
980
974
975
976
977
979
976
972
971
973
976
973
967
964
962
964
962
962
962
958
961
960
962
962
960
957
958
960
958
961
959
954
957
957
959
957
956
954
956
957
961
961
957
957
958
961
962
963
963
959
959
960
965
966
962
961
959
964
967
968
964
966
965
970
973
972
972
965
966
967
972
970
966
965
964
968
969
966
965
960
961
965
965
968
965
960
961
963
966
967
966
962
963
965
969
967
965
963
962
967
969
968
969
965
966
967
969
969
965
963
966
964
970
971
966
966
966
970
974
978
976
973
975
976
982
984
984
981
983
987
991
993
997
999
1004
1014
1026
1040
1061
1082
1111
1145
1180
1211
1235
1255
1282
1302
1308
1292
1261
1218
1160
1107
1067
1031
1001
981
975
983
987
988
981
975
970
968
970
965
959
958
956
959
959
954
952
953
951
957
959
958
955
955
952
958
959
961
962
960
961
965
967
965
965
961
961
967
969
968
964
966
964
966
969
970
966
966
966
969
969
969
965
963
964
966
970
967
966
962
967
971
975
975
974
973
972
975
980
977
975
976
978
983
982
980
979
979
980
981
982
982
979
977
980
978
983
981
979
978
976
975
976
978
974
971
969
971
972
971
970
969
967
969
971
969
969
968
969
971
971
970
968
969
971
973
975
972
972
967
969
974
975
974
971
970
972
971
971
973
973
972
968
973
974
974
973
973
972
979
982
987
989
988
988
993
993
1000
1001
1002
1008
1017
1030
1049
1072
1090
1111
1135
1169
1203
1225
1243
1259
1265
1257
1230
1188
1139
1091
1058
1039
1023
1008
992
982
980
981
976
972
964
961
959
957
955
952
948
947
949
955
953
948
947
950
952
955
953
951
950
950
952
957
958
959
957
959
964
969
969
967
966
965
970
973
972
969
964
968
970
973
971
970
966
968
973
972
972
972
967
969
973
976
977
974
975
972
978
981
984
981
976
980
985
989
990
987
985
986
990
990
988
984
981
982
983
986
984
980
978
974
975
976
973
972
968
968
969
973
971
970
967
965
964
968
965
961
960
959
964
967
969
964
964
965
966
972
973
968
967
966
968
969
967
964
960
961
962
963
963
960
955
958
961
964
966
966
961
965
966
