992
996
998
999
998
997
996
996
999
1000
998
997
996
994
996
997
997
995
993
993
996
998
996
994
989
989
991
997
995
991
988
988
991
993
991
985
981
983
985
985
982
982
979
981
984
986
984
983
983
983
988
990
985
988
981
984
987
989
987
987
986
991
993
995
999
998
997
999
998
1000
1000
998
996
997
1000
1003
1002
1002
1000
1003
1006
1007
1012
1010
1009
1017
1025
1036
1047
1065
1091
1121
1159
1197
1230
1261
1292
1322
1351
1359
1340
1298
1237
1170
1115
1069
1035
1005
992
996
1002
1008
1002
998
993
989
988
990
985
983
981
988
987
990
988
982
982
981
984
985
984
981
980
981
982
984
982
980
978
976
976
978
982
977
976
978
980
983
984
983
979
980
984
986
988
984
983
984
988
991
989
987
986
987
990
993
993
994
992
991
998
999
1005
1003
1003
1005
1009
1013
1015
1011
1008
1008
1012
1013
1011
1009
1007
1004
1006
1008
1006
999
997
997
998
1002
999
995
992
991
995
998
999
997
995
994
998
999
996
993
989
991
991
991
989
985
985
989
988
994
994
990
988
991
991
992
994
989
989
992
994
996
995
992
990
986
989
991
990
987
987
985
986
990
992
989
991
994
997
1001
1001
1001
1004
1008
1012
1019
1032
1045
1069
1098
1126
1156
1185
1217
1248
1273
1295
1308
1304
1281
1246
1198
1147
1103
1071
1051
1030
1013
1000
998
995
990
982
978
974
974
972
967
966
961
961
964
965
961
955
958
959
960
960
957
954
956
959
963
962
963
962
965
969
972
972
971
967
968
974
975
976
974
975
976
981
985
986
985
983
983
985
988
986
982
983
983
985
989
989
986
984
986
991
994
994
993
990
991
995
1001
1001
1000
997
998
1000
1001
999
997
990
986
989
990
987
987
986
985
983
987
984
981
975
977
978
982
981
980
977
978
977
980
978
977
973
977
979
981
979
977
973
971
974
979
975
972
970
964
966
971
974
971
964
967
972
975
974
973
971
970
972
975
977
972
970
968
975
976
976
975
974
975
980
983
982
982
983
982
989
992
988
989
989
990
992
996
994
991
991
987
990
994
993
991
987
991
993
993
992
989
987
989
991
994
992
988
986
985
985
989
989
987
985
987
988
993
997
994
997
1003
1022
1046
1075
1100
1130
1167
1209
1244
1277
1304
1321
1318
1298
1260
1207
1145
1095
1061
1039
1020
1014
1008
1007
1009
1007
1000
996
992
986
985
986
986
984
982
978
974
975
972
976
972
968
970
971
970
970
968
966
966
966
968
963
964
962
961
961
970
966
962
962
961
963
966
966
966
964
967
972
974
975
971
970
969
972
975
978
977
978
982
984
983
986
986
985
990
995
1000
1008
1008
1012
1016
1019
1023
1020
1017
1014
1013
1013
1014
1009
1002
1000
999
995
999
995
992
987
986
987
986
986
980
979
979
981
982
978
978
978
977
978
982
983
979
979
978
979
983
981
980
977
976
978
982
978
976
976
979
980
985
985
981
980
982
984
985
985
984
979
980
983
984
982
976
975
973
975
976
974
975
972
977
978
981
982
985
983
982
986
988
989
986
984
985
987
989
988
987
982
985
985
992
988
986
982
983
985
985
984
982
979
979
978
981
985
985
983
983
984
987
987
984
980
980
983
984
982
979
977
975
981
983
980
978
975
977
980
978
978
978
977
980
985
986
985
981
982
982
983
987
988
988
988
993
1002
1009
1016
1019
1022
1029
1041
1062
1084
1104
1132
1159
1197
1229
1258
1283
1311
1333
1345
1338
1310
1261
1204
1147
1097
1061
1030
1006
993
990
998
1003
1004
997
991
989
986
985
983
979
972
973
973
975
973
969
967
968
967
973
971
967
967
967
967
971
968
966
963
961
967
973
969
967
965
966
967
972
971
968
967
967
972
976
979
980
980
985
990
995
997
998
999
1000
1003
1005
1005
1003
1000
1002
1004
1008
1006
1007
1004
1007
1009
1015
1014
1013
1013
1011
1015
1018
1018
1017
1014
1014
1015
1015
1015
1011
1010
1005
1007
1006
1002
998
995
993
995
994
990
986
981
983
984
984
981
976
973
971
973
976
973
971
966
971
973
977
975
972
974
974
978
981
982
985
985
989
991
995
994
992
988
993
993
993
997
991
992
994
994
996
993
993
991
993
993
997
997
993
990
989
994
999
995
993
987
987
991
995
991
990
986
987
989
990
989
987
982
984
985
986
989
983
983
982
987
990
991
985
986
985
986
989
989
985
979
980
983
987
985
980
978
985
989
997
997
994
992
993
995
996
998
992
991
994
995
995
994
993
991
988
987
992
991
987
984
983
987
988
983
979
977
976
979
981
978
972
974
977
979
983
983
979
977
976
978
977
978
978
973
973
977
978
979
975
972
974
977
979
982
977
973
973
976
980
980
978
973
976
977
982
985
981
980
981
979
987
985
983
979
982
983
990
989
987
985
984
992
996
991
988
985
987
991
993
994
991
990
994
994
998
997
994
991
988
990
994
993
989
986
989
991
989
991
990
986
987
991
994
994
993
992
994
994
1000
1002
1001
1000
1002
1010
1020
1024
1027
1033
1050
1076
1106
1131
1161
1189
1221
1252
1282
1312
1337
1351
1349
1321
1281
1229
1170
1116
1076
1040
1013
991
983
984
995
1001
1004
1001
998
992
990
989
989
983
981
981
978
977
981
979
978
970
973
974
977
975
970
970
968
969
972
972
968
964
965
966
971
970
969
969
969
974
977
973
974
973
974
977
977
977
975
972
975
976
982
982
979
979
981
980
986
986
982
980
983
986
990
990
991
990
995
1000
1002
1004
1001
1003
1003
1008
1010
1008
1004
1004
1005
1009
1012
1008
1005
1001
1002
1003
1003
1001
996
997
996
995
997
997
991
988
989
993
995
991
988
983
986
986
990
989
985
982
984
988
988
982
981
983
985
984
984
989
986
982
985
988
990
992
987
982
984
985
988
988
989
989
991
995
996
1000
995
994
993
994
998
998
995
990
993
995
996
996
993
990
991
994
996
993
989
986
988
988
992
992
990
987
988
991
993
992
989
988
989
989
991
990
986
982
981
987
990
989
986
986
985
988
994
992
990
985
985
989
993
990
986
980
984
985
993
994
996
999
1008
1019
1039
1063
1085
1115
1147
1183
1226
1259
1288
1311
1330
1342
1327
1297
1251
1195
1136
1095
1063
1037
1020
1007
1005
1005
1010
1005
997
990
985
983
984
980
979
974
974
974
976
970
969
966
968
969
971
965
966
961
961
961
967
962
956
956
958
960
962
962
962
956
960
969
971
974
972
970
970
971
975
974
976
973
975
975
981
985
981
981
984
988
988
993
993
993
993
997
1006
1003
1002
1001
1003
1005
1008
1010
1010
1004
1004
1007
1008
1010
1006
1004
995
999
998
994
991
987
984
983
983
981
976
973
971
971
974
974
965
963
964
970
971
971
969
969
968
972
976
974
973
969
970
973
973
976
975
972
973
975
979
978
976
974
973
975
976
974
975
975
975
981
982
982
980
981
980
982
981
983
977
976
973
977
981
980
976
974
973
973
972
975
973
972
973
975
978
977
971
971
972
973
974
973
970
968
967
971
973
973
972
972
975
980
989
990
992
994
1001
1008
1012
1020
1033
1053
1085
1114
1144
1178
1208
1236
1262
1291
1313
1315
1297
1262
1218
1165
1114
1067
1029
1002
987
985
989
989
984
979
975
976
972
968
963
960
959
959
962
958
952
948
949
949
952
950
946
946
945
950
954
951
948
947
951
954
958
956
957
954
963
968
971
974
974
971
976
983
986
986
983
983
986
984
989
988
988
987
988
992
996
996
996
994
992
999
1000
1002
1000
997
996
1000
1004
1001
1000
995
998
997
998
997
993
988
989
989
989
985
982
980
981
982
984
978
975
972
974
977
978
973
969
966
967
969
972
973
972
971
966
974
978
975
975
973
971
974
977
975
974
971
970
972
973
972
969
966
966
968
974
969
970
967
966
966
969
969
966
964
967
967
972
971
967
967
965
969
969
970
971
969
971
975
978
978
976
973
976
979
980
984
983
980
980
983
985
985
983
979
984
987
991
988
985
984
985
988
989
988
986
981
982
986
988
987
984
982
983
983
986
982
982
976
975
975
979
976
972
969
970
970
973
972
969
962
962
967
970
969
968
967
963
969
975
976
974
969
971
977
978
977
977
974
974
977
978
979
976
974
972
975
977
974
971
969
969
970
975
973
970
971
973
975
980
981
978
975
971
973
970
975
971
967
967
968
970
970
967
963
965
969
972
971
967
969
968
973
977
977
976
975
977
979
983
985
982
979
977
982
982
984
981
978
977
979
981
981
978
975
977
976
981
981
977
971
971
974
976
977
974
971
970
974
975
974
971
969
973
976
979
982
980
984
986
994
1002
1010
1021
1034
1060
1092
1127
1165
1199
1230
1263
1295
1331
1353
1357
1339
1303
1257
1198
1139
1087
1046
1009
985
975
978
982
985
983
982
979
976
973
964
964
962
961
961
958
954
951
951
955
953
948
947
947
948
950
949
947
945
943
944
951
950
949
949
952
953
958
961
959
960
963
967
969
971
969
968
970
971
976
975
972
970
970
975
977
975
976
970
972
975
978
979
977
973
975
973
979
974
978
977
975
977
983
985
980
981
980
982
987
986
985
981
984
986
987
987
984
981
981
987
989
989
986
983
984
984
991
989
986
985
983
986
990
990
986
982
983
983
981
985
983
980
980
983
985
987
981
981
981
982
983
983
979
976
977
979
981
980
979
975
976
978
983
984
981
979
981
979
985
985
984
982
981
984
986
986
986
982
985
988
993
991
990
988
989
988
991
990
990
987
988
989
994
994
993
988
989
991
993
992
990
987
987
986
993
988
985
984
984
986
990
990
986
990
994
1000
1008
1017
1034
1057
1082
1114
1144
1179
1211
1242
1272
1301
1325
1333
1322
1292
1253
1204
1148
1096
1059
1031
1010
999
997
996
995
988
983
979
979
976
969
964
965
965
968
967
964
960
958
960
961
960
958
956
955
956
958
958
956
954
953
954
959
955
956
954
955
957
959
960
956
955
957
962
964
967
966
965
965
969
974
975
972
974
973
976
980
985
986
984
986
991
992
989
991
989
989
990
995
996
994
991
990
993
996
993
991
987
983
982
985
981
976
971
970
968
969
968
965
963
963
963
963
966
963
963
960
961
965
962
960
957
959
961
964
964
964
961
963
968
974
972
971
968
969
971
976
975
976
972
971
974
976
971
971
970
968
972
974
971
963
958
956
960
965
963
962
958
958
959
963
962
961
954
956
961
968
969
965
963
967
969
971
971
970
970
967
970
975
976
972
970
970
974
979
978
975
974
975
979
981
984
978
977
977
983
984
979
975
974
971
975
979
974
972
966
965
969
967
967
962
961
963
962
965
962
962
961
965
964
969
972
970
970
969
967
971
969
966
968
966
970
973
972
973
971
970
972
972
975
972
971
974
977
982
983
981
982
980
983
988
986
985
983
986
994
1000
1003
1005
1019
1039
1067
1098
1129
1159
1187
1221
1254
1287
1309
1313
1292
1259
1214
1158
1103
1059
1026
1003
992
988
988
986
979
978
975
972
967
960
956
954
956
956
958
955
955
953
957
960
960
957
954
955
956
959
957
956
954
955
956
958
958
955
954
956
954
959
958
957
956
959
962
966
968
966
966
970
970
972
975
974
973
976
977
983
982
980
980
980
981
986
987
984
984
987
988
992
992
991
988
991
989
993
993
990
987
986
986
991
986
982
980
982
980
984
983
980
974
975
976
976
976
974
971
969
972
976
975
972
970
968
968
970
973
970
970
968
967
972
972
968
968
965
968
971
968
964
963
961
963
966
968
965
964
965
965
971
972
970
969
971
972
974
977
975
975
974
979
980
982
981
976
975
979
984
987
984
983
980
982
981
982
982
975
978
982
986
984
982
979
973
978
980
982
979
972
974
973
976
976
972
968
965
969
974
972
968
966
967
968
971
972
971
967
967
972
978
981
979
977
977
980
985
984
985
982
982
992
997
1000
1003
1004
1008
1016
1030
1056
1081
1110
1144
1181
1218
1250
1278
1302
1326
1332
1316
1273
1222
1155
1096
1051
1020
995
978
971
974
985
986
984
977
969
962
962
962
960
955
955
955
963
964
963
958
956
960
961
963
962
960
961
962
965
968
967
964
961
963
965
968
967
964
964
965
967
968
969
967
967
965
971
974
976
975
973
971
980
982
983
982
982
982
984
990
989
987
986
987
992
995
999
999
996
997
999
1005
1006
1005
1002
1001
1004
1005
1005
1002
994
994
995
993
990
985
981
979
978
978
976
971
968
964
969
970
967
965
960
963
961
965
965
962
962
960
966
970
970
968
967
967
970
974
974
971
972
975
977
979
979
977
972
973
979
982
985
983
983
984
990
992
991
989
988
988
986
987
984
983
979
979
980
981
982
978
977
978
977
980
977
977
974
974
975
979
979
976
973
973
975
981
981
978
976
974
980
981
981
978
979
976
981
981
984
982
982
980
983
986
985
984
984
983
988
994
1002
1004
1008
1014
1025
1047
1074
1108
1141
1178
1221
1260
1293
1322
1349
1360
1351
1316
1260
1187
1118
1065
1027
1003
983
978
981
987
990
989
986
982
978
975
976
977
976
971
970
971
973
976
974
972
968
970
971
976
971
968
969
970
967
976
974
975
973
972
976
979
978
977
973
972
973
979
978
975
977
972
974
975
977
976
973
979
982
986
984
985
985
985
988
992
992
987
986
988
992
998
1001
999
1001
1001
1005
1010
1010
1007
1003
1001
1004
1006
1005
999
994
993
993
992
992
992
989
987
988
990
988
985
977
978
980
979
978
974
972
970
971
976
975
973
970
966
970
974
974
974
972
975
981
987
994
997
1003
1017
1043
1076
1110
1141
1166
1199
1240
1276
1300
1310
1309
1298
1280
1255
1216
1169
1119
1086
1067
1052
1031
1016
1007
1003
1000
999
992
987
980
976
976
976
976
970
965
963
964
963
959
956
953
949
950
950
949
948
946
945
946
951
949
947
943
944
947
948
948
948
948
947
951
954
955
954
953
952
960
963
966
965
964
967
972
975
981
983
983
984
988
993
997
999
1000
1002
1006
1011
1013
1010
1013
1011
1015
1016
1014
1016
1012
1010
1010
1011
1007
1001
999
994
992
990
990
989
983
977
978
979
977
973
969
968
970
974
969
966
962
960
966
968
968
966
965
967
972
975
977
974
972
973
977
983
984
981
977
979
980
983
984
982
978
980
981
983
983
979
977
976
976
979
979
975
972
969
974
975
975
975
973
971
973
974
971
970
966
965
964
970
971
970
963
962
965
968
970
964
962
960
960
966
966
967
962
964
968
969
974
973
971
972
977
979
978
971
972
973
974
978
978
976
973
971
970
970
972
971
969
967
968
975
975
975
973
973
975
978
976
976
973
976
977
980
979
979
975
974
976
978
976
975
973
973
973
975
970
973
970
971
973
975
976
971
970
973
975
975
976
972
969
970
973
979
980
976
976
977
979
981
981
978
974
975
977
981
980
978
974
977
978
977
980
974
973
972
974
979
977
976
976
977
980
984
984
984
983
987
991
995
1000
1002
1003
1018
1038
1062
1089
1112
1140
1170
1202
1231
1260
1286
1305
1316
1302
1279
1232
1181
1124
1082
1052
1031
1007
992
986
989
991
993
988
983
975
974
971
974
970
966
961
961
960
965
963
960
958
957
961
964
966
963
958
957
960
963
965
963
962
962
963
968
967
965
962
961
964
966
967
964
962
962
963
962
964
962
957
957
963
965
963
963
962
961
962
965
964
963
962
960
965
970
974
974
972
971
973
977
975
976
976
977
979
982
984
980
980
980
984
986
989
984
986
985
989
991
991
991
990
987
993
994
995
990
987
987
988
992
988
986
981
980
981
984
982
979
977
974
980
982
980
977
971
968
971
974
975
973
969
972
973
979
979
976
974
972
975
976
977
974
971
971
975
979
979
977
975
971
977
982
980
978
978
976
979
981
981
981
979
977
980
983
978
975
975
970
973
976
974
974
970
970
969
974
974
973
968
968
969
976
976
976
975
974
978
979
977
978
976
975
980
982
981
983
978
976
976
979
979
975
971
974
975
978
977
979
977
976
976
982
986
986
980
983
984
987
987
986
983
982
981
987
986
983
980
978
981
983
982
980
977
976
979
983
978
980
974
973
976
979
979
977
976
977
976
978
980
980
979
987
992
1001
1007
1014
1027
1053
1086
1120
1151
1183
1211
1238
1267
1300
1322
1326
1313
1289
1252
1203
1146
1094
1053
1023
1001
994
994
993
994
990
989
988
985
975
967
969
966
967
967
962
960
961
962
963
965
962
957
955
957
957
958
957
955
952
954
961
960
957
953
954
955
960
962
960
963
964
973
978
976
978
978
978
982
985
985
984
984
983
985
989
989
989
989
988
989
992
994
994
989
991
994
997
999
996
994
990
996
997
998
996
991
992
993
995
993
992
990
987
984
988
988
983
981
979
978
982
980
979
976
973
975
978
975
977
974
977
977
982
982
983
980
978
981
984
982
979
976
975
978
982
980
976
975
975
978
978
980
979
974
980
977
984
980
981
979
977
981
984
985
982
978
981
983
982
985
981
980
983
985
987
987
986
985
988
987
989
987
986
982
979
984
988
990
989
986
989
992
995
990
987
983
984
985
988
988
983
982
981
983
984
982
984
