966
967
970
972
969
966
966
968
972
972
970
969
969
971
982
980
978
974
973
976
978
978
974
972
973
973
973
971
968
965
966
967
972
971
973
973
972
974
980
977
974
972
973
974
977
975
972
970
968
975
981
981
980
982
987
993
1001
1012
1030
1052
1080
1108
1143
1173
1207
1228
1257
1275
1282
1270
1241
1202
1154
1109
1074
1047
1023
1004
992
991
989
985
977
972
967
966
967
963
958
955
953
951
954
953
953
952
949
952
956
953
948
947
948
947
951
951
948
947
945
951
953
952
949
948
946
950
950
951
952
950
952
955
960
962
958
955
954
956
962
966
961
957
959
958
966
967
963
962
961
966
970
971
971
969
965
969
972
975
971
965
966
969
973
971
968
965
966
968
972
974
971
969
970
971
973
973
967
965
965
965
969
966
966
964
963
965
971
968
966
963
962
964
968
967
966
962
958
961
969
965
965
960
963
965
967
966
965
963
963
968
969
966
960
962
962
965
967
965
964
959
961
960
961
964
961
962
963
971
976
976
975
975
975
979
983
982
979
974
976
978
980
979
978
975
974
977
979
979
975
974
971
970
975
976
972
970
972
972
972
975
971
971
971
970
976
974
973
972
972
971
977
978
976
974
974
977
982
980
979
977
975
980
987
992
998
1002
1012
1032
1060
1087
1112
1137
1168
1203
1233
1262
1281
1289
1285
1261
1224
1171
1118
1072
1041
1018
1008
1001
997
996
993
993
991
987
983
977
973
973
974
974
970
965
963
967
966
965
964
962
964
967
971
969
965
964
961
966
967
971
970
969
971
974
976
977
975
975
976
978
985
985
985
984
981
985
986
987
985
984
983
985
986
985
986
983
983
987
989
988
985
986
986
988
990
995
992
991
987
991
994
993
991
988
987
988
989
987
984
980
977
982
980
979
978
973
973
976
978
975
974
973
973
973
975
975
977
972
973
978
980
981
981
980
980
983
985
985
986
982
980
988
989
987
985
982
983
988
990
988
986
982
983
984
988
989
990
987
985
988
988
989
988
985
985
986
989
990
992
985
986
987
987
992
993
988
988
989
990
991
990
987
988
987
992
993
987
987
980
985
988
987
984
984
979
983
984
987
986
982
983
988
996
995
995
996
997
1001
1005
1004
1007
1008
1012
1022
1030
1043
1060
1082
1109
1141
1175
1207
1236
1257
1282
1303
1306
1287
1250
1203
1152
1103
1070
1039
1014
996
993
997
1002
1001
996
988
983
983
985
980
977
970
969
966
967
969
963
963
962
963
966
966
964
961
963
967
971
972
969
965
967
969
973
973
973
970
969
973
975
978
978
975
979
982
986
986
987
983
980
986
990
990
989
986
986
986
990
987
989
988
987
988
994
995
988
988
987
988
989
987
986
987
984
988
991
987
985
979
981
983
984
981
983
978
978
980
987
984
981
975
980
981
984
982
981
979
979
982
983
983
981
981
980
984
984
982
983
977
977
977
981
979
974
976
973
975
977
975
973
971
973
972
976
972
972
971
972
975
977
976
973
971
973
976
979
976
970
970
968
967
971
972
969
966
969
974
978
977
980
976
979
984
985
987
986
983
986
989
993
991
990
988
989
990
992
990
986
985
983
985
988
986
983
981
976
978
984
982
980
977
977
979
981
982
979
977
977
977
981
978
977
973
973
976
978
979
978
972
973
971
977
977
978
973
974
977
978
982
983
983
984
986
989
988
987
985
986
985
991
990
986
985
984
986
987
990
983
980
981
980
981
978
977
977
974
978
982
982
979
974
974
975
977
977
977
973
974
975
977
979
976
973
969
974
979
978
976
974
973
973
976
976
975
971
973
977
975
980
976
976
976
979
984
985
986
987
986
988
989
991
988
986
986
983
988
990
990
987
987
986
990
991
988
986
987
987
991
989
989
982
982
986
991
990
988
983
983
987
989
990
988
984
984
983
987
987
985
982
979
982
984
985
984
981
982
983
990
990
986
990
991
993
1001
1003
1005
1004
1011
1019
1039
1059
1082
1106
1133
1162
1192
1216
1242
1261
1284
1295
1294
1275
1238
1195
1147
1108
1077
1047
1025
1010
1004
1004
1007
1006
1001
992
988
985
985
982
978
972
971
972
974
969
969
966
961
965
967
965
961
960
958
960
963
966
962
955
957
958
963
964
961
957
957
964
968
969
967
965
966
965
969
969
970
968
970
974
981
981
985
980
979
984
986
986
986
982
980
984
988
990
983
984
986
985
990
991
989
987
989
992
996
996
995
992
993
995
996
998
994
993
995
996
997
997
995
991
990
990
993
991
985
982
983
982
980
979
980
975
974
976
976
973
972
971
969
973
972
973
969
968
968
974
976
977
979
976
978
982
984
983
983
980
979
982
984
983
981
982
979
982
986
984
982
981
978
980
983
980
981
979
978
982
982
986
982
980
977
980
980
983
980
979
977
977
981
979
975
973
973
975
977
977
973
972
973
973
975
976
971
967
965
971
972
972
968
966
967
968
973
969
971
971
974
977
982
980
977
977
976
981
982
983
984
980
979
983
986
982
981
979
982
984
988
986
982
977
979
976
980
977
975
972
971
976
979
979
977
975
975
978
981
979
979
976
979
981
985
985
984
983
983
986
989
992
994
994
1002
1009
1019
1038
1060
1079
1105
1135
1166
1194
1218
1239
1259
1278
1285
1276
1248
1209
1163
1122
1092
1064
1040
1020
1006
1002
1001
995
987
979
974
970
970
966
961
957
953
958
956
955
951
950
948
950
951
953
950
947
944
950
950
950
947
947
943
948
951
952
951
951
951
950
957
958
956
956
957
962
970
975
974
975
979
985
991
991
993
987
992
993
996
998
995
990
991
993
996
995
994
990
988
992
995
996
994
992
991
992
997
995
991
985
986
986
988
985
981
977
976
975
975
975
973
966
966
970
969
968
969
964
967
967
969
970
970
965
968
969
973
973
973
971
971
971
974
976
972
970
969
971
976
977
974
970
975
975
979
974
976
972
974
976
978
977
973
970
971
972
972
971
966
963
966
968
967
969
968
965
966
966
970
972
968
968
970
969
976
972
972
968
969
972
978
978
979
976
976
981
986
988
984
981
982
983
984
984
981
976
977
978
980
978
978
975
975
978
978
978
978
977
977
978
980
980
978
977
979
978
983
983
982
977
978
980
983
985
980
977
978
981
984
983
981
979
976
978
983
985
981
978
978
981
984
984
985
983
987
982
989
985
985
984
983
988
986
986
982
980
979
983
983
985
983
982
982
985
984
987
985
982
981
986
991
993
992
991
990
993
993
993
990
987
986
986
992
991
989
987
988
990
991
992
991
993
996
997
1001
1005
1010
1009
1015
1024
1037
1052
1077
1096
1126
1157
1187
1214
1235
1260
1286
1304
1314
1302
1270
1227
1178
1130
1091
1059
1024
1001
992
996
1002
1001
1000
994
988
987
988
982
980
972
971
972
974
974
971
965
963
967
976
976
972
970
972
974
977
975
976
973
971
971
979
977
975
973
972
976
981
981
977
975
976
979
981
984
985
982
981
982
988
983
986
984
985
985
989
993
990
986
986
989
994
994
994
988
989
993
995
999
997
993
995
997
1000
999
999
997
996
998
999
996
997
995
992
993
996
997
996
989
992
992
995
992
990
989
987
988
993
993
990
989
988
990
992
990
990
988
986
985
985
987
984
978
981
981
983
983
980
978
976
979
982
982
981
977
977
980
983
984
984
980
980
983
989
986
987
985
983
985
988
990
989
986
987
988
989
986
985
982
983
985
987
989
992
986
989
995
995
992
993
991
992
992
996
992
990
991
988
989
990
991
989
987
987
989
989
990
986
983
986
984
988
988
984
980
978
981
985
986
984
983
983
986
987
987
985
985
983
987
989
988
986
983
984
985
989
986
982
980
984
984
989
989
988
986
984
989
991
988
988
983
986
987
989
991
991
992
995
998
1004
1004
1007
1005
1010
1019
1027
1032
1038
1047
1065
1091
1118
1144
1169
1196
1224
1249
1278
1297
1308
1304
1291
1265
1234
1190
1144
1102
1068
1043
1026
1017
1015
1009
1010
1008
1006
1002
995
990
986
985
987
986
983
978
977
973
978
978
974
970
969
969
972
970
969
965
960
964
966
966
965
962
959
961
968
970
971
971
971
976
979
978
979
978
977
984
988
987
988
986
989
992
995
997
998
997
998
1000
1003
1002
1001
1001
998
1007
1009
1007
1006
1008
1008
1010
1012
1012
1009
1005
1004
1007
1009
1010
1006
1000
1000
1000
1002
997
993
990
985
985
985
987
984
978
975
978
979
978
977
977
977
979
982
983
982
978
974
979
983
984
982
982
978
983
987
987
986
979
979
983
987
986
984
982
981
983
988
986
987
985
985
988
992
992
992
988
986
990
992
992
991
984
986
986
988
988
987
982
982
986
986
985
984
979
979
981
985
986
982
983
981
985
989
989
988
985
985
989
992
993
992
988
989
993
997
995
995
998
1001
1010
1018
1026
1040
1057
1083
1110
1139
1169
1197
1219
1243
1269
1279
1270
1243
1203
1153
1106
1074
1047
1024
1009
999
996
997
993
985
978
973
971
970
966
957
952
956
954
955
955
953
954
958
961
966
963
961
958
961
963
963
961
961
961
962
968
970
971
972
969
969
972
973
978
977
978
979
981
984
986
986
985
986
986
989
994
992
988
990
990
997
996
994
992
994
994
999
1001
998
993
993
994
999
1000
998
994
990
991
992
992
985
982
981
978
977
977
975
972
972
973
976
979
974
973
971
971
975
976
973
972
970
971
974
977
975
974
971
973
974
977
973
970
968
969
971
970
970
966
966
967
971
971
970
966
961
965
965
965
967
964
966
967
970
969
966
964
961
966
970
970
968
968
967
970
973
974
973
972
970
973
975
975
972
970
970
976
981
983
978
975
973
976
979
977
978
979
980
984
987
988
985
981
981
982
987
986
982
983
982
984
987
986
984
982
982
984
987
987
986
982
981
980
984
982
984
984
984
986
989
994
991
989
988
991
994
997
1000
999
1002
1007
1014
1022
1035
1052
1078
1107
1137
1168
1199
1227
1252
1276
1292
1296
1277
1236
1184
1130
1085
1053
1028
1010
1001
997
998
998
993
985
978
980
978
976
973
968
966
967
967
965
967
964
960
965
968
967
965
962
961
963
968
967
966
962
962
967
970
968
966
965
963
967
968
973
968
969
971
975
977
981
980
976
974
978
981
981
980
980
982
986
987
991
999
999
1001
1002
1007
1007
1007
1003
1004
1007
1014
1015
1013
1010
1010
1008
1007
1009
1005
999
997
996
998
994
990
988
986
987
988
986
984
980
976
978
980
981
977
975
976
981
981
980
979
975
975
977
980
979
977
972
973
977
979
975
974
974
973
976
978
977
978
978
981
981
986
987
985
984
982
985
989
989
990
988
987
989
993
997
1003
1008
1019
1037
1062
1095
1125
1146
1169
1198
1234
1264
1285
1299
1302
1286
1257
1210
1150
1089
1045
1017
1005
996
992
986
989
983
986
982
977
974
970
968
969
969
964
959
959
960
962
961
959
955
952
956
957
958
957
954
960
966
970
969
972
966
967
972
977
978
979
976
977
978
982
984
986
983
984
985
987
987
987
988
987
993
995
998
1000
997
997
1002
1003
1004
1003
999
998
1001
1003
1002
1002
998
994
992
993
994
990
985
981
981
982
979
977
975
970
971
974
977
975
971
974
975
981
981
984
979
978
979
982
983
982
978
979
982
984
985
983
982
977
984
984
981
980
975
974
977
981
980
979
975
976
977
981
981
979
979
979
979
981
984
986
988
993
998
1009
1017
1031
1046
1073
1103
1133
1162
1196
1231
1263
1295
1319
1324
1312
1277
1231
1174
1121
1076
1046
1027
1011
1006
1004
1000
995
989
983
976
978
976
971
966
964
961
961
961
956
953
951
950
952
951
946
947
945
946
947
951
948
947
947
950
952
958
956
952
954
957
959
960
957
957
957
961
964
965
965
966
966
966
973
973
975
973
974
977
980
980
978
979
978
982
984
984
981
979
984
985
986
989
984
981
980
980
982
983
979
975
975
969
971
969
969
963
967
965
970
970
969
966
969
970
972
974
972
969
967
969
972
973
973
967
964
966
973
974
969
970
968
971
975
976
972
971
971
973
972
977
975
972
975
972
975
979
979
979
977
981
983
981
981
979
978
977
982
981
980
979
978
978
978
978
977
973
977
978
982
983
980
980
977
980
982
982
980
974
973
976
979
977
978
973
973
976
980
981
980
979
979
981
988
991
994
996
1000
1013
1033
1059
1084
1107
1132
1166
1201
1227
1252
1271
1283
1276
1258
1226
1176
1123
1078
1046
1020
1002
993
988
988
990
990
987
980
973
973
971
973
973
969
965
962
962
964
961
959
956
951
956
960
957
957
952
952
952
958
960
956
954
951
953
956
958
952
952
954
953
956
955
959
955
957
957
958
962
960
959
961
964
968
969
967
967
966
969
970
971
970
970
972
977
981
983
982
981
980
983
985
984
984
980
983
980
983
985
981
979
978
978
979
979
976
974
973
978
980
980
978
975
973
973
977
975
971
970
968
972
975
974
973
971
971
974
976
980
977
974
975
973
976
974
976
972
973
974
979
982
979
978
975
977
980
979
976
973
969
970
975
975
973
968
968
970
972
971
970
966
966
967
970
968
969
963
964
966
971
969
965
964
965
967
970
971
971
968
971
970
975
977
975
973
972
975
976
972
972
971
972
976
978
980
975
974
974
974
978
978
976
974
977
979
983
983
981
975
975
978
980
981
980
976
976
978
982
984
984
988
988
994
1001
1017
1038
1057
1084
1113
1145
1179
1207
1230
1254
1277
1289
1278
1254
1216
1167
1117
1079
1049
1026
1008
1000
995
998
997
994
988
985
983
985
982
980
972
969
969
971
970
966
964
963
965
966
966
962
958
960
961
964
965
960
959
959
961
963
962
960
958
957
960
959
960
961
957
956
960
959
962
962
959
961
965
967
969
969
967
964
967
970
972
972
970
967
969
975
979
979
977
977
979
982
985
983
984
983
984
989
989
987
987
987
988
989
991
987
985
984
982
985
984
984
977
975
977
978
979
975
970
969
972
970
972
969
968
966
966
971
973
968
967
963
966
972
972
967
967
967
970
974
975
975
973
970
973
979
981
979
977
976
977
979
981
979
976
975
974
979
982
981
976
975
976
982
984
982
979
978
981
984
984
982
979
980
981
984
986
982
981
980
980
985
981
977
975
975
976
977
975
974
970
970
969
975
975
975
972
973
974
978
980
981
979
980
981
985
981
982
981
981
984
987
985
987
986
988
992
999
1004
1011
1023
1041
1062
1093
1120
1148
1177
1205
1231
1264
1281
1288
1283
1258
1220
1180
1127
1079
1036
1009
994
985
983
980
980
976
976
972
973
964
957
955
955
955
956
956
950
950
954
959
957
959
956
957
958
962
963
961
959
959
961
965
965
966
965
963
966
969
972
970
968
968
970
970
970
969
971
968
971
971
974
971
971
971
975
978
978
979
978
971
975
979
982
981
981
979
983
985
986
986
983
983
987
991
991
992
988
987
991
991
992
992
988
988
988
988
987
984
983
983
983
983
984
983
980
980
979
984
984
983
979
979
982
984
984
982
977
978
979
980
982
976
974
972
975
976
975
973
968
966
968
970
971
967
965
966
968
974
975
974
971
971
974
973
975
974
971
969
977
981
984
984
982
979
981
981
985
984
982
980
982
987
989
988
984
982
986
987
989
986
984
980
983
985
989
985
982
981
985
985
986
984
982
981
980
986
986
985
980
979
981
983
982
979
977
975
977
979
978
979
976
972
973
978
980
976
975
976
978
982
981
984
982
983
987
990
988
989
985
983
983
991
989
990
986
985
984
988
990
988
984
985
985
988
991
988
985
985
988
992
994
995
993
995
995
1001
1001
1002
999
1000
1005
1009
1018
1024
1031
1050
1076
1105
1134
1162
1190
1215
1240
1267
1296
1316
1321
1306
1277
1237
1184
1129
1082
1045
1016
999
991
987
986
988
991
990
990
982
978
976
977
981
981
978
977
975
979
979
979
979
975
973
973
978
977
976
972
973
974
976
977
976
970
971
973
976
978
975
971
970
976
977
979
976
973
971
973
975
978
974
971
973
975
978
981
977
975
974
976
980
980
981
980
977
980
985
986
987
989
988
988
994
998
997
994
996
998
1001
1004
1003
999
1000
1001
1006
1004
1003
1001
999
997
997
997
995
991
987
987
990
989
988
985
982
985
987
987
985
982
983
986
987
986
982
981
978
983
981
983
979
979
977
982
981
985
984
983
984
988
990
990
986
983
982
987
985
986
988
983
983
984
989
989
988
985
986
986
992
994
991
988
986
989
991
990
989
989
989
994
1005
1008
1013
1019
1026
1051
1079
1107
1132
1157
1188
1221
1257
1281
1298
1303
1294
1275
1246
1205
1149
1104
1073
1053
1041
1029
1014
1002
998
1000
1000
996
989
982
981
980
982
979
975
972
971
973
973
973
970
967
966
967
970
966
965
960
960
960
962
964
961
957
958
958
961
963
961
957
958
960
969
971
972
969
969
971
976
979
978
978
977
981
988
990
987
987
987
987
994
997
998
995
995
999
1003
1005
1003
1002
1000
1003
1005
1008
1005
1000
999
1000
999
1000
996
990
988
988
989
987
984
982
