982
982
983
986
989
989
991
990
991
998
998
997
995
990
992
995
998
999
996
992
993
992
995
992
993
989
990
993
993
993
990
982
985
990
990
989
984
977
980
981
983
984
978
972
975
978
980
979
977
975
977
979
982
979
976
976
977
976
982
982
980
975
977
977
982
981
981
978
979
983
985
984
979
978
980
983
988
987
985
987
989
991
993
989
988
987
986
990
990
993
991
988
987
991
994
994
989
992
992
992
991
988
984
985
983
985
986
986
984
981
980
984
986
985
984
981
980
983
985
984
983
981
980
983
986
985
981
979
982
983
986
986
986
985
988
990
992
993
992
990
988
992
995
996
995
995
1000
1000
1006
1007
1007
1003
1003
1009
1013
1010
1011
1009
1010
1013
1013
1015
1016
1020
1028
1035
1045
1060
1080
1102
1129
1155
1178
1207
1231
1251
1270
1293
1304
1304
1288
1260
1218
1174
1129
1093
1063
1038
1019
1015
1015
1011
1010
1007
1002
999
998
995
994
992
992
989
991
988
985
982
984
986
987
986
984
982
986
990
991
989
984
984
986
991
991
989
987
988
989
994
996
994
990
988
989
990
994
993
987
985
987
990
991
992
989
988
987
992
994
992
993
992
996
996
998
999
995
995
996
998
1004
1003
1001
1002
1004
1005
1010
1009
1011
1011
1012
1018
1022
1017
1017
1015
1014
1016
1017
1016
1009
1007
1008
1010
1012
1008
1008
1007
1004
1005
1006
1002
998
998
1000
1002
1003
1003
998
998
997
999
997
994
993
992
994
997
999
997
993
991
992
993
995
995
993
990
991
996
995
995
990
990
991
995
994
994
991
991
993
996
998
998
996
993
993
998
1002
1002
1000
999
999
1001
1003
1004
1001
998
999
1004
1009
1010
1008
1010
1012
1014
1015
1017
1014
1011
1014
1016
1021
1019
1017
1015
1014
1022
1024
1028
1031
1037
1047
1066
1093
1116
1134
1155
1183
1211
1236
1258
1279
1292
1299
1289
1260
1218
1167
1118
1075
1049
1029
1009
998
995
998
1002
1005
1003
996
992
990
991
986
987
983
982
983
984
985
983
980
979
978
984
987
983
975
974
975
981
984
985
984
984
989
992
995
995
990
991
995
996
998
999
998
997
1000
1004
1003
1005
1005
1005
1008
1011
1015
1014
1012
1011
1015
1019
1021
1019
1019
1018
1019
1023
1023
1023
1023
1024
1026
1027
1030
1028
1025
1024
1024
1024
1027
1024
1023
1019
1018
1017
1019
1019
1013
1009
1008
1010
1010
1004
999
997
1001
1002
1004
1000
993
990
993
996
998
999
997
995
998
1000
1002
1000
999
998
997
1000
1003
1001
998
996
993
994
996
996
993
991
990
995
999
1000
995
994
994
994
997
994
989
988
990
992
992
991
990
988
990
986
989
987
989
989
991
991
993
992
993
991
993
994
995
993
989
988
989
990
992
992
989
986
986
988
989
992
992
989
993
997
1002
1001
997
997
999
1001
1002
1001
998
994
997
993
996
995
996
992
992
995
998
1000
996
996
995
995
996
995
993
990
991
991
993
991
990
988
990
988
990
991
990
988
989
988
989
991
988
986
988
992
994
994
993
990
990
993
995
996
994
994
995
997
1000
1003
1001
1002
1002
1003
1003
1004
998
994
996
997
1000
999
996
993
993
995
996
996
994
993
992
996
997
995
993
991
996
1000
997
996
994
991
991
990
990
990
987
985
984
986
991
988
987
985
987
987
991
993
992
994
998
1003
1003
1003
1000
998
1000
1003
1004
1002
1002
998
999
1004
1005
1002
1003
1000
1004
1005
1005
1006
999
1001
1001
1000
1003
998
999
998
999
1001
1002
999
996
996
995
998
1002
1001
998
1000
999
1000
1003
999
998
996
999
1000
1004
1002
1000
996
997
1000
1003
1002
1000
1002
1003
1007
1009
1009
1007
1007
1009
1010
1012
1014
1009
1008
1009
1010
1012
1009
1009
1009
1008
1013
1011
1011
1008
1007
1009
1015
1018
1020
1023
1027
1033
1047
1067
1086
1109
1140
1171
1205
1241
1270
1297
1322
1346
1357
1348
1317
1271
1217
1167
1127
1094
1057
1030
1013
1012
1017
1023
1020
1015
1009
1010
1009
1010
1006
1001
1000
1001
1002
1005
1006
1003
1000
1002
1004
1005
1003
997
996
997
998
1000
998
996
994
992
995
1000
998
996
993
991
993
996
994
995
996
996
998
999
1000
999
998
998
999
1004
1004
1004
1000
1002
1005
1008
1009
1006
1005
1006
1010
1013
1012
1009
1008
1010
1013
1017
1018
1018
1018
1019
1024
1030
1027
1029
1025
1027
1029
1033
1030
1027
1026
1026
1024
1027
1023
1017
1016
1015
1014
1016
1012
1009
1008
1008
1007
1007
1004
1006
1002
1003
1000
1004
1003
1001
999
997
1002
1002
1002
998
994
995
1002
1001
999
1002
999
998
1003
1005
1004
1002
1000
1001
1005
1008
1007
1008
1004
1006
1010
1014
1013
1014
1010
1014
1017
1018
1019
1018
1015
1013
1017
1017
1018
1015
1015
1015
1019
1021
1019
1019
1016
1016
1018
1021
1020
1022
1020
1019
1020
1023
1022
1018
1017
1017
1021
1022
1021
1018
1017
1018
1019
1021
1026
1027
1029
1034
1041
1052
1069
1089
1105
1132
1162
1197
1227
1252
1273
1295
1310
1310
1295
1263
1220
1172
1135
1108
1082
1058
1041
1031
1029
1028
1025
1017
1008
1005
1002
1001
1000
995
992
992
989
993
993
991
988
987
990
991
989
989
987
987
993
994
996
993
989
989
991
994
992
992
989
988
991
995
995
992
990
992
994
999
997
999
1000
1004
1007
1013
1016
1011
1011
1015
1019
1023
1021
1025
1024
1026
1030
1036
1035
1035
1034
1034
1037
1041
1040
1035
1032
1030
1031
1033
1027
1022
1018
1018
1018
1018
1013
1010
1007
1005
1005
1006
1004
1000
995
997
997
997
996
995
992
993
994
995
993
990
989
991
991
997
994
993
992
995
999
1008
1011
1011
1016
1024
1035
1054
1076
1103
1134
1168
1203
1236
1268
1296
1314
1327
1329
1316
1284
1237
1181
1120
1080
1061
1047
1029
1021
1015
1011
1012
1007
998
991
989
985
984
982
976
974
970
975
976
975
971
970
970
972
974
971
970
967
967
969
971
970
968
967
969
974
975
975
973
977
981
983
983
985
986
988
992
994
996
998
997
999
1001
1007
1010
1009
1009
1009
1013
1020
1022
1023
1020
1019
1023
1023
1029
1026
1024
1022
1024
1024
1027
1025
1022
1017
1017
1018
1014
1012
1009
1004
1002
1004
1004
1000
998
995
994
997
996
992
990
983
985
986
987
986
984
985
987
990
991
994
989
989
990
993
992
992
993
991
991
992
996
994
992
989
992
993
991
991
988
986
988
991
990
990
985
982
985
987
989
991
988
988
988
991
992
993
990
989
988
994
994
994
992
987
990
991
994
992
991
987
986
984
991
991
988
985
985
987
989
988
986
986
986
989
994
994
994
990
989
993
993
992
990
990
993
996
1000
1000
1002
1004
1007
1011
1020
1024
1027
1030
1043
1067
1095
1121
1146
1174
1208
1239
1273
1301
1320
1325
1311
1279
1236
1178
1123
1079
1046
1024
1011
1008
1006
1005
1003
1002
1001
996
989
984
982
982
984
984
979
975
975
978
980
978
973
972
971
975
977
977
972
971
972
975
978
976
973
975
976
976
980
982
979
979
980
983
985
984
981
981
982
986
987
988
985
984
987
992
994
996
992
992
994
998
1003
1000
1000
1000
1002
1008
1012
1011
1011
1010
1013
1015
1018
1016
1014
1011
1012
1012
1012
1008
1003
1001
1002
1001
1002
1002
997
994
992
996
998
995
995
989
993
995
998
998
998
994
995
995
996
994
990
989
989
992
995
994
993
988
988
991
990
994
989
988
987
991
991
990
990
987
986
989
991
991
990
989
991
993
993
992
990
989
992
994
994
995
993
991
990
992
993
993
992
988
992
992
993
996
995
992
993
993
998
997
994
992
992
993
994
993
991
986
987
990
992
991
988
985
990
991
993
992
990
988
986
989
994
991
991
991
994
996
998
997
995
994
996
997
1001
1001
1000
1000
1006
1009
1015
1022
1021
1024
1032
1052
1074
1097
1122
1147
1180
1214
1248
1278
1305
1320
1323
1306
1278
1228
1172
1124
1086
1059
1040
1027
1018
1014
1012
1011
1007
1001
994
987
987
987
983
980
979
972
970
975
979
977
976
975
973
975
978
978
974
973
975
978
982
984
981
981
984
988
989
990
990
984
989
991
995
995
993
994
995
1000
1002
1003
998
998
1001
1009
1015
1016
1014
1012
1014
1018
1022
1022
1019
1019
1021
1023
1026
1026
1024
1022
1024
1025
1023
1017
1011
1006
1007
1008
1009
1007
1004
1000
1001
1000
1002
1000
996
994
992
997
999
998
996
992
995
999
1001
1000
995
992
994
997
997
998
996
994
993
998
1001
999
995
995
996
998
1003
1001
999
997
1000
1004
1005
1004
1001
999
998
1000
1004
1003
998
998
999
999
999
997
995
995
997
999
1002
999
997
997
997
997
1002
1002
999
999
1001
1003
1006
1005
1002
1002
1006
1009
1010
1007
1004
1000
1003
1003
1005
1001
998
995
998
1001
1000
1003
996
999
1002
1006
1007
1007
1006
1004
1008
1009
1010
1009
1009
1006
1008
1010
1010
1009
1004
999
1000
1001
1003
1000
995
993
999
999
1000
999
997
992
993
998
999
1001
999
997
994
998
1003
1001
999
998
1000
1002
1005
1003
1004
1004
1004
1008
1009
1008
1008
1010
1014
1022
1028
1031
1042
1061
1085
1113
1146
1184
1218
1254
1286
1319
1346
1358
1346
1311
1261
1202
1149
1100
1061
1029
1012
1011
1018
1019
1013
1007
1004
1003
1001
999
992
990
991
994
997
994
991
989
986
990
992
991
985
981
982
984
986
983
980
977
978
984
985
986
983
984
985
991
994
994
994
992
996
998
1001
1001
999
995
996
1005
1007
1007
1004
1004
1006
1008
1012
1012
1009
1008
1013
1015
1020
1017
1019
1018
1017
1021
1023
1022
1023
1022
1020
1023
1025
1020
1013
1010
1010
1009
1006
1005
998
994
992
994
996
995
994
991
992
997
993
996
991
989
992
993
996
994
989
987
989
990
996
994
990
988
987
990
993
990
992
989
990
993
995
995
992
990
994
998
999
1000
998
997
999
1001
1007
1005
1000
997
997
999
999
1000
995
992
993
996
999
999
997
994
997
998
1000
999
997
996
999
1002
1003
1000
997
994
995
999
1000
998
995
990
992
997
997
995
992
992
992
994
996
994
990
992
992
994
995
994
989
984
991
996
999
999
996
994
994
996
996
994
993
990
991
994
996
994
990
988
992
995
997
995
989
986
990
994
998
995
995
993
995
996
1000
998
994
993
993
994
997
994
988
986
987
987
989
987
985
983
984
986
991
989
988
986
990
992
996
992
990
992
996
1000
1003
1004
1003
1004
1009
1016
1023
1029
1031
1036
1051
1074
1101
1128
1151
1176
1210
1241
1271
1298
1319
1332
1334
1317
1293
1251
1202
1157
1114
1081
1058
1032
1018
1008
1011
1012
1015
1009
1004
997
995
994
992
988
986
985
982
986
984
984
982
977
975
979
978
978
977
976
978
978
979
977
974
976
977
981
985
986
984
986
985
990
993
989
989
987
989
990
993
994
991
989
991
996
998
998
997
998
999
1003
1006
1004
1002
999
1000
1006
1006
1008
1007
1006
1007
1010
1014
1012
1009
1008
1009
1013
1014
1011
1005
1003
1003
1004
1004
1002
999
996
995
996
999
999
995
992
995
996
998
997
996
994
995
999
1000
999
996
996
998
996
1000
995
994
991
990
994
995
995
993
991
990
992
995
990
987
986
986
991
994
991
985
985
987
985
986
986
981
980
983
985
985
985
983
980
984
989
991
989
985
984
985
990
994
994
991
989
991
997
1000
1000
998
998
1001
1002
1006
1001
1000
998
998
999
1001
1002
1001
998
999
1002
1000
998
994
994
996
997
999
998
995
994
996
998
1000
1000
994
992
992
993
997
990
987
985
990
991
991
991
989
986
985
988
989
990
985
983
981
985
991
990
986
986
986
987
991
991
989
988
990
993
998
998
998
997
996
1002
1003
1004
1000
999
1000
1001
1006
1002
999
997
1000
1002
1003
1001
1001
998
1000
1004
1014
1016
1019
1023
1035
1052
1077
1102
1124
1153
1184
1218
1244
1271
1290
1300
1299
1280
1247
1198
1146
1103
1070
1048
1032
1019
1010
1011
1010
1011
1008
1004
995
993
991
992
994
991
992
986
989
991
992
989
986
984
985
986
989
987
987
986
984
987
990
989
986
985
989
990
992
992
992
991
994
996
999
1000
999
998
998
1000
1001
999
999
999
1002
1003
1007
1004
1007
1008
1010
1011
1015
1016
1018
1017
1019
1024
1028
1029
1031
1031
1034
1034
1036
1037
1031
1028
1027
1029
1029
1025
1020
1016
1017
1016
1016
1013
1007
1005
1004
1004
1005
1002
998
996
997
995
999
996
992
990
992
994
997
993
993
990
992
994
994
991
993
988
989
993
994
992
991
988
989
988
992
991
990
986
987
988
991
992
988
988
987
991
994
992
991
988
988
988
993
994
990
989
990
994
997
994
992
991
991
995
998
997
998
991
991
998
996
1000
995
994
995
995
997
998
996
994
996
997
1001
998
999
998
996
1000
1004
1001
999
999
1001
1003
1005
1002
1000
998
997
998
1002
1000
999
1000
1000
1002
1002
1003
998
995
995
998
1002
999
996
996
995
996
1000
999
997
996
999
1002
1003
1001
1000
998
998
1003
1004
997
996
991
994
994
996
995
994
990
991
992
994
990
987
982
984
988
992
990
993
992
996
998
999
998
995
996
996
1000
999
998
994
992
995
1000
1002
999
995
991
994
998
1003
1003
996
995
999
1007
1013
1017
1020
1024
1032
1043
1062
1077
1095
1119
1147
1178
1210
1240
1263
1285
1308
1322
1320
1298
1260
1213
1166
1123
1087
1058
1035
1022
1016
1019
1023
1021
1016
1009
1006
1005
1007
1006
1000
995
993
996
997
995
992
989
990
990
992
990
990
986
991
992
995
996
991
990
992
993
994
994
993
990
996
996
1002
1001
999
999
1000
1006
1009
1008
1007
1006
1008
1011
1017
1015
1014
1012
1014
1018
1022
1023
1020
1021
1025
1031
1034
1034
1032
1031
1032
1036
1042
1042
1042
1039
1039
1041
1042
1039
1038
1033
1031
1033
1031
1029
1023
1017
1016
1015
1016
1014
1010
1006
1007
1007
1009
1008
1002
1002
1001
1004
1007
1006
1005
1001
1003
1008
1007
1008
1005
1003
1006
1008
1010
1012
1008
1007
1005
1007
1010
1008
1005
1003
1003
1004
1007
1006
999
998
994
998
1002
1000
996
996
996
999
1002
1002
1002
1001
1003
1004
1008
1006
1003
1002
1001
1003
1008
1006
1004
1003
1004
1007
1007
1003
1005
1002
1004
1004
1009
1010
1008
1002
1009
1010
1010
1010
1010
1008
1012
1012
1013
1015
1015
1014
1015
1017
1021
1018
1016
1015
1015
1017
1018
1015
1013
1012
1012
1012
1012
1010
1006
1002
1005
1007
1008
1004
1000
999
1000
1000
1004
1001
1000
998
997
1001
1006
1006
1003
1000
1006
1008
1011
1008
1004
1005
1007
1009
1011
1010
1008
1005
1006
1010
1013
1015
1015
1014
1019
1022
1031
1034
1039
1043
1055
1073
1100
1125
1149
1177
1209
1240
1266
1290
1318
1340
1355
1354
1336
1301
1253
1198
1147
1106
1074
1046
1024
1017
1020
1025
1028
1024
1019
1013
1010
1007
1005
1000
996
995
992
993
994
990
988
987
988
990
992
990
989
986
988
989
998
995
995
995
996
1003
1006
1007
1005
1005
1003
1009
1013
1014
1013
1009
1016
1017
1017
1014
1011
1013
1013
1018
1021
1021
1021
1017
1021
1028
1029
1028
1028
1029
1029
1031
1036
1033
1031
1032
1035
1034
1040
1037
1036
1030
1035
1034
1031
1032
1027
1024
1024
1023
1022
1018
1015
1011
1011
1012
1012
1009
1004
1003
1002
1004
1005
1004
998
994
997
999
1003
1002
1001
1002
1003
1006
1010
1011
1006
1002
1002
1001
1005
1003
999
996
1000
1002
1001
1003
1000
998
998
1002
1005
1004
1000
1000
1001
1004
1009
1010
1009
1006
1010
1015
1023
1028
1034
1040
1058
1091
1122
1150
1181
1215
1249
1289
1316
1335
1337
1332
1308
1280
1239
1180
1128
1088
1073
1059
1046
1032
1023
1017
1013
1010
1008
1001
995
993
991
992
995
994
987
987
986
988
987
987
985
984
980
985
987
983
979
977
977
979
984
983
981
982
982
987
989
988
983
982
985
988
990
991
990
991
995
1000
1005
1007
1004
1003
1004
1010
1015
1015
1013
1017
1019
1026
1027
1026
1024
1025
1023
1030
1031
1030
1027
1026
1023
1024
1026
1021
1014
1009
1009
1008
1011
1006
1003
1000
998
998
998
996
991
988
988
989
992
991
987
983
984
986
992
990
987
986
984
990
992
990
984
987
990
987
992
994
990
991
993
994
994
998
996
993
995
999
1000
999
997
996
994
997
1000
999
998
994
993
996
996
995
991
989
989
991
994
991
984
984
983
989
992
992
992
989
990
991
995
994
989
986
986
988
990
987
983
981
979
984
988
986
984
982
984
987
991
989
988
986
986
989
992
990
987
985
985
984
988
992
987
984
984
989
989
991
986
985
983
988
989
987
984
984
986
988
990
987
987
984
984
988
990
993
994
992
995
998
1003
1003
1002
1000
1002
1002
1006
1006
1002
997
999
1002
1005
1004
1001
999
1003
1006
1007
1010
1009
1011
1017
1025
1030
1036
1044
1055
1075
1101
1124
1151
1177
1202
1228
1256
1280
1294
1292
1273
1246
1209
1164
1120
1081
1053
1032
1020
1013
1009
1005
996
995
992
991
985
980
975
973
975
976
972
971
968
965
968
972
970
969
969
967
970
972
973
970
969
971
977
980
983
981
980
982
982
986
990
988
989
992
994
997
999
996
995
996
997
1001
999
999
994
999
1002
1003
1003
1003
999
998
1001
1001
1000
999
998
1000
1004
1002
1001
1001
1000
1000
1001
1005
1000
996
994
994
995
997
996
992
989
990
992
993
989
990
988
988
989
990
991
986
984
985
987
989
989
985
984
982
984
989
987
983
982
982
983
985
984
983
983
986
989
993
993
991
989
987
991
991
992
990
989
988
991
989
992
985
984
980
984
988
986
984
983
982
986
988
986
984
982
981
986
985
983
980
980
981
984
985
981
982
978
979
985
986
985
982
980
979
979
985
983
981
978
981
983
984
983
981
982
986
989
991
990
986
985
986
984
985
986
983
981
984
985
988
987
985
984
988
989
995
993
991
993
996
1003
1009
1015
1017
1022
1038
1060
1085
1112
1139
1167
1199
1226
1253
1275
1287
1285
1267
1240
1202
1152
1104
1068
1042
1029
1016
1007
1003
1000
999
994
992
984
980
974
974
976
979
977
974
968
968
969
973
969
968
963
966
968
972
970
969
966
968
972
974
974
969
966
968
971
979
975
971
971
974
977
980
981
980
980
982
987
989
992
991
991
993
995
999
997
997
995
1001
1004
1007
1007
