946
944
944
947
950
949
949
947
947
948
951
950
949
946
947
946
952
950
949
948
947
951
952
954
957
956
956
961
962
965
964
961
962
960
963
963
962
960
960
959
963
963
965
963
959
962
963
965
962
959
958
960
962
966
966
962
965
968
974
980
980
982
987
1002
1027
1052
1073
1097
1127
1164
1198
1227
1252
1271
1287
1288
1273
1243
1199
1141
1095
1058
1032
1013
998
981
980
983
983
983
976
968
964
961
961
959
953
952
951
952
952
955
952
950
946
949
951
951
949
946
944
945
947
948
946
943
937
939
939
942
942
938
936
936
939
939
933
932
934
937
938
941
940
935
937
939
942
946
944
947
946
949
953
955
953
955
957
962
967
971
973
975
974
976
981
985
986
985
984
987
990
991
992
987
986
984
986
983
979
975
974
972
972
970
969
964
958
957
958
956
953
946
947
949
947
947
946
941
940
940
941
944
943
942
941
943
948
950
948
945
947
950
953
951
948
947
945
949
951
954
953
951
952
954
955
957
957
957
957
959
960
963
961
960
959
958
961
962
958
956
954
958
960
956
958
954
956
957
960
961
959
958
958
958
962
963
962
957
954
956
957
959
962
959
955
955
960
961
960
957
955
958
958
961
962
957
956
953
957
957
957
955
955
957
958
961
960
960
960
962
967
970
972
972
974
981
993
1007
1028
1049
1075
1103
1136
1170
1202
1229
1257
1285
1298
1293
1271
1234
1181
1127
1082
1048
1019
995
981
978
980
979
973
965
956
955
953
954
950
948
944
945
945
949
949
947
939
943
944
939
941
939
939
944
946
946
949
946
946
948
950
953
950
948
947
949
951
952
954
950
952
954
955
956
957
956
956
956
958
958
962
959
960
963
963
966
966
966
964
966
971
972
973
969
970
971
975
973
972
971
969
969
972
971
966
963
961
962
963
963
960
959
956
960
961
964
959
955
952
957
959
956
956
951
946
951
951
957
954
950
950
950
953
956
952
952
950
949
951
951
951
945
947
946
948
948
947
945
939
943
945
949
947
942
941
943
945
948
947
946
945
948
952
955
954
953
956
958
960
963
965
960
961
963
963
963
962
960
958
960
963
965
964
962
962
964
969
968
968
965
965
965
968
967
966
961
960
963
964
961
958
957
953
956
957
959
958
953
954
955
959
961
962
960
964
970
977
983
985
998
1019
1044
1075
1106
1136
1169
1198
1231
1262
1289
1302
1297
1272
1237
1193
1137
1086
1045
1019
999
991
985
986
982
977
976
974
970
966
964
961
957
960
957
955
953
950
949
948
950
948
943
942
943
944
944
941
941
937
937
939
940
940
939
940
941
942
947
946
940
941
945
951
954
956
956
957
959
961
964
968
967
968
972
976
979
980
979
980
982
984
989
991
988
987
992
995
995
997
995
995
997
997
999
999
993
993
990
989
986
986
981
978
977
980
977
973
970
969
972
973
973
969
966
962
965
965
968
967
964
964
967
971
971
969
967
966
968
971
971
970
967
965
965
969
970
967
962
959
962
967
966
965
962
962
966
969
966
964
959
959
958
959
962
960
959
957
957
963
964
961
961
960
964
969
971
972
971
972
974
976
976
975
976
977
977
980
980
979
975
978
983
984
985
984
979
977
978
979
980
978
973
975
976
981
981
979
977
977
976
979
982
977
979
977
975
975
974
974
970
968
970
970
969
968
967
968
968
972
975
976
970
975
984
991
999
1007
1012
1025
1054
1086
1122
1159
1195
1230
1263
1297
1327
1344
1343
1316
1274
1219
1156
1100
1055
1022
1002
992
993
998
996
994
994
993
991
983
977
971
974
974
970
966
962
961
962
963
963
962
956
955
958
959
960
956
950
949
953
955
954
956
952
956
960
962
964
962
959
959
964
966
969
967
966
971
975
977
979
978
976
979
979
982
987
985
987
988
992
996
993
992
990
992
991
996
995
993
992
991
990
995
994
993
992
988
990
992
990
984
980
977
975
973
974
968
965
966
967
968
970
972
969
969
971
974
972
974
971
970
970
973
976
973
972
969
972
976
977
975
972
973
973
973
975
975
971
970
970
972
972
975
969
968
968
969
968
966
965
962
965
965
967
964
961
960
961
963
964
964
962
962
963
963
966
967
962
963
963
968
970
969
966
962
962
967
965
965
960
962
966
971
973
971
971
968
972
979
982
980
978
976
977
978
978
977
974
972
974
975
975
973
969
967
970
972
972
970
966
966
967
971
971
968
964
962
966
970
969
969
966
961
967
971
972
970
967
966
970
975
975
972
971
972
975
978
976
976
973
971
971
976
973
972
970
970
971
971
971
970
969
969
973
977
981
979
977
978
981
986
987
988
986
990
997
1002
1015
1030
1052
1081
1113
1148
1182
1215
1241
1272
1301
1317
1310
1277
1229
1169
1113
1070
1037
1005
985
982
986
988
990
985
974
967
965
965
963
963
957
953
954
953
952
954
951
950
951
952
953
948
949
946
950
951
952
950
948
949
953
959
963
963
959
961
962
965
967
964
963
964
963
969
970
972
971
972
975
977
981
978
979
977
984
988
989
988
985
983
985
991
990
988
988
988
990
992
993
989
987
986
987
988
984
979
979
975
977
978
980
978
977
973
968
971
969
964
960
958
960
960
962
960
959
960
964
969
969
968
965
964
966
971
973
971
971
971
972
975
973
971
966
965
967
971
969
968
964
962
967
967
969
967
962
961
964
965
966
963
963
963
963
967
965
965
961
962
963
965
965
961
956
956
955
959
960
957
956
956
960
968
969
972
968
971
971
976
977
975
974
972
976
979
980
976
970
970
972
975
976
971
969
968
973
974
974
975
970
967
972
975
973
972
969
967
966
969
968
962
960
962
965
967
969
964
961
959
959
963
964
964
961
961
959
962
965
965
966
972
977
984
985
987
985
986
992
1003
1010
1013
1022
1039
1061
1085
1114
1139
1167
1198
1229
1257
1284
1300
1303
1287
1262
1224
1169
1116
1076
1045
1023
1012
1004
997
994
990
985
984
976
970
964
959
959
959
959
953
951
948
950
952
950
949
946
944
945
952
950
950
952
953
958
963
960
961
964
963
964
971
972
971
968
969
970
973
973
973
971
970
974
976
978
977
975
978
978
981
982
981
979
978
981
982
981
982
979
979
980
987
987
987
984
984
985
990
990
987
986
983
985
986
980
982
977
978
979
978
979
975
974
973
976
977
978
977
972
969
971
974
975
974
971
972
972
972
978
973
970
970
971
974
975
973
969
968
968
973
974
973
970
968
971
974
974
972
968
970
971
974
977
976
977
982
990
1003
1018
1035
1060
1092
1121
1151
1179
1212
1240
1265
1282
1290
1277
1246
1203
1150
1098
1060
1036
1022
1009
997
996
997
998
989
984
978
976
975
974
968
965
962
962
964
963
962
959
959
960
959
959
956
955
955
954
956
958
957
954
950
951
953
955
954
953
948
951
957
957
955
951
953
953
957
960
962
962
965
970
976
978
976
976
981
985
988
991
993
989
992
996
1002
1005
1005
1005
1007
1013
1016
1018
1016
1014
1013
1014
1015
1017
1010
1006
1002
1002
1001
1002
997
991
991
990
989
986
984
979
973
976
974
974
972
967
967
967
970
969
968
963
960
964
967
965
966
964
962
968
972
974
978
974
978
979
983
985
986
983
981
983
985
988
987
984
981
987
991
993
992
990
990
990
992
990
990
986
987
991
993
990
991
988
988
989
992
991
988
982
981
984
984
982
982
977
979
978
977
978
976
971
974
973
978
977
975
971
972
973
974
972
969
967
969
974
977
979
976
974
975
978
983
982
985
983
985
987
990
990
987
988
988
990
994
995
992
989
988
990
993
993
992
987
987
991
993
993
991
990
990
989
991
992
990
984
983
984
991
991
985
982
984
986
987
986
988
983
982
985
990
990
987
986
983
982
984
986
985
981
982
982
988
988
985
980
981
982
984
986
982
984
983
985
987
990
989
987
986
987
992
993
992
989
985
993
996
992
996
997
996
997
1006
1010
1013
1019
1024
1031
1047
1063
1086
1107
1135
1167
1203
1236
1263
1290
1317
1346
1362
1355
1327
1286
1231
1176
1128
1086
1050
1019
1002
999
1004
1009
1007
1002
1000
999
996
996
991
986
981
981
985
984
984
978
977
977
980
979
978
977
974
975
977
977
975
972
970
973
979
977
978
974
974
975
976
978
978
977
972
973
980
979
982
981
980
978
979
979
977
973
975
974
976
973
973
973
970
976
976
977
975
975
974
975
975
976
974
972
973
975
981
984
981
979
979
984
985
990
988
987
988
990
993
994
995
992
989
992
993
994
992
989
987
988
989
991
988
987
982
984
987
990
987
987
988
988
987
985
985
984
982
986
986
987
985
985
982
986
988
986
984
982
982
982
986
984
983
982
979
984
987
990
986
984
984
983
986
987
986
983
984
989
989
986
986
983
983
988
991
989
985
984
981
985
986
986
984
983
980
983
983
985
981
977
978
978
983
982
978
977
975
980
982
984
979
981
982
987
990
988
987
984
982
984
986
986
981
978
979
980
982
985
982
979
979
981
986
983
981
978
979
981
984
984
980
978
980
979
984
984
980
977
977
980
983
982
981
978
976
979
980
980
980
975
977
981
987
992
990
991
994
1007
1019
1041
1063
1085
1114
1147
1184
1217
1242
1261
1289
1313
1320
1313
1284
1247
1193
1145
1107
1073
1046
1024
1010
1010
1015
1012
1009
1002
996
992
992
990
985
979
979
976
977
978
975
967
970
971
971
972
965
966
965
965
967
969
962
961
958
960
962
962
961
957
955
958
960
960
959
956
955
958
959
962
964
960
963
966
968
972
975
975
976
977
982
987
987
984
987
988
993
994
995
991
989
993
996
999
995
995
996
1001
1003
1001
997
997
991
996
996
995
991
991
987
986
986
989
985
981
980
977
979
978
976
974
970
970
972
973
969
965
966
966
969
972
972
969
967
970
972
974
972
972
970
973
972
975
974
973
973
971
976
975
975
975
977
980
982
976
974
973
973
977
980
981
981
978
979
982
982
981
979
977
973
975
979
980
978
973
975
975
979
982
979
976
972
976
980
980
978
974
972
975
977
979
977
973
974
978
980
982
977
976
975
979
983
983
982
978
977
982
987
987
983
981
980
983
985
989
987
982
981
984
987
986
990
985
986
988
996
1002
1002
1002
1009
1021
1041
1065
1091
1115
1147
1186
1221
1254
1276
1301
1324
1332
1324
1301
1267
1219
1164
1117
1088
1063
1040
1024
1013
1012
1014
1009
1003
995
988
985
985
982
975
972
970
969
972
974
971
965
966
965
966
967
966
960
959
959
962
965
964
961
961
961
964
965
965
962
960
963
964
967
966
965
965
966
971
973
973
970
971
975
983
983
986
986
992
992
998
1001
1001
997
998
1001
1002
1003
1004
1002
1004
1005
1008
1010
1010
1009
1006
1008
1013
1006
1008
1006
1003
1003
1000
1001
995
989
992
989
992
991
986
979
980
978
977
977
975
972
970
967
969
968
965
965
964
964
968
972
969
968
969
970
976
975
979
978
979
983
987
987
984
984
985
991
990
989
989
986
986
988
989
990
989
987
988
989
993
991
988
987
988
990
992
991
990
987
988
989
989
990
984
982
979
981
981
978
975
972
973
973
974
971
967
967
965
970
972
974
974
972
978
981
985
987
985
985
986
988
990
988
992
990
988
989
990
987
984
982
980
984
984
985
983
982
982
982
982
984
980
980
979
982
983
983
982
980
980
986
987
985
983
980
980
982
983
986
984
982
979
980
984
981
979
975
974
976
981
983
984
982
985
988
995
998
1003
1006
1013
1020
1026
1034
1047
1067
1090
1121
1151
1188
1220
1245
1272
1300
1321
1326
1310
1278
1234
1181
1127
1084
1047
1026
1008
1002
1006
1008
1005
1002
997
995
992
988
985
981
978
980
983
979
979
975
975
976
979
978
974
971
967
969
974
975
974
973
973
974
982
984
984
984
985
987
989
991
990
987
987
986
992
988
988
986
986
986
990
992
992
987
990
995
999
1000
998
999
1000
1002
1005
1006
1004
1003
1004
1006
1009
1009
1009
1009
1010
1013
1016
1016
1015
1013
1011
1014
1014
1009
1006
1002
999
999
997
1000
996
993
991
992
996
995
992
988
988
989
992
994
990
987
987
989
993
994
996
992
989
993
996
994
989
987
987
990
990
989
991
987
987
990
993
993
991
991
990
994
998
1000
997
993
993
996
1002
1000
995
992
989
994
998
997
996
994
993
993
996
996
995
992
991
996
1001
1001
997
996
995
999
1001
999
995
998
996
999
1003
1003
1003
998
1001
1004
1008
1008
1007
1004
1004
1006
1010
1009
1004
1002
1003
1003
1008
1006
1005
1002
1002
1000
1005
1005
1003
1001
1001
1005
1006
1007
1001
998
997
1002
1002
1003
1001
996
995
998
1002
1002
998
997
997
1003
1008
1009
1011
1010
1015
1022
1031
1039
1047
1062
1088
1116
1151
1188
1222
1253
1287
1323
1352
1373
1371
1344
1307
1252
1193
1136
1086
1053
1023
1014
1017
1020
1018
1014
1008
1006
1005
999
995
991
991
991
995
994
988
987
983
986
991
989
985
984
983
982
986
984
981
981
982
983
986
986
984
982
981
986
988
987
987
984
985
990
991
992
993
990
992
995
996
999
997
998
1000
1003
1009
1012
1012
1008
1011
1016
1019
1015
1018
1013
1017
1021
1023
1024
1022
1018
1020
1020
1022
1022
1016
1013
1013
1014
1013
1014
1011
1006
1004
1004
1006
1005
1001
998
997
997
1000
998
994
990
986
989
992
990
988
984
982
985
989
988
988
984
982
986
991
993
992
989
987
988
992
996
990
991
990
994
998
999
999
995
995
996
995
997
993
988
988
986
992
991
987
985
988
990
993
999
998
993
992
992
995
994
993
990
990
991
994
993
991
988
986
990
991
987
990
986
985
987
988
987
986
983
983
988
987
985
985
982
983
984
988
988
984
983
981
980
988
988
988
988
990
994
996
996
995
991
991
994
999
1002
999
995
991
995
997
1000
997
998
995
998
1002
1002
999
998
998
1001
1004
1005
1001
1000
999
1001
1006
1007
1011
1013
1017
1024
1036
1052
1072
1097
1126
1158
1191
1225
1257
1280
1303
1328
1333
1317
1282
1238
1184
1127
1088
1056
1031
1011
1005
1005
1009
1007
1000
995
993
993
995
993
990
985
982
982
981
982
979
976
976
976
978
979
977
973
973
975
977
979
978
974
973
978
982
980
976
972
973
978
978
978
975
973
970
976
975
979
980
977
978
985
987
989
988
987
987
988
994
995
992
991
988
996
999
999
997
991
996
1001
1004
1005
1006
1007
1008
1012
1012
1013
1010
1006
1005
1005
1007
1009
1005
1000
998
994
998
995
991
987
987
987
990
988
982
980
976
977
975
977
977
974
973
978
979
980
978
975
976
978
981
981
982
979
978
978
981
979
981
980
979
982
983
979
978
976
975
977
979
978
976
975
975
979
984
984
986
983
986
984
990
989
988
984
983
986
988
988
986
980
981
983
984
984
979
976
975
977
983
981
979
977
976
977
983
983
982
980
977
981
985
982
980
978
980
982
983
983
979
977
977
983
985
983
981
976
977
979
981
981
980
979
975
981
983
981
978
975
976
981
988
991
991
990
991
993
997
998
995
997
996
997
1001
998
996
991
997
1000
1007
1012
1014
1017
1026
1049
1076
1104
1130
1158
1194
1233
1265
1291
1311
1320
1310
1283
1242
1191
1136
1093
1062
1041
1027
1013
1009
1002
1000
998
994
989
986
980
979
980
980
977
980
972
972
976
977
974
969
963
963
962
966
967
963
967
964
969
971
973
971
967
966
967
973
971
969
969
970
972
976
974
977
973
975
977
982
984
981
980
980
982
987
989
984
981
981
987
993
997
995
991
991
996
1000
1001
1000
998
1001
1001
1004
1003
998
994
993
993
993
991
987
982
978
978
980
975
970
966
966
970
971
973
973
971
973
981
984
983
980
975
973
975
977
974
973
972
970
973
975
977
975
973
975
977
981
983
978
976
978
978
981
980
978
977
976
979
984
984
982
980
978
978
981
979
976
973
974
976
973
975
972
971
971
976
978
978
978
974
972
976
979
979
977
978
980
987
989
990
988
984
983
986
985
986
983
978
977
981
982
981
981
978
979
977
977
979
978
977
977
979
983
981
978
977
980
981
984
984
982
980
977
979
981
980
979
977
977
980
981
981
978
976
974
979
982
982
978
979
977
982
987
985
984
981
982
982
983
984
983
982
980
983
987
986
986
985
987
991
997
997
996
991
993
995
995
997
996
990
990
993
997
996
996
993
994
995
997
996
996
994
992
995
1001
999
996
994
994
997
1002
1000
1001
996
993
996
1000
999
998
995
994
996
1000
1004
1007
1008
1013
1022
1029
1040
1054
1075
1107
1143
1179
1214
1241
1266
1298
1328
1346
1345
1320
1279
1225
1168
1118
1075
1035
1004
994
996
1005
1010
1007
999
994
997
1000
995
993
987
986
987
988
994
984
984
985
986
988
985
985
979
982
983
984
986
982
980
980
982
985
985
982
978
976
981
984
984
980
980
981
982
990
988
986
981
983
985
989
991
987
985
990
992
1001
1003
1000
998
996
1002
1008
1011
1011
1011
1008
1013
1012
1015
1015
1012
1014
1018
1021
1023
1020
1017
1016
1019
1018
1019
1017
1011
1011
1013
1011
1010
1005
1002
1002
1003
1002
1001
996
989
989
990
992
992
989
985
987
989
986
988
986
981
983
984
984
984
985
982
984
984
990
988
