984
979
974
969
968
969
970
966
962
960
960
961
961
959
958
959
958
963
966
965
967
968
970
973
977
978
975
971
977
980
984
986
985
984
991
995
995
995
991
992
994
996
998
999
1002
998
1001
1002
1007
1004
1002
1000
1000
1000
1004
1004
1002
998
999
999
1003
1003
997
998
995
998
1001
1004
1000
998
999
1001
1006
1004
1005
1011
1017
1033
1057
1086
1109
1138
1173
1213
1253
1286
1314
1333
1340
1327
1294
1246
1181
1121
1072
1032
1002
983
975
978
981
977
974
972
968
962
962
964
966
961
957
956
959
960
966
967
962
961
962
963
963
963
960
957
958
961
963
962
957
955
958
963
961
960
958
955
958
960
963
961
956
954
956
956
960
958
956
954
954
956
959
954
952
949
949
950
953
951
949
945
948
947
950
952
949
948
951
953
955
956
956
952
953
956
957
956
952
952
952
953
958
957
954
952
953
957
963
964
963
959
961
962
965
968
966
966
967
969
977
979
979
979
975
980
987
984
982
980
981
987
991
989
985
983
985
989
993
989
988
984
987
988
986
987
983
984
986
987
992
990
987
985
984
986
987
984
981
979
980
983
986
982
981
979
982
989
994
998
1004
1024
1051
1082
1112
1147
1183
1221
1257
1294
1325
1342
1339
1313
1274
1224
1166
1109
1064
1030
1006
993
992
988
985
979
974
973
971
970
968
960
963
963
963
961
960
955
955
957
957
959
955
951
952
953
957
955
951
947
951
949
953
950
948
945
944
946
950
948
944
942
942
942
945
945
941
938
936
940
940
937
934
931
930
933
931
931
926
922
921
925
924
923
921
918
922
927
930
931
930
930
933
940
945
946
948
946
946
952
957
959
959
958
960
960
963
963
963
962
963
966
970
971
971
971
973
975
975
976
978
974
975
980
981
980
981
979
980
984
986
982
981
980
979
983
986
983
984
982
980
982
985
985
983
978
977
982
982
983
980
977
974
976
979
977
973
969
969
969
971
968
965
963
960
962
962
960
957
954
954
958
959
956
953
951
949
954
958
957
954
956
959
962
965
967
965
961
960
962
967
969
970
970
971
978
981
981
977
973
973
975
979
978
975
973
974
977
980
978
976
972
975
976
979
978
976
974
977
976
981
979
976
974
976
977
980
980
978
977
978
982
988
992
995
998
1008
1024
1043
1067
1090
1117
1149
1190
1231
1258
1282
1308
1319
1319
1298
1257
1202
1142
1093
1058
1027
1002
983
974
973
974
972
967
959
954
953
957
959
956
952
951
950
952
954
955
952
954
957
962
966
963
962
957
957
959
962
960
958
955
956
962
962
964
958
956
957
960
963
960
956
956
957
960
962
961
957
954
958
960
963
962
960
957
959
961
962
960
958
955
958
962
964
964
960
959
960
964
967
966
961
961
965
967
969
967
969
966
965
969
967
964
961
961
962
962
964
964
961
960
962
966
966
966
965
961
962
965
967
968
971
969
970
974
980
979
977
974
974
971
978
975
970
970
971
976
978
975
973
970
973
973
974
974
972
970
971
975
976
972
970
967
965
971
972
968
965
965
967
969
971
970
964
961
960
962
965
961
959
956
954
954
955
953
950
949
947
949
951
946
945
945
944
946
949
951
950
946
952
955
962
958
959
957
961
964
967
968
969
969
971
976
984
981
983
977
981
982
986
987
984
984
987
991
994
994
995
998
1006
1012
1023
1043
1062
1089
1119
1155
1191
1221
1249
1275
1301
1318
1319
1293
1250
1196
1144
1103
1072
1041
1018
1001
996
996
996
988
976
970
966
969
965
959
954
947
945
944
946
945
938
934
935
936
935
935
931
928
928
937
941
940
938
937
937
940
946
945
937
938
940
944
945
946
946
944
948
954
956
958
957
953
953
956
957
956
955
955
952
959
963
958
957
956
959
960
961
963
963
961
965
965
971
971
967
966
968
976
980
979
977
975
976
981
982
979
975
970
970
970
974
966
964
962
963
962
963
960
955
950
945
948
950
944
942
936
938
942
940
939
935
931
933
937
936
936
933
936
939
942
946
945
946
946
950
952
954
954
952
951
954
959
965
967
967
966
966
970
973
973
971
970
971
973
978
975
973
973
976
979
980
981
979
976
976
977
979
981
977
972
975
979
980
980
977
973
976
976
979
978
977
975
977
981
984
985
981
982
989
995
1006
1019
1041
1066
1094
1121
1156
1187
1218
1250
1282
1306
1319
1315
1294
1258
1208
1156
1106
1059
1023
995
979
973
973
974
971
961
962
961
960
958
955
951
947
951
952
951
948
949
952
956
956
956
954
952
954
956
956
954
951
952
951
954
955
954
954
950
952
953
957
956
952
949
951
953
956
957
951
950
950
955
956
954
952
948
949
954
958
955
950
948
947
948
951
951
946
943
943
946
950
950
947
943
942
946
948
948
944
945
948
950
953
956
953
952
952
955
956
952
952
947
949
952
957
957
955
952
955
958
962
960
961
958
960
960
963
964
964
962
965
971
975
978
976
972
974
975
979
978
977
976
979
978
986
984
982
981
981
986
988
985
983
983
985
986
985
985
982
981
979
982
985
983
982
977
976
980
980
980
976
975
978
976
978
975
975
971
969
970
971
971
967
961
960
957
959
956
952
952
952
954
956
954
951
951
950
954
958
959
958
954
956
957
962
964
964
963
964
966
966
965
965
964
969
970
975
975
976
974
975
977
977
976
976
975
977
980
982
980
980
979
979
982
984
984
983
979
980
984
985
987
984
983
984
989
992
995
997
1000
1006
1015
1030
1051
1075
1101
1132
1170
1207
1242
1271
1298
1330
1353
1362
1349
1320
1276
1222
1166
1116
1074
1033
1001
982
977
980
979
971
965
963
960
955
952
945
939
939
943
942
946
945
943
942
947
954
951
952
948
949
952
953
952
951
949
946
954
957
958
955
955
956
959
963
964
957
956
958
961
965
965
965
962
961
966
967
967
965
963
963
968
969
964
960
962
964
965
965
962
961
960
959
962
959
962
959
953
960
963
965
962
958
960
960
965
970
969
966
963
966
972
974
976
972
969
968
968
968
963
956
956
955
955
958
958
952
950
950
949
951
950
944
947
945
951
956
957
956
952
956
958
962
963
959
959
959
964
968
969
965
969
970
976
983
980
978
975
977
977
979
979
979
978
978
979
982
983
980
980
981
985
984
985
982
979
980
982
986
984
982
979
980
982
984
983
980
978
978
980
985
981
981
981
984
989
996
999
999
1004
1023
1048
1073
1097
1119
1143
1182
1216
1248
1273
1296
1312
1321
1315
1297
1257
1203
1144
1099
1061
1030
1003
980
967
963
963
962
955
947
943
942
940
943
943
943
938
941
941
946
942
940
941
943
944
949
949
951
948
951
952
954
953
950
946
949
952
955
953
949
946
949
947
954
952
951
948
949
949
951
950
946
946
947
949
950
948
948
944
946
950
947
948
948
946
947
946
948
949
944
942
942
946
948
949
948
949
950
955
956
955
948
947
951
952
952
951
946
943
944
943
945
938
935
931
933
936
939
938
934
938
937
940
946
946
945
943
945
949
952
951
949
947
953
956
959
960
960
961
961
960
964
966
960
962
963
967
968
967
963
964
965
967
969
967
967
963
964
965
969
968
966
962
964
968
970
969
967
962
962
963
967
968
965
964
964
972
975
976
978
981
990
1005
1028
1048
1069
1091
1124
1160
1197
1227
1253
1278
1300
1305
1293
1261
1215
1162
1108
1069
1037
1007
984
969
964
964
966
963
954
949
944
948
947
945
942
941
943
946
951
951
948
944
945
949
952
949
946
943
942
946
948
944
940
938
942
945
944
942
939
938
937
940
942
940
934
932
934
936
936
937
934
931
933
935
936
935
932
928
930
931
933
931
931
930
930
933
931
931
926
926
929
933
936
931
931
930
936
936
941
941
936
934
937
940
940
940
937
935
936
941
944
943
939
941
937
943
947
948
944
946
946
952
957
955
954
956
957
963
964
960
958
957
960
962
965
964
960
958
959
961
965
965
963
959
960
963
967
966
961
959
961
964
966
966
960
961
961
962
966
963
959
958
957
960
962
962
961
958
961
967
968
968
969
969
975
991
1013
1032
1051
1067
1097
1131
1168
1202
1228
1256
1277
1289
1283
1258
1217
1163
1110
1071
1039
1009
981
965
957
959
961
959
951
943
939
937
942
941
936
936
935
941
944
941
937
936
936
938
937
940
935
932
934
937
940
937
936
932
932
934
936
935
933
929
929
931
934
931
931
930
927
931
932
930
928
924
926
928
928
929
924
920
922
922
923
923
920
918
914
917
920
915
909
910
910
912
917
918
917
916
918
922
923
923
921
918
920
927
931
931
928
926
926
927
933
934
932
928
927
929
933
933
932
932
933
936
941
940
939
938
936
938
941
940
943
937
937
940
944
944
939
939
942
945
948
949
946
944
942
946
946
944
942
943
946
946
947
948
947
945
944
948
950
948
945
945
947
950
949
949
950
948
952
959
966
971
977
998
1029
1061
1094
1130
1165
1200
1236
1269
1297
1308
1294
1259
1207
1142
1083
1032
990
963
947
948
952
955
949
942
940
945
945
944
939
937
939
940
943
941
939
937
939
940
939
941
935
932
935
936
938
937
934
931
933
933
938
935
932
932
933
933
936
932
933
928
930
932
934
930
927
925
924
924
930
925
922
919
920
923
921
919
916
916
916
919
919
916
910
912
914
916
922
923
924
924
925
930
931
933
931
933
936
940
943
944
942
939
942
947
952
950
949
946
949
952
956
957
956
958
958
960
962
964
961
956
958
963
966
967
964
962
962
966
969
969
965
964
968
969
973
970
969
967
968
968
971
970
966
967
967
972
975
975
969
970
972
976
982
983
983
986
996
1017
1044
1072
1097
1126
1166
1208
1246
1276
1305
1323
1329
1314
1281
1223
1153
1088
1042
1009
983
968
957
955
954
951
948
941
939
937
935
935
938
935
928
931
934
936
941
940
937
935
936
939
939
938
936
934
932
935
936
933
932
931
929
928
934
933
929
929
928
927
929
928
924
923
923
923
924
921
917
912
913
918
921
918
917
916
915
917
915
914
913
910
913
917
917
917
916
916
917
919
928
927
926
926
928
928
930
930
923
921
923
925
928
928
927
926
928
931
935
938
938
938
938
944
945
946
945
947
948
952
954
958
955
954
955
958
962
959
957
954
957
960
966
963
958
955
957
961
965
964
959
956
959
961
966
966
959
959
961
966
965
964
960
963
966
968
973
976
974
978
984
995
1015
1037
1066
1090
1122
1158
1197
1231
1261
1290
1312
1321
1313
1286
1231
1169
1113
1068
1033
1000
975
963
958
959
951
946
938
936
931
937
938
936
932
929
928
931
937
936
936
935
936
940
942
944
940
937
938
940
936
934
936
932
933
936
938
937
933
930
932
931
932
932
930
927
923
923
929
927
924
921
923
927
928
925
924
922
922
920
924
924
922
918
921
922
927
930
929
927
930
934
940
941
938
937
938
939
941
938
934
932
935
937
938
938
931
930
930
934
935
936
936
935
937
942
944
945
944
943
944
949
952
955
956
956
958
964
966
965
961
959
961
966
967
965
965
963
965
967
967
968
964
966
968
970
972
970
968
966
968
971
971
968
969
968
971
972
976
977
976
977
981
984
991
997
1005
1013
1036
1062
1088
1113
1137
1175
1211
1244
1272
1299
1310
1304
1285
1253
1202
1147
1099
1065
1035
1009
991
974
966
960
958
959
957
947
948
945
945
947
952
949
946
944
946
948
949
954
954
951
952
956
957
957
954
954
951
951
952
951
950
948
950
950
951
951
950
950
949
950
951
948
947
940
945
943
945
943
941
941
940
941
942
943
939
939
938
939
940
939
937
935
937
940
943
945
941
941
942
945
948
951
950
947
949
949
952
951
948
945
945
948
952
951
950
947
947
952
954
955
952
952
952
957
961
962
960
959
962
966
971
975
971
972
974
976
978
977
974
968
972
977
980
978
973
970
972
976
978
975
975
973
974
978
979
983
979
977
977
980
981
981
980
977
981
987
993
996
997
1003
1018
1039
1066
1090
1115
1136
1169
1203
1233
1260
1283
1297
1299
1281
1246
1191
1129
1075
1039
1014
996
984
975
972
971
970
968
963
958
957
958
954
954
952
951
948
952
957
962
960
959
957
958
960
963
960
958
956
957
960
959
959
952
948
953
956
957
955
950
949
950
955
954
956
950
947
948
949
952
949
945
943
944
944
946
945
945
940
945
946
949
946
946
941
944
949
952
952
950
947
952
955
954
958
955
955
956
960
964
961
954
954
955
955
959
959
955
958
959
964
966
966
964
964
968
970
973
973
972
972
976
980
981
984
984
982
981
986
987
984
982
978
981
984
989
987
989
989
991
991
994
991
987
986
989
994
995
992
990
989
989
997
1001
1000
997
997
998
1007
1015
1019
1029
1044
1072
1102
1133
1162
1188
1223
1258
1290
1318
1330
1326
1300
1261
1206
1150
1097
1054
1020
997
983
978
973
971
963
964
961
958
952
952
948
947
950
951
950
949
949
952
954
954
953
951
953
958
963
965
966
965
961
961
966
968
966
961
961
964
966
967
964
965
961
960
964
964
966
960
961
961
962
963
963
961
958
958
960
960
957
957
955
953
955
957
957
957
956
959
961
965
965
967
967
970
974
976
978
977
978
979
981
983
981
977
973
973
974
974
972
970
966
970
967
970
967
965
964
963
968
972
969
968
967
970
975
973
978
975
976
976
982
983
983
983
980
985
990
994
994
989
990
993
997
998
996
992
988
992
993
995
995
993
989
993
995
997
995
992
991
993
995
996
994
989
987
988
993
992
989
986
983
986
989
992
993
988
986
988
987
988
987
982
980
980
984
984
979
979
974
973
975
975
972
971
971
968
971
974
971
968
966
967
970
974
975
975
973
978
979
985
984
987
988
987
991
999
1000
1002
1003
1015
1025
1039
1056
1079
1106
1138
1176
1218
1256
1294
1326
1359
1389
1406
1404
1378
1343
1295
1237
1178
1130
1089
1057
1036
1024
1019
1019
1016
1009
1008
1000
1000
992
990
984
984
983
985
984
980
973
973
974
977
973
972
965
967
967
968
966
963
960
959
960
961
960
955
950
949
951
952
949
944
941
942
944
945
942
937
934
935
936
943
943
944
943
947
947
949
950
948
947
948
950
950
949
947
947
948
954
954
954
954
953
955
958
960
963
960
960
962
967
972
974
973
974
978
981
987
989
989
989
990
990
991
993
989
989
991
995
994
994
994
988
990
991
993
992
990
986
985
987
988
988
986
983
986
986
989
988
986
986
985
986
987
985
985
983
982
983
984
982
978
974
975
976
977
977
972
971
973
976
975
971
966
966
971
974
977
975
973
975
975
981
984
987
982
984
984
985
988
988
990
991
995
998
1000
1001
998
997
998
1002
1002
1002
1000
997
1000
1005
1007
1001
1000
999
999
1001
1002
1002
999
997
1000
1002
1004
1003
1002
1001
1004
1008
1011
1012
1008
1013
1021
1034
1054
1077
1101
1128
1164
1203
1246
1282
1310
1338
1360
1373
1369
1347
1308
1249
1192
1146
1107
1072
1039
1009
1001
996
994
990
983
976
969
967
965
960
953
950
953
955
957
955
953
951
951
953
956
957
957
951
953
955
959
959
956
955
956
958
964
966
965
962
962
962
963
963
958
955
957
959
964
963
959
955
957
959
960
957
956
954
954
955
956
956
953
951
951
954
954
951
949
948
949
952
954
954
954
956
957
960
964
966
966
966
968
973
973
972
967
966
967
967
968
963
960
957
957
958
961
956
955
951
951
952
954
952
952
954
957
961
964
964
963
965
967
972
973
973
973
970
974
980
983
985
984
985
989
991
992
992
992
989
991
993
994
993
994
992
992
998
999
998
995
996
997
1000
1003
1004
1003
1000
1001
1004
1007
1008
1011
1019
1027
1036
1062
1084
1107
1129
1153
1183
1224
1254
1278
1302
1317
1317
1301
1269
1218
1157
1111
1078
1050
1025
1005
994
989
990
984
978
971
961
957
958
958
960
957
954
955
955
960
956
956
954
954
958
960
960
957
955
957
961
961
966
965
965
964
965
970
967
964
964
962
967
969
967
962
962
964
969
972
971
968
968
967
969
972
972
967
967
963
967
970
970
966
966
968
970
972
971
967
970
973
977
981
977
978
979
982
985
986
988
987
981
985
985
985
978
976
973
973
973
971
972
963
964
965
967
969
965
961
961
961
961
966
967
966
966
969
970
974
975
976
977
979
982
984
984
985
986
988
993
998
999
1000
1000
998
1002
1002
1001
1002
998
1003
1007
1008
1009
1003
1001
1003
1007
1009
1010
1008
1005
1006
1008
1011
1010
1005
1005
1008
1010
1018
1016
1019
1017
1023
1035
1051
1071
1088
1108
1132
1155
1187
1214
1244
1274
1302
1324
1334
1324
1290
1247
1193
1141
1098
1063
1034
1013
1000
996
996
989
980
972
965
967
965
964
959
954
954
955
957
958
955
954
957
960
961
958
954
955
957
957
961
962
961
960
963
965
970
965
959
958
961
965
967
965
962
962
960
961
962
963
959
956
959
961
962
961
957
956
955
958
961
958
951
949
951
953
957
954
954
951
953
956
961
963
964
966
965
972
975
976
976
975
973
975
976
973
972
968
967
966
968
964
961
956
956
960
958
957
955
956
956
963
