1000
1001
995
993
994
996
998
999
995
990
987
989
992
994
992
989
993
1000
1008
1011
1013
1010
1015
1022
1028
1037
1050
1071
1101
1132
1166
1202
1233
1263
1292
1318
1335
1330
1306
1269
1219
1164
1126
1087
1063
1042
1027
1023
1021
1020
1015
1008
1003
999
1000
998
995
990
990
985
985
986
984
981
979
979
981
982
981
977
977
977
977
979
980
979
976
980
985
986
988
990
989
991
997
1001
1002
996
1002
1004
1007
1011
1012
1014
1011
1017
1019
1022
1022
1019
1016
1023
1027
1029
1027
1025
1022
1025
1026
1027
1026
1019
1016
1022
1024
1023
1021
1017
1014
1015
1017
1017
1011
1008
1002
1003
1002
1003
1003
998
989
992
997
999
996
993
996
996
1005
1005
1006
1004
1002
1007
1010
1011
1008
1008
1002
1007
1008
1009
1005
1002
1001
1004
1006
1008
1005
1001
999
1002
1002
1004
1002
1000
999
999
999
997
996
994
994
994
993
995
994
993
991
996
1000
1003
1006
1011
1020
1032
1050
1073
1102
1132
1161
1192
1229
1262
1293
1319
1337
1343
1332
1298
1249
1189
1130
1085
1059
1040
1030
1018
1022
1023
1025
1018
1012
1006
999
1001
1000
997
995
991
987
987
988
989
985
982
981
982
982
983
980
973
973
973
974
973
974
970
969
971
973
974
975
972
973
975
978
982
980
980
981
987
991
997
998
998
1002
1007
1011
1014
1015
1014
1014
1019
1023
1022
1022
1020
1018
1022
1024
1025
1026
1024
1024
1027
1029
1031
1032
1027
1025
1025
1024
1023
1022
1014
1008
1005
1004
1005
999
991
989
987
988
990
986
982
980
977
982
979
977
975
976
975
982
982
985
981
983
984
989
993
993
993
990
997
1004
1004
1005
1002
998
1001
1005
1005
1004
1000
997
999
1003
1006
1005
1001
1002
1003
1005
1009
1004
999
998
998
1003
1000
998
994
991
991
994
999
995
992
989
988
990
992
987
986
984
987
990
986
984
980
979
984
984
984
981
982
981
981
986
986
990
988
992
995
999
998
995
992
994
996
996
997
995
994
994
994
998
999
995
993
994
996
996
997
996
991
992
993
996
997
996
992
991
993
996
997
994
991
988
988
992
993
990
986
986
987
989
992
991
989
989
990
995
996
994
996
996
998
1006
1010
1015
1016
1021
1029
1045
1069
1097
1123
1152
1189
1228
1260
1288
1315
1336
1342
1329
1296
1238
1177
1122
1080
1052
1027
1013
1008
1007
1011
1011
1009
1000
994
991
991
990
988
984
981
981
981
983
982
979
975
977
979
978
978
977
974
974
972
978
979
976
975
975
976
977
980
975
973
975
978
982
981
979
976
977
978
980
980
977
974
974
981
981
982
985
986
987
989
994
994
995
992
994
996
999
1000
997
995
995
996
999
998
996
994
995
998
1002
1003
1001
999
997
998
1000
997
994
990
992
992
989
990
989
984
982
983
984
984
981
978
978
980
983
985
982
979
980
981
982
986
985
980
981
982
989
990
988
985
988
991
992
993
996
992
993
997
997
996
995
992
994
994
994
995
994
992
989
990
994
992
993
991
990
993
993
990
988
985
985
987
987
988
985
985
985
987
988
990
987
982
983
987
991
989
989
988
989
992
995
995
993
991
992
993
998
1002
1006
1007
1012
1026
1046
1073
1091
1116
1141
1175
1206
1240
1265
1287
1305
1309
1300
1273
1230
1178
1130
1093
1067
1042
1021
1012
1006
1003
1001
998
991
982
977
978
975
973
970
964
965
963
964
964
962
960
960
958
960
964
962
958
960
963
966
966
961
960
962
964
966
964
963
963
960
965
967
967
966
967
968
971
976
978
980
975
973
978
980
981
979
977
977
980
984
984
983
979
979
983
986
986
984
984
984
986
989
991
991
988
987
990
992
993
988
983
984
984
987
983
983
979
980
977
981
982
975
972
973
973
976
975
970
967
965
970
974
972
970
965
966
965
967
968
967
963
966
972
975
976
977
973
971
971
972
971
975
972
970
974
977
978
978
975
973
976
977
976
977
975
975
976
974
980
977
973
970
975
979
978
975
972
973
976
979
979
976
973
968
972
973
975
974
967
968
971
971
972
970
968
967
968
971
971
969
964
962
964
974
977
975
981
978
979
984
988
985
984
982
983
987
989
986
982
983
983
986
984
983
979
980
980
985
985
980
978
979
982
985
987
986
987
989
998
1003
1011
1016
1033
1057
1086
1116
1144
1175
1203
1230
1260
1286
1303
1298
1275
1242
1196
1149
1103
1066
1036
1014
1000
996
994
991
987
983
980
981
979
973
971
970
975
976
977
973
967
966
966
972
971
971
966
967
969
965
967
968
964
963
964
966
966
962
960
960
961
961
962
960
960
959
963
963
965
964
960
963
966
969
970
969
967
967
970
972
974
975
971
972
978
984
984
983
983
984
988
994
996
992
992
992
993
998
1002
999
998
998
1002
1004
1003
1003
997
995
995
995
994
989
985
981
982
982
981
978
974
973
971
972
970
967
964
962
960
964
963
963
958
957
959
960
963
964
964
963
969
971
971
971
970
969
970
973
972
972
970
969
971
973
975
972
968
970
972
973
972
972
973
970
973
974
976
975
977
979
981
985
987
983
982
981
981
983
982
984
979
978
979
980
980
976
972
972
972
975
974
968
969
965
970
972
977
975
971
970
975
980
979
977
976
974
976
980
977
973
969
975
975
978
979
976
973
972
974
974
973
974
969
967
969
971
973
970
964
963
964
968
968
967
963
964
969
972
978
978
978
977
980
981
980
978
974
972
975
975
974
974
974
971
970
974
977
977
975
976
978
981
982
978
977
979
982
984
985
987
986
987
992
996
1001
1006
1008
1015
1027
1047
1071
1096
1118
1147
1176
1207
1232
1258
1282
1299
1305
1288
1256
1206
1150
1096
1057
1028
1007
989
977
977
983
986
984
980
974
971
970
974
974
971
967
965
968
971
973
971
973
969
973
975
974
970
970
969
972
973
973
970
970
972
975
979
979
975
971
971
970
974
977
978
975
971
971
976
977
974
974
970
975
977
975
975
970
970
973
975
976
975
971
970
974
974
976
978
975
975
976
981
983
985
985
985
987
990
994
995
993
992
997
999
999
997
996
995
994
1000
999
998
994
992
993
993
995
991
987
985
987
983
984
978
976
974
975
979
977
975
972
970
972
974
976
973
971
969
969
972
972
971
969
970
969
973
975
974
971
971
972
974
975
976
973
972
973
978
981
978
978
978
982
984
985
986
982
982
986
989
992
993
987
985
987
990
989
985
982
984
986
988
984
984
983
981
981
984
987
984
981
980
981
985
985
984
979
977
980
976
980
977
974
975
976
979
978
979
978
978
979
981
983
981
979
977
978
980
983
981
978
977
977
981
981
978
975
977
975
978
982
978
972
973
972
974
976
977
972
973
975
975
974
975
971
972
973
977
978
977
974
973
974
976
979
978
973
974
976
981
979
978
975
972
976
978
977
977
974
975
976
982
982
979
977
976
980
984
984
983
979
977
980
982
982
984
981
981
983
989
995
995
996
999
1004
1010
1021
1023
1038
1056
1082
1113
1143
1175
1202
1234
1265
1294
1319
1326
1310
1280
1236
1187
1134
1086
1043
1018
996
988
987
990
988
986
985
986
980
979
973
967
971
973
973
972
967
967
969
971
971
969
966
967
968
970
972
970
968
967
967
972
971
969
966
967
969
970
969
967
962
963
966
969
973
971
968
973
977
978
979
976
972
971
970
976
974
974
973
974
975
980
981
981
981
981
984
989
991
991
986
988
987
992
992
986
988
989
990
994
992
991
988
988
990
991
992
987
983
980
980
983
982
977
973
972
973
974
974
971
967
963
964
966
962
963
959
963
966
966
969
965
965
968
967
968
970
968
965
964
968
972
972
970
967
967
971
972
977
976
975
978
981
983
984
983
983
981
983
986
986
986
981
982
982
984
988
979
974
975
981
979
976
974
972
974
975
978
977
972
968
968
971
971
973
969
968
969
972
978
981
981
977
977
977
979
981
979
974
974
975
981
980
977
975
974
977
978
986
982
981
982
983
986
987
984
981
978
981
984
989
989
989
991
999
1009
1018
1033
1052
1076
1108
1140
1172
1202
1230
1256
1282
1305
1309
1297
1266
1230
1181
1128
1084
1046
1016
998
989
990
991
990
985
980
980
978
974
970
966
963
961
963
963
961
960
958
959
961
961
961
958
957
960
962
966
965
963
960
963
968
970
965
963
963
966
969
971
969
968
968
971
976
974
971
971
969
968
971
972
973
969
969
971
975
976
976
974
975
975
979
980
979
976
977
978
983
985
982
980
983
985
991
993
990
990
991
989
993
992
987
988
986
988
989
988
984
981
979
980
979
978
977
976
976
976
978
978
975
973
972
973
974
973
970
966
964
965
966
970
962
959
958
960
962
961
959
957
954
957
954
957
957
954
951
952
955
956
955
951
952
955
961
960
960
961
961
966
971
970
970
970
973
976
979
978
978
975
974
976
982
982
982
977
977
980
980
980
978
975
975
978
979
980
978
974
968
974
976
976
973
968
966
969
971
970
967
962
962
965
967
967
965
962
960
961
967
966
965
964
964
968
970
971
969
969
967
970
978
977
980
982
987
994
1001
1012
1029
1052
1075
1108
1138
1170
1201
1227
1252
1285
1306
1311
1296
1265
1230
1185
1137
1094
1058
1029
1009
1000
996
994
997
989
985
982
980
977
973
966
961
962
960
962
960
955
953
954
957
957
957
953
949
948
955
953
950
949
949
949
953
953
951
950
951
953
956
957
956
957
954
960
963
966
967
967
967
972
975
976
975
974
976
981
981
984
983
984
984
987
989
989
989
988
987
990
995
999
998
997
998
1000
1003
1001
998
995
993
993
995
993
986
982
981
975
979
976
975
965
965
962
966
967
963
961
958
961
964
961
959
957
957
959
961
967
965
960
962
965
967
969
968
966
966
965
967
971
970
966
965
968
972
972
969
966
966
967
970
969
967
962
963
966
969
969
968
964
962
964
968
969
963
963
959
964
966
967
965
963
960
965
965
963
963
960
958
964
970
973
975
973
977
982
991
994
999
1007
1026
1048
1073
1093
1117
1141
1170
1200
1228
1251
1263
1256
1236
1199
1154
1099
1052
1022
1000
991
986
985
981
979
973
971
969
968
959
953
955
955
958
957
954
950
949
951
952
953
950
945
947
948
950
952
952
945
947
950
954
953
953
953
953
952
959
960
961
957
959
962
965
967
960
960
964
965
971
973
971
968
967
970
972
971
976
974
976
981
981
984
981
982
985
991
994
994
990
984
983
984
985
984
981
976
971
968
971
972
967
964
962
964
965
963
960
957
957
958
961
960
958
955
953
957
961
960
957
960
960
962
964
961
962
960
959
959
961
963
962
959
959
962
962
963
964
960
961
962
963
963
959
958
956
959
963
965
960
956
957
960
962
963
960
959
958
959
963
965
963
960
960
962
963
961
961
957
956
962
961
965
962
961
963
962
965
966
964
960
958
958
962
961
960
956
956
958
962
963
963
960
956
962
962
964
963
960
957
960
965
964
960
957
955
961
965
966
965
963
962
964
964
970
970
967
968
969
974
975
973
973
973
978
982
983
982
984
985
993
1003
1005
1012
1024
1049
1075
1101
1130
1160
1187
1214
1242
1268
1277
1269
1242
1202
1154
1101
1061
1028
1000
987
983
984
985
982
977
970
967
967
964
963
959
958
960
960
960
960
952
957
958
962
959
958
955
956
959
961
961
960
954
954
953
956
959
957
956
957
958
961
963
960
956
956
957
958
959
959
955
961
964
966
967
966
965
964
964
967
968
969
966
965
968
971
973
972
970
970
973
981
984
985
983
982
985
987
990
988
987
983
986
987
987
982
982
979
979
983
983
979
976
973
974
975
975
973
968
966
967
968
969
965
962
959
962
966
967
965
962
961
966
970
970
964
963
963
965
966
967
965
963
961
963
971
970
968
964
965
967
971
967
968
968
966
969
972
971
967
969
967
972
974
973
972
971
971
972
976
975
974
972
973
973
976
973
969
967
964
967
968
968
966
960
959
961
962
960
958
955
955
957
964
964
965
966
968
972
974
973
968
964
965
966
967
968
966
961
963
965
967
966
963
959
961
961
965
967
966
960
959
964
966
968
967
964
962
966
972
969
972
967
965
967
969
971
970
966
967
969
970
974
972
972
972
976
984
989
989
1000
1024
1052
1087
1117
1152
1183
1214
1246
1273
1294
1297
1278
1240
1189
1134
1082
1040
1008
986
975
976
982
982
979
973
971
970
967
965
961
959
960
960
961
959
954
952
952
955
955
953
948
948
951
954
953
952
951
948
950
952
952
953
949
951
950
955
957
955
953
954
958
962
964
965
964
963
966
968
970
969
966
968
967
971
973
972
971
965
968
975
977
977
973
974
977
979
980
980
974
976
976
978
976
973
972
971
972
971
972
966
964
962
961
963
962
958
957
957
956
960
959
956
952
953
956
957
955
957
954
954
959
962
959
961
957
957
958
961
961
960
956
957
960
964
964
961
956
958
962
966
966
963
961
959
961
965
963
960
957
956
957
959
961
959
957
953
957
957
955
958
955
953
956
958
957
955
948
951
955
957
958
954
954
955
957
958
958
957
954
956
958
959
961
958
957
956
960
964
966
965
963
961
966
970
968
969
965
965
966
969
967
964
966
963
967
967
969
965
960
962
961
962
961
958
956
959
960
964
962
961
957
954
956
959
959
959
956
957
961
963
962
962
961
963
964
964
965
964
960
959
960
964
965
963
960
959
964
967
967
965
962
964
965
963
967
965
963
963
963
964
966
963
963
964
965
967
967
966
964
964
967
967
972
972
972
968
971
973
971
969
965
965
968
971
967
968
965
967
971
977
977
978
979
982
985
994
997
1002
1009
1027
1052
1080
1110
1140
1171
1204
1236
1267
1290
1302
1288
1261
1223
1174
1117
1071
1029
1005
986
981
984
986
984
983
981
981
974
971
967
963
965
965
963
961
953
954
953
955
957
957
953
952
955
957
961
957
957
956
960
963
961
961
956
957
958
960
960
958
953
956
960
961
963
961
961
961
962
964
968
965
965
964
970
972
973
970
969
969
972
977
978
979
978
980
980
985
982
985
985
984
985
988
991
988
987
987
992
992
993
991
984
979
984
986
984
982
977
974
969
973
972
970
968
968
967
971
967
966
962
960
960
962
961
959
956
956
956
959
958
957
954
956
959
963
961
962
960
959
964
964
963
961
959
961
961
963
964
965
961
966
967
970
969
967
965
966
967
969
970
966
965
964
965
969
969
969
965
963
963
970
971
969
967
966
968
967
967
963
963
964
964
967
968
962
963
964
965
966
967
967
962
963
966
968
970
964
963
963
967
968
967
965
964
964
965
967
967
966
963
960
963
966
968
965
962
966
967
966
970
971
968
968
969
972
971
968
964
965
967
971
974
968
966
965
968
970
972
969
968
967
971
972
973
971
969
969
971
973
975
971
966
972
973
978
978
977
973
977
981
987
992
993
996
1007
1029
1052
1078
1101
1123
1155
1186
1214
1236
1261
1274
1277
1265
1243
1203
1157
1103
1063
1036
1018
1001
987
979
976
979
979
971
967
962
958
957
959
956
953
944
948
950
953
953
952
951
951
954
954
956
959
957
957
959
958
957
958
956
956
958
958
959
957
952
954
955
958
961
956
952
953
955
958
960
958
957
958
961
963
966
962
961
958
965
968
969
968
965
967
972
975
972
972
971
972
974
977
976
977
973
973
976
982
983
982
984
985
988
992
992
990
987
984
984
982
981
977
971
965
964
967
966
962
955
954
954
955
951
950
946
948
949
950
949
949
945
943
943
947
951
949
947
948
951
952
951
949
946
950
952
953
952
951
950
951
952
956
959
954
954
956
960
964
966
963
960
957
962
962
966
963
959
959
959
960
962
959
960
961
963
965
968
962
960
960
960
962
962
958
956
954
955
961
961
960
959
956
959
963
959
958
955
957
960
962
961
960
956
961
966
968
965
965
965
966
968
972
969
968
966
968
968
972
974
971
968
968
972
977
983
985
984
995
1015
1039
1064
1092
1118
1148
1181
1211
1235
1255
1270
1276
1262
1235
1199
1147
1093
1055
1027
1005
988
977
969
969
974
972
969
962
958
953
954
959
959
958
952
953
955
955
957
954
952
952
953
957
958
953
948
947
948
951
948
948
948
948
954
952
956
954
951
951
953
956
956
953
948
953
953
960
960
962
956
957
961
966
967
963
960
964
965
970
971
973
970
972
975
981
982
981
982
984
986
993
996
996
995
994
997
996
999
995
990
987
986
985
983
979
975
971
970
972
971
966
962
959
963
960
961
960
955
955
954
954
954
953
951
949
952
953
952
949
947
951
952
953
952
950
949
949
953
956
956
956
954
954
954
958
960
958
958
956
962
964
965
962
960
957
956
962
962
962
960
957
956
960
958
957
954
954
957
960
957
953
951
950
948
954
959
956
952
955
958
961
961
955
953
951
955
960
958
957
955
959
964
968
970
968
964
964
966
968
969
966
964
961
965
968
967
965
963
962
966
971
973
973
971
969
970
971
972
971
967
968
968
971
968
970
965
965
968
970
969
970
969
967
969
974
975
974
972
977
984
996
996
1002
1013
1027
1053
