1072
1097
1125
1156
1194
1224
1249
1271
1284
1282
1264
1228
1173
1112
1062
1031
1005
983
964
949
946
945
944
941
934
931
929
929
932
933
930
924
929
933
938
940
937
933
931
932
934
933
931
929
924
928
932
934
931
928
922
926
928
931
928
923
919
920
925
926
925
920
917
917
922
922
922
917
915
915
919
923
921
917
917
921
926
932
927
925
927
929
934
935
933
931
929
929
929
930
928
926
921
922
925
927
929
927
925
927
932
933
931
934
935
937
941
943
944
943
946
949
950
954
954
954
954
955
955
956
954
948
952
948
952
951
951
949
949
954
954
955
952
948
948
949
951
956
953
952
950
954
956
960
960
958
961
968
978
989
1007
1031
1057
1082
1105
1132
1169
1198
1227
1252
1272
1279
1267
1236
1194
1140
1093
1049
1016
988
963
951
946
947
941
936
930
929
931
933
929
925
922
924
932
936
934
931
926
930
929
929
927
925
926
928
929
924
924
923
922
925
924
925
922
918
918
918
919
919
920
915
915
918
922
923
920
916
912
916
915
918
918
916
916
921
921
923
925
921
923
924
930
930
930
925
925
926
929
929
925
921
926
925
929
928
926
922
923
925
930
934
936
933
931
931
935
939
939
939
941
943
944
946
945
943
940
944
944
944
944
941
942
942
946
951
948
945
944
943
944
950
949
945
940
944
946
947
945
945
941
941
943
947
944
946
946
948
950
950
948
942
940
941
944
944
941
936
930
931
932
933
925
925
922
923
925
928
926
923
923
925
925
931
932
934
934
938
939
946
944
945
946
950
956
960
955
954
952
953
957
958
954
953
952
951
954
952
954
950
948
949
950
953
952
949
949
952
955
956
953
951
950
950
957
958
958
958
959
968
974
983
991
1012
1035
1065
1097
1130
1165
1197
1228
1260
1289
1304
1302
1286
1248
1197
1140
1091
1048
1014
982
964
957
951
949
941
934
929
928
927
926
923
924
925
930
928
925
922
920
921
924
928
927
926
927
929
934
932
930
929
926
928
929
926
926
923
924
925
929
930
927
925
922
925
925
927
926
925
925
926
927
928
929
926
924
925
929
929
927
925
928
931
933
933
934
931
934
935
940
941
942
940
936
938
938
942
939
938
937
940
940
944
944
941
942
942
948
952
952
952
949
948
950
955
954
956
957
963
966
966
967
967
969
968
970
970
967
967
963
966
970
972
968
965
964
967
969
970
966
967
963
964
965
970
965
962
959
962
963
966
964
959
956
956
958
956
953
951
950
951
955
955
951
946
943
943
946
954
954
952
947
951
955
957
952
946
943
944
950
956
960
959
957
959
964
966
966
962
962
966
970
970
968
965
963
967
969
968
965
962
962
964
967
968
967
966
965
963
964
968
965
963
960
962
969
969
968
965
961
963
966
968
968
964
960
960
965
967
969
965
961
963
964
963
962
959
957
962
960
961
957
951
948
950
953
958
961
960
957
957
962
966
965
963
962
961
965
970
968
966
966
968
972
974
974
972
970
972
976
975
976
971
971
973
973
977
976
976
973
974
977
975
977
976
972
971
974
973
971
969
971
972
973
977
974
972
970
970
974
977
971
969
968
968
970
973
973
968
966
969
970
971
967
965
965
966
970
971
966
965
966
970
971
975
979
985
989
999
1020
1044
1072
1097
1127
1163
1199
1231
1264
1296
1322
1341
1348
1330
1294
1241
1182
1131
1092
1056
1020
994
982
988
997
1001
996
988
980
978
978
977
976
972
969
969
969
968
966
963
960
962
958
961
959
956
955
956
958
954
951
949
950
954
953
956
953
951
946
947
951
950
948
943
940
941
943
940
940
935
932
933
934
934
933
929
929
929
933
933
933
929
930
934
935
940
940
938
935
942
948
953
955
955
957
963
968
975
975
977
978
984
990
993
994
988
989
988
993
991
989
986
985
983
987
986
981
977
974
976
978
981
979
973
972
975
976
978
975
973
971
974
975
975
972
967
970
971
974
977
976
971
967
970
971
975
967
966
965
961
966
963
959
953
950
952
956
957
953
949
945
949
955
953
954
950
950
954
958
964
964
962
964
966
968
971
968
967
968
976
982
988
982
979
976
982
981
983
981
979
980
979
982
984
980
977
976
979
980
982
979
977
975
979
981
987
984
979
979
982
984
985
985
983
985
988
997
1002
1004
1019
1042
1074
1104
1137
1172
1203
1234
1272
1306
1335
1346
1337
1310
1273
1223
1166
1111
1064
1028
1000
984
974
973
973
970
969
964
965
962
956
953
953
952
952
953
956
955
957
960
958
957
957
961
965
968
969
966
964
966
967
969
970
968
967
963
964
967
970
970
966
963
968
972
975
973
969
968
967
969
969
968
965
965
965
969
971
968
965
962
965
965
967
968
963
964
964
970
968
971
966
968
972
972
974
973
969
965
965
964
965
960
955
952
953
958
956
952
945
946
947
949
954
954
952
950
953
957
961
961
955
955
961
963
968
969
965
966
971
974
978
973
971
970
974
979
983
981
977
974
975
975
974
975
974
978
978
977
982
979
978
976
977
979
980
980
979
976
980
982
982
981
979
980
981
986
988
988
986
995
999
1011
1022
1037
1057
1083
1108
1132
1156
1184
1215
1243
1272
1297
1311
1312
1293
1258
1214
1158
1099
1049
1017
995
985
979
978
976
973
971
970
971
971
965
960
958
958
963
964
962
961
965
970
971
974
971
969
967
967
968
968
967
963
963
967
968
970
967
965
961
963
969
968
968
966
964
964
966
968
967
965
962
965
972
973
973
970
968
970
976
976
975
972
970
971
975
977
978
973
973
974
972
974
976
971
971
969
968
970
969
967
965
963
965
966
961
958
956
956
958
960
961
960
965
967
969
968
964
960
960
963
967
977
979
977
972
977
984
987
987
986
979
977
978
980
980
977
978
974
979
982
982
983
981
979
984
982
979
976
977
979
982
981
980
978
979
987
988
988
986
983
987
984
987
991
996
1008
1023
1048
1070
1091
1111
1130
1151
1186
1217
1249
1272
1293
1305
1302
1285
1250
1199
1133
1079
1042
1021
1004
981
969
963
966
966
966
961
950
945
948
953
957
959
959
956
957
960
955
956
954
950
951
954
954
951
950
951
952
957
955
951
941
939
939
941
942
937
933
931
934
945
952
951
947
946
949
955
958
953
949
943
941
945
943
935
931
925
930
935
944
946
944
943
940
937
938
938
937
937
942
944
943
937
932
931
933
932
932
935
933
931
934
937
938
938
938
939
942
946
946
943
946
948
949
954
955
958
959
956
956
958
957
951
949
952
956
958
963
960
963
964
960
961
961
957
956
957
962
968
973
975
969
968
963
962
958
961
958
962
969
976
981
977
971
973
976
986
996
1007
1021
1043
1071
1100
1127
1157
1191
1227
1259
1285
1308
1321
1314
1289
1247
1192
1126
1069
1024
994
975
970
965
969
967
967
965
965
963
964
959
954
953
954
959
961
959
956
959
960
962
959
959
960
959
962
961
953
951
951
953
955
954
951
945
949
956
964
967
965
957
955
956
960
960
956
951
947
953
959
961
961
957
950
951
956
960
960
955
952
953
958
959
959
955
955
958
961
964
963
959
956
959
966
971
969
966
962
968
970
968
963
958
959
962
965
965
961
960
964
965
966
966
963
959
959
968
979
980
974
974
981
991
996
991
986
988
988
992
994
989
990
991
993
992
994
992
992
990
986
989
989
991
986
987
988
995
998
997
992
984
982
988
991
993
995
992
990
991
994
995
995
1001
1007
1016
1027
1046
1069
1090
1114
1146
1187
1230
1268
1293
1314
1334
1348
1336
1307
1256
1196
1137
1090
1051
1020
997
982
981
982
984
979
970
965
963
962
964
960
958
959
958
962
961
956
948
951
957
962
955
953
947
944
944
948
956
958
956
953
953
952
952
951
946
942
944
946
949
951
940
934
938
942
941
938
941
947
945
942
934
924
923
927
934
950
950
948
940
933
934
944
948
947
943
941
938
944
945
946
944
942
945
947
946
943
942
943
944
949
953
952
951
943
945
952
959
960
955
957
961
963
960
965
968
970
974
973
976
975
971
972
973
976
977
977
974
973
970
973
973
975
973
972
974
975
977
977
975
972
973
978
978
975
971
969
971
971
975
972
975
978
980
978
979
983
988
992
1003
1019
1039
1059
1079
1109
1142
1184
1221
1251
1274
1296
1307
1307
1291
1253
1201
1143
1097
1063
1031
1005
979
965
962
960
960
955
951
946
948
949
951
950
944
942
943
949
956
954
950
944
948
952
950
949
946
943
946
947
951
948
943
943
946
947
945
944
941
944
944
944
945
946
941
938
938
940
942
942
939
937
938
939
941
941
937
936
936
939
939
941
940
941
946
949
950
947
947
947
952
954
951
953
947
947
950
952
952
949
943
944
941
944
945
944
940
942
946
946
950
948
950
952
958
961
962
960
960
962
966
970
972
973
971
969
972
975
974
974
972
971
972
975
975
972
971
968
970
973
975
973
969
973
975
979
978
974
972
973
975
980
979
975
971
972
976
979
981
984
985
989
998
1008
1025
1044
1069
1095
1121
1149
1183
1212
1242
1268
1292
1311
1310
1296
1263
1217
1159
1112
1069
1037
1002
979
968
966
965
958
956
947
944
946
946
942
938
937
940
942
948
944
948
950
950
953
954
953
949
948
947
950
948
947
943
946
946
948
949
946
947
943
942
947
947
947
944
943
944
941
945
942
939
939
942
944
947
942
942
940
944
945
951
950
948
951
951
953
959
957
955
954
952
955
956
954
953
950
951
952
953
950
944
941
948
952
955
956
951
952
957
964
966
962
960
962
966
971
977
978
976
976
978
983
986
981
980
978
978
983
983
981
976
977
976
981
985
981
980
977
977
978
983
978
979
976
978
984
985
984
984
984
986
995
999
1004
1005
1019
1040
1069
1096
1119
1144
1174
1212
1246
1276
1296
1304
1295
1271
1228
1168
1112
1068
1037
1010
990
977
973
973
966
963
961
957
957
955
952
953
953
955
950
952
950
955
961
963
961
958
955
957
960
961
959
955
952
954
957
960
960
954
953
955
958
958
955
952
952
952
950
953
955
949
950
951
951
952
950
949
947
951
954
956
956
956
957
959
966
969
968
967
965
965
969
969
965
962
961
963
966
964
957
953
950
952
955
957
960
958
959
962
964
966
965
967
970
971
973
976
978
976
979
982
987
990
987
988
982
987
989
989
990
987
986
988
989
990
987
989
989
990
992
990
989
988
987
988
992
996
991
993
992
996
999
1002
1002
1004
1005
1014
1022
1033
1049
1070
1097
1121
1148
1178
1208
1236
1261
1287
1306
1309
1295
1259
1207
1149
1105
1070
1040
1013
992
982
983
983
980
971
967
966
965
964
963
961
960
961
962
965
965
962
965
971
971
974
971
968
968
968
970
970
970
969
965
968
970
971
970
968
966
963
966
970
971
965
965
964
965
966
965
961
960
959
958
963
960
958
955
957
959
964
963
961
961
963
968
967
970
969
969
969
972
972
972
970
971
968
974
976
975
974
974
975
980
982
981
977
978
977
981
986
986
984
986
990
993
996
995
991
987
990
991
994
991
987
988
992
995
997
995
993
990
992
995
994
994
990
991
992
994
994
994
989
987
991
994
995
990
992
991
991
995
995
990
989
988
988
988
989
992
989
990
991
996
1002
1006
1013
1029
1053
1081
1110
1136
1164
1204
1239
1269
1297
1313
1316
1302
1272
1228
1172
1117
1077
1045
1021
1006
1000
1002
1005
1002
998
995
992
986
981
976
976
978
975
973
969
969
967
970
970
971
967
962
963
967
967
967
966
964
963
966
967
966
963
962
962
962
962
961
961
958
963
966
967
960
962
961
962
963
965
963
958
955
955
956
956
958
957
955
957
958
964
966
963
965
969
977
979
981
980
982
984
990
992
992
991
988
991
994
994
993
993
992
995
1002
1004
1002
1002
997
998
1001
1000
996
996
994
996
997
997
999
999
998
997
1001
1002
999
998
994
995
997
1000
995
991
993
993
996
998
995
993
988
992
995
996
994
990
987
985
986
983
981
977
975
978
979
978
981
980
978
982
983
983
985
982
983
986
992
995
998
997
1000
1009
1019
1030
1047
1072
1103
1136
1177
1220
1261
1297
1328
1358
1381
1382
1362
1321
1264
1199
1142
1096
1057
1028
1012
1009
1014
1020
1014
1004
998
997
994
992
987
984
979
979
978
977
976
974
975
975
975
977
974
969
968
969
969
969
966
962
963
963
961
961
960
954
952
952
949
952
950
948
950
950
959
959
960
958
957
956
961
965
965
965
965
967
969
971
974
971
974
979
985
988
990
989
993
997
1000
1003
1001
1001
999
1002
1003
1004
1004
1001
997
1000
1005
1005
1004
1000
997
997
996
995
992
992
993
994
994
996
993
992
992
992
997
995
993
990
988
989
993
993
994
992
989
990
992
992
993
986
983
986
992
994
998
998
998
1004
1018
1039
1068
1103
1139
1175
1210
1247
1289
1324
1358
1388
1403
1403
1382
1342
1285
1218
1157
1115
1086
1060
1039
1024
1019
1020
1011
1003
994
987
986
984
981
977
977
976
977
977
973
968
965
967
969
971
967
963
962
961
962
965
964
961
958
958
960
963
964
959
957
956
956
959
955
953
953
957
960
961
960
956
954
953
955
955
954
949
948
950
953
952
955
951
952
957
965
968
970
973
975
980
984
989
993
988
990
993
993
995
993
993
994
995
995
996
997
997
994
993
997
997
997
991
989
992
993
998
998
997
993
995
994
997
998
995
994
996
997
999
999
995
994
994
998
999
999
996
997
998
999
999
1000
994
994
992
997
999
995
991
989
992
1000
1007
1011
1020
1039
1067
1098
1129
1162
1195
1235
1274
1308
1341
1361
1366
1348
1320
1276
1217
1150
1094
1056
1026
1005
994
991
988
985
987
986
983
979
973
969
968
969
969
965
962
960
961
961
961
959
954
953
958
958
959
955
953
952
955
957
958
957
951
950
951
952
952
948
946
944
945
948
947
946
943
943
942
944
943
941
938
937
936
938
938
933
929
930
934
937
941
937
940
940
947
953
955
953
953
952
957
959
963
962
961
964
964
966
970
970
968
967
972
975
976
977
974
973
977
983
985
986
987
985
990
993
994
992
990
990
991
994
993
989
988
987
989
989
989
987
986
985
988
990
991
989
989
984
984
991
990
989
984
983
984
988
988
986
985
982
982
985
984
983
975
978
978
981
983
983
974
975
973
973
977
974
972
973
976
985
990
1006
1025
1045
1072
1104
1140
1178
1216
1250
1284
1319
1337
1337
1315
1280
1228
1171
1123
1084
1053
1028
1013
1007
1008
1005
998
989
988
984
980
975
970
964
963
964
965
964
960
956
956
956
960
955
953
950
950
954
954
952
950
946
947
952
952
950
948
947
945
946
949
950
945
941
944
942
945
944
939
939
938
940
940
939
934
932
931
931
930
927
925
922
923
926
928
928
928
930
929
936
942
943
948
949
956
959
963
965
968
966
967
969
971
970
970
970
974
975
978
977
976
975
979
982
986
980
979
977
980
983
983
982
981
976
979
980
984
984
980
978
980
982
983
982
979
977
980
981
980
979
978
977
978
981
983
981
980
977
977
980
980
978
975
972
974
975
978
975
971
966
964
970
970
968
964
967
970
977
984
988
993
1005
1029
1061
1087
1110
1132
1164
1201
1237
1270
1296
1315
1323
1317
1297
1255
1202
1146
1105
1075
1053
1035
1015
1003
999
996
994
992
984
977
972
972
972
970
967
963
960
958
962
964
961
956
955
955
957
960
957
952
950
950
952
954
954
950
948
952
952
951
952
950
946
946
949
952
950
947
946
947
951
949
946
942
940
937
939
940
941
938
935
937
940
942
943
943
947
949
956
963
964
967
966
969
976
980
979
974
975
976
980
985
984
981
982
981
986
987
984
980
978
979
980
981
981
977
976
975
979
980
980
980
979
980
983
982
979
977
972
976
977
979
975
973
973
975
977
978
975
972
968
971
974
975
977
971
970
970
970
968
968
964
960
960
960
962
958
958
957
955
959
959
959
955
954
960
963
966
966
969
970
977
987
995
1008
1025
1048
1080
1107
1138
1169
1203
1240
1275
1304
1325
1336
1331
1308
1276
1227
1166
1112
1072
1044
1023
1008
1001
994
994
989
986
984
979
973
966
962
962
961
961
958
955
952
952
952
953
951
950
948
950
950
950
945
941
941
947
948
946
945
941
938
938
941
943
940
936
933
934
936
935
934
930
930
928
930
931
933
931
932
937
942
946
947
948
947
956
962
961
959
962
965
971
978
987
990
991
991
993
997
998
995
989
984
986
989
992
987
984
983
979
984
984
981
977
975
976
980
980
978
973
973
974
977
975
972
967
966
966
973
974
972
973
971
972
974
973
970
969
965
968
971
972
966
962
960
962
962
962
960
957
955
953
957
958
955
953
950
951
958
960
958
956
958
959
964
969
968
965
963
970
974
977
977
978
976
978
986
993
995
991
992
990
992
995
996
991
991
988
992
994
992
990
987
986
988
991
990
988
986
986
989
989
988
987
986
986
987
992
989
985
985
984
986
987
987
983
979
978
981
983
981
978
975
978
976
977
977
973
969
970
972
972
968
965
963
962
966
967
963
959
960
960
963
963
