982
982
984
983
983
979
976
975
980
986
983
980
978
981
985
987
986
982
977
980
980
981
983
980
977
976
979
981
980
975
971
973
977
980
978
975
973
973
976
977
977
977
977
979
982
984
985
982
981
984
988
991
989
986
987
987
991
995
995
993
993
994
1000
1004
1004
1000
1001
1002
1009
1012
1009
1003
1000
999
997
995
994
989
985
987
987
987
985
979
977
975
977
977
975
966
968
965
969
968
968
962
965
967
972
972
972
968
968
970
973
976
973
973
969
972
975
978
980
976
981
981
983
986
987
986
984
985
988
990
990
985
987
988
986
994
991
992
988
989
992
992
991
988
986
985
988
992
989
989
990
994
1001
1010
1015
1031
1047
1075
1103
1133
1163
1196
1225
1253
1277
1298
1305
1295
1272
1238
1194
1147
1107
1074
1050
1030
1021
1010
1004
1000
996
991
992
989
986
980
976
975
975
976
974
967
966
968
971
973
969
967
965
965
968
969
966
961
959
958
962
963
959
952
951
952
955
959
955
955
953
956
960
963
962
960
959
961
963
968
968
966
967
970
975
982
982
980
978
983
986
991
992
992
990
993
995
998
997
997
996
995
1001
1001
999
997
995
994
997
996
996
990
989
986
986
986
984
980
976
974
976
976
974
973
969
965
971
972
969
967
964
964
968
968
966
965
965
968
971
973
975
972
973
975
976
977
976
973
970
971
972
975
974
968
966
969
972
972
970
969
965
967
968
971
970
967
963
965
971
971
971
967
964
965
968
971
970
966
966
968
968
971
971
967
967
968
972
975
969
971
968
970
973
974
973
971
971
968
973
975
972
970
967
966
972
975
975
971
972
975
978
982
980
976
975
977
979
981
981
974
980
982
983
985
985
983
981
985
992
993
1000
1008
1026
1051
1078
1108
1138
1169
1199
1230
1260
1291
1314
1324
1314
1294
1261
1218
1163
1112
1072
1044
1023
1008
997
995
991
990
988
984
981
976
969
967
966
962
960
953
950
950
951
951
949
947
945
942
942
944
945
942
941
946
951
957
958
954
953
954
961
961
963
962
961
963
963
966
969
965
965
967
969
972
972
970
971
975
979
979
979
979
975
979
985
989
987
988
989
991
995
998
997
998
993
998
1001
1003
1000
997
997
998
1002
1005
1002
998
994
993
996
999
993
987
986
983
986
987
984
979
974
973
974
976
972
968
968
967
971
975
974
974
967
966
968
968
967
963
961
963
964
966
965
964
963
965
965
967
967
969
967
967
970
976
975
972
971
972
973
970
968
967
964
967
969
972
965
964
962
969
971
973
971
971
968
969
973
975
972
970
971
971
976
977
975
970
969
969
973
974
972
968
966
969
973
974
975
974
976
980
983
986
986
981
980
982
985
989
986
983
982
984
985
987
987
985
981
981
984
986
984
982
977
979
981
982
978
977
976
975
974
977
975
977
973
977
977
980
974
973
974
974
976
977
974
975
973
975
976
976
974
975
972
971
974
975
973
971
967
970
976
978
974
977
976
980
984
983
982
984
985
987
991
993
991
986
985
986
989
991
990
987
983
981
986
985
986
983
981
981
984
984
981
978
978
980
982
984
981
982
979
982
984
988
987
985
983
985
990
997
1002
1002
1013
1022
1043
1073
1101
1129
1162
1198
1237
1269
1299
1326
1347
1353
1340
1305
1256
1195
1140
1093
1060
1029
1002
988
987
991
1000
1000
998
990
986
984
981
979
974
972
967
966
971
970
969
966
963
963
966
965
965
963
958
959
963
963
960
960
958
956
959
964
963
958
958
957
960
963
963
964
965
969
975
979
979
975
975
979
983
985
979
979
980
983
985
987
985
985
984
985
989
993
990
984
987
989
988
991
991
991
991
991
993
1000
1000
996
994
998
1003
1005
1002
999
993
994
995
996
993
988
985
983
985
986
982
982
980
980
981
982
981
979
975
978
981
981
982
980
978
979
980
981
982
978
977
978
982
983
982
980
978
980
982
986
981
978
976
976
979
982
979
979
974
975
981
986
983
982
979
981
983
986
982
979
981
980
983
985
986
980
984
986
987
990
986
985
983
984
986
986
985
982
981
982
983
986
982
979
976
975
980
981
981
976
973
975
978
980
978
974
971
973
975
976
975
970
969
970
972
975
973
970
969
972
973
975
973
970
967
968
970
973
972
972
972
973
974
980
978
976
974
974
980
980
981
976
975
979
981
982
979
980
977
977
981
984
980
979
974
975
979
980
979
974
973
976
977
980
977
973
972
975
981
981
978
977
974
976
979
980
978
977
974
975
979
983
981
979
977
975
983
982
981
981
978
978
984
986
985
984
983
985
988
992
996
998
1003
1010
1021
1037
1054
1082
1109
1145
1185
1222
1251
1281
1307
1336
1355
1356
1333
1289
1232
1170
1117
1072
1031
998
976
972
977
984
987
982
976
975
975
975
972
969
965
966
967
968
967
962
959
960
963
965
961
957
953
957
958
961
959
955
953
953
957
960
960
958
953
957
958
963
964
962
959
962
965
970
970
967
968
968
969
973
974
972
969
970
977
978
977
979
977
978
984
988
988
987
984
983
985
989
989
986
983
985
987
988
990
987
985
986
986
988
987
985
984
984
984
982
980
977
972
971
972
973
970
967
964
964
965
965
965
960
958
960
960
964
964
959
962
960
967
967
969
967
964
968
971
973
973
969
965
970
973
978
979
976
974
977
978
982
979
977
974
976
977
980
978
975
974
973
976
979
981
977
973
974
976
978
979
976
973
974
975
979
980
975
975
977
982
984
984
983
984
986
992
1001
1007
1011
1018
1039
1064
1091
1119
1144
1174
1213
1241
1269
1288
1297
1290
1269
1238
1192
1140
1093
1066
1041
1022
1006
993
986
982
979
975
970
966
961
956
955
958
958
956
952
949
951
951
954
954
948
947
948
952
955
953
950
947
949
952
957
953
950
948
951
954
957
958
957
956
960
962
961
962
959
959
962
968
971
971
970
970
976
980
982
982
982
982
987
992
995
994
994
995
996
1002
1003
1002
1002
999
1001
1000
1000
997
991
991
987
989
986
983
976
973
973
971
971
966
965
960
959
961
963
961
958
956
956
959
963
962
958
958
958
962
963
965
962
959
958
959
964
962
959
958
960
965
966
965
963
962
962
965
970
969
964
961
961
961
963
961
957
959
958
959
967
967
964
960
957
965
967
964
960
957
961
959
964
960
957
956
956
961
959
960
959
958
960
962
967
965
962
961
964
966
968
965
964
961
966
969
972
972
969
968
968
972
972
972
966
967
969
971
970
971
967
965
964
967
971
974
973
970
971
978
978
979
980
982
987
992
999
1010
1028
1054
1092
1127
1163
1205
1233
1261
1289
1310
1312
1292
1250
1196
1133
1079
1039
1008
987
976
975
978
979
976
972
964
960
963
960
958
954
951
954
958
960
957
958
955
955
957
955
955
950
949
950
953
955
956
953
951
953
954
956
954
952
947
952
952
955
956
952
952
954
956
961
960
960
958
960
967
969
969
967
967
971
974
980
980
979
975
979
986
988
990
991
988
989
992
995
995
994
992
993
994
996
993
987
985
983
987
986
984
980
975
975
975
975
972
970
969
968
970
969
967
965
965
967
968
971
969
964
966
965
968
971
970
965
963
966
971
974
974
970
970
972
974
974
974
970
967
972
971
968
967
964
960
959
964
965
963
961
962
963
961
965
963
960
959
960
962
969
965
960
958
962
966
968
971
971
972
974
980
986
989
992
998
1010
1025
1052
1078
1106
1136
1176
1215
1250
1277
1301
1309
1302
1271
1224
1158
1094
1040
1001
979
968
966
969
968
970
970
966
963
955
954
951
952
955
950
948
944
944
947
947
945
942
941
944
945
947
945
944
945
945
951
956
957
954
954
956
957
962
964
963
961
962
965
969
968
967
964
970
972
975
976
973
973
973
973
977
978
975
974
976
980
985
984
982
980
983
985
991
990
987
985
986
986
988
987
977
975
977
977
977
975
972
969
970
973
976
973
970
967
967
970
974
974
969
966
968
966
971
973
969
964
966
967
974
971
970
966
965
969
970
966
966
964
967
969
967
968
962
963
962
966
966
962
963
959
962
963
965
962
956
955
955
961
965
963
960
958
961
962
967
967
963
961
964
967
966
969
966
964
966
969
969
969
968
969
970
974
973
972
971
968
973
976
977
976
971
968
970
972
972
971
970
966
968
972
973
970
968
968
971
972
974
969
968
965
966
967
968
967
967
966
968
969
971
969
968
970
973
974
979
985
986
987
998
1010
1026
1052
1079
1110
1148
1187
1224
1257
1285
1316
1342
1354
1343
1308
1254
1189
1127
1076
1038
1007
984
972
974
978
981
976
968
961
960
957
959
953
950
944
941
943
944
944
940
937
937
938
940
938
937
933
935
937
940
942
942
939
943
943
950
949
944
941
947
950
954
953
951
948
950
952
958
959
958
955
957
959
961
960
956
953
954
956
959
957
955
953
954
957
960
960
955
956
961
964
967
969
967
966
968
969
972
969
971
966
969
971
974
975
968
964
967
969
972
971
966
962
961
964
967
965
964
961
963
965
968
968
964
962
962
965
967
965
962
960
962
962
962
961
959
957
959
961
960
961
959
956
958
960
964
963
959
958
961
964
963
962
963
962
965
968
967
966
964
963
964
968
970
970
969
966
968
966
968
968
963
965
967
970
972
968
966
965
965
965
967
967
965
964
964
966
966
963
962
962
962
964
962
961
960
958
961
964
965
965
961
960
962
963
965
964
961
957
957
960
964
964
964
963
965
969
974
971
964
966
966
969
973
970
969
969
970
974
977
977
975
983
984
994
1005
1021
1038
1063
1090
1123
1160
1191
1223
1245
1275
1300
1310
1297
1267
1220
1165
1113
1072
1038
1010
991
980
979
982
978
969
962
958
956
954
951
948
943
944
946
947
942
941
938
940
944
947
944
942
940
944
947
947
945
939
942
940
943
945
943
940
939
942
943
946
942
940
940
943
944
945
945
946
947
945
949
954
954
955
955
955
956
962
959
961
958
961
964
967
967
964
966
967
970
970
973
971
969
969
972
974
974
970
970
968
967
967
965
958
954
955
955
955
951
951
947
946
945
946
944
939
937
934
936
938
939
938
936
937
939
942
942
940
941
943
946
950
952
947
946
947
948
951
950
949
944
945
948
950
947
947
945
945
950
950
950
949
948
950
951
953
953
955
957
960
961
965
967
963
962
963
966
969
972
972
978
986
999
1017
1039
1060
1082
1107
1132
1159
1191
1218
1239
1259
1275
1280
1265
1235
1196
1146
1097
1057
1027
1005
988
974
973
973
970
962
957
953
951
951
949
944
942
940
940
943
938
933
933
933
934
937
933
932
929
930
930
935
931
927
927
926
930
932
934
931
927
930
934
936
933
933
928
931
932
934
936
934
931
932
937
938
940
939
939
942
945
952
953
949
950
951
956
960
959
959
961
964
967
972
971
968
968
972
973
977
977
977
974
976
975
977
972
970
962
961
961
960
956
954
948
946
948
947
946
942
940
937
939
937
941
940
938
940
942
940
941
940
941
937
939
943
944
941
941
942
945
948
947
940
941
944
947
952
950
943
948
950
952
953
954
953
951
954
954
958
951
953
953
949
952
957
954
950
950
951
954
957
955
951
947
951
953
953
951
948
948
947
949
953
950
947
947
946
951
955
952
951
950
951
955
956
955
954
952
955
956
958
954
952
949
954
958
958
957
955
954
952
955
957
955
954
950
953
955
958
958
958
952
953
957
961
957
953
953
953
954
958
955
953
949
948
950
952
954
951
951
950
952
956
959
953
950
949
953
956
957
952
953
956
958
962
958
957
953
956
956
958
956
953
953
955
955
957
956
955
949
949
957
957
956
954
948
952
955
956
956
953
952
953
956
959
960
958
958
959
960
965
966
965
965
967
974
977
980
985
987
994
1005
1022
1044
1068
1097
1129
1167
1202
1229
1257
1282
1311
1331
1324
1293
1243
1185
1122
1076
1039
1007
977
959
957
969
972
971
969
961
962
958
959
956
950
946
947
945
947
944
943
939
936
938
941
941
939
938
940
942
945
945
942
940
941
944
946
942
936
938
941
946
945
943
941
942
942
944
948
945
943
941
943
950
953
951
952
956
959
961
966
967
964
968
970
974
977
979
975
972
975
976
978
976
974
973
972
977
980
977
978
978
977
978
979
979
977
976
980
981
983
982
980
976
976
975
977
972
970
964
965
965
965
963
958
954
958
955
957
957
954
951
956
957
958
953
952
953
954
958
960
954
956
954
956
960
963
961
962
961
965
970
978
976
973
972
975
974
977
979
975
972
972
974
978
977
975
974
974
977
979
978
975
972
974
976
977
975
973
972
973
973
974
974
971
970
968
971
971
968
964
963
966
966
966
966
963
961
960
966
968
965
965
962
965
966
969
968
965
964
966
971
970
971
966
967
967
970
970
966
965
964
962
966
967
966
960
958
957
962
966
964
962
963
965
970
973
971
969
968
969
968
970
970
968
963
964
963
965
961
959
957
956
958
963
962
960
956
960
961
963
962
959
958
959
964
965
963
960
957
959
960
966
964
965
964
964
969
972
971
970
967
968
970
969
970
966
964
968
970
974
972
971
971
971
972
975
975
970
972
974
976
978
977
972
971
970
971
973
970
965
968
969
974
981
987
991
991
1000
1013
1027
1052
1076
1104
1142
1179
1215
1245
1276
1306
1331
1339
1329
1291
1234
1171
1113
1069
1033
1003
981
970
972
975
977
974
970
963
960
964
964
961
957
954
955
956
957
954
951
950
950
952
954
949
947
945
944
946
948
946
942
940
941
942
941
941
936
937
940
946
946
947
950
951
954
957
960
961
959
958
959
962
966
965
965
964
964
966
968
967
964
961
963
965
965
963
961
959
961
965
966
963
962
961
967
970
971
967
966
964
965
966
966
961
957
953
953
954
953
951
945
942
943
947
947
943
942
937
938
940
944
941
939
937
938
946
945
946
941
941
942
945
944
947
940
940
944
949
953
953
951
948
951
955
957
957
958
958
961
964
967
965
962
960
959
961
965
960
954
954
954
957
957
956
952
948
950
951
953
951
951
950
950
952
959
957
955
954
955
957
960
958
955
954
950
955
957
957
955
952
950
953
955
953
952
949
948
950
955
953
951
948
947
952
953
955
952
953
954
959
960
958
954
950
952
951
954
954
949
947
948
949
951
951
947
948
947
952
958
957
956
955
958
962
963
962
962
962
963
965
966
965
960
959
957
959
961
960
957
955
954
955
957
955
953
952
950
952
955
956
951
952
950
952
956
951
950
948
951
953
955
954
955
955
958
961
963
962
963
965
969
975
983
984
988
998
1015
1038
1066
1092
1117
1143
1175
1210
1237
1262
1285
1299
1302
1288
1263
1220
1170
1116
1076
1046
1028
1011
994
987
987
988
984
980
973
967
966
963
964
961
952
952
954
954
952
950
947
944
944
945
947
946
944
940
943
946
948
947
943
941
941
946
947
948
945
944
943
946
949
948
946
944
944
948
953
951
947
945
948
952
956
955
959
957
963
965
969
970
968
968
972
974
976
975
973
975
977
981
983
984
983
981
980
985
985
983
978
974
979
980
984
979
977
973
971
971
970
966
963
957
960
961
963
960
954
951
948
950
951
949
943
944
944
945
947
945
940
937
935
940
940
940
939
940
941
947
948
951
948
947
948
951
956
956
953
954
952
956
959
959
956
955
955
958
960
959
956
952
954
956
959
959
957
960
961
961
962
962
959
956
955
957
957
957
954
948
947
950
951
949
946
940
941
943
943
944
941
939
940
941
944
942
939
935
935
938
942
940
937
936
943
948
954
954
954
949
948
953
959
959
955
954
954
954
956
956
953
952
950
959
962
961
961
963
961
965
965
960
959
955
958
958
961
958
952
953
952
954
957
952
951
945
947
947
950
950
944
944
946
951
949
948
948
944
946
949
950
949
947
943
947
948
950
950
950
947
946
952
954
956
956
953
957
962
965
963
962
963
967
970
978
979
980
981
988
996
1001
1008
1024
1045
1072
1102
1134
1167
1194
1221
1248
1274
1289
1284
1253
1212
1157
1100
1056
1020
993
974
966
964
970
971
964
957
953
952
950
949
944
944
946
943
945
945
941
937
939
943
946
945
942
941
946
948
954
954
953
952
956
960
963
960
958
957
957
960
962
959
958
957
957
958
962
961
960
957
956
958
962
963
962
961
961
965
968
966
965
964
966
972
974
974
974
973
977
980
984
981
979
980
982
983
985
984
979
977
978
979
981
979
973
969
969
971
972
971
963
958
956
959
958
956
954
952
952
953
955
953
950
949
950
954
957
956
956
956
958
960
960
958
955
954
956
959
962
960
958
956
957
960
962
959
957
958
959
963
962
963
962
962
962
964
967
967
964
964
965
969
973
967
967
965
963
966
967
965
962
959
960
964
964
963
958
955
955
957
958
956
956
953
953
953
955
954
953
954
955
959
964
960
959
958
958
964
968
966
963
957
960
963
970
968
966
