988
987
986
990
993
996
996
992
988
991
990
995
997
996
992
989
992
994
995
995
992
988
994
997
999
998
996
998
1001
1006
1012
1013
1016
1024
1044
1073
1101
1127
1157
1190
1227
1258
1285
1309
1316
1308
1285
1249
1199
1145
1101
1065
1039
1017
1007
998
995
987
981
979
972
967
961
958
960
959
960
958
954
948
954
959
961
961
957
955
958
960
961
962
962
965
968
974
973
973
970
969
970
973
975
973
972
970
971
977
979
977
973
971
974
975
975
974
971
971
970
975
975
971
971
969
972
973
974
972
972
970
975
979
980
978
979
978
983
986
988
985
983
979
981
982
977
975
971
967
971
970
971
968
963
960
960
959
962
958
956
959
961
964
969
968
966
965
969
970
973
972
973
972
973
978
983
985
982
981
983
986
989
987
983
982
985
990
990
989
984
986
985
988
990
990
987
989
991
995
995
993
989
990
992
995
996
996
996
996
1001
1004
1010
1010
1010
1012
1027
1041
1059
1082
1102
1123
1150
1178
1212
1239
1261
1283
1303
1316
1316
1291
1257
1208
1158
1110
1074
1039
1010
988
979
979
982
981
974
970
967
969
968
967
965
959
961
967
968
965
961
960
961
963
967
967
964
965
967
972
975
976
970
970
971
971
974
972
971
968
971
975
976
977
973
972
974
975
976
973
969
969
969
974
974
977
972
970
973
976
978
974
975
971
972
976
979
978
975
974
975
978
983
981
980
976
981
991
990
987
985
984
982
985
985
983
976
977
975
974
973
969
966
963
964
965
967
967
964
962
962
968
969
969
965
968
971
974
977
975
973
972
976
978
983
984
983
982
987
990
992
991
988
989
990
993
994
993
989
990
991
993
993
995
993
992
992
996
996
993
991
991
991
994
995
992
992
993
993
992
998
995
995
994
999
1007
1011
1015
1018
1025
1045
1071
1095
1118
1141
1172
1209
1247
1279
1309
1331
1340
1339
1319
1285
1227
1168
1117
1075
1042
1016
996
985
980
978
978
978
971
965
960
959
962
963
962
955
956
955
959
962
963
957
961
966
968
968
961
960
961
958
964
963
962
957
956
960
962
961
959
953
955
956
957
955
952
952
951
951
955
956
955
952
948
950
951
951
950
947
945
946
946
947
943
941
938
942
946
946
945
944
942
944
950
953
952
952
950
952
957
958
957
955
951
955
955
956
955
955
951
953
958
961
960
955
958
957
961
962
966
966
965
966
968
972
974
971
972
974
979
982
980
980
979
980
984
986
985
981
983
984
984
988
984
982
982
984
986
984
987
988
985
985
990
987
983
986
986
986
989
992
988
989
989
990
995
998
996
1002
1005
1020
1039
1060
1081
1104
1126
1156
1187
1219
1245
1267
1287
1304
1307
1293
1260
1209
1155
1114
1081
1055
1025
1002
985
978
977
975
971
964
957
954
956
958
950
949
944
948
951
953
947
948
945
949
953
955
957
955
952
955
958
955
953
954
953
951
952
953
954
950
946
949
954
956
955
949
947
944
949
950
950
946
946
947
948
947
947
942
942
943
946
948
948
944
943
945
949
952
951
948
948
952
953
957
958
955
955
960
963
963
962
961
957
956
955
958
957
952
952
949
952
951
952
947
946
948
950
952
952
953
953
955
957
960
960
956
958
960
965
966
964
964
969
972
975
976
974
973
972
972
973
976
976
973
974
975
978
976
976
974
972
976
978
979
974
972
970
972
978
976
975
971
972
974
978
982
984
982
984
986
995
1000
1004
1013
1025
1054
1077
1099
1118
1140
1170
1201
1229
1254
1275
1289
1290
1277
1258
1221
1169
1119
1080
1055
1030
1006
981
970
962
960
958
956
953
945
941
939
940
940
936
933
933
937
940
938
936
936
937
944
946
947
947
944
946
944
946
947
946
943
943
944
946
947
945
942
943
946
947
944
941
940
941
939
945
944
943
941
939
941
942
944
939
936
935
938
941
938
938
934
934
937
941
941
939
940
941
944
951
952
949
951
950
952
950
954
952
946
947
950
953
953
952
947
945
948
951
953
950
950
951
954
959
961
959
959
958
963
968
972
967
970
969
975
974
975
973
972
969
973
973
973
974
974
971
975
976
975
973
975
975
976
978
979
976
976
976
977
978
978
976
975
974
976
979
979
978
976
974
975
977
978
976
976
975
978
981
986
987
992
998
1019
1045
1070
1092
1111
1144
1182
1217
1249
1270
1285
1282
1264
1231
1176
1121
1073
1038
1017
998
987
976
974
970
968
965
965
963
958
957
957
955
958
955
949
948
949
953
952
951
946
946
948
949
950
948
945
944
944
944
946
946
943
939
943
941
942
942
940
937
940
943
942
941
937
939
938
939
939
936
935
933
934
937
935
935
931
929
931
933
933
930
927
927
930
933
936
936
936
936
937
943
945
945
944
942
947
954
955
952
949
951
954
959
962
963
961
960
963
962
964
966
966
967
969
974
977
975
970
970
971
972
970
974
971
973
971
972
975
976
973
972
973
975
976
976
972
972
973
975
977
973
973
968
971
974
977
970
969
971
970
972
973
968
966
963
966
968
967
967
957
956
956
958
958
957
954
954
958
958
960
961
960
961
968
974
986
999
1016
1043
1070
1098
1133
1168
1202
1236
1270
1297
1315
1316
1297
1259
1215
1161
1112
1073
1035
1008
993
994
995
991
985
977
976
975
972
967
962
957
956
962
957
955
951
952
949
954
956
951
947
948
948
951
950
947
947
944
944
948
947
945
940
939
938
941
943
943
933
934
935
939
937
936
929
926
926
927
926
922
921
921
920
922
921
918
914
915
918
924
926
927
926
931
935
943
951
953
954
955
960
967
972
973
973
974
974
980
983
980
981
978
979
980
982
978
977
970
976
981
981
979
974
975
976
979
977
978
975
974
978
980
982
980
974
972
973
980
983
981
979
978
980
982
983
982
977
977
979
978
980
972
973
971
972
967
971
970
967
963
967
968
968
965
963
960
962
968
971
969
972
978
984
993
1002
1014
1032
1060
1092
1123
1157
1195
1235
1276
1310
1340
1356
1352
1332
1293
1240
1179
1120
1077
1042
1016
1004
999
1002
999
992
985
982
980
977
973
967
961
963
960
963
959
956
954
955
957
955
955
953
950
950
953
953
952
945
944
947
948
949
945
943
938
939
941
940
936
932
929
932
934
934
933
929
926
927
929
931
927
924
926
928
932
936
938
938
941
947
951
953
954
957
961
966
973
977
978
978
982
984
986
987
986
984
981
982
980
983
978
975
977
977
980
980
977
977
976
976
976
975
977
973
969
972
973
973
971
969
969
972
974
977
974
969
968
968
970
969
967
969
966
964
964
965
963
956
956
956
958
957
953
954
950
952
954
957
957
954
952
955
960
963
965
961
964
966
968
971
970
967
971
977
982
985
984
981
978
982
984
983
984
979
982
981
984
984
983
982
980
984
986
985
984
980
983
982
984
983
984
981
980
981
984
985
982
982
982
985
991
993
995
995
1001
1007
1021
1039
1066
1093
1124
1158
1199
1236
1269
1296
1322
1338
1335
1314
1270
1212
1146
1090
1051
1016
992
980
977
975
975
973
966
962
960
958
962
959
957
951
949
954
958
957
960
957
955
956
957
955
954
949
948
951
953
952
951
948
948
947
950
949
947
943
942
944
950
950
947
944
942
945
946
948
947
945
943
943
944
945
942
939
938
940
944
942
938
939
938
938
941
941
938
937
937
939
945
949
947
944
944
947
946
951
947
948
950
951
954
953
955
952
954
959
961
961
960
959
960
961
967
972
972
972
973
974
975
975
973
971
970
972
976
978
979
977
974
980
979
981
981
981
978
975
978
977
981
979
978
978
982
983
979
979
979
984
990
995
1000
1004
1013
1032
1057
1084
1111
1131
1155
1188
1223
1256
1277
1293
1299
1285
1263
1223
1168
1107
1062
1029
1008
990
973
963
959
957
958
953
953
947
945
944
945
944
943
939
938
942
945
947
947
938
940
942
942
944
941
937
935
937
943
944
942
939
941
940
944
943
943
942
941
943
947
945
944
938
939
944
945
946
946
946
944
946
950
953
952
949
948
948
950
953
952
949
949
950
953
956
956
956
954
962
960
960
957
951
951
949
949
949
947
946
944
946
950
951
947
944
944
948
954
957
952
947
952
959
965
967
966
965
967
972
974
973
971
968
968
969
970
973
974
970
969
971
975
975
976
970
972
972
973
975
973
970
968
971
973
972
967
967
965
969
974
975
974
974
972
971
974
976
975
974
977
981
988
995
1004
1022
1046
1072
1103
1136
1171
1204
1234
1265
1290
1300
1289
1265
1223
1168
1117
1074
1037
1007
982
975
974
971
967
961
953
953
954
952
951
950
949
948
948
946
944
941
938
938
938
943
941
937
938
938
938
939
936
934
932
935
935
935
932
929
929
930
933
932
931
930
925
927
926
930
924
926
926
925
925
925
923
919
911
914
917
918
917
913
912
911
914
914
915
914
915
917
921
925
923
925
926
931
936
940
943
942
943
946
949
954
954
951
951
951
953
954
960
957
959
962
965
967
968
966
964
962
967
969
966
964
964
969
971
971
968
962
964
968
968
969
966
966
963
967
971
970
968
963
963
965
970
972
971
967
965
969
971
973
973
972
974
976
985
990
994
1005
1023
1049
1080
1106
1128
1155
1188
1225
1254
1277
1294
1296
1286
1262
1225
1171
1112
1060
1026
1001
986
973
965
963
963
962
960
958
953
947
946
950
948
949
950
945
941
944
945
945
942
943
941
941
942
944
947
943
940
941
940
944
945
938
935
938
941
941
940
940
937
939
942
944
941
938
936
938
940
941
942
937
934
934
937
938
937
933
930
931
934
934
933
931
928
931
931
936
938
937
939
941
944
947
946
945
945
949
953
954
953
952
949
955
955
956
956
955
957
959
962
959
954
957
960
963
968
969
969
968
968
970
973
976
973
967
965
970
976
978
974
971
971
974
977
978
976
975
970
974
979
980
975
973
974
975
978
978
977
971
973
972
973
974
973
969
971
972
975
974
974
968
967
969
970
969
968
966
963
971
979
987
1001
1019
1046
1075
1107
1141
1176
1211
1249
1286
1317
1334
1334
1312
1276
1222
1164
1104
1053
1011
985
970
972
975
974
970
968
964
958
956
954
944
947
945
946
947
942
940
940
939
941
941
935
935
932
935
937
937
937
932
932
933
934
936
931
930
930
930
932
932
927
927
924
923
928
924
925
920
917
918
917
917
914
910
907
905
906
906
902
900
898
897
901
901
903
902
900
906
908
914
914
917
919
929
934
937
937
937
939
945
948
952
951
948
949
949
952
957
958
958
960
963
967
965
965
963
962
965
968
967
964
964
967
967
967
970
969
965
967
968
972
972
970
965
967
969
970
969
969
966
964
968
970
971
968
967
966
968
970
969
971
967
965
968
969
972
968
965
962
965
966
965
966
962
967
973
979
989
1004
1025
1047
1077
1105
1138
1174
1207
1237
1269
1295
1314
1312
1294
1265
1219
1169
1119
1074
1038
1008
990
983
981
981
975
968
965
961
960
954
947
942
942
943
941
938
934
932
934
935
938
936
933
928
931
932
931
932
927
926
928
931
929
930
926
924
925
927
928
927
923
918
921
927
924
924
919
918
919
920
917
915
913
910
909
909
909
905
903
900
901
901
903
904
901
902
901
905
906
903
903
907
912
919
922
923
926
926
930
936
937
938
935
940
940
945
947
943
942
947
948
954
954
952
949
950
952
952
956
955
954
951
953
954
959
954
955
952
952
956
955
953
951
950
952
953
956
956
953
953
953
955
954
955
949
951
949
954
954
952
950
946
952
954
952
951
947
948
947
949
948
945
942
941
942
942
942
938
935
934
932
933
934
931
928
926
925
929
930
929
928
926
930
934
936
937
932
931
933
935
939
937
933
933
940
944
946
951
947
947
949
951
952
949
949
950
952
952
952
952
949
945
949
953
954
954
949
947
950
952
954
952
946
945
950
952
952
952
947
947
950
953
952
948
949
948
949
949
955
951
948
947
950
953
953
952
949
946
953
957
964
965
969
977
997
1022
1046
1073
1096
1127
1166
1200
1231
1258
1279
1293
1291
1275
1241
1194
1136
1089
1053
1025
999
978
967
963
962
964
964
959
952
950
951
949
950
947
943
938
940
941
941
935
937
934
935
938
936
935
933
932
933
933
932
933
928
929
928
931
930
929
928
926
928
929
927
927
926
924
924
928
929
925
923
922
922
924
923
924
920
918
919
919
919
916
913
915
915
914
916
914
913
914
915
922
925
929
928
929
935
939
943
940
941
941
944
946
945
947
945
945
950
954
956
955
955
953
953
959
952
953
951
949
951
950
951
952
948
947
949
952
951
949
949
947
948
950
949
946
947
943
947
949
948
945
944
945
947
949
949
947
945
945
946
947
949
947
946
946
944
948
946
945
942
940
944
952
956
961
970
990
1018
1054
1088
1117
1141
1175
1214
1253
1277
1292
1297
1290
1266
1229
1176
1114
1055
1016
993
978
967
962
962
966
964
965
960
955
950
947
947
948
944
941
937
935
934
938
937
933
927
928
929
933
932
930
927
927
926
928
929
929
924
923
925
930
931
928
924
922
925
926
927
924
921
920
923
923
926
926
923
923
925
925
925
919
918
914
917
920
923
923
919
917
920
925
926
926
923
921
927
936
939
940
943
944
944
949
953
952
949
947
945
948
951
949
948
949
951
954
956
956
956
953
954
956
951
951
951
950
952
953
951
951
950
951
953
956
956
956
953
953
954
957
958
957
954
952
956
953
955
955
952
951
951
955
954
950
948
945
949
950
950
947
945
945
947
949
943
944
938
935
935
936
936
935
932
930
934
932
935
932
931
934
939
942
944
945
946
950
958
967
978
992
1013
1042
1075
1112
1149
1191
1228
1264
1301
1329
1350
1348
1330
1293
1246
1188
1132
1079
1037
1004
985
974
972
973
970
964
962
958
958
955
947
945
946
944
941
941
941
938
938
942
942
937
933
932
933
934
932
930
929
927
926
929
927
924
918
920
921
923
925
917
913
911
913
914
915
912
908
905
905
904
905
904
902
902
906
907
908
909
906
908
912
915
918
918
917
916
920
926
933
933
935
939
944
951
954
958
955
958
960
962
966
962
961
957
960
963
963
962
961
958
958
962
961
960
957
958
959
960
960
958
956
955
956
958
960
955
950
950
954
959
960
954
953
949
952
956
954
954
950
948
947
948
948
944
943
940
944
946
944
943
938
937
937
937
945
944
941
940
944
946
953
953
952
954
957
956
958
960
957
960
964
967
972
975
975
971
973
977
978
975
974
972
974
978
980
978
975
971
975
977
977
977
974
971
972
975
976
973
971
971
973
976
978
977
978
977
981
990
994
994
996
1002
1024
1054
1083
1112
1140
1180
1222
1260
1295
1323
1342
1350
1343
1314
1269
1208
1142
1085
1039
1008
979
962
955
952
951
954
951
948
942
935
935
937
939
936
935
932
934
936
935
933
932
929
934
939
941
941
937
938
939
943
942
939
940
938
940
941
942
937
938
935
939
940
940
938
935
937
937
939
939
937
934
932
932
935
936
937
932
930
931
933
933
934
929
929
931
934
931
931
931
929
934
939
940
940
939
939
940
943
945
940
940
941
940
941
940
937
931
931
933
936
935
934
934
931
936
938
939
941
939
943
947
949
950
949
946
949
948
956
961
959
963
962
968
971
971
970
965
966
966
970
973
969
968
968
972
976
975
974
972
970
974
977
977
976
973
973
973
975
977
976
974
974
973
976
975
974
974
972
974
978
979
978
975
978
982
989
996
1006
1019
1041
1069
1097
1122
1154
1186
1216
1248
1272
1291
1291
1272
1238
1187
1129
1077
1036
1001
977
965
963
963
961
956
947
945
945
941
941
937
937
939
942
942
941
938
937
938
939
938
934
933
933
934
933
935
931
930
929
930
933
933
931
931
930
930
933
932
933
929
925
927
931
931
927
926
927
928
929
929
928
922
923
925
928
926
925
923
921
925
924
929
929
927
926
930
935
936
934
933
931
935
938
939
939
936
935
939
942
944
944
944
943
946
947
949
950
948
951
955
963
965
963
959
961
963
965
966
963
963
963
965
970
969
968
965
966
967
969
968
967
966
967
971
973
974
970
965
966
968
970
970
971
968
965
966
968
969
965
959
963
963
965
962
960
954
956
954
956
950
946
944
945
947
946
944
943
938
939
941
943
946
944
946
943
946
949
948
950
949
950
950
955
956
955
958
961
963
972
970
970
966
966
966
967
969
968
963
964
965
968
968
966
966
963
965
968
965
965
964
962
964
966
968
967
967
966
966
968
970
973
972
974
976
981
985
989
994
1007
1029
1059
1087
1115
1147
1182
1220
1256
1286
1313
1325
1321
1299
1264
1211
1148
1093
1049
1013
990
973
965
959
957
958
953
954
951
946
946
947
947
950
946
943
940
943
947
950
953
949
948
947
952
954
951
947
944
945
949
948
946
943
945
949
950
949
947
944
946
943
943
950
946
946
944
942
947
947
948
941
941
943
946
947
947
943
938
940
946
945
947
942
940
942
944
943
942
940
939
942
947
947
946
946
946
949
953
951
954
951
952
956
959
