964
962
966
961
960
960
964
961
963
961
959
961
965
971
969
968
971
973
977
980
975
975
974
975
975
977
978
977
977
978
983
983
981
978
978
977
981
983
981
977
974
972
979
983
983
979
979
982
986
993
996
996
1002
1017
1039
1065
1091
1115
1143
1177
1209
1235
1260
1277
1289
1285
1266
1234
1181
1126
1078
1042
1018
999
987
980
979
981
980
983
981
978
975
971
974
975
973
971
968
966
970
971
969
968
964
966
968
968
967
963
963
962
963
967
964
962
961
962
965
967
965
964
963
963
967
969
970
968
966
967
967
970
968
967
968
969
973
977
976
975
975
976
978
981
979
979
980
981
983
986
988
989
987
988
994
1001
1002
1000
999
997
1004
1004
1003
999
996
994
995
994
992
986
983
983
982
982
980
974
973
971
972
972
968
967
964
964
966
967
965
962
960
962
964
966
963
964
959
961
964
964
963
960
957
957
958
962
960
955
955
959
961
961
961
959
957
957
962
964
966
964
960
965
967
968
967
964
961
963
965
968
966
964
962
963
965
966
964
963
962
964
967
966
965
966
965
968
971
969
972
970
968
968
970
971
970
966
964
968
967
969
968
964
960
962
964
965
966
963
961
966
972
970
973
970
968
968
974
974
972
968
967
972
975
978
974
978
977
986
993
1001
1015
1036
1062
1091
1125
1158
1192
1218
1245
1274
1300
1316
1312
1285
1250
1202
1152
1106
1065
1030
1002
984
983
984
985
977
975
969
969
967
960
957
954
956
958
958
956
954
952
953
954
956
955
949
948
950
952
953
949
949
949
952
951
951
952
950
946
947
951
954
954
947
948
953
956
960
959
957
956
956
962
963
963
961
962
963
965
970
970
967
968
969
974
978
979
978
979
979
986
988
989
985
984
988
990
989
988
983
981
982
983
984
982
977
975
973
977
974
973
966
964
964
967
967
964
960
958
956
958
960
957
951
952
952
954
958
954
951
951
950
953
953
954
950
950
950
953
954
954
955
955
957
961
964
964
960
961
963
960
964
964
960
957
956
960
958
958
958
955
955
960
962
961
956
956
955
960
959
961
958
958
959
960
964
965
962
962
962
966
968
965
963
960
958
963
965
959
958
957
959
961
962
962
960
959
957
962
966
964
962
962
964
967
970
970
967
966
966
970
970
970
967
965
966
970
970
967
962
958
957
964
966
963
959
957
958
960
962
964
959
960
959
962
961
962
957
954
957
959
962
962
954
956
956
959
959
957
957
953
954
960
960
960
958
954
956
959
959
961
959
957
960
964
964
961
960
957
960
960
965
966
966
964
967
970
970
968
966
966
969
973
971
974
971
970
970
973
977
974
971
968
967
972
972
969
968
966
964
967
967
966
964
962
962
968
968
964
964
963
964
966
968
974
969
972
973
979
984
990
991
993
1007
1027
1051
1074
1100
1126
1160
1191
1219
1248
1270
1286
1293
1287
1261
1218
1168
1117
1077
1050
1024
1004
991
983
985
988
986
979
971
964
961
958
963
954
953
951
953
955
953
953
947
943
945
947
950
948
945
943
946
947
952
952
952
951
951
953
956
955
956
953
955
957
961
961
960
957
959
964
966
965
963
964
966
967
971
971
969
969
972
976
976
978
977
978
980
981
985
982
980
982
983
986
988
988
985
986
986
991
993
993
987
983
983
985
989
986
982
979
977
977
975
972
970
966
967
970
971
968
962
960
962
963
965
962
961
960
961
966
964
959
956
956
957
961
963
962
962
960
962
963
965
961
959
958
957
961
963
959
955
955
958
960
962
959
958
956
960
960
964
963
959
961
965
964
968
967
961
961
965
964
966
965
963
963
967
971
972
971
968
968
970
968
973
970
965
965
965
963
963
960
960
955
959
960
964
963
959
959
960
963
967
968
964
962
961
965
967
963
962
959
962
966
966
967
964
962
967
966
970
971
967
966
967
973
973
971
969
968
968
971
973
973
970
970
974
978
981
981
974
974
973
975
979
975
973
971
969
975
976
971
968
970
970
971
976
973
968
965
966
968
970
968
972
969
970
974
976
975
974
969
971
977
977
979
977
979
984
993
1001
1010
1019
1039
1066
1096
1125
1153
1180
1208
1234
1262
1285
1295
1286
1262
1227
1182
1132
1085
1050
1026
1005
995
992
988
985
982
980
980
979
974
968
964
963
965
964
961
959
961
966
969
967
966
963
957
960
961
963
964
960
955
958
961
961
961
958
957
955
961
962
957
958
958
960
960
965
964
962
958
963
966
971
971
967
965
971
976
979
978
979
980
983
989
991
991
992
991
994
995
999
999
997
997
997
1000
1003
999
999
995
996
1000
997
1000
993
993
997
997
1000
998
991
984
989
988
988
983
979
977
977
979
980
974
971
967
968
972
972
971
966
964
965
967
969
969
967
963
965
969
973
970
968
964
965
971
973
973
970
966
965
967
971
970
970
964
965
969
967
968
964
964
960
962
967
966
965
959
963
965
972
973
969
967
969
975
974
972
968
967
968
973
974
971
967
966
967
972
973
970
969
966
970
975
974
975
974
976
973
978
980
977
975
976
977
980
983
981
978
981
985
995
998
999
1002
1012
1033
1060
1088
1116
1144
1175
1209
1246
1278
1304
1316
1302
1264
1217
1162
1102
1054
1012
988
972
968
974
975
975
974
973
973
968
964
957
958
959
961
955
955
951
949
953
958
957
955
952
953
959
959
961
958
958
960
963
967
965
962
960
963
967
967
961
962
962
963
967
964
966
966
969
973
975
979
978
975
976
980
979
979
979
978
980
983
988
992
991
989
987
990
992
994
989
991
990
993
995
996
995
989
989
989
989
987
984
981
977
978
979
981
976
971
969
969
968
970
968
964
962
962
964
963
960
960
957
959
960
963
961
958
958
958
956
958
957
957
957
957
960
966
964
962
961
962
963
966
964
961
960
962
966
968
966
965
963
965
967
968
969
967
965
966
969
969
971
967
964
968
970
970
968
966
963
965
966
966
963
959
960
961
961
964
964
958
959
961
964
967
963
961
961
962
962
963
963
958
956
954
954
961
962
958
958
963
969
969
968
971
969
971
972
973
971
972
969
972
976
975
977
974
974
974
978
985
990
994
994
1002
1019
1039
1068
1092
1122
1159
1197
1230
1260
1287
1311
1322
1313
1282
1231
1168
1106
1056
1022
997
980
970
969
971
971
969
963
955
954
951
952
951
949
943
942
946
950
955
954
952
949
950
954
958
958
957
953
955
955
959
961
956
954
955
956
957
954
953
953
955
958
958
955
955
952
952
956
956
959
957
957
961
965
967
967
968
963
965
971
973
967
969
970
970
971
973
973
974
975
977
979
982
980
979
977
982
987
988
987
983
981
982
983
982
977
972
970
971
973
973
971
966
966
964
964
965
964
958
958
960
959
961
957
957
955
960
961
962
963
959
959
961
962
960
960
958
956
956
959
962
959
956
956
959
959
963
962
961
959
958
962
963
965
963
964
967
972
974
975
974
972
972
974
975
974
973
970
971
971
974
973
967
967
966
968
969
968
966
963
964
969
971
970
968
964
964
966
969
966
962
960
963
963
963
962
958
956
955
959
960
958
956
954
956
960
964
961
961
967
973
975
975
972
968
969
973
973
976
973
970
970
973
975
975
973
969
967
966
969
968
967
966
963
965
967
969
970
965
964
966
965
968
965
964
962
963
966
966
965
965
961
959
963
964
965
962
962
963
965
970
968
962
961
963
966
971
973
970
972
972
979
986
985
983
982
983
986
988
986
983
982
988
993
1001
1006
1007
1021
1046
1072
1105
1133
1160
1190
1223
1259
1286
1308
1308
1286
1251
1203
1145
1094
1055
1022
1003
995
988
993
989
982
982
978
974
970
964
960
959
960
962
961
962
959
962
966
967
969
966
965
966
968
968
965
965
963
964
966
968
966
964
964
966
969
969
971
965
967
969
970
972
972
971
968
969
971
974
973
971
969
972
977
980
981
982
978
981
986
989
992
992
990
996
1000
1003
1004
999
999
999
1007
1006
1002
998
994
994
993
993
993
989
985
988
990
992
987
985
983
979
981
984
981
979
974
974
978
975
970
968
967
967
971
971
967
966
963
964
967
967
964
964
964
965
969
971
968
964
965
968
970
970
972
968
967
967
970
972
971
970
967
969
970
970
968
967
970
971
971
972
970
969
966
967
969
969
969
966
965
966
969
971
970
967
966
968
976
982
981
980
979
976
980
980
978
972
969
971
975
978
978
975
974
973
977
982
981
978
977
979
982
988
985
983
976
980
983
985
982
978
976
978
979
980
978
978
976
976
979
978
977
974
976
978
981
986
986
984
985
992
997
1002
1008
1012
1029
1051
1079
1108
1140
1173
1204
1237
1269
1297
1306
1297
1271
1232
1183
1130
1084
1051
1024
1010
1000
998
997
995
989
986
983
980
973
970
968
963
970
967
963
958
959
960
959
960
957
954
953
953
958
960
957
956
955
957
960
961
959
956
957
959
959
959
958
957
958
961
965
965
963
963
965
970
975
980
981
983
987
991
995
996
998
998
997
1002
1007
1011
1010
1007
1007
1010
1010
1013
1011
1010
1010
1010
1010
1007
1003
997
996
998
995
995
989
985
986
984
988
981
979
973
971
970
971
971
967
966
965
967
968
968
967
962
961
961
963
966
964
962
963
966
968
972
971
969
966
968
971
971
975
971
971
974
974
976
976
974
973
973
975
977
974
969
970
971
972
975
973
973
971
973
977
977
972
970
968
971
973
974
972
970
968
971
973
972
973
972
970
969
973
974
971
971
969
969
971
971
969
969
968
972
974
977
981
979
981
981
985
986
986
982
980
982
987
988
984
983
981
978
982
983
979
976
974
977
981
982
984
980
980
980
979
983
982
979
977
980
982
982
982
978
977
978
981
983
984
983
981
982
987
987
985
986
987
992
999
1006
1013
1018
1035
1060
1084
1118
1151
1185
1216
1250
1281
1313
1336
1344
1327
1300
1260
1205
1146
1096
1056
1025
1008
1000
997
996
995
994
987
984
978
973
966
966
967
967
967
963
962
959
961
963
960
957
957
960
962
965
961
960
957
956
956
960
959
955
955
957
960
961
962
960
962
964
964
969
964
966
966
965
972
973
973
972
971
974
978
978
978
978
981
984
991
995
996
995
996
1002
1005
1006
1005
1003
1005
1007
1012
1014
1014
1012
1012
1010
1013
1012
1012
1008
1003
1004
1006
1005
1001
995
992
993
996
996
993
990
984
984
988
985
984
980
975
976
978
977
975
973
971
970
973
974
971
970
968
971
971
969
969
966
967
969
971
972
970
969
972
973
978
978
978
974
970
974
980
980
978
977
977
978
980
982
980
978
977
982
984
986
987
983
983
985
990
991
986
984
984
987
992
992
994
990
989
992
994
994
995
990
990
989
989
990
988
984
981
985
987
988
985
983
981
983
988
989
990
989
986
987
988
989
990
986
986
986
989
987
990
991
985
991
995
996
1001
1004
1006
1011
1021
1036
1056
1078
1103
1137
1172
1206
1237
1266
1292
1318
1332
1330
1308
1277
1233
1182
1136
1097
1061
1031
1010
1000
1002
1003
1004
999
995
992
992
988
981
977
973
973
971
967
965
958
956
961
962
964
963
958
955
960
963
963
961
957
957
960
965
964
964
960
958
961
966
967
963
962
963
965
969
971
969
967
967
969
973
976
974
974
975
977
983
988
986
986
984
986
992
997
995
994
995
998
1001
1003
1002
1003
1002
1007
1009
1010
1006
1003
1002
1005
1007
1005
1004
1002
995
996
997
995
990
985
983
984
983
982
979
974
971
973
974
976
973
970
970
971
972
974
972
969
967
967
970
972
969
969
967
968
972
974
975
969
970
970
974
974
971
972
970
972
975
973
975
972
970
968
971
973
973
969
969
974
973
977
977
973
970
969
971
974
976
973
972
973
974
973
971
970
966
970
971
972
972
970
970
971
973
974
971
967
970
970
974
974
975
972
972
975
977
978
976
976
975
977
979
980
980
976
977
978
979
982
980
980
979
984
986
984
985
983
986
990
993
991
990
986
987
993
994
993
996
995
998
1007
1015
1026
1039
1058
1080
1105
1135
1168
1198
1227
1254
1279
1307
1323
1321
1302
1274
1237
1189
1137
1096
1059
1033
1016
1008
1006
1002
998
995
993
992
990
986
980
979
976
976
974
975
968
965
966
967
966
964
962
960
963
961
965
963
962
958
960
963
964
963
958
960
963
967
971
970
967
966
967
968
970
971
967
965
968
970
972
970
971
972
976
980
983
982
979
981
982
989
991
991
991
989
993
995
997
999
999
1000
1002
1009
1009
1007
1005
1003
1008
1011
1013
1012
1009
1004
1003
1002
1002
1000
994
989
993
991
992
991
986
984
985
985
985
985
982
980
982
983
982
979
976
976
977
979
979
978
975
974
977
978
976
974
974
972
974
978
977
977
973
971
973
977
978
976
974
973
973
979
979
978
972
973
974
978
978
979
977
976
977
978
979
975
974
971
975
979
981
976
970
969
968
973
975
975
973
975
974
980
979
978
974
973
975
976
978
976
972
970
971
974
976
974
969
966
968
972
973
967
967
968
967
968
970
968
967
963
967
970
971
970
968
967
970
972
978
975
973
974
976
975
979
978
978
981
987
994
1001
1004
1014
1032
1055
1083
1114
1146
1176
1210
1243
1274
1301
1314
1307
1288
1255
1215
1161
1113
1073
1038
1018
1006
1000
1001
997
995
991
991
989
983
977
976
976
977
975
972
968
966
966
969
970
968
964
962
963
968
969
966
960
962
965
967
967
966
963
962
964
966
969
965
963
963
967
973
974
973
967
970
971
974
975
975
971
976
980
985
987
988
985
987
988
992
995
994
987
991
991
995
996
997
993
990
995
996
998
999
992
990
989
992
993
988
983
983
981
982
979
979
976
976
975
977
978
975
971
968
970
971
973
968
968
965
967
971
971
971
970
969
972
972
975
974
969
969
971
975
974
976
974
972
974
979
978
973
972
973
973
973
974
974
968
967
968
970
969
970
963
964
963
969
969
967
964
962
962
964
967
961
962
962
964
968
967
966
960
963
963
967
967
967
966
969
968
975
975
975
973
971
976
981
983
983
983
983
983
987
988
985
981
980
982
985
985
982
977
974
980
982
983
981
975
974
974
978
976
975
971
971
971
968
971
969
966
964
967
968
967
964
962
961
962
963
962
962
960
961
960
963
964
964
962
959
961
966
965
967
963
962
964
968
968
969
969
970
973
977
980
979
974
970
976
978
985
985
981
979
981
987
988
988
984
985
989
989
992
991
987
988
987
987
990
990
985
984
986
988
990
990
989
992
999
1007
1013
1019
1024
1039
1064
1089
1119
1148
1176
1204
1234
1265
1296
1313
1312
1297
1266
1224
1171
1122
1078
1042
1016
1000
993
990
989
990
987
988
985
978
975
972
972
975
973
974
969
966
970
971
971
971
967
967
969
973
973
969
965
964
966
967
967
967
963
963
965
965
967
966
959
961
963
965
968
965
963
964
969
971
972
973
970
971
976
979
980
982
979
976
980
985
984
985
982
981
984
990
991
989
989
989
992
994
998
995
994
996
1000
1001
1003
1004
1000
998
1003
1003
1003
1001
997
994
993
996
992
989
984
981
982
981
982
980
976
974
975
975
973
975
971
970
973
976
979
977
975
972
976
977
976
976
969
969
973
975
973
971
965
966
969
973
971
973
968
969
971
978
978
974
976
973
972
974
974
972
971
972
972
975
976
972
977
975
979
980
983
982
979
979
978
979
979
977
974
974
973
976
977
973
972
968
971
974
977
971
969
970
970
974
975
973
975
971
971
973
974
974
973
976
974
977
979
980
979
979
982
987
988
982
984
982
987
990
989
988
984
984
985
987
991
987
986
981
984
989
987
986
982
980
984
985
986
987
985
978
980
982
984
981
979
979
978
981
980
980
976
977
974
979
978
979
972
973
976
980
980
979
979
975
979
984
983
982
981
980
983
982
987
988
987
988
991
992
995
994
989
990
994
997
1001
998
996
996
1000
1000
1001
1001
994
993
995
998
1000
997
990
992
991
993
996
994
991
989
988
987
989
988
986
985
984
994
994
995
997
999
1006
1013
1021
1032
1050
1075
1104
1137
1171
1204
1232
1265
1295
1320
1333
1323
1290
1249
1202
1156
1111
1077
1048
1031
1022
1025
1030
1026
1019
1015
1009
1006
1003
998
994
989
988
987
985
984
980
979
978
979
979
977
971
971
968
973
971
967
963
963
970
972
970
969
967
966
966
966
971
969
970
968
976
980
984
986
984
986
988
995
996
993
992
996
1001
1005
1008
1008
1005
1005
1010
1013
1014
1013
1008
1007
1014
1017
1020
1019
1016
1015
1016
1020
1023
1019
1014
1011
1012
1008
1009
1006
999
997
998
998
998
993
987
985
986
986
985
979
975
973
973
977
982
978
977
980
978
984
984
984
981
982
982
984
985
985
985
983
991
994
995
995
994
993
994
994
994
994
992
990
994
998
995
998
993
992
997
997
997
995
995
994
994
995
998
995
992
993
993
995
995
991
987
990
992
994
993
996
990
990
995
997
999
999
996
995
999
1003
1003
1002
1002
1003
1003
1007
1008
1008
1006
1005
1006
1007
1009
1005
1000
999
1000
1004
1002
999
996
997
997
