965
965
964
967
973
977
976
976
976
977
982
986
990
991
992
990
992
998
1000
999
997
995
997
998
1000
998
995
996
1002
1004
1006
1008
1007
1005
1006
1008
1011
1011
1008
1004
1008
1010
1013
1013
1011
1011
1016
1020
1026
1030
1038
1049
1071
1097
1123
1145
1168
1195
1230
1264
1294
1320
1336
1340
1326
1299
1259
1203
1146
1097
1059
1031
1010
998
989
987
986
983
978
974
966
963
962
960
961
961
958
957
957
960
962
956
958
958
956
960
961
960
962
962
967
972
972
970
968
967
967
970
971
970
964
963
966
970
968
965
964
967
966
968
970
965
965
966
965
970
967
966
962
960
961
965
965
965
958
957
960
963
966
965
964
963
966
968
976
980
974
977
980
985
992
989
988
984
985
986
984
981
975
970
972
975
977
973
969
967
967
969
970
968
964
964
967
968
971
973
971
970
974
977
983
986
985
984
986
990
996
999
999
1001
1004
1008
1013
1012
1010
1004
1008
1008
1012
1011
1008
1009
1009
1008
1010
1012
1009
1007
1008
1013
1018
1017
1010
1010
1011
1014
1016
1016
1015
1013
1016
1019
1019
1022
1024
1025
1032
1042
1056
1077
1096
1119
1145
1175
1206
1241
1271
1298
1327
1346
1355
1342
1312
1260
1206
1155
1112
1072
1040
1016
1003
999
997
993
985
979
977
976
973
970
963
960
963
965
970
970
965
966
965
965
965
962
962
963
963
966
969
971
966
966
967
970
968
970
964
963
963
965
967
965
963
961
961
964
964
962
960
955
956
958
960
956
951
947
949
949
950
948
947
943
943
946
947
947
944
943
943
947
949
949
948
948
954
956
960
962
958
960
960
964
966
964
960
958
961
964
965
963
958
955
958
957
959
960
959
957
963
966
969
971
972
972
976
982
983
984
979
981
984
990
992
994
993
993
998
1001
1003
1001
999
996
1000
1003
1003
1003
1004
1003
1002
1004
1006
1004
1003
1002
1002
1004
1008
1007
1003
998
999
1001
1004
1004
1000
997
1000
1002
1002
1000
997
997
998
1001
1003
1002
1000
998
997
1000
999
999
998
1000
1002
1008
1015
1027
1046
1070
1099
1134
1173
1214
1254
1286
1318
1345
1359
1353
1325
1276
1219
1162
1112
1070
1036
1012
999
1000
1000
998
994
990
989
989
989
984
980
977
975
977
975
973
969
967
967
968
970
968
964
963
963
962
968
964
961
957
959
961
963
960
956
954
955
958
957
957
952
951
950
952
957
953
948
948
943
947
947
945
940
937
934
935
937
932
929
921
920
923
925
923
916
919
924
929
934
937
936
936
938
948
955
955
956
959
960
971
974
972
972
971
975
978
981
984
980
980
986
990
994
994
989
990
990
996
997
995
994
992
995
998
1002
999
994
996
999
1000
1003
1003
1001
999
999
1004
1005
1001
1000
996
1003
1005
1006
1000
1000
997
1002
1005
1007
1007
1003
1001
1003
1005
1004
1002
1000
1000
1002
1003
1005
1006
1002
1005
1011
1023
1038
1057
1079
1099
1126
1156
1190
1222
1251
1281
1306
1321
1318
1300
1264
1213
1160
1119
1090
1057
1030
1011
1006
1004
1007
1000
996
988
989
986
987
986
981
977
975
979
977
974
970
968
966
970
970
971
969
963
965
963
966
965
963
959
961
962
963
963
960
959
956
958
960
958
952
950
952
956
956
954
950
949
950
952
952
949
945
942
940
944
943
938
933
930
932
933
936
936
935
937
937
942
945
944
949
952
952
956
963
964
962
963
967
972
976
974
974
973
975
979
982
985
985
984
986
987
992
991
987
987
987
991
991
993
993
989
989
992
993
994
991
989
992
993
990
992
992
990
990
992
995
994
992
992
992
995
994
996
993
989
992
995
996
997
992
992
992
995
999
998
998
995
995
1002
1011
1019
1031
1053
1082
1112
1142
1174
1206
1238
1274
1301
1319
1320
1300
1260
1208
1157
1110
1067
1037
1012
999
999
1001
1001
994
990
989
989
990
985
979
976
975
979
979
977
975
971
970
972
974
972
968
967
967
971
969
971
967
964
964
966
968
967
960
961
962
962
963
961
961
961
959
960
960
958
955
952
954
954
956
954
952
948
947
949
948
945
939
940
938
942
945
943
947
947
949
956
959
960
960
963
967
972
975
979
976
978
980
984
985
984
986
986
990
994
998
997
997
995
1000
1002
1003
1002
1000
996
995
999
1001
1004
1003
1000
1001
1000
1005
1004
1001
1000
1003
1004
1007
1008
1006
1004
1004
1007
1008
1006
1004
1001
1004
1005
1010
1008
1005
1005
1004
1007
1010
1008
1006
1002
1003
1009
1012
1015
1019
1023
1032
1055
1081
1104
1122
1146
1182
1219
1253
1281
1303
1316
1313
1292
1253
1194
1132
1089
1054
1030
1013
1004
1000
998
994
992
989
985
981
981
982
983
984
981
975
972
972
976
974
973
970
967
969
972
972
973
970
968
970
969
971
968
967
965
968
968
967
967
962
962
962
960
966
961
957
956
958
962
962
959
958
956
955
955
955
952
950
947
949
949
951
948
945
945
942
945
949
946
949
948
953
958
960
958
956
959
960
965
969
967
970
969
975
977
980
978
979
980
978
982
984
983
985
989
990
997
999
1001
1000
999
998
998
998
1000
997
998
1000
1002
1007
1008
1005
1002
1003
1005
1008
1008
1004
1005
1005
1008
1012
1008
1004
1005
1006
1006
1006
1006
1005
1003
1004
1010
1012
1010
1006
1005
1006
1010
1011
1011
1009
1009
1014
1019
1024
1028
1040
1065
1096
1122
1153
1187
1225
1259
1292
1325
1346
1350
1337
1304
1256
1196
1139
1088
1049
1017
1002
1000
1002
1003
1000
995
989
987
989
988
986
987
987
986
987
986
981
980
981
981
983
981
977
978
978
980
977
977
974
972
973
975
975
976
971
967
970
972
973
971
966
963
962
963
965
965
961
957
957
958
960
958
955
953
950
951
951
948
947
945
942
944
949
950
944
950
953
957
963
961
958
960
965
974
979
980
978
978
980
984
988
988
987
989
989
991
997
996
998
996
998
1005
1008
1007
1005
1004
1006
1008
1011
1009
1008
1006
1009
1011
1012
1010
1009
1006
1010
1009
1013
1016
1014
1013
1013
1014
1017
1017
1016
1014
1016
1018
1022
1022
1023
1025
1031
1043
1060
1079
1105
1137
1168
1197
1233
1268
1300
1328
1349
1366
1367
1351
1313
1261
1191
1138
1100
1066
1037
1012
998
995
992
989
981
976
974
971
969
971
966
964
963
966
967
969
967
962
966
968
974
974
971
968
971
971
975
973
969
966
966
970
969
970
966
964
964
965
969
962
961
961
959
963
966
962
956
955
958
960
961
956
952
951
953
954
957
955
953
951
953
959
961
960
959
965
965
972
975
976
974
972
972
969
972
971
966
962
966
967
969
967
961
960
959
961
962
958
956
958
961
968
969
969
968
968
973
976
979
981
978
978
984
990
991
993
991
991
993
998
1002
1001
996
995
999
1000
1001
996
999
998
999
1002
1003
1001
999
999
998
1003
1003
1002
1000
998
1001
1004
1005
1004
1001
1005
1007
1015
1019
1019
1025
1033
1052
1077
1102
1126
1152
1184
1218
1253
1284
1309
1328
1331
1324
1300
1260
1205
1153
1113
1078
1051
1026
1004
993
983
982
979
973
967
959
955
954
954
954
954
954
953
953
957
956
954
950
949
949
955
959
957
956
954
955
957
959
957
951
952
950
955
955
952
949
949
952
949
951
951
945
947
946
949
950
946
941
940
940
943
943
938
934
933
934
937
939
936
934
930
933
936
939
939
938
936
941
949
951
952
953
951
955
956
958
956
949
951
948
953
953
952
946
947
949
950
950
952
950
949
950
955
958
958
956
958
958
966
969
972
966
969
971
981
984
985
984
982
987
984
990
992
991
988
989
994
995
994
991
989
992
995
997
995
993
989
991
994
996
994
994
989
992
994
996
993
990
989
990
994
996
995
992
992
992
992
996
993
990
987
992
994
1002
1002
1001
1001
1008
1024
1043
1060
1079
1101
1127
1162
1200
1234
1263
1290
1310
1317
1310
1277
1233
1176
1127
1087
1059
1033
1010
999
993
994
990
982
974
970
971
975
976
972
971
968
967
967
970
968
962
959
959
965
965
963
959
957
960
961
964
961
958
956
957
957
959
957
952
951
950
951
953
954
952
949
950
952
952
951
948
944
945
948
947
945
942
937
940
940
941
940
935
934
936
936
935
933
929
930
931
939
942
940
941
941
944
944
948
951
954
954
956
961
963
963
962
962
965
967
971
973
971
971
975
980
981
982
979
981
984
987
988
990
986
986
988
991
993
991
985
984
987
987
989
989
987
987
987
991
995
994
993
991
992
993
996
996
989
990
992
995
995
995
992
992
994
997
1000
999
997
1000
1003
1010
1016
1022
1031
1047
1069
1094
1116
1138
1160
1188
1220
1246
1272
1288
1291
1282
1266
1234
1192
1139
1096
1064
1039
1019
1006
993
990
987
985
979
978
975
967
963
963
966
968
967
966
964
963
966
969
967
961
959
960
962
964
965
959
956
956
956
959
957
951
951
954
954
958
955
951
951
953
952
955
953
953
950
949
955
952
951
946
944
944
949
949
947
944
943
946
946
949
945
945
943
945
947
950
951
950
948
950
954
954
953
956
955
957
958
962
962
957
955
955
957
956
957
958
957
957
962
963
965
962
965
969
969
974
975
975
975
980
982
984
982
981
984
987
989
990
990
991
987
991
993
992
991
987
990
991
996
999
994
992
993
995
997
1000
998
995
993
997
998
1001
998
995
993
996
999
1000
999
995
993
998
1001
1002
1004
1005
1005
1011
1017
1026
1031
1041
1060
1081
1104
1129
1153
1178
1211
1238
1267
1293
1310
1311
1299
1272
1239
1185
1132
1090
1053
1026
1008
999
992
987
986
986
984
982
977
972
968
966
966
968
969
967
967
965
967
969
968
964
960
963
965
965
963
960
957
960
960
960
958
955
954
952
954
958
957
953
951
949
951
953
948
947
945
946
947
947
945
943
941
942
945
943
942
939
936
937
938
939
937
935
933
932
936
935
935
929
931
932
937
936
939
937
936
941
947
951
950
949
948
952
955
957
956
955
955
957
963
965
963
963
962
965
971
975
972
971
970
974
978
983
982
979
982
984
990
991
991
989
987
987
989
992
991
986
988
991
995
997
999
995
994
996
998
1001
997
999
998
1000
1001
1003
1005
999
999
1000
1004
1005
1002
1001
1001
1003
1006
1011
1011
1008
1013
1018
1027
1034
1043
1056
1069
1095
1121
1141
1168
1196
1224
1253
1283
1309
1325
1330
1318
1294
1259
1211
1154
1105
1067
1035
1015
1001
996
991
989
984
985
981
976
972
967
968
969
968
965
960
961
962
966
968
969
967
966
965
968
970
969
965
961
963
963
964
963
959
960
962
965
966
963
959
956
957
961
960
958
955
954
955
953
958
957
952
950
951
950
953
949
946
945
944
945
948
946
942
941
941
944
946
945
944
944
947
949
955
956
953
955
954
959
962
962
958
956
956
961
961
955
956
954
954
954
956
955
954
955
956
958
961
963
961
960
963
968
970
970
972
971
973
978
984
984
984
984
988
992
992
993
989
991
994
995
998
996
996
996
995
1000
1002
999
994
994
997
998
1001
1002
999
1000
1001
1006
1006
1006
1002
999
1001
1006
1007
1007
1005
1003
1005
1010
1014
1016
1015
1017
1023
1033
1049
1063
1085
1109
1135
1165
1199
1229
1253
1279
1305
1326
1333
1324
1302
1266
1218
1172
1127
1088
1055
1023
1004
995
991
987
982
974
971
970
968
967
962
959
958
959
959
958
953
950
952
956
960
955
959
958
960
962
962
960
954
953
952
956
954
953
951
949
951
954
954
954
951
946
948
950
952
948
945
944
944
944
946
942
940
939
937
940
940
936
932
932
934
934
933
934
931
934
933
936
939
938
939
937
943
946
948
950
948
949
950
954
954
951
950
949
952
952
954
953
950
949
950
953
954
957
955
953
952
960
962
958
959
960
963
969
973
970
969
968
970
978
981
980
980
979
977
984
987
986
985
982
984
986
989
991
986
987
987
991
992
994
989
988
989
995
995
996
991
992
993
996
994
996
995
996
1000
1008
1013
1019
1023
1039
1054
1080
1101
1118
1143
1167
1204
1237
1266
1287
1299
1301
1292
1272
1238
1193
1144
1107
1080
1054
1032
1011
995
987
984
975
973
964
958
953
954
952
953
951
947
944
948
948
948
951
950
949
949
954
956
956
955
952
953
956
961
961
957
953
952
952
959
957
953
950
951
953
951
953
952
948
951
952
954
953
948
947
948
950
950
949
948
943
947
950
951
948
949
949
949
953
954
956
956
958
961
964
970
969
968
968
969
973
971
970
966
964
963
964
962
958
955
952
950
952
955
954
951
949
949
953
956
954
950
950
951
958
961
962
961
959
965
967
974
973
971
973
977
983
984
987
984
981
982
986
989
986
985
984
985
989
992
988
988
984
989
992
993
990
986
985
986
989
991
988
988
983
987
991
992
990
988
984
988
990
993
988
987
987
990
996
1000
1001
1002
1004
1015
1035
1059
1082
1104
1134
1170
1205
1237
1263
1287
1301
1300
1287
1258
1212
1154
1102
1066
1038
1017
999
991
984
986
983
978
974
969
965
966
966
966
966
964
962
964
964
965
964
960
959
960
962
960
958
957
956
958
960
959
957
953
952
952
957
954
952
946
946
948
951
949
950
945
944
944
946
946
944
937
937
938
939
938
934
930
929
932
933
933
931
928
924
927
930
933
931
931
931
935
936
942
943
943
945
946
951
954
956
958
958
959
963
965
965
966
965
968
970
972
972
969
972
976
981
984
982
981
977
984
985
989
987
987
985
987
990
994
993
988
987
992
993
993
995
993
992
991
994
998
992
988
989
991
996
998
996
991
992
993
996
997
997
993
991
992
994
999
995
991
992
993
997
999
998
1001
1001
1009
1015
1029
1047
1068
1091
1116
1143
1173
1209
1238
1264
1289
1300
1296
1270
1228
1172
1120
1079
1048
1020
1002
992
989
991
992
987
979
976
980
979
979
977
971
966
966
970
969
967
961
961
960
964
965
966
963
962
963
963
964
963
958
958
957
960
963
961
957
956
958
958
958
957
953
953
953
958
961
957
952
948
951
953
954
952
949
945
948
950
952
952
951
950
951
954
955
959
957
960
965
969
970
971
969
966
968
969
973
970
968
969
971
973
975
976
975
972
974
979
980
981
980
981
987
990
994
993
991
992
993
995
999
995
994
994
994
996
1001
998
999
997
998
1000
999
996
992
992
996
997
998
998
995
992
993
995
998
996
995
989
992
993
991
992
989
983
987
987
989
984
979
976
975
978
980
974
974
970
971
973
973
973
970
968
975
976
979
977
976
978
982
986
986
986
982
984
987
990
993
995
994
996
995
996
998
995
990
993
995
996
994
994
991
994
993
994
998
995
993
994
995
998
997
998
998
993
997
1000
1002
1000
996
995
998
1002
1003
1005
999
1001
1006
1016
1020
1025
1032
1052
1078
1110
1141
1174
1211
1246
1284
1317
1349
1363
1355
1330
1285
1228
1163
1104
1061
1030
1009
1001
1000
999
996
988
989
987
986
980
976
974
976
977
980
978
977
974
976
979
979
980
976
975
974
979
981
977
973
971
975
977
976
975
971
969
969
976
975
974
971
969
972
974
972
970
968
964
967
966
968
969
966
961
963
963
964
965
961
959
959
960
960
957
953
952
954
954
956
955
954
954
959
963
963
962
963
964
967
970
974
974
974
974
976
980
982
983
985
985
984
987
987
988
986
987
992
997
999
1001
998
995
998
999
1001
1000
998
997
998
1002
1003
998
999
997
999
1002
1001
1005
998
999
1000
1005
1006
1003
1000
997
999
1003
1005
999
998
994
996
997
1002
1000
993
992
992
997
995
992
990
986
985
988
989
983
978
978
977
982
983
981
980
980
983
992
997
1006
1018
1040
1073
1106
1143
1176
1214
1253
1288
1318
1337
1339
1322
1287
1239
1184
1137
1095
1059
1035
1024
1022
1019
1016
1006
1001
998
995
990
989
981
981
980
982
981
975
973
971
973
973
974
972
968
966
966
970
972
968
964
964
963
966
969
967
964
962
963
966
967
962
956
956
956
958
955
954
949
945
947
948
948
946
941
939
939
940
942
940
943
942
945
949
955
960
958
962
965
970
974
972
974
976
982
985
991
988
989
985
987
988
991
986
982
981
985
988
989
988
982
979
983
984
982
984
980
977
978
982
981
981
977
978
981
979
980
978
978
979
980
982
981
980
976
976
974
977
977
974
972
970
969
966
967
963
962
961
960
961
959
957
956
956
954
959
960
961
960
960
962
966
970
970
969
970
973
975
976
975
978
979
983
987
992
992
990
986
989
992
994
993
992
990
989
995
995
995
989
988
987
994
996
996
993
989
991
994
994
995
989
988
988
991
992
989
991
989
988
995
995
994
992
987
988
992
994
990
990
990
993
995
999
1001
1002
1010
1022
1040
1066
1091
1115
1142
1176
1211
1245
1267
1292
1310
1317
1312
1296
1259
1211
1157
1116
1087
1060
1037
1017
1010
1010
1010
1005
1003
996
993
992
992
990
986
981
976
976
978
978
975
970
970
968
973
974
973
969
968
968
969
971
969
964
964
964
967
967
965
963
958
961
964
965
961
958
955
961
965
968
963
958
955
958
960
960
961
956
955
954
957
958
955
949
947
952
956
955
951
950
949
951
957
960
964
963
964
970
973
974
977
975
980
980
984
986
986
980
983
989
992
996
995
993
995
995
998
999
995
992
988
992
993
997
996
990
987
990
992
995
993
990
988
988
994
993
993
989
988
988
994
993
994
990
988
991
992
993
991
987
985
989
993
993
990
985
983
984
987
988
980
977
973
973
975
975
975
969
969
967
970
969
969
964
962
969
970
971
969
970
969
973
974
977
979
976
977
978
982
