995
989
990
992
985
981
979
973
968
964
959
958
959
958
955
953
953
952
954
955
952
949
949
951
951
949
949
946
944
948
951
950
948
947
948
948
951
951
950
948
948
946
953
950
947
946
945
950
950
952
950
948
947
951
952
953
951
949
947
954
956
954
954
954
952
956
959
959
957
956
957
961
966
968
967
969
971
974
980
982
979
980
983
989
993
992
990
988
985
984
987
987
983
979
977
981
986
985
981
978
979
979
983
980
977
973
971
975
977
976
974
971
969
972
974
974
968
968
966
967
971
972
970
968
969
971
972
973
967
965
967
968
971
968
965
965
963
963
968
964
960
958
963
963
966
964
955
953
952
952
957
953
949
947
949
949
950
950
946
945
949
951
955
957
956
957
962
968
971
972
973
978
987
1002
1026
1054
1081
1113
1147
1189
1233
1269
1295
1313
1324
1321
1304
1262
1204
1143
1092
1055
1031
1010
995
988
984
986
984
979
973
967
963
960
958
957
952
952
951
952
955
950
947
947
945
946
950
951
947
944
943
942
947
946
943
940
940
943
943
943
937
938
937
939
943
941
935
935
932
936
942
936
937
934
932
934
939
941
940
941
942
945
952
952
951
952
951
957
964
967
969
968
968
973
980
983
987
985
989
995
998
996
993
991
989
990
991
989
987
981
976
980
983
981
976
970
973
972
976
974
970
968
966
968
969
967
965
961
964
967
970
967
963
964
962
963
963
962
959
958
960
964
966
963
962
960
960
963
963
962
958
956
955
954
958
955
947
946
944
946
948
949
946
943
942
943
947
945
944
946
944
947
950
951
951
948
949
952
957
955
958
956
956
961
963
964
964
967
966
973
975
975
971
970
970
972
975
973
973
971
971
975
975
975
974
974
975
977
982
983
979
977
977
978
987
987
983
981
983
986
990
985
991
994
1002
1009
1027
1046
1066
1090
1119
1152
1191
1229
1260
1291
1321
1346
1362
1358
1331
1290
1238
1182
1134
1086
1045
1013
986
982
980
979
977
971
964
963
957
956
952
947
944
945
949
950
949
948
947
950
953
952
952
954
953
952
957
958
956
956
958
959
965
967
968
966
966
966
970
971
969
965
968
969
973
972
973
972
972
973
975
976
974
973
975
977
981
981
979
979
978
984
985
982
981
980
983
984
987
988
986
984
985
989
992
993
992
988
992
996
1001
998
994
992
993
993
996
993
988
981
981
980
980
976
975
965
961
963
963
962
955
952
952
954
956
957
954
952
954
956
960
959
959
961
965
968
967
968
965
959
962
967
972
977
975
975
977
982
985
984
982
979
980
981
988
989
984
985
981
985
990
990
985
982
983
988
991
993
988
985
987
992
990
991
989
986
987
991
994
994
986
981
984
986
986
985
984
981
982
984
988
986
985
981
981
983
985
986
982
977
979
980
983
986
987
986
989
993
1006
1019
1039
1066
1103
1140
1183
1229
1266
1303
1335
1360
1372
1363
1331
1284
1221
1162
1111
1065
1023
992
985
986
990
993
987
981
981
980
984
981
978
972
968
972
975
973
970
965
965
966
971
969
967
965
965
965
970
969
967
965
966
966
968
967
969
965
966
969
971
969
967
965
965
965
969
970
965
965
963
968
972
972
969
968
966
968
972
967
967
965
964
963
966
965
965
961
958
962
962
961
960
955
957
959
963
958
962
959
961
963
965
964
960
958
956
961
962
960
958
958
959
960
963
964
962
959
960
963
965
961
961
959
964
964
971
971
969
963
966
969
972
971
969
966
969
971
975
974
972
972
972
976
980
979
978
972
974
978
982
980
977
976
977
977
981
981
979
975
977
980
983
980
977
978
977
979
983
984
980
979
982
987
994
996
1001
1009
1028
1053
1081
1103
1129
1161
1193
1234
1262
1290
1312
1325
1324
1315
1287
1243
1184
1128
1079
1044
1014
990
976
969
969
966
964
958
951
947
941
946
948
945
941
936
938
938
942
942
942
941
945
948
953
951
948
944
947
948
950
951
948
947
945
950
952
950
948
946
946
949
952
950
949
947
944
950
951
949
944
944
946
951
952
951
948
946
948
947
950
949
948
946
945
950
951
950
948
949
952
956
957
958
958
957
957
960
961
963
961
958
960
960
959
956
949
947
944
946
947
946
940
936
935
936
935
934
930
930
934
935
938
937
937
936
940
944
949
950
950
947
944
951
956
960
954
954
960
964
967
966
962
957
959
965
970
967
964
964
965
966
970
969
968
963
965
967
970
971
966
966
966
969
973
973
972
970
970
971
974
976
971
972
977
985
996
999
1014
1030
1054
1079
1109
1140
1170
1202
1234
1267
1293
1311
1312
1296
1263
1219
1165
1116
1073
1035
1007
989
981
974
966
956
951
947
944
941
935
930
930
932
934
932
931
928
932
935
937
939
934
933
934
937
941
944
943
941
941
946
946
949
945
945
946
946
950
950
948
947
945
946
951
946
944
945
947
948
953
951
950
947
950
952
954
952
951
951
952
952
956
955
954
955
958
963
964
968
966
967
967
971
974
974
971
968
969
969
970
967
964
958
957
956
954
949
944
942
942
944
945
944
941
937
937
938
940
940
938
934
934
939
942
941
943
943
947
950
952
955
953
954
957
961
966
966
964
962
963
966
966
966
965
965
965
966
969
971
968
968
970
970
974
975
973
974
973
978
980
975
979
977
981
984
992
997
1001
1010
1027
1047
1073
1096
1118
1142
1178
1215
1247
1273
1294
1306
1305
1292
1264
1216
1159
1113
1075
1047
1023
1003
986
977
972
968
963
956
949
941
939
938
937
935
929
926
927
928
933
932
926
927
930
931
936
937
934
931
935
936
940
939
940
941
943
947
951
952
951
950
952
953
956
955
953
951
951
954
958
958
958
955
955
960
959
957
953
954
955
958
963
964
964
960
964
968
969
971
972
969
972
974
977
981
980
979
981
981
984
982
978
974
971
972
972
970
967
963
963
963
962
959
955
948
948
948
948
946
941
939
939
942
943
941
939
935
936
941
945
943
941
941
941
945
948
949
948
951
950
954
957
959
957
959
961
965
966
969
966
964
966
971
973
974
972
972
968
972
976
976
972
973
974
976
979
982
978
977
979
983
986
990
992
995
998
1008
1019
1037
1056
1080
1107
1137
1172
1204
1238
1266
1296
1317
1323
1308
1274
1223
1163
1115
1075
1045
1020
1000
990
985
983
975
965
956
950
950
947
944
940
931
926
931
931
931
929
928
923
930
934
935
934
931
933
937
939
939
939
935
937
943
949
950
946
946
951
951
953
952
951
947
949
952
957
957
955
955
956
957
959
960
957
951
953
955
958
959
958
953
958
957
964
962
960
959
960
964
970
968
970
968
974
975
976
975
971
971
971
973
972
970
965
965
962
960
962
958
953
950
947
946
947
947
943
942
940
945
942
943
942
940
940
944
946
948
946
944
950
955
960
960
957
956
958
957
965
966
966
967
969
967
975
974
973
971
972
974
979
979
978
975
975
979
980
981
979
977
978
980
984
982
984
983
984
989
994
998
1002
1011
1023
1041
1068
1090
1113
1140
1172
1208
1245
1273
1299
1316
1323
1316
1296
1251
1193
1142
1099
1069
1043
1018
1000
989
984
980
973
967
959
950
945
944
945
939
934
927
924
926
928
929
930
929
930
930
935
937
935
934
935
939
941
941
941
939
939
944
950
950
951
951
947
950
958
958
955
957
956
959
960
959
958
956
954
958
959
963
963
960
959
962
964
965
963
962
964
966
968
973
970
970
971
977
980
981
984
981
980
984
986
987
984
978
978
976
980
976
971
970
966
968
970
967
965
958
953
956
957
954
952
950
950
950
952
952
949
946
946
946
951
952
951
949
949
954
963
964
961
959
960
964
969
970
969
969
972
979
982
982
979
975
978
979
986
985
984
981
980
987
988
987
985
984
986
987
991
988
986
984
986
987
989
988
986
984
986
990
993
993
990
991
992
995
1003
1005
1009
1014
1028
1049
1078
1107
1134
1164
1200
1238
1275
1309
1337
1354
1353
1332
1293
1235
1170
1110
1062
1026
1000
984
980
979
979
977
974
968
960
956
957
959
958
958
957
954
955
959
961
962
960
954
957
958
961
963
963
965
968
970
975
972
970
965
967
972
975
973
973
971
971
973
974
972
974
969
974
971
974
974
970
968
967
970
972
971
968
968
967
969
971
971
968
968
966
968
971
971
971
974
978
981
985
985
985
984
983
986
986
989
982
980
974
975
971
974
969
964
961
963
967
960
959
954
954
957
963
965
957
958
960
965
971
973
973
972
975
977
982
980
981
982
986
990
993
995
993
990
992
997
999
998
999
996
996
998
1005
1003
1000
998
999
1001
1002
1000
999
997
1000
998
1006
1004
1002
1000
1000
1005
1005
1007
1008
1008
1011
1018
1026
1036
1049
1071
1098
1132
1167
1205
1242
1277
1314
1350
1371
1373
1358
1321
1265
1201
1145
1090
1046
1011
991
991
994
989
981
978
970
969
971
969
965
959
962
963
969
970
969
962
965
967
971
969
969
969
973
976
982
982
977
972
975
977
980
976
977
972
973
976
978
977
976
973
975
977
979
977
977
975
976
973
973
975
972
969
968
968
972
971
968
967
967
972
972
972
973
972
971
977
982
980
982
982
985
987
988
987
987
979
977
975
976
976
970
967
965
966
967
965
964
959
955
960
963
964
964
960
959
965
970
969
972
971
976
978
980
981
978
976
981
986
990
992
994
994
993
996
1000
999
997
994
999
1001
1004
1004
1000
1000
998
1001
1005
1002
1002
998
996
1000
1002
1004
999
997
998
998
1003
1002
1001
1001
1001
1005
1013
1014
1012
1017
1019
1031
1050
1073
1096
1120
1151
1187
1227
1262
1294
1323
1351
1366
1359
1326
1282
1220
1158
1112
1076
1039
1010
993
991
992
991
985
976
971
972
968
968
968
962
962
963
963
967
967
963
959
959
962
966
965
965
964
966
970
975
973
969
966
968
970
973
970
969
968
968
970
971
970
966
962
962
968
967
967
969
964
966
966
971
968
965
964
965
966
967
966
961
960
962
965
968
967
966
964
968
973
978
978
977
975
977
980
983
982
979
975
975
974
973
970
965
964
962
965
967
961
959
957
955
957
962
958
958
959
957
964
971
973
972
970
975
976
978
977
976
980
982
982
987
990
987
989
986
992
992
992
992
992
993
994
997
997
995
991
993
995
1000
999
999
996
996
998
1000
1000
999
997
994
998
1001
1001
1000
1000
1004
1008
1012
1016
1019
1026
1045
1066
1089
1111
1137
1163
1203
1241
1277
1309
1332
1343
1337
1315
1271
1211
1151
1106
1074
1044
1023
1005
994
990
985
979
976
971
964
961
960
960
962
960
956
955
950
956
961
961
959
958
958
961
963
964
966
961
960
966
971
969
968
964
966
972
974
973
970
970
970
969
972
972
969
968
969
973
974
973
969
966
967
967
969
970
969
968
966
963
966
970
967
967
968
970
974
973
973
972
973
977
979
982
982
981
981
986
988
988
985
981
980
980
975
973
969
963
962
965
967
965
961
957
957
957
958
959
957
953
956
962
967
966
967
965
968
968
975
976
974
972
974
979
985
986
984
982
985
987
993
993
991
986
986
991
994
995
993
990
990
992
996
995
994
992
993
995
999
1000
999
996
994
997
1003
1006
1007
1007
1012
1021
1031
1050
1066
1090
1115
1139
1169
1200
1231
1253
1281
1307
1328
1329
1311
1282
1239
1190
1143
1108
1073
1043
1017
1007
1000
998
988
980
973
968
969
964
959
952
951
953
955
955
953
951
948
951
957
956
958
954
954
952
959
958
957
956
958
962
963
966
966
963
965
969
970
966
966
961
967
969
969
968
966
964
965
967
970
969
965
967
968
971
971
970
967
966
966
969
972
968
967
964
968
972
974
975
974
972
975
982
986
987
987
987
985
988
991
991
986
983
983
982
982
976
971
969
968
970
970
965
964
958
958
957
960
958
957
952
956
958
961
963
960
959
961
965
972
973
971
970
972
974
978
979
979
979
982
987
990
989
989
989
989
992
994
994
992
992
993
994
997
997
992
992
992
995
996
996
994
991
991
995
999
998
995
992
993
995
997
993
995
996
997
1001
1001
1005
1001
1002
1004
1009
1016
1020
1024
1035
1057
1083
1109
1134
1163
1194
1228
1259
1287
1315
1329
1334
1319
1293
1255
1202
1146
1100
1058
1031
1010
995
989
986
985
986
985
982
976
971
967
968
971
973
971
968
968
968
969
968
967
966
968
971
976
975
975
974
975
976
978
978
975
972
973
976
979
980
974
972
972
976
975
975
973
970
972
975
979
979
974
970
970
972
973
973
971
969
968
972
972
969
968
965
966
969
971
968
967
966
968
971
973
973
974
973
976
982
984
985
982
977
979
979
981
980
974
974
972
971
976
973
967
965
963
964
969
969
966
965
970
975
977
976
971
970
973
980
983
982
980
980
980
988
994
993
994
993
994
996
1000
999
993
993
994
998
1001
1002
999
998
999
1004
1007
1006
1004
1000
1002
1006
1008
1011
1006
1005
1005
1008
1010
1010
1004
1001
1006
1005
1012
1006
1009
1008
1008
1011
1018
1020
1023
1026
1036
1050
1071
1096
1118
1138
1169
1204
1243
1271
1300
1322
1340
1352
1341
1317
1273
1221
1165
1118
1079
1044
1015
999
993
994
996
997
990
985
978
976
977
975
972
969
969
970
974
969
967
969
969
970
974
973
972
973
975
980
979
978
976
974
975
975
980
977
975
975
976
978
982
979
973
975
973
977
977
975
969
970
973
973
977
973
969
970
971
969
972
973
969
965
967
967
971
969
966
962
964
966
971
970
967
967
970
974
978
978
976
974
974
977
979
978
974
970
971
972
976
973
969
967
964
965
965
965
967
965
965
970
972
974
971
970
971
977
982
980
979
973
975
978
985
984
984
984
984
989
994
997
992
990
993
995
995
998
997
995
995
997
1000
1000
1000
994
994
998
1001
998
998
995
997
997
999
995
995
994
995
999
1001
997
997
994
996
999
1003
1003
1003
1002
1003
1007
1013
1015
1021
1030
1049
1073
1099
1124
1143
1176
1213
1250
1277
1305
1326
1343
1346
1329
1303
1254
1195
1137
1094
1058
1029
1004
989
986
989
989
985
980
972
971
970
974
972
968
966
960
961
962
965
963
961
959
959
965
970
971
969
965
965
966
969
970
968
964
963
966
970
970
964
962
960
962
965
963
961
960
960
962
963
960
958
957
953
957
959
956
953
953
950
952
954
952
947
946
947
944
946
945
945
945
945
946
947
948
949
948
950
952
956
957
954
956
959
960
964
960
958
956
954
959
960
960
959
958
960
960
965
967
965
965
967
969
972
971
969
967
970
975
977
978
978
979
981
984
988
985
985
983
983
985
989
990
989
987
988
989
993
994
991
988
988
992
995
994
991
991
992
993
997
997
996
994
993
994
999
1000
1000
1003
1005
1010
1017
1018
1032
1049
1075
1102
1129
1156
1185
1213
1244
1269
1295
1313
1315
1303
1279
1242
1191
1136
1101
1066
1038
1013
997
986
980
977
973
967
965
962
955
954
954
955
957
958
954
953
949
953
955
954
952
952
954
958
961
959
956
957
958
960
964
960
959
957
959
959
961
959
957
954
956
958
959
958
957
955
954
957
961
960
958
955
953
956
957
952
952
951
953
954
956
953
953
949
953
955
957
956
957
956
957
962
967
966
966
966
967
971
973
972
968
967
969
968
970
967
962
959
960
959
961
959
956
955
952
958
958
958
957
956
959
958
965
962
963
961
961
963
970
967
970
966
970
977
979
979
978
978
980
982
983
983
982
978
978
981
984
982
983
981
983
981
986
985
983
983
980
984
986
984
984
981
983
984
987
985
982
982
984
986
987
987
986
985
987
990
994
994
989
994
999
1013
1033
1054
1074
1099
1127
1158
1196
1228
1260
1287
1313
1325
1317
1290
1250
1199
1144
1102
1067
1036
1010
992
988
986
987
981
976
970
968
968
967
963
958
956
957
959
963
966
965
963
964
964
966
964
962
960
961
964
964
963
960
959
960
961
963
961
958
959
960
962
962
961
959
956
956
958
959
957
954
952
953
952
956
955
951
949
949
953
954
953
949
947
949
948
948
949
948
947
949
949
954
951
950
948
952
954
958
959
956
955
958
960
962
961
957
955
955
961
962
961
958
961
960
961
963
963
965
965
965
969
968
967
967
970
974
976
978
978
978
974
977
981
982
985
980
979
981
982
986
986
983
982
985
986
987
985
980
982
984
987
990
985
982
981
981
984
985
983
981
977
975
983
985
984
981
978
979
979
980
978
974
971
973
974
976
974
968
966
965
964
964
964
961
959
958
959
960
960
957
955
958
961
963
963
963
962
962
965
966
968
969
967
970
971
979
977
980
979
981
986
990
991
989
986
985
989
990
990
992
987
991
993
995
995
991
990
991
998
998
1000
998
996
1001
1008
1016
1022
1026
1033
1053
1080
1116
1144
1176
1212
1248
1281
1319
1339
1343
1319
1285
1233
1176
1122
1076
1044
1018
1006
1004
1000
990
983
977
975
974
966
957
952
952
956
951
950
946
947
947
951
955
950
953
951
951
958
959
958
954
953
954
956
958
962
961
961
961
966
968
967
964
963
963
967
970
967
965
965
967
968
972
968
967
964
967
970
971
969
967
962
966
974
976
973
972
973
974
978
983
982
982
982
983
984
985
985
985
983
984
986
