978
980
986
987
983
982
985
986
986
986
982
976
978
981
980
975
974
972
972
972
974
971
964
963
961
960
961
960
958
954
955
955
957
956
954
952
949
953
957
956
955
954
954
961
963
963
962
961
958
963
968
971
968
970
971
974
976
977
975
972
972
975
977
977
975
973
973
974
979
976
976
975
976
979
981
980
975
974
973
975
976
974
970
967
967
969
971
967
963
957
957
962
964
962
958
957
957
960
959
959
955
952
952
956
959
961
960
963
966
972
975
973
972
970
971
973
975
973
971
967
967
969
972
971
971
970
969
971
974
975
972
969
970
969
970
969
968
964
963
966
969
963
964
960
958
960
965
959
959
956
954
956
958
957
952
952
951
956
959
957
955
953
955
958
964
964
964
963
963
965
968
972
971
972
976
980
982
982
977
977
976
979
982
978
978
978
978
980
983
981
976
976
974
977
977
976
972
970
972
976
981
977
975
976
978
981
985
992
995
1003
1022
1052
1082
1110
1141
1171
1203
1237
1267
1291
1301
1290
1262
1219
1171
1119
1072
1037
1011
995
988
986
987
991
991
991
991
988
981
977
970
972
973
971
967
963
962
963
965
963
958
955
956
955
957
956
952
946
949
947
949
950
946
946
947
949
951
951
948
944
943
947
949
949
951
949
948
955
961
962
957
955
961
963
967
970
972
972
976
980
983
986
985
983
983
989
992
992
993
995
1001
1007
1011
1011
1008
1002
1002
1005
1006
1001
996
990
989
990
988
985
978
975
972
976
978
976
970
966
969
966
967
967
964
962
961
964
970
969
966
964
966
971
973
970
966
963
966
967
969
967
965
963
965
966
968
966
965
965
961
964
968
968
966
966
967
973
975
973
970
967
967
967
970
969
966
965
964
966
968
969
967
963
966
971
972
970
970
967
969
969
976
979
980
979
984
994
1000
1010
1019
1037
1066
1093
1124
1153
1185
1214
1243
1268
1288
1279
1252
1205
1147
1093
1050
1017
990
975
972
979
985
985
977
971
968
969
967
963
959
951
955
955
954
951
949
946
945
947
950
948
947
945
947
950
952
953
953
952
952
953
960
956
960
956
956
959
964
962
961
959
960
961
964
966
967
965
966
971
972
971
970
967
969
968
973
974
967
969
968
975
978
979
981
980
982
985
987
986
984
979
981
981
981
980
975
971
971
974
974
975
969
969
966
965
969
966
965
962
960
960
967
963
958
956
959
961
962
960
958
957
954
957
957
958
955
953
956
952
959
957
955
951
953
955
956
953
948
946
947
947
949
948
947
946
949
953
957
954
957
958
963
967
970
970
969
967
969
974
977
977
975
974
975
975
974
974
972
967
970
973
975
972
968
966
968
970
970
969
961
960
961
965
965
964
961
960
961
962
964
962
960
958
957
958
962
960
957
956
957
961
959
961
957
953
957
957
957
958
961
962
961
960
966
964
960
959
959
963
968
970
967
968
972
977
984
983
980
979
982
984
989
989
987
987
996
1004
1013
1023
1034
1057
1081
1110
1143
1173
1199
1226
1254
1281
1303
1308
1297
1267
1226
1176
1120
1071
1033
1004
986
977
976
975
973
971
968
968
967
961
961
956
957
960
958
959
955
951
950
954
955
955
952
950
955
954
960
958
958
954
955
958
960
961
959
959
961
961
966
966
961
963
965
967
970
971
967
965
964
966
970
965
964
963
962
967
970
971
968
968
969
973
977
980
976
975
981
979
988
987
988
983
988
992
995
992
988
985
985
988
988
988
987
983
985
986
986
980
983
977
976
976
979
975
969
969
969
969
971
971
967
963
966
965
967
968
964
959
963
962
963
961
961
957
959
963
964
961
959
958
959
963
964
962
963
962
964
965
967
964
963
961
961
966
968
969
969
969
970
973
975
973
974
973
974
975
979
977
975
974
975
976
977
975
973
970
969
971
975
971
973
969
972
974
976
978
969
966
971
973
975
973
972
970
968
972
974
973
972
968
971
972
975
977
973
973
979
982
990
996
999
1009
1027
1055
1083
1111
1140
1171
1200
1232
1261
1284
1293
1279
1263
1234
1190
1138
1091
1055
1031
1014
1005
996
992
987
984
982
980
977
972
966
965
964
963
962
956
953
954
956
956
956
952
950
949
950
953
950
946
946
949
947
950
954
947
948
949
951
954
955
954
954
957
960
963
963
961
959
958
962
966
964
962
960
960
968
971
971
968
969
972
975
979
979
978
978
978
982
986
986
986
984
985
987
991
989
986
982
982
984
984
981
972
972
971
969
971
972
967
965
966
968
970
967
966
964
962
968
968
968
964
963
964
965
966
966
963
962
963
966
969
965
963
957
957
960
963
959
954
953
956
959
962
961
956
953
953
954
956
954
953
952
953
954
956
954
952
951
954
958
957
957
952
950
951
957
958
955
959
959
961
962
964
965
965
960
962
962
966
967
963
964
964
965
968
966
961
960
958
962
965
965
964
959
962
966
968
969
967
964
963
967
971
972
970
968
965
968
972
969
967
960
961
960
963
962
963
959
957
959
961
961
956
958
958
961
962
964
962
960
961
962
964
965
965
960
965
965
967
966
966
964
964
967
971
968
965
965
965
967
971
969
967
968
969
973
975
974
971
969
972
974
978
979
981
983
990
996
1006
1013
1023
1042
1065
1091
1117
1141
1165
1193
1221
1247
1271
1285
1283
1267
1239
1205
1162
1109
1067
1037
1013
999
992
986
985
981
979
979
976
971
965
961
959
960
961
958
952
951
953
955
955
955
953
951
952
954
957
956
952
953
951
954
957
956
955
951
952
957
958
960
956
955
955
961
964
965
962
960
966
968
974
976
975
976
977
985
991
989
989
986
990
993
995
996
992
991
991
995
997
999
998
997
995
1002
1006
1005
1003
1004
1003
1006
1008
1004
1002
997
994
997
996
995
991
985
983
983
983
984
977
972
971
973
973
970
967
963
963
963
965
964
961
960
960
963
963
965
966
963
966
966
969
969
968
966
968
970
975
974
971
970
974
975
977
977
974
970
973
974
977
975
974
969
969
971
974
971
968
969
969
968
976
978
972
972
973
975
976
972
971
969
970
973
975
973
971
969
967
973
975
975
973
971
969
971
971
971
970
969
968
972
973
973
969
968
968
971
975
979
977
976
976
981
982
982
981
980
982
984
986
985
983
984
982
983
985
982
981
979
977
981
982
984
980
976
974
979
984
980
980
981
985
990
997
1000
1005
1014
1034
1060
1089
1117
1143
1173
1204
1232
1262
1286
1305
1315
1306
1279
1246
1193
1137
1089
1049
1021
1002
983
976
975
977
977
977
972
965
961
959
961
965
963
961
959
960
962
962
961
959
955
959
961
961
959
961
957
959
962
964
963
960
960
956
961
964
961
958
956
958
959
962
962
961
960
962
963
968
968
966
965
968
974
975
974
973
970
977
980
980
981
980
980
982
985
986
986
987
987
992
994
995
995
995
992
994
997
999
999
994
993
992
994
998
996
994
988
991
990
988
984
982
975
975
975
975
974
969
963
963
965
967
967
961
959
957
961
963
963
961
958
958
961
964
964
959
958
960
959
963
963
963
962
964
966
969
969
968
967
967
970
971
972
969
970
970
973
975
976
974
972
975
979
976
975
976
973
973
977
976
977
975
976
977
983
989
993
997
1002
1011
1025
1047
1070
1093
1112
1142
1177
1211
1240
1264
1285
1301
1308
1300
1270
1227
1172
1116
1067
1035
1012
995
979
976
980
984
979
972
963
960
962
962
960
956
952
952
951
954
952
948
947
947
948
951
950
945
948
946
948
949
948
945
944
942
944
944
944
941
936
940
940
943
944
942
940
943
947
952
954
954
955
962
968
974
976
975
973
978
982
984
982
981
979
981
987
986
987
984
984
986
988
993
992
988
987
984
984
985
985
978
976
975
976
973
971
968
966
966
966
964
961
958
954
955
955
956
953
950
950
949
953
954
954
956
952
953
955
955
952
950
946
950
952
955
953
951
949
953
959
961
961
955
951
953
951
957
952
949
951
952
950
956
954
953
951
951
952
956
955
954
949
949
951
954
952
953
951
955
956
955
954
953
951
949
953
956
955
949
947
950
951
952
952
950
952
953
956
959
957
952
950
953
955
954
957
956
955
956
961
964
964
963
959
961
961
963
963
957
954
957
958
963
957
959
956
958
959
960
960
956
956
959
967
976
976
978
982
995
1019
1048
1075
1099
1130
1163
1194
1226
1250
1270
1280
1279
1260
1231
1179
1126
1077
1045
1022
1001
985
975
969
971
971
970
963
955
951
948
947
947
945
943
944
948
952
955
953
951
950
951
950
949
948
948
946
947
952
954
952
949
945
947
949
951
947
944
945
944
948
949
947
948
945
948
952
954
953
951
952
954
957
957
955
952
954
957
961
964
964
964
962
966
967
971
968
967
965
966
972
975
974
970
970
970
970
973
973
973
970
972
974
973
968
966
962
959
961
962
961
958
953
955
954
953
952
948
947
946
948
949
950
946
942
941
945
946
943
940
937
941
943
945
942
942
939
940
943
946
944
943
941
942
942
945
944
940
939
940
941
941
939
936
936
938
941
944
946
945
948
953
956
961
960
956
957
958
959
962
960
958
956
955
959
960
960
957
955
955
956
957
953
952
950
948
950
950
948
946
943
945
952
950
950
947
946
944
945
948
947
943
942
943
941
946
945
944
943
945
946
949
947
946
945
944
947
949
947
947
946
946
948
949
952
953
951
954
959
964
961
961
959
958
961
965
963
960
959
958
958
959
959
961
958
957
960
961
958
957
952
955
957
959
956
955
953
952
956
956
953
952
950
948
954
952
954
952
950
954
957
958
958
957
956
957
961
961
960
957
960
960
961
962
959
958
956
963
965
967
970
969
968
970
971
972
971
972
967
971
974
974
976
973
970
972
975
976
977
978
977
983
993
998
1009
1023
1044
1072
1101
1129
1158
1187
1211
1241
1263
1275
1266
1237
1193
1141
1092
1055
1019
996
982
975
979
980
975
972
962
959
959
960
960
960
961
961
962
963
962
960
957
953
955
962
964
959
958
959
962
964
963
960
958
955
960
963
961
955
954
956
957
963
960
961
958
959
962
966
964
963
965
966
971
972
970
969
968
969
974
975
972
974
973
976
979
980
983
984
986
987
989
992
992
992
993
998
1001
1000
997
991
987
985
986
986
984
981
977
979
981
980
977
976
971
969
971
973
970
967
965
963
965
968
964
963
961
961
964
964
963
960
957
957
960
963
962
961
955
956
958
959
959
957
954
956
960
965
964
963
966
971
974
977
976
974
977
978
978
981
982
979
976
977
980
980
979
973
971
972
975
978
979
977
977
978
982
983
984
979
976
978
979
979
974
970
970
970
973
974
972
968
964
967
967
971
968
961
957
959
965
966
964
960
961
961
964
968
968
970
968
972
975
978
976
976
974
977
980
981
985
984
982
982
985
988
991
994
1001
1008
1018
1039
1062
1086
1116
1150
1184
1218
1244
1268
1289
1301
1293
1265
1215
1163
1108
1064
1035
1012
993
982
976
978
979
980
974
969
963
963
962
962
958
953
949
950
954
956
958
958
956
957
960
963
963
958
959
959
963
963
962
958
958
962
965
966
965
960
960
960
964
967
966
960
958
958
963
965
964
963
962
966
967
974
975
973
973
975
978
981
981
982
981
982
985
987
986
985
981
983
989
990
990
987
982
987
986
991
990
986
984
983
984
984
983
978
975
975
974
975
973
969
968
966
965
965
964
960
957
958
959
961
960
952
953
954
954
954
953
948
947
947
951
953
951
950
951
955
957
961
962
956
953
955
961
962
960
959
956
962
966
967
967
965
965
968
971
973
974
970
970
970
974
975
972
966
966
967
972
971
968
966
965
965
968
968
964
964
961
961
961
962
958
954
952
951
953
955
955
951
948
950
954
956
954
953
949
954
958
962
960
957
958
960
961
961
963
963
960
962
966
968
968
964
964
965
970
971
972
970
967
969
974
974
970
967
965
966
970
971
970
964
965
966
970
971
970
968
966
969
973
978
979
981
984
992
1005
1023
1041
1064
1087
1120
1154
1186
1212
1239
1262
1282
1287
1271
1236
1193
1145
1102
1071
1045
1019
1000
991
992
996
994
988
983
980
972
974
973
970
965
962
960
960
961
954
954
953
952
952
954
950
946
943
943
947
948
948
944
944
945
950
951
953
954
952
954
956
962
962
960
959
962
964
970
971
965
968
970
975
977
977
977
977
979
983
989
987
986
985
986
990
993
994
991
990
992
996
997
995
991
989
992
994
995
990
987
980
981
982
983
979
972
969
971
970
970
968
965
962
963
962
963
962
959
961
963
969
969
970
967
967
972
973
975
974
972
968
972
974
975
977
974
971
975
977
976
975
972
969
975
975
978
976
973
974
975
981
985
985
984
990
1000
1011
1026
1050
1075
1102
1132
1160
1190
1223
1245
1263
1277
1278
1262
1233
1189
1136
1089
1055
1037
1018
1000
988
985
984
985
974
968
963
962
962
960
954
954
950
950
951
952
950
947
944
945
946
946
946
944
944
946
951
953
951
951
950
951
954
956
955
953
949
952
952
954
953
952
951
952
956
957
954
953
950
956
958
960
963
962
963
970
970
973
976
976
976
982
985
987
990
990
983
988
994
996
993
992
991
994
993
994
988
987
982
983
982
980
976
969
967
966
970
968
962
957
958
959
959
960
954
953
951
949
954
952
951
943
945
949
953
956
956
956
954
957
962
962
962
960
958
960
962
965
962
964
963
965
967
965
964
963
961
964
965
965
963
960
958
962
962
964
964
962
960
960
962
962
961
959
960
957
963
963
960
956
955
957
958
958
957
954
952
953
955
957
957
954
950
955
958
960
960
958
958
963
966
970
971
968
967
969
971
972
972
971
969
971
974
975
972
971
970
971
974
975
972
969
965
966
970
971
973
968
968
970
974
974
973
971
969
972
974
976
975
972
969
970
973
975
973
970
973
975
977
982
983
987
992
1002
1011
1032
1054
1077
1103
1135
1170
1204
1234
1261
1286
1298
1292
1270
1228
1176
1126
1082
1051
1023
1002
987
985
987
987
986
979
973
971
969
970
968
966
961
959
959
957
956
954
954
953
953
953
958
954
951
949
951
953
954
952
949
947
946
947
951
949
946
943
943
947
950
947
941
944
945
949
951
949
947
949
953
958
960
960
958
960
965
968
970
970
969
972
972
974
976
978
976
977
979
981
983
983
982
981
984
990
990
989
989
986
987
990
992
989
987
984
981
983
985
978
975
972
973
975
974
971
965
965
962
963
965
964
961
959
959
963
964
961
960
959
959
963
965
962
959
957
958
961
963
965
963
963
966
970
970
972
968
967
970
975
976
974
972
971
972
977
978
976
974
971
976
978
977
977
971
973
972
970
972
969
968
967
967
966
969
967
964
960
963
965
963
963
959
954
954
959
961
960
957
958
958
960
961
961
958
958
960
963
966
961
957
959
960
961
961
960
959
959
960
964
964
963
962
960
960
961
963
963
963
962
964
969
973
973
975
972
973
975
976
979
976
974
973
979
978
978
977
980
983
987
991
991
994
1005
1022
1042
1067
1087
1113
1136
1167
1194
1222
1245
1264
1279
1282
1270
1242
1196
1145
1099
1061
1034
1013
997
987
985
987
987
983
977
972
971
966
967
964
963
958
955
956
956
957
955
952
949
950
950
952
950
949
945
950
951
954
954
951
950
954
957
956
953
953
951
951
954
953
955
953
950
950
952
955
953
952
952
952
957
961
960
955
956
960
962
962
964
964
963
967
970
973
970
968
968
970
974
976
976
973
973
975
977
979
977
974
972
969
974
973
969
961
960
961
964
965
959
956
955
954
957
955
956
948
950
951
955
952
951
949
945
949
954
953
954
951
948
951
953
958
958
955
955
958
963
966
964
961
958
961
965
967
966
963
963
962
965
964
966
963
961
966
967
969
966
963
963
965
971
970
971
971
970
974
986
991
997
1005
1022
1044
1068
1092
1116
1138
1167
1194
1218
1237
1248
1241
1224
1196
1162
1116
1076
1044
1023
1012
1000
990
987
980
979
977
975
968
963
958
955
956
954
955
955
949
948
948
947
951
950
944
943
945
945
945
943
940
938
941
944
945
943
940
939
943
947
945
944
942
942
944
943
945
944
943
943
945
949
949
951
950
951
954
960
963
968
965
967
971
978
978
982
980
977
981
986
988
987
984
987
986
991
992
989
985
985
985
982
983
978
974
970
968
966
961
962
960
957
954
958
956
954
947
949
949
949
948
948
947
945
947
948
948
946
943
943
945
945
948
944
942
944
945
947
947
945
944
944
950
954
957
955
954
955
956
954
957
956
954
956
956
956
958
955
951
953
951
954
953
952
948
947
950
950
951
950
944
944
946
947
949
946
942
940
942
944
944
940
935
934
936
937
938
932
931
931
934
939
936
935
935
935
938
939
943
942
940
939
939
942
946
945
946
946
952
958
963
967
973
991
1016
1044
1070
1098
1122
1155
1188
1218
1245
1263
1272
1263
1250
1220
1179
1129
1083
1048
