964
963
966
972
974
972
972
972
976
982
986
989
987
986
987
987
990
987
985
982
981
981
982
981
978
977
977
975
976
976
972
970
969
970
969
969
971
967
968
970
974
972
972
970
968
974
976
977
976
974
972
975
979
977
979
975
977
981
984
985
985
980
983
986
989
991
987
982
985
989
993
991
987
981
984
984
986
986
986
981
982
987
991
987
982
978
977
981
982
984
980
975
974
977
983
982
980
977
977
981
982
981
982
978
977
979
983
985
981
979
979
981
986
984
981
976
977
980
983
983
980
980
980
982
985
984
983
980
983
985
987
985
987
983
986
987
990
990
987
980
982
988
989
988
983
981
980
981
984
984
982
982
982
982
983
980
979
980
979
984
984
980
977
977
977
976
978
981
981
983
981
988
987
979
978
977
978
983
984
985
983
979
979
984
984
985
981
979
980
987
990
992
996
999
1000
1005
1012
1019
1028
1042
1065
1095
1133
1165
1200
1232
1266
1296
1325
1342
1342
1321
1286
1245
1193
1134
1087
1051
1025
1011
1004
999
994
988
982
977
978
979
973
961
957
957
962
971
972
971
972
977
979
978
969
966
966
965
970
968
964
962
964
967
965
965
960
961
958
965
967
963
960
955
956
953
956
957
960
955
955
961
970
971
973
969
968
970
969
968
968
966
970
970
972
971
971
971
976
977
980
980
982
987
987
984
983
982
978
979
984
992
995
992
988
986
992
994
996
993
994
991
988
989
992
987
982
982
982
982
982
979
975
975
980
981
980
980
978
971
968
974
979
978
974
970
972
979
982
984
977
977
980
978
984
988
985
982
982
986
994
994
991
984
987
993
995
994
990
986
989
990
992
993
991
985
985
986
986
987
984
982
984
986
989
991
984
982
983
983
986
984
983
983
981
983
985
984
980
974
974
977
980
974
972
970
973
973
975
972
971
969
970
972
975
976
972
972
972
972
976
977
975
975
974
978
982
983
979
980
976
982
981
985
988
986
990
996
1004
1009
1017
1028
1058
1088
1121
1152
1189
1228
1261
1297
1329
1345
1344
1321
1284
1234
1174
1123
1077
1042
1014
1003
998
993
989
983
977
974
971
967
961
956
953
954
960
958
955
949
951
956
958
958
955
951
955
956
960
958
955
952
954
956
958
962
958
952
953
958
960
959
955
956
957
961
963
962
961
963
965
970
970
969
964
963
966
969
971
970
968
966
966
970
973
971
970
967
968
972
976
973
974
974
973
978
979
979
976
976
974
975
976
976
974
975
974
977
977
975
970
969
967
974
974
975
972
969
968
971
975
974
968
966
968
968
971
972
971
969
970
971
972
973
971
969
971
972
973
973
969
968
967
968
969
969
966
965
964
965
970
966
964
960
960
966
969
966
966
963
962
965
970
970
968
967
966
968
974
975
972
972
971
976
979
978
976
977
978
984
990
995
1000
1007
1022
1044
1073
1097
1123
1150
1186
1222
1254
1282
1307
1318
1316
1302
1273
1223
1166
1115
1077
1050
1025
1005
998
991
994
992
990
983
977
970
968
970
969
966
963
960
958
963
966
965
957
955
957
958
959
962
958
955
954
961
965
966
963
960
958
961
965
966
963
961
958
961
965
965
965
963
959
962
969
967
969
967
968
970
977
975
972
970
972
974
978
977
980
977
983
983
991
991
988
992
990
993
994
992
989
986
986
984
985
986
983
980
984
985
990
986
983
980
980
980
982
979
977
972
971
972
976
973
972
966
969
971
971
969
967
965
964
966
969
966
965
964
964
965
965
963
962
962
964
963
966
964
961
957
960
964
968
968
968
967
969
969
973
973
970
968
969
968
973
973
970
969
969
972
976
975
973
973
975
979
980
983
983
980
978
979
983
982
980
978
979
980
982
985
983
978
977
979
984
981
977
976
975
980
983
981
979
979
979
981
986
986
989
989
989
992
1001
1010
1020
1036
1059
1087
1116
1147
1182
1214
1251
1283
1312
1330
1336
1326
1309
1276
1231
1178
1127
1087
1054
1029
1014
1004
1000
997
993
990
989
982
973
970
969
970
967
965
961
959
957
956
959
956
953
949
950
953
955
954
949
947
946
952
953
949
948
946
945
949
951
951
950
949
948
952
958
956
955
953
952
950
957
957
956
955
956
958
961
963
960
961
961
964
967
968
971
971
968
970
978
978
979
976
981
984
989
990
990
991
994
997
1000
1000
997
995
995
997
996
994
994
989
989
987
990
991
989
981
983
984
987
985
979
977
977
979
980
976
977
975
974
977
978
979
971
971
972
975
979
975
974
973
972
973
973
972
971
969
970
973
977
973
971
969
968
972
975
973
971
971
969
971
976
975
975
972
972
975
978
977
977
976
973
972
976
978
977
976
977
981
986
986
986
985
983
987
990
985
984
984
980
986
990
986
987
982
985
987
986
986
984
983
981
981
985
982
981
980
979
984
987
985
983
986
990
995
1006
1018
1035
1058
1084
1115
1153
1188
1224
1254
1287
1313
1341
1344
1328
1297
1262
1215
1171
1124
1088
1059
1034
1019
1010
1010
1005
998
994
989
988
980
977
970
972
972
975
974
972
970
973
975
977
975
975
970
969
971
972
975
972
968
968
966
970
969
966
962
962
964
968
964
960
960
958
967
968
963
963
962
963
967
968
967
966
963
965
967
973
974
975
972
969
973
980
980
978
977
980
984
991
992
990
988
991
996
998
996
1000
997
997
999
999
995
994
990
992
991
994
990
988
989
984
988
987
986
981
976
976
976
977
976
973
972
971
975
976
975
971
970
971
973
974
974
971
969
971
970
975
975
974
971
972
979
980
982
979
975
978
979
983
984
984
981
983
987
987
985
985
982
984
986
988
986
984
982
979
981
985
985
983
982
980
984
989
989
984
984
986
990
995
997
1001
1001
1007
1011
1020
1024
1027
1037
1061
1084
1111
1132
1159
1187
1222
1256
1281
1307
1319
1315
1297
1268
1227
1172
1124
1083
1050
1026
1014
1005
999
997
995
996
995
988
983
978
976
977
977
974
974
968
967
968
971
970
966
964
964
964
968
969
966
964
964
964
966
967
964
962
961
962
965
966
964
962
962
962
965
963
963
960
964
963
969
970
970
970
972
977
979
979
978
979
981
983
986
988
987
987
989
994
997
998
1001
1000
1000
1002
1005
1001
1003
1001
998
1001
1002
1000
996
992
992
991
993
993
985
983
981
982
982
983
979
976
972
975
978
975
976
973
974
975
975
974
972
972
973
974
978
977
978
977
976
977
982
980
980
979
983
985
988
991
991
992
993
993
997
998
993
992
993
997
998
998
995
994
992
994
997
994
992
989
988
987
993
993
989
987
987
990
991
988
986
982
983
985
987
984
979
976
979
980
984
983
980
979
979
983
988
984
983
981
980
985
988
985
982
981
983
985
988
990
990
986
988
992
996
997
1002
1007
1014
1029
1051
1079
1101
1123
1155
1192
1232
1268
1297
1323
1344
1355
1355
1332
1294
1237
1181
1135
1099
1067
1039
1015
1011
1007
1008
1007
1001
990
984
984
983
979
971
969
964
966
968
967
963
962
962
963
966
962
962
957
957
961
961
963
963
962
961
963
966
966
965
963
965
968
968
968
966
964
964
970
972
972
972
972
974
976
980
981
978
975
979
985
989
986
985
985
986
990
995
994
991
989
990
994
996
997
1000
999
1000
1002
1004
1002
1002
998
1000
1003
1006
1003
1002
997
996
997
995
993
991
988
988
986
990
990
989
985
989
991
992
990
989
986
989
989
992
991
992
991
986
989
989
990
988
985
987
988
989
987
986
982
984
990
997
999
997
997
1001
1003
1009
1009
1009
1010
1012
1020
1031
1045
1060
1090
1125
1158
1193
1225
1257
1289
1321
1347
1360
1365
1353
1327
1287
1240
1179
1122
1083
1054
1032
1019
1011
1009
1006
993
984
987
987
982
978
975
972
973
975
975
969
965
967
970
967
964
963
960
961
962
963
963
962
964
967
968
970
970
967
965
966
971
973
974
971
969
969
972
974
973
972
970
969
972
976
975
973
971
974
977
978
977
976
975
978
981
985
986
984
983
984
987
993
997
995
993
991
995
996
993
986
987
984
986
987
986
979
979
975
974
982
979
974
967
971
977
980
982
978
976
979
979
981
978
974
970
975
976
979
976
971
972
974
976
980
981
980
979
982
984
985
985
982
981
981
976
980
985
983
981
981
984
981
984
980
979
978
977
973
974
971
971
968
971
975
985
988
988
992
997
1008
1020
1032
1046
1069
1097
1131
1163
1197
1231
1266
1298
1320
1335
1332
1318
1290
1251
1195
1139
1094
1059
1032
1019
1007
999
994
990
984
979
978
974
969
960
956
957
961
962
957
956
958
957
953
955
956
954
954
958
961
961
959
950
950
952
957
955
950
945
946
950
952
951
948
947
948
948
952
954
956
953
951
954
961
964
964
960
963
966
968
970
970
967
965
970
976
978
975
972
974
981
982
983
980
980
981
985
989
987
984
985
986
986
990
988
983
980
979
981
983
978
976
970
972
974
974
971
971
974
975
977
976
975
971
971
973
973
972
971
965
964
969
974
974
974
967
971
966
967
970
968
967
968
967
970
974
971
967
964
966
966
969
965
966
961
959
960
968
969
965
962
965
967
969
968
964
960
961
962
966
969
969
965
962
964
969
971
966
962
961
969
975
974
972
972
974
974
975
976
975
974
974
977
977
978
974
970
971
975
976
974
970
967
966
969
972
968
968
962
962
963
967
969
964
961
961
964
970
971
965
964
963
968
971
968
965
963
965
971
975
977
975
973
976
977
980
978
978
975
978
983
986
987
982
979
977
980
984
982
975
973
970
976
979
980
976
976
978
982
987
987
987
986
987
992
996
1000
1005
1006
1008
1017
1036
1059
1084
1108
1142
1180
1217
1244
1275
1297
1312
1312
1293
1257
1208
1149
1099
1058
1033
1008
990
986
991
996
995
992
982
971
967
969
971
971
971
965
961
963
967
964
959
954
954
954
956
959
952
947
949
950
950
953
952
948
949
951
956
956
956
955
956
956
960
963
964
958
958
961
964
968
968
968
968
970
977
979
977
975
976
979
982
981
977
977
980
986
989
989
986
989
992
998
1001
1000
999
1000
1002
1005
1005
1001
999
995
997
994
992
986
981
980
981
979
983
980
977
971
967
971
976
976
976
971
969
972
976
975
968
966
964
967
969
970
967
966
967
971
975
977
979
979
984
988
990
990
987
983
979
982
983
980
980
976
979
982
979
976
975
976
977
976
975
973
971
972
971
970
971
972
971
970
970
973
974
974
971
968
968
972
975
975
969
967
965
972
976
975
972
972
970
970
972
970
965
970
971
975
980
979
983
987
990
1002
1024
1053
1077
1105
1137
1175
1210
1240
1267
1291
1304
1300
1278
1237
1187
1130
1085
1049
1024
1006
989
987
985
985
981
977
973
969
964
964
967
966
960
955
953
958
959
955
956
953
951
953
955
956
950
948
947
950
952
951
950
947
949
951
953
951
950
952
955
959
961
958
954
950
954
960
963
965
961
959
963
967
972
973
973
971
973
975
975
975
972
969
966
971
977
981
980
977
978
982
983
984
979
972
973
973
978
981
979
980
980
976
976
974
974
969
966
969
970
971
966
962
963
963
966
969
968
970
972
975
977
977
971
968
972
981
989
987
987
987
993
999
1010
1016
1018
1029
1054
1089
1125
1157
1184
1214
1253
1292
1322
1337
1340
1325
1304
1276
1232
1174
1112
1068
1039
1024
1017
1004
994
991
988
984
982
974
968
966
962
962
962
964
961
955
956
956
959
951
948
947
951
959
963
967
966
961
966
968
973
974
974
970
974
980
981
978
976
971
975
980
985
984
986
987
986
989
990
994
993
993
992
998
1001
1000
999
999
1001
1006
1011
1013
1016
1014
1015
1020
1019
1016
1012
1011
1013
1017
1019
1013
1006
1002
1005
1008
1011
1009
1005
1002
1001
1002
1002
1003
1000
998
999
1004
1004
1002
1002
1004
1003
1006
1008
1007
1008
1007
1004
1007
1010
1010
1006
1005
1007
1008
1010
1012
1011
1008
1007
1007
1009
1011
1009
1006
1009
1008
1007
1006
998
999
1003
1008
1009
1005
1003
999
999
1001
1010
1012
1011
1005
1007
1012
1020
1027
1032
1040
1059
1083
1109
1134
1155
1181
1214
1247
1281
1309
1320
1317
1296
1259
1213
1162
1119
1087
1067
1046
1033
1026
1027
1027
1026
1022
1019
1014
1010
1005
1004
1007
1009
1002
996
994
992
994
995
992
993
993
993
994
998
995
993
989
989
994
1000
999
994
988
990
995
1000
1002
1005
1003
1004
1004
1003
999
1000
1003
1006
1009
1009
1009
1006
1004
1006
1011
1018
1020
1019
1014
1012
1013
1017
1028
1029
1027
1031
1029
1032
1033
1032
1031
1030
1032
1034
1033
1030
1027
1023
1027
1033
1029
1023
1020
1023
1023
1026
1023
1023
1022
1028
1030
1031
1028
1025
1023
1022
1022
1026
1029
1028
1027
1022
1020
1024
1021
1021
1022
1022
1024
1030
1031
1031
1031
1033
1034
1037
1036
1034
1033
1035
1038
1033
1025
1026
1030
1037
1046
1049
1048
1042
1037
1037
1031
1035
1036
1036
1033
1030
1033
1037
1037
1035
1029
1029
1032
1037
1037
1034
1030
1031
1032
1038
1038
1035
1036
1036
1039
1040
1038
1032
1031
1031
1032
1035
1030
1022
1023
1030
1032
1037
1036
1031
1027
1027
1030
1030
1026
1025
1029
1033
1038
1042
1045
1043
1042
1046
1049
1057
1063
1067
1077
1102
1125
1152
1179
1206
1239
1273
1305
1328
1353
1359
1343
1323
1290
1248
1195
1146
1110
1086
1069
1066
1058
1056
1052
1051
1045
1042
1038
1033
1028
1025
1023
1024
1025
1019
1013
1015
1019
1020
1022
1021
1019
1019
1020
1021
1019
1017
1015
1012
1014
1018
1014
1009
1005
1007
1009
1011
1011
1012
1011
1010
1019
1023
1024
1024
1023
1025
1023
1024
1024
1022
1023
1019
1022
1027
1026
1024
1022
1022
1028
1031
1032
1033
1031
1034
1037
1041
1043
1040
1038
1039
1042
1046
1047
1048
1049
1051
1051
1052
1050
1045
1035
1035
1034
1033
1029
1024
1020
1019
1016
1022
1020
1017
1012
1009
1011
1016
1017
1014
1009
1014
1018
1021
1020
1016
1012
1014
1020
1022
1024
1024
1022
1020
1018
1020
1020
1019
1015
1014
1016
1020
1021
1017
1018
1018
1020
1022
1024
1025
1023
1023
1027
1031
1029
1025
1018
1018
1022
1022
1022
1017
1012
1013
1012
1015
1012
1008
1004
1004
1004
1008
1005
1002
997
993
996
999
999
998
996
1003
1004
1004
1007
1006
1005
1007
1006
1014
1013
1008
1005
1004
1007
1008
1008
1003
1000
999
1003
1005
1005
1002
998
997
1004
1007
1008
1004
1007
1011
1015
1016
1010
1009
1004
1009
1014
1013
1011
1009
1003
1004
1004
1008
1006
1002
999
1000
999
1001
1001
998
998
997
1002
1009
1012
1014
1021
1030
1053
1077
1105
1128
1153
1186
1220
1252
1279
1299
1311
1305
1286
1249
1199
1145
1096
1061
1032
1015
1001
998
999
999
1000
1001
998
994
990
987
985
986
985
981
976
978
979
979
978
976
969
970
970
971
966
964
961
961
963
965
961
960
960
960
963
964
964
964
963
964
964
966
966
964
962
964
966
968
966
962
961
963
967
967
970
965
964
964
968
970
969
969
968
968
971
976
980
979
983
986
993
998
999
1002
1003
1004
1006
1005
1007
1004
999
1002
1002
1001
997
992
987
985
985
984
982
977
974
972
976
976
978
975
970
971
977
976
976
973
974
970
973
978
974
973
968
969
971
975
974
974
970
968
972
975
975
973
971
970
971
970
975
973
972
972
973
977
981
983
983
983
985
988
987
983
984
983
985
985
988
984
981
979
980
982
978
976
970
970
973
976
972
969
966
965
970
971
970
969
968
970
976
975
975
969
970
969
972
974
972
970
966
971
971
974
973
972
969
971
974
976
975
970
968
970
972
977
977
974
971
972
981
987
985
980
981
982
985
987
987
985
982
984
986
992
987
983
981
982
984
986
984
980
975
977
980
979
980
972
972
971
973
975
974
970
969
969
975
981
981
980
978
978
980
988
990
993
996
1000
1014
1029
1044
1063
1087
1112
1140
1172
1202
1227
1250
1272
1293
1297
1281
1247
1200
1150
1104
1072
1044
1017
999
997
999
1005
1003
998
988
987
990
989
984
980
975
975
974
976
972
968
964
965
967
968
963
962
961
959
961
960
962
958
956
958
961
966
965
967
962
962
963
967
967
965
960
963
965
964
966
966
963
967
973
975
978
977
974
972
975
980
981
984
980
978
984
986
984
984
981
984
989
995
996
996
993
993
997
999
996
994
993
993
990
994
990
986
982
982
980
980
977
975
972
971
970
975
973
967
965
964
960
960
963
961
963
960
962
962
963
961
958
960
961
966
967
962
962
964
967
970
969
968
966
972
976
980
978
977
973
975
980
985
984
982
981
983
989
995
996
993
998
1003
1019
1036
1059
1084
1109
1136
1162
1190
1219
1247
1269
1286
1299
1298
1281
1251
1212
1167
1120
1077
1049
1030
1009
999
992
988
987
980
970
965
962
959
955
952
947
948
945
950
949
943
941
946
950
951
955
951
948
949
950
952
955
953
950
951
953
960
961
960
955
957
959
960
961
959
957
959
962
963
965
962
960
961
961
962
962
962
961
961
964
966
967
969
968
967
969
974
974
971
968
975
978
983
985
986
984
987
986
989
984
981
978
978
980
981
979
979
977
974
979
981
976
974
973
970
974
974
973
972
968
969
970
972
972
972
969
968
972
972
972
971
967
967
967
970
969
967
963
966
966
966
964
961
957
958
964
967
967
961
960
961
960
959
959
956
950
946
950
952
951
947
942
945
948
953
955
956
958
960
963
966
967
963
964
967
970
973
972
968
968
967
969
974
970
970
968
967
968
969
969
967
964
962
967
969
968
965
962
962
965
967
969
