1003
1004
1007
1006
1003
1000
998
999
999
1002
998
991
989
990
991
992
988
981
980
981
982
985
982
976
974
975
979
982
981
981
979
981
984
986
980
977
974
977
978
977
980
975
973
976
982
979
981
979
975
976
979
985
985
982
979
980
982
985
985
981
980
984
987
989
988
986
986
988
989
992
990
989
988
988
993
996
995
993
989
988
991
996
992
990
985
986
986
988
989
985
984
984
983
988
987
984
983
984
988
988
988
985
982
984
986
987
986
984
981
980
984
987
985
982
982
983
985
985
985
980
980
982
984
981
983
981
979
979
984
985
982
981
981
983
985
989
989
985
984
985
988
988
987
984
980
978
982
985
986
982
982
983
987
989
991
990
993
999
1005
1010
1019
1031
1047
1071
1099
1126
1156
1182
1213
1241
1271
1298
1319
1323
1312
1290
1254
1207
1152
1105
1068
1041
1025
1011
1006
1000
998
998
997
993
984
979
973
973
973
973
971
965
963
963
967
964
962
958
958
957
961
961
961
958
956
957
961
964
961
959
955
959
962
964
960
955
959
957
957
960
961
959
962
967
972
973
978
975
973
976
981
984
985
987
985
985
989
993
992
990
988
989
995
997
999
995
993
995
997
1002
1000
998
999
999
1003
1005
1004
1001
998
997
1000
998
997
992
988
985
985
984
982
979
974
970
975
976
973
970
968
972
972
972
968
965
964
967
973
973
970
969
969
968
971
972
971
969
966
967
969
971
970
967
963
966
967
967
966
963
963
963
967
965
962
963
963
961
964
964
966
964
962
959
965
967
964
964
963
966
971
971
969
966
967
968
973
975
971
972
971
972
976
977
976
975
976
980
983
983
981
978
975
976
978
982
977
976
972
974
977
978
977
972
968
972
974
973
972
970
971
971
977
980
978
983
987
998
1018
1038
1065
1089
1119
1154
1190
1220
1245
1269
1286
1289
1278
1249
1203
1150
1100
1062
1038
1016
1000
991
987
988
991
988
982
976
967
967
965
964
961
958
957
958
958
960
957
952
951
954
957
958
957
952
949
954
954
954
953
951
950
949
956
957
956
954
952
953
956
959
957
955
956
959
964
968
968
965
967
971
979
981
981
982
985
985
991
994
995
989
993
995
998
1001
1001
1001
1000
1003
1005
1010
1008
1003
998
999
1002
999
997
990
990
986
989
988
984
980
976
974
974
974
973
969
966
963
967
967
964
962
960
960
964
965
962
961
960
960
963
967
965
962
961
961
963
964
964
960
959
963
962
970
970
967
963
967
971
969
967
966
966
968
970
972
972
969
966
965
969
973
974
969
969
968
972
973
973
968
967
968
970
975
976
975
972
975
976
980
977
976
973
975
979
977
977
974
977
976
981
982
979
977
978
979
981
983
979
979
972
974
977
975
977
974
972
975
972
977
978
975
973
973
972
975
976
974
970
971
974
975
973
966
970
975
973
974
971
971
968
972
974
976
978
974
975
974
978
983
978
980
979
981
985
990
992
986
983
984
989
991
987
981
981
986
992
999
999
1002
1009
1015
1026
1039
1060
1083
1107
1136
1167
1202
1234
1263
1294
1321
1347
1350
1337
1303
1254
1199
1142
1090
1049
1013
984
972
971
979
983
983
976
975
974
971
970
962
962
962
963
964
964
962
960
961
964
966
964
963
964
965
970
971
972
970
967
968
971
974
974
969
968
968
973
973
973
972
971
971
976
975
974
977
976
978
981
985
985
984
983
983
990
991
993
990
992
993
996
997
997
996
994
997
1000
1004
1002
1000
998
999
1001
1004
1001
1001
998
998
1000
1001
998
994
989
991
992
995
993
986
984
986
986
986
984
981
977
980
977
980
976
974
969
972
973
976
973
972
972
971
976
980
978
975
975
980
981
985
986
980
976
976
977
981
980
977
974
976
974
978
977
973
973
978
981
985
984
984
982
986
989
995
997
997
1000
1006
1020
1030
1044
1064
1094
1127
1160
1193
1227
1256
1289
1316
1338
1351
1347
1330
1293
1248
1197
1139
1089
1055
1030
1017
1006
1001
997
996
991
985
979
981
976
968
964
963
962
966
962
957
953
953
954
955
950
949
948
947
948
948
948
945
941
941
945
946
944
943
941
941
944
948
948
946
947
946
948
954
952
951
951
949
955
958
958
955
955
959
961
965
962
961
964
968
973
978
979
976
978
984
989
994
993
991
990
993
996
994
993
991
989
988
989
989
986
982
977
979
980
980
978
972
968
968
970
968
969
966
959
959
964
964
965
959
960
959
963
966
964
961
962
963
966
968
964
963
961
964
965
968
967
965
962
962
966
971
969
965
964
969
974
973
971
969
970
971
977
978
976
972
971
969
973
975
974
967
968
970
973
974
971
967
964
961
966
964
964
959
958
958
962
965
963
958
957
958
962
965
964
963
961
961
964
966
965
964
963
964
968
970
968
965
964
965
969
971
970
968
964
968
969
973
971
973
968
971
974
976
974
971
966
969
971
975
971
970
964
966
969
972
971
970
966
967
970
972
969
968
963
961
965
969
967
965
963
963
964
965
964
957
956
957
959
958
960
957
956
956
959
960
961
959
959
964
965
967
969
969
965
965
970
976
974
971
970
971
973
973
971
969
967
965
971
975
973
972
968
970
973
975
973
969
968
969
975
977
972
972
971
973
975
977
980
976
972
971
972
974
976
974
973
976
978
981
984
987
993
997
1005
1021
1039
1060
1083
1109
1142
1175
1207
1235
1257
1285
1307
1309
1293
1261
1219
1166
1120
1080
1049
1023
1003
991
990
990
988
981
974
970
968
969
964
958
954
951
952
955
952
950
947
948
951
953
949
947
944
948
950
954
953
950
948
950
954
957
953
950
949
949
951
955
955
950
953
953
957
960
958
958
956
958
962
965
967
963
963
965
969
974
973
973
973
975
980
981
982
982
980
982
986
989
991
988
985
990
991
995
992
991
992
993
996
996
993
986
985
984
977
978
975
972
971
971
970
970
967
963
962
960
964
965
962
958
959
960
963
966
965
958
958
962
965
966
965
963
964
964
968
966
966
964
963
963
967
967
965
963
961
964
971
973
972
972
966
967
972
973
976
976
971
973
976
976
976
973
968
968
972
976
973
970
970
969
973
974
970
968
968
969
970
973
970
969
966
966
971
975
975
975
971
972
978
978
978
973
970
972
978
979
980
974
972
972
976
978
975
974
972
974
975
976
979
975
976
980
988
995
998
998
1006
1027
1056
1088
1116
1149
1180
1216
1248
1275
1294
1306
1299
1280
1250
1202
1140
1087
1045
1020
1003
994
986
981
979
975
973
973
965
963
958
960
959
960
956
954
953
954
958
959
959
956
952
952
959
960
962
958
956
957
958
963
960
958
952
954
954
957
958
953
952
956
958
960
956
955
958
960
963
965
965
967
967
970
970
974
976
977
975
976
980
983
983
982
982
983
987
990
990
986
988
989
993
993
995
991
987
987
986
989
989
985
982
983
982
981
977
972
969
967
969
967
968
963
960
963
963
966
967
965
961
964
966
968
968
964
963
962
965
968
967
964
961
959
961
963
962
961
960
958
961
964
964
960
958
961
962
964
964
962
962
960
965
971
970
968
967
966
968
974
974
971
969
971
975
978
977
972
971
972
977
981
981
979
975
976
982
984
981
978
975
976
981
981
983
979
978
978
979
983
984
978
975
977
981
983
981
978
977
975
978
981
978
975
971
973
974
978
976
973
973
973
975
977
977
973
971
973
974
977
976
975
973
980
986
991
992
993
997
1003
1012
1022
1039
1058
1088
1123
1164
1205
1238
1270
1304
1329
1339
1322
1278
1218
1147
1086
1040
1007
982
969
968
977
984
984
977
973
966
967
966
965
963
961
954
956
959
958
957
954
952
952
957
959
959
957
954
955
958
961
961
959
960
960
962
964
963
962
964
967
969
975
975
973
974
978
982
985
983
984
984
985
987
989
993
992
993
998
1001
1004
1005
1003
999
1002
1007
1008
1007
1003
1001
999
1002
1002
1001
996
992
991
993
993
989
985
981
982
981
981
976
972
969
968
970
967
968
967
961
961
962
964
965
964
960
961
964
965
964
963
962
964
967
971
972
972
971
974
979
980
981
981
978
978
981
984
982
979
974
976
977
981
980
978
974
972
974
978
978
975
975
975
978
980
982
977
976
976
979
981
978
976
976
975
980
982
981
977
974
976
979
982
982
981
978
978
982
985
984
978
978
976
978
982
980
976
975
976
979
981
980
977
975
976
979
981
980
977
974
972
975
975
974
968
966
968
972
972
974
971
971
969
972
970
971
967
964
965
965
968
969
972
972
975
978
981
982
983
981
981
985
986
985
985
982
984
988
987
988
988
989
993
1001
1009
1012
1024
1042
1071
1103
1136
1171
1201
1233
1267
1298
1327
1336
1323
1287
1241
1182
1129
1073
1033
997
977
971
976
978
977
974
974
971
970
969
963
961
959
964
964
963
963
960
963
965
967
965
962
957
958
960
961
959
957
955
958
959
959
957
956
954
958
957
959
963
961
959
962
964
967
965
962
958
962
969
966
968
966
963
961
964
970
970
968
971
974
977
981
980
977
978
980
986
988
992
987
987
988
991
989
987
983
978
981
982
983
982
978
973
972
973
971
969
965
963
960
962
960
960
957
954
956
962
962
960
954
955
958
961
963
963
959
958
958
964
965
963
960
960
962
964
963
966
966
965
967
973
973
973
971
965
967
969
971
969
967
966
967
967
970
967
964
962
962
966
964
962
960
958
959
957
959
959
956
953
957
958
958
957
955
952
958
962
966
969
970
966
969
970
974
970
969
970
971
975
977
976
973
971
969
972
973
972
968
963
963
966
965
964
961
958
960
959
963
961
961
958
960
959
963
961
957
955
958
959
961
956
957
953
953
955
958
958
954
952
953
955
959
958
957
955
954
956
958
957
955
954
956
968
971
973
970
970
971
975
976
975
971
969
968
972
971
970
966
967
965
962
967
969
961
963
963
965
967
968
964
962
963
965
966
967
962
958
960
963
967
963
961
961
963
967
971
970
967
964
963
967
965
964
960
960
961
964
968
968
966
965
970
974
977
977
976
975
976
975
978
978
975
972
973
972
973
973
969
968
967
969
974
973
970
965
968
971
972
972
969
966
964
965
968
965
965
964
963
964
969
969
965
963
963
966
968
968
966
964
964
968
973
974
974
971
975
975
977
975
968
968
967
970
975
976
974
974
973
981
984
986
984
985
983
987
988
986
985
986
986
990
997
1000
1004
1008
1016
1030
1049
1076
1097
1120
1151
1185
1214
1238
1264
1287
1311
1319
1307
1279
1238
1190
1143
1103
1075
1044
1022
1001
993
991
996
999
994
990
985
982
976
969
967
961
961
962
967
966
962
960
959
961
962
959
956
956
951
955
956
954
953
950
952
956
960
961
961
957
958
961
962
961
958
957
957
961
963
964
963
961
965
968
970
971
970
972
975
978
982
981
982
980
984
985
988
989
991
993
995
1002
1001
1002
998
997
999
1002
1005
1008
1005
1007
1007
1009
1013
1010
1007
1006
1006
1009
1009
1005
1000
996
994
995
993
988
986
979
978
982
984
983
981
978
977
978
981
976
973
972
973
972
976
977
973
971
973
976
976
979
976
972
973
975
975
977
974
974
972
976
979
979
975
972
973
974
979
975
974
971
974
974
978
976
975
974
975
978
977
976
975
972
973
976
977
977
975
976
976
979
981
980
976
978
983
988
992
988
985
987
988
990
990
988
985
985
985
986
988
990
982
982
983
984
986
983
980
974
979
981
984
984
982
977
978
980
984
984
982
977
977
982
985
983
981
979
979
982
984
980
980
976
978
977
979
977
978
976
975
977
978
977
976
975
976
978
981
980
980
978
979
984
990
990
994
991
995
999
1000
997
996
993
995
1000
1008
1010
1012
1015
1022
1039
1062
1090
1117
1141
1176
1210
1248
1276
1303
1329
1350
1357
1345
1316
1269
1216
1159
1110
1074
1038
1010
985
987
989
994
992
986
982
978
977
978
974
968
964
963
967
968
966
964
963
964
967
969
962
961
961
958
962
965
962
957
957
958
963
969
969
969
970
973
977
979
976
975
975
977
978
983
984
982
982
986
988
994
991
990
989
993
995
1000
999
998
997
999
1005
1006
1007
1004
1002
1004
1009
1014
1011
1012
1009
1009
1013
1015
1015
1011
1008
1004
1006
1005
1004
995
991
989
990
990
986
982
977
977
978
979
978
977
974
976
979
980
980
978
975
976
978
982
981
981
977
978
980
983
984
979
977
976
984
984
982
979
977
975
981
982
982
981
978
978
979
983
978
978
976
977
980
980
979
979
978
978
977
978
979
975
974
977
978
982
982
980
979
979
983
984
982
978
979
981
984
985
987
981
981
983
986
988
990
986
984
986
990
991
991
987
986
987
989
992
989
987
986
985
986
988
986
979
980
983
986
989
987
984
985
985
987
988
988
985
982
982
986
987
987
987
982
984
984
985
985
981
978
981
983
990
984
985
983
985
987
988
994
995
996
997
1002
1005
1010
1014
1016
1024
1034
1050
1075
1097
1121
1156
1191
1226
1255
1281
1307
1334
1356
1361
1343
1310
1264
1209
1150
1103
1058
1020
996
982
978
987
987
986
983
982
982
978
975
972
967
967
967
967
964
963
960
959
960
962
958
958
954
956
957
961
960
957
951
956
960
959
961
958
960
960
969
970
973
971
970
971
975
978
978
975
976
979
980
983
982
981
978
980
983
988
986
984
980
984
987
992
991
993
992
992
1000
1001
1000
1000
997
1000
1002
1003
1000
999
998
995
997
997
995
991
987
987
987
987
983
978
978
979
980
980
977
972
970
970
973
976
976
974
972
973
974
975
973
971
969
970
974
975
977
975
974
974
976
980
976
975
972
973
976
978
976
974
970
972
974
977
975
972
971
967
970
969
971
968
966
966
969
971
972
971
967
969
974
976
976
973
971
971
976
978
978
975
971
975
977
979
981
978
980
981
982
984
984
979
979
979
982
986
986
984
983
984
987
989
987
987
984
986
985
990
990
984
981
981
981
981
979
978
975
971
974
975
976
973
967
971
971
974
973
971
971
970
974
973
974
973
970
973
974
979
976
975
975
974
979
979
983
984
981
984
985
986
985
982
983
983
987
991
989
984
985
987
987
989
993
992
985
990
994
996
995
993
990
994
996
1001
1002
1001
1001
1007
1012
1020
1024
1032
1048
1072
1100
1127
1160
1188
1218
1248
1278
1305
1318
1316
1296
1263
1222
1171
1116
1075
1044
1021
1009
1001
997
994
991
989
989
986
982
975
967
968
970
971
969
965
961
961
966
963
965
962
962
960
966
969
967
964
961
963
965
970
967
967
966
965
969
973
972
968
968
969
972
975
975
970
971
973
976
978
979
976
975
980
986
991
990
990
989
992
995
1001
1001
1002
1001
1005
1009
1012
1013
1008
1009
1007
1010
1013
1015
1008
1004
1006
1007
1008
1006
999
1000
995
997
997
992
991
986
987
986
985
983
979
975
977
977
981
978
977
975
974
976
975
975
974
973
974
978
981
981
977
973
973
974
975
977
977
976
977
983
986
980
981
980
981
982
985
982
982
979
980
980
982
981
974
974
978
980
982
978
977
973
974
977
978
979
976
976
975
979
981
980
977
978
977
980
983
983
980
977
977
980
979
982
981
980
980
981
984
984
984
982
984
987
988
988
983
982
984
988
991
990
988
985
985
992
991
988
987
989
989
992
992
992
991
987
988
991
993
991
989
986
991
995
995
995
989
989
990
992
995
992
989
987
988
989
994
992
994
997
1003
1009
1016
1020
1031
1049
1074
1107
1142
1177
1212
1249
1279
1306
1329
1330
1308
1269
1218
1158
1106
1067
1033
1011
1000
996
996
996
992
982
978
977
977
973
973
968
968
970
969
967
965
960
960
960
963
963
963
960
960
961
961
963
961
960
960
961
964
963
960
957
957
958
962
964
963
963
967
971
976
980
979
977
982
984
991
992
991
988
995
1000
1004
1006
1002
1001
1003
1008
1013
1012
1009
1012
1012
1015
1021
1018
1014
1010
1012
1018
1017
1012
1011
1007
1003
1005
1005
1002
999
994
994
995
993
991
986
980
978
982
985
979
975
974
973
972
975
974
975
972
972
977
981
977
971
970
970
970
976
974
972
966
970
972
974
973
972
971
974
975
981
982
978
972
976
981
984
985
980
979
980
985
988
984
982
979
981
984
988
986
984
984
981
984
986
984
981
979
979
981
984
985
982
981
984
989
992
990
985
984
986
988
991
989
988
986
992
998
1006
1010
1014
1022
1041
1073
1100
1130
1160
1186
1222
1253
1289
1314
1321
1308
1274
1229
1170
1112
1061
1024
999
987
988
992
995
993
992
987
986
982
976
972
972
974
976
973
971
969
969
969
970
968
966
964
967
968
971
970
968
964
971
974
972
976
974
973
973
976
977
974
974
975
977
979
982
984
983
979
985
985
993
992
991
988
990
996
998
1000
1000
999
1004
1010
1019
1021
1022
1021
1025
1026
1028
1029
1027
1023
1020
1021
1023
1022
1016
1014
1012
1011
1013
1008
1003
999
996
999
997
994
992
988
989
989
990
988
986
981
983
985
987
987
985
983
983
984
988
987
985
982
985
985
987
986
983
979
980
980
985
981
979
979
979
984
987
987
982
981
981
985
991
991
992
