947
949
948
942
942
946
948
947
946
943
945
946
949
951
950
949
944
944
948
951
951
950
947
951
957
958
960
955
955
953
954
960
959
956
955
955
960
960
959
955
953
954
959
958
958
953
952
952
958
959
959
956
954
957
960
963
960
958
960
967
973
980
984
990
1001
1024
1052
1080
1108
1140
1171
1208
1241
1268
1293
1306
1299
1281
1249
1205
1153
1105
1068
1038
1016
1001
992
985
982
977
971
967
963
953
953
950
950
946
948
941
936
937
938
938
937
934
929
931
934
936
930
930
931
933
934
935
934
930
926
928
932
935
932
929
927
926
930
933
931
926
925
923
926
928
930
926
924
925
927
930
929
927
926
929
932
934
932
931
929
932
935
941
940
939
939
939
945
946
943
941
942
945
951
956
957
958
957
960
966
967
971
967
968
968
972
975
972
967
966
967
969
971
968
963
960
959
962
965
961
959
954
956
958
959
959
958
960
960
962
963
966
958
959
960
961
963
962
959
955
957
957
960
959
955
956
956
959
956
958
953
950
951
953
954
952
951
949
947
948
953
952
950
946
946
947
950
950
948
945
945
949
951
951
947
944
944
947
948
948
948
948
949
950
951
947
949
946
947
950
952
947
943
941
941
944
945
942
943
939
940
947
947
946
942
941
942
944
946
942
942
940
940
944
948
946
944
945
950
954
956
954
954
952
953
955
958
956
955
954
955
957
960
961
959
959
960
966
973
976
982
992
1011
1035
1062
1093
1123
1159
1191
1221
1253
1277
1290
1290
1269
1238
1193
1141
1094
1055
1028
1011
998
991
987
983
981
978
974
969
963
958
957
956
954
952
950
946
945
944
943
943
938
940
940
940
943
942
940
940
939
941
943
942
940
938
938
940
942
941
938
938
935
941
940
940
941
940
942
946
948
946
944
942
945
947
947
947
945
944
945
948
949
948
948
949
951
952
952
952
951
949
948
954
954
953
950
952
956
958
962
962
961
964
967
974
973
974
974
973
979
981
980
976
973
970
970
974
972
968
966
964
964
966
966
964
962
961
962
959
963
960
956
957
956
959
958
958
955
956
956
958
960
959
954
951
950
952
949
950
948
947
947
947
948
948
945
947
948
952
954
954
951
951
952
956
956
953
952
952
952
955
956
956
952
950
949
951
954
952
949
948
949
951
953
952
951
952
957
958
962
962
961
963
968
975
977
979
978
984
991
1002
1021
1046
1074
1100
1139
1174
1213
1244
1275
1302
1321
1330
1320
1292
1249
1192
1139
1096
1057
1023
997
984
985
986
986
980
971
967
965
966
961
957
948
947
947
949
948
947
946
942
946
947
949
946
941
941
941
943
945
945
940
940
942
941
943
939
941
939
945
947
949
951
948
947
950
952
953
952
951
949
953
957
959
960
956
957
959
963
963
961
963
963
963
966
967
963
964
965
966
968
973
969
969
966
971
972
976
976
976
973
975
980
981
979
975
974
975
976
976
973
971
966
966
968
968
964
959
956
955
957
952
952
948
945
948
953
948
951
948
946
945
950
951
950
949
946
947
949
948
949
947
946
946
949
954
954
953
951
952
957
959
953
953
955
958
958
964
965
964
965
968
970
971
974
975
975
975
979
980
978
977
977
973
979
984
981
981
980
983
989
993
994
1001
1008
1021
1042
1070
1095
1120
1150
1184
1220
1251
1281
1302
1319
1320
1306
1277
1226
1169
1119
1076
1051
1023
1007
992
990
989
985
984
975
966
963
959
958
956
956
951
943
948
950
951
947
942
942
942
944
948
943
940
938
936
941
941
943
939
940
939
945
947
945
944
944
946
948
953
951
951
949
949
953
954
953
948
947
952
954
960
962
960
960
962
964
965
965
962
961
961
961
966
965
963
960
961
966
967
965
964
964
964
969
972
975
972
969
970
969
973
972
966
963
962
965
966
963
958
955
955
957
958
952
952
949
950
954
955
950
947
946
948
951
954
949
948
944
948
950
950
952
949
949
953
959
962
961
957
960
962
965
967
965
960
963
966
968
970
968
967
968
971
972
974
973
971
967
969
971
972
975
977
981
989
994
1006
1015
1030
1053
1077
1106
1139
1174
1205
1237
1265
1289
1298
1287
1264
1219
1169
1128
1097
1067
1035
1008
998
995
991
982
968
959
955
955
951
947
941
942
940
944
944
940
937
935
933
934
936
931
931
927
932
935
938
938
936
934
936
939
938
939
935
936
940
945
944
941
936
942
942
947
950
944
943
941
943
947
949
947
944
946
947
950
951
951
947
950
953
959
961
960
958
958
961
962
967
967
967
967
968
971
973
972
968
966
965
964
966
964
961
956
954
957
955
952
947
943
942
947
945
945
942
939
940
941
944
942
937
935
937
941
939
943
940
940
941
946
948
947
944
944
942
947
952
951
947
944
947
950
954
950
951
947
948
951
953
953
950
948
950
953
955
955
951
948
950
952
957
957
956
956
958
959
958
957
953
954
954
956
959
960
954
955
954
956
961
958
951
952
954
958
958
959
954
954
953
954
959
957
954
953
956
959
962
959
957
957
962
965
967
973
972
980
991
1010
1031
1058
1083
1115
1150
1190
1225
1252
1278
1298
1311
1308
1287
1247
1194
1135
1091
1059
1029
1006
992
989
992
991
983
976
968
965
962
958
956
954
949
948
949
949
949
946
946
944
945
950
948
949
948
946
944
946
947
947
945
941
941
943
945
944
941
941
941
940
941
940
941
938
938
941
943
938
936
937
938
937
937
936
938
937
938
939
939
941
936
935
936
938
942
944
943
942
945
952
953
954
957
955
958
963
967
966
966
963
968
972
973
973
970
970
969
970
972
970
969
966
968
968
971
966
964
960
960
962
965
961
956
953
957
958
959
960
959
958
958
961
961
961
958
959
958
962
965
962
961
958
959
961
962
963
960
959
959
962
962
962
960
958
960
966
966
965
965
967
971
976
983
988
995
1006
1033
1059
1089
1117
1146
1178
1215
1246
1272
1287
1289
1274
1250
1207
1153
1104
1068
1039
1018
1002
995
991
986
980
975
968
964
961
955
952
949
948
949
949
941
939
937
939
941
939
935
932
934
934
938
932
928
928
930
932
934
935
931
929
929
932
935
933
932
930
932
932
935
933
929
928
928
931
932
933
932
934
938
943
945
946
945
944
944
947
951
950
949
949
954
958
959
959
958
959
961
966
971
969
968
967
970
971
974
971
967
962
961
964
967
965
962
960
960
961
962
960
957
956
956
956
957
956
954
951
949
954
953
954
951
947
949
952
954
952
948
946
949
951
951
953
951
952
951
956
955
956
953
952
956
958
960
960
961
961
965
968
979
985
993
1004
1028
1059
1093
1121
1154
1191
1229
1263
1291
1312
1319
1310
1293
1258
1208
1151
1107
1070
1044
1025
1014
1008
1003
997
996
991
987
981
976
969
968
967
967
967
961
958
960
960
961
959
956
952
953
953
956
954
949
948
946
948
947
945
942
940
941
943
944
944
941
941
941
943
944
943
941
940
940
942
942
943
940
936
938
941
945
943
941
939
941
941
944
942
942
943
946
948
950
952
952
956
957
962
967
968
967
968
971
972
978
981
977
983
986
988
992
991
988
984
985
987
985
986
982
982
987
989
991
988
986
984
986
987
987
987
983
984
986
987
982
982
982
979
982
983
980
981
974
970
973
974
977
973
970
968
968
972
972
971
965
963
961
963
967
967
965
961
963
960
963
962
961
959
960
962
960
959
955
954
956
956
958
958
954
961
963
967
970
968
966
965
967
969
971
972
970
967
969
972
974
972
972
971
970
973
976
976
974
973
973
976
979
979
977
977
982
983
986
988
987
983
986
991
992
992
991
991
992
999
1002
1004
1003
1011
1022
1036
1056
1084
1111
1144
1180
1223
1261
1296
1323
1347
1360
1356
1332
1285
1226
1163
1114
1075
1040
1014
996
992
991
989
986
979
971
966
962
963
961
956
952
946
949
950
952
948
947
946
949
949
949
951
948
944
947
949
948
949
943
942
944
948
949
946
943
942
941
946
944
944
943
941
944
946
945
946
943
941
938
941
944
941
938
935
937
938
941
939
936
934
938
940
942
939
942
941
945
946
947
945
942
941
944
948
951
949
949
949
951
957
960
962
961
959
960
967
969
967
965
963
965
965
971
966
965
961
962
966
965
963
960
961
966
964
969
968
966
964
966
968
971
968
964
964
967
970
968
969
964
965
968
972
974
971
970
967
970
972
974
970
968
966
967
968
973
969
968
964
964
967
970
969
964
963
963
967
968
968
964
962
964
965
963
964
962
958
958
960
963
963
959
957
957
963
966
962
961
957
960
964
965
965
965
964
967
973
977
986
987
997
1017
1043
1073
1104
1134
1167
1203
1243
1274
1301
1318
1328
1324
1314
1288
1244
1190
1140
1101
1074
1049
1027
1016
1004
1002
1004
1002
993
983
980
974
973
969
970
961
962
959
959
956
956
951
946
950
951
949
948
945
942
943
944
943
939
939
937
942
943
941
936
937
936
938
938
940
938
933
934
935
938
938
938
934
931
930
935
936
935
931
930
931
932
933
928
929
927
928
934
933
929
928
928
933
937
937
937
935
935
936
941
944
944
945
943
947
952
957
959
959
959
962
966
969
965
963
961
963
968
970
965
961
958
959
960
959
958
957
957
958
960
960
957
952
952
952
958
956
953
955
953
954
961
960
960
957
953
951
954
957
957
953
953
952
956
955
956
953
950
950
954
955
952
947
944
943
949
947
947
944
944
945
946
951
950
945
947
947
952
953
954
950
950
953
954
956
956
955
954
955
959
959
960
957
956
957
960
962
961
959
960
960
963
964
964
960
958
958
960
962
965
961
960
960
962
965
965
960
960
962
966
966
965
962
962
968
973
973
974
974
979
983
994
1008
1029
1053
1078
1116
1155
1191
1224
1253
1281
1302
1313
1304
1275
1232
1173
1121
1081
1052
1023
1000
992
989
986
987
982
975
971
967
969
963
962
959
952
957
958
958
956
953
948
949
955
955
953
950
948
951
952
954
952
947
946
950
949
950
951
948
947
948
949
951
950
947
946
946
951
950
949
947
946
946
946
949
947
945
943
943
945
946
946
944
942
944
946
946
947
943
942
943
945
947
946
947
944
947
950
953
955
954
953
954
960
962
964
965
966
967
969
971
972
970
970
971
973
976
977
975
977
979
979
982
977
975
973
977
980
980
977
974
974
975
978
977
977
975
971
973
977
978
976
973
973
975
979
978
972
974
973
974
975
979
977
972
970
973
975
976
973
972
970
970
971
972
973
969
969
969
968
970
971
968
964
967
968
968
968
962
963
962
966
968
966
966
960
962
964
968
963
962
961
963
968
971
974
974
978
985
991
1002
1019
1040
1065
1094
1129
1166
1203
1234
1260
1287
1310
1311
1299
1268
1218
1169
1128
1088
1061
1029
1011
1006
1005
1005
1004
995
986
982
983
979
972
973
968
967
968
966
962
959
955
959
958
958
955
953
951
952
954
953
951
948
947
949
950
950
951
947
944
944
948
947
944
941
941
942
944
947
944
940
941
943
947
946
944
942
939
943
944
948
946
941
944
946
951
956
956
953
949
951
953
955
956
956
955
955
957
963
962
962
964
968
972
977
977
975
977
979
981
982
982
978
974
977
981
983
980
978
978
978
978
980
978
977
972
969
972
976
974
968
969
971
973
969
971
967
964
966
968
967
969
963
961
962
965
968
965
964
961
959
963
967
969
965
962
962
966
967
966
961
962
963
966
970
967
963
964
966
973
975
972
967
965
968
973
978
978
974
972
975
977
976
979
978
976
978
981
985
985
984
987
993
1001
1009
1019
1033
1054
1083
1119
1154
1189
1221
1254
1285
1314
1335
1338
1318
1278
1231
1180
1130
1085
1043
1007
992
990
993
995
987
984
978
975
974
970
964
960
959
954
958
957
951
948
949
950
949
945
945
937
940
941
942
943
940
940
940
945
948
950
945
946
947
948
953
952
951
949
953
956
957
960
955
954
954
959
963
960
958
954
956
958
960
958
958
959
961
961
965
966
965
962
961
965
968
966
962
964
963
966
972
973
972
971
974
977
980
978
976
973
975
977
977
974
968
966
967
967
968
964
958
956
956
961
962
960
953
953
953
956
958
958
954
949
952
956
958
959
958
960
960
967
974
974
970
970
972
976
976
976
975
973
980
980
982
981
978
975
977
980
982
980
979
978
977
981
982
982
978
976
976
978
980
980
978
976
978
979
983
980
976
973
974
976
976
976
973
971
971
972
974
973
970
966
968
969
974
971
967
966
970
971
970
970
967
965
967
967
970
967
963
962
960
962
964
962
958
955
953
959
961
963
960
961
963
966
969
969
967
967
971
975
978
978
975
975
976
983
985
986
988
992
1004
1019
1038
1066
1096
1133
1169
1206
1250
1278
1313
1340
1365
1380
1374
1344
1298
1237
1179
1130
1091
1054
1024
1011
1009
1006
1004
999
989
980
981
978
977
970
966
965
964
965
965
961
956
954
955
956
958
955
952
949
950
953
956
955
950
947
949
953
954
954
948
949
950
952
953
952
949
948
948
950
951
951
946
945
946
949
952
949
945
946
945
950
951
948
949
947
947
946
948
944
944
941
943
946
948
946
945
945
945
950
952
954
951
952
958
960
965
965
964
966
968
973
973
973
969
970
970
972
971
969
964
963
964
966
966
966
963
962
963
968
968
966
962
963
964
966
967
965
961
958
963
963
966
965
966
962
964
967
969
968
970
966
964
969
971
972
969
970
969
971
974
973
968
967
968
968
972
970
968
965
966
967
970
968
964
962
959
961
961
963
962
959
961
963
964
962
960
959
958
963
965
962
959
957
957
959
959
960
958
958
957
959
961
960
959
956
958
962
962
960
958
956
959
964
964
963
959
957
961
964
966
962
960
959
961
965
964
962
958
958
960
963
966
961
959
957
963
964
965
964
957
958
960
962
963
961
961
960
960
962
962
960
960
957
960
962
965
963
963
962
963
962
964
965
960
960
962
965
966
964
960
959
960
967
966
968
965
961
966
966
964
966
965
965
966
968
963
967
965
965
965
966
971
968
966
964
966
966
970
969
966
965
966
967
970
970
967
965
967
970
972
969
967
966
967
968
974
972
970
969
970
973
974
969
970
968
970
973
973
973
971
969
972
973
975
974
971
966
972
973
975
974
972
969
973
977
977
975
972
970
970
972
974
970
973
972
973
976
975
975
974
972
974
974
976
976
975
971
975
977
978
976
973
974
976
977
980
978
977
974
975
978
979
981
976
975
976
979
980
978
979
975
977
980
982
983
981
984
987
991
993
993
989
988
988
991
994
993
992
991
989
991
992
990
988
988
986
992
993
990
988
982
981
983
984
984
980
980
978
979
981
980
977
977
974
977
979
980
976
976
977
979
982
981
979
977
977
980
981
982
979
978
980
985
986
987
983
981
984
988
994
996
998
1003
1012
1024
1045
1068
1097
1126
1163
1201
1233
1263
1291
1318
1334
1331
1309
1272
1221
1170
1125
1087
1052
1028
1007
1001
999
1001
1001
992
987
980
977
977
976
972
967
962
965
969
969
966
961
962
959
960
964
960
959
956
959
960
962
962
958
954
955
960
961
960
957
956
957
957
962
962
957
960
964
967
965
967
965
964
965
966
970
971
969
968
971
974
975
975
974
975
977
979
980
981
979
980
984
986
991
989
987
988
989
993
992
996
996
997
999
1003
1006
1008
1001
1005
1005
1007
1009
1005
1003
998
999
999
1001
996
994
985
985
988
988
985
984
980
977
980
982
980
977
975
977
979
978
977
973
969
972
974
977
975
972
973
974
975
978
976
974
972
973
977
980
977
975
975
976
977
983
979
973
973
978
978
982
980
977
975
976
978
981
978
976
975
977
980
980
976
975
975
975
974
979
978
973
974
977
975
976
975
971
972
973
973
973
974
971
971
972
974
974
973
969
967
968
972
973
973
972
969
970
971
972
973
971
968
969
969
971
969
970
966
967
968
971
971
968
968
966
966
971
971
968
966
968
969
973
973
969
968
968
973
974
972
968
965
967
970
972
972
969
968
970
971
972
972
970
966
966
971
973
973
970
969
967
973
973
972
968
967
970
973
975
974
971
971
970
974
977
974
973
970
972
977
978
975
970
967
972
974
975
977
974
973
971
974
972
976
972
972
974
976
975
974
971
973
973
978
977
973
975
973
975
978
977
976
975
973
975
975
978
978
974
975
976
976
977
977
976
976
977
977
979
981
978
975
977
980
985
979
979
977
980
981
985
984
981
980
983
987
987
984
983
984
988
992
992
993
991
992
995
997
997
999
999
999
1000
1006
1003
1003
1002
998
999
1001
1005
1005
999
999
994
997
998
992
988
986
984
987
988
987
981
979
982
986
990
990
986
983
982
988
989
986
983
982
981
986
988
986
982
983
986
988
993
991
989
985
990
995
996
999
993
997
1005
1013
1017
1026
1037
1051
1076
1113
1150
1190
1225
1258
1295
1331
1359
1370
1367
1343
1304
1256
1201
1147
1097
1054
1024
1008
1004
1006
1002
1000
997
995
990
987
982
979
977
