985
988
989
990
990
989
988
991
994
994
995
994
992
996
995
992
991
992
993
993
993
992
988
987
988
991
994
992
989
987
987
987
995
989
989
988
988
988
991
989
987
988
986
988
992
989
989
988
987
991
989
988
986
985
988
990
992
986
983
983
983
990
994
993
993
993
994
995
998
999
999
997
996
997
994
995
994
991
988
992
995
994
991
988
989
991
990
989
986
988
985
987
986
990
986
982
981
983
985
988
988
987
982
985
988
986
987
987
986
988
988
987
989
988
989
991
994
994
992
990
990
991
992
991
990
988
988
989
991
991
990
992
991
992
991
990
991
991
993
997
1002
1000
996
992
994
996
999
1003
1012
1027
1046
1071
1096
1117
1136
1163
1185
1206
1215
1214
1205
1194
1178
1156
1124
1079
1040
1017
1008
1000
992
984
978
977
976
976
977
975
971
966
963
966
968
967
963
959
955
955
958
957
953
950
950
951
950
949
948
948
948
950
953
953
952
950
950
952
953
955
954
951
949
953
956
956
954
955
953
954
956
958
953
954
956
955
959
959
960
957
960
962
966
967
965
964
966
967
972
969
968
965
964
969
970
972
971
967
966
968
974
975
978
974
975
978
981
981
983
983
982
982
987
986
987
988
986
989
994
992
993
993
993
994
997
997
992
992
991
996
999
998
995
992
994
998
1001
1002
999
998
997
999
1004
1002
998
996
996
994
994
993
991
991
989
990
989
989
992
991
989
992
992
990
985
985
983
987
991
993
991
990
992
995
998
999
997
994
994
997
1000
1001
998
997
994
998
1000
999
999
996
996
1001
999
1000
997
994
996
997
998
997
994
992
992
996
997
994
990
987
987
988
990
988
984
983
984
985
989
989
987
984
983
986
988
990
989
987
986
988
995
996
993
993
993
997
1000
1001
994
993
999
1002
1003
1002
1001
999
999
1004
1007
1010
1006
1002
1001
1002
1005
1011
1016
1030
1049
1073
1095
1111
1131
1151
1176
1199
1215
1217
1209
1194
1181
1164
1141
1103
1060
1028
1010
1005
999
987
978
975
969
969
970
973
970
969
968
969
970
968
968
965
965
964
963
964
964
961
959
963
966
967
965
962
962
961
967
966
963
960
959
961
964
963
962
957
958
957
961
955
957
955
956
956
957
957
954
953
954
956
958
956
952
952
952
956
960
959
960
961
958
965
969
972
969
969
969
971
974
976
976
978
980
983
986
988
991
992
995
1000
1003
1001
999
1001
1001
1004
1006
1006
1000
1000
997
998
1000
1002
999
996
995
996
997
996
995
995
993
993
995
994
992
990
992
991
994
992
990
991
992
997
998
998
996
993
994
995
1000
999
997
997
996
1000
1000
1001
1002
1001
1000
1001
1005
1006
1006
1004
1000
1002
1003
1003
1003
1000
997
996
998
997
995
994
992
994
996
997
995
996
993
996
995
995
993
992
992
997
1000
1000
1000
997
995
999
1003
1002
1002
999
999
1001
1003
1004
1004
1001
1003
1005
1007
1008
1006
1004
1003
1005
1005
1006
1001
1001
1001
1004
1003
1000
996
993
990
995
997
998
993
991
990
993
998
998
996
994
994
995
994
997
996
994
991
994
996
997
1007
1017
1037
1061
1085
1108
1127
1147
1173
1199
1217
1230
1228
1219
1206
1196
1174
1141
1098
1059
1036
1025
1018
1007
999
992
987
988
987
983
978
975
974
973
973
971
966
965
964
966
968
967
962
959
958
961
963
964
960
957
955
956
958
957
956
958
957
956
961
956
957
954
956
959
962
959
959
957
957
956
961
963
962
959
960
963
966
967
967
963
961
964
969
968
970
966
966
968
971
967
967
966
967
967
972
975
973
971
972
974
981
982
980
975
976
984
986
990
988
986
988
991
993
994
995
993
991
992
995
997
995
995
993
997
994
997
998
995
994
996
1003
1002
1000
997
994
999
1001
1003
998
997
994
993
993
997
996
993
993
994
995
995
992
991
991
992
994
995
996
993
994
994
996
996
992
989
989
993
997
997
996
993
994
995
997
999
998
994
994
994
998
999
997
995
994
999
998
1000
998
997
994
997
995
998
993
992
993
994
996
992
991
985
988
989
992
991
990
988
986
988
990
992
990
987
986
988
988
990
992
991
990
987
992
995
992
989
988
990
993
994
992
992
989
992
996
997
997
995
994
994
997
997
993
992
993
995
997
996
991
989
988
989
991
991
990
986
987
988
994
994
995
992
991
995
997
995
992
989
994
1008
1030
1051
1077
1100
1122
1147
1177
1201
1216
1219
1214
1203
1186
1159
1118
1070
1033
1016
1008
999
991
984
979
980
981
973
974
970
968
968
966
964
960
954
954
955
957
955
952
950
951
953
954
955
953
947
946
948
949
950
948
947
945
947
952
954
950
946
948
952
955
957
956
953
952
956
958
956
955
957
956
959
961
961
960
959
960
965
966
964
962
958
958
959
965
965
962
962
962
968
972
970
974
975
974
978
979
981
982
979
978
981
983
984
983
982
986
986
990
987
987
986
985
991
992
990
988
987
988
990
994
994
994
990
989
992
997
994
992
990
988
988
992
990
987
986
984
985
988
989
989
985
984
985
985
985
986
983
983
983
984
985
981
980
981
983
986
985
980
978
982
985
986
989
987
984
982
985
990
992
991
989
987
991
994
993
995
994
993
993
994
994
992
990
990
988
990
990
987
986
984
986
987
983
982
983
991
1012
1036
1061
1081
1102
1128
1156
1184
1204
1214
1214
1205
1192
1176
1148
1104
1050
1011
994
991
982
970
967
964
964
964
964
961
957
957
956
954
956
954
950
949
951
951
953
950
948
943
947
947
943
944
940
940
943
942
943
940
939
938
939
940
941
938
934
933
936
938
940
937
935
931
934
939
939
941
939
939
942
945
945
945
944
942
947
953
956
954
958
957
958
965
967
967
968
969
970
973
975
975
974
974
978
975
978
976
976
977
980
982
977
980
974
973
976
979
980
977
973
974
975
980
981
980
978
976
978
982
984
984
982
978
981
985
988
988
987
984
983
988
989
987
986
985
987
988
988
986
983
981
985
985
985
982
980
979
982
982
980
979
976
977
980
979
978
977
974
976
977
981
983
980
979
979
982
981
985
981
977
977
978
981
980
982
984
986
988
988
990
989
986
985
985
984
986
985
980
982
981
980
978
980
980
980
978
979
980
976
975
975
976
976
975
972
971
969
972
971
972
973
971
971
974
977
979
977
973
974
975
977
978
979
975
974
975
976
980
981
980
981
978
982
980
982
984
982
984
987
985
983
982
978
978
979
980
977
973
974
976
978
979
975
971
972
974
976
976
973
974
969
972
972
977
978
972
973
973
975
976
974
972
973
974
978
979
981
978
979
983
986
986
983
980
980
977
978
980
984
999
1018
1045
1073
1095
1116
1136
1157
1180
1195
1197
1187
1174
1156
1133
1102
1060
1021
998
988
983
972
967
965
960
958
954
952
955
951
949
945
949
950
949
948
945
943
945
950
949
945
945
945
949
952
948
947
944
942
943
946
947
946
941
942
943
944
947
945
944
943
944
947
948
946
945
945
949
948
948
946
946
944
945
951
949
948
944
948
950
955
953
951
951
953
956
960
962
960
956
955
959
962
966
967
965
968
971
976
976
978
977
979
978
980
982
982
980
982
982
985
985
981
983
982
982
987
987
986
982
981
984
986
987
984
977
977
978
979
982
979
978
975
978
981
981
982
983
982
982
984
984
983
983
983
985
989
991
989
989
991
989
991
990
986
986
986
987
988
989
988
987
985
987
987
988
986
985
984
986
983
987
984
981
978
979
980
980
981
979
981
981
983
980
978
979
978
983
985
985
981
982
982
982
986
987
988
985
984
985
988
986
989
984
985
983
984
983
981
979
979
981
981
980
977
977
979
982
984
985
983
980
981
982
987
986
984
979
977
978
978
979
976
976
979
980
983
984
981
981
979
983
985
985
983
978
978
983
985
983
985
983
983
984
987
989
988
986
984
988
987
988
989
987
985
986
986
985
986
995
1012
1031
1056
1076
1095
1114
1135
1158
1181
1196
1205
1199
1191
1181
1168
1147
1116
1072
1033
1008
1000
993
980
972
967
967
970
969
964
960
957
956
958
958
956
953
951
951
953
952
952
953
954
953
954
954
951
946
947
950
951
952
949
945
944
945
947
948
945
942
939
940
944
947
946
943
943
944
946
946
952
947
948
948
949
949
947
947
947
949
951
952
952
951
950
951
955
957
958
955
954
955
958
958
959
958
960
962
965
970
969
970
973
971
976
976
978
978
977
978
982
980
981
979
976
979
979
982
980
981
982
982
985
986
983
987
985
984
987
986
987
986
983
984
985
986
987
984
983
985
987
988
987
983
984
987
987
988
990
988
986
987
990
992
994
990
991
991
992
993
991
989
985
986
987
987
985
985
982
984
984
983
982
982
980
986
987
989
986
985
984
986
988
989
990
986
984
986
989
991
991
989
988
989
991
992
992
990
986
986
989
992
992
993
990
994
994
992
992
989
989
990
993
993
992
987
982
988
990
987
984
982
978
980
981
984
983
981
978
980
980
981
981
980
981
982
983
984
982
982
980
985
989
989
986
986
985
988
990
993
993
988
991
988
991
992
993
990
990
992
991
994
993
994
994
995
997
999
1000
998
996
996
999
1001
1000
997
994
993
994
993
989
988
997
1007
1027
1046
1064
1082
1101
1125
1150
1174
1191
1202
1203
1202
1196
1189
1172
1152
1120
1081
1046
1026
1014
1004
996
987
984
979
979
974
973
974
974
974
973
969
965
968
970
972
970
966
966
966
970
969
968
966
966
965
967
964
965
961
960
960
959
960
958
955
952
951
955
959
953
952
950
953
954
954
953
952
952
953
955
954
953
952
951
954
957
958
956
954
954
957
961
962
961
959
959
960
961
963
966
965
962
964
967
968
968
971
971
972
975
978
978
978
979
983
984
988
988
984
983
984
986
988
989
989
984
988
990
992
991
991
988
991
991
989
990
990
990
991
990
991
991
989
987
989
995
996
998
994
990
993
996
999
997
994
992
994
996
996
997
996
999
999
1002
999
1001
998
999
997
1001
1000
997
994
991
993
994
992
988
986
986
988
991
992
991
988
987
987
987
991
990
988
988
988
989
991
991
993
993
994
995
995
992
993
992
996
996
997
996
996
997
996
998
1000
998
996
997
997
997
1001
998
999
997
998
999
996
997
993
990
990
991
993
989
987
988
990
989
991
994
994
992
992
993
992
994
989
994
994
994
996
996
1008
1022
1051
1074
1098
1121
1142
1165
1191
1214
1226
1229
1219
1207
1190
1168
1138
1095
1052
1031
1018
1010
1000
992
986
984
982
978
977
972
967
963
964
964
962
961
959
957
957
959
954
959
955
953
953
954
952
950
949
950
951
951
954
953
954
954
952
956
956
957
956
956
959
960
959
957
956
957
959
959
962
963
960
959
960
962
964
966
963
963
964
967
967
968
966
963
965
967
965
962
961
962
963
966
967
969
964
964
970
972
978
977
975
973
974
980
981
982
983
984
985
989
991
991
992
992
993
995
996
997
995
993
993
994
998
996
994
992
995
999
1000
1002
1000
995
995
1000
1003
1000
1000
997
996
996
995
993
991
991
990
993
992
989
989
988
990
992
994
992
990
986
989
991
991
988
988
990
990
994
997
997
996
991
994
996
999
999
996
993
997
997
1000
1000
998
997
994
998
998
998
1000
995
996
998
1000
999
997
993
995
996
995
992
988
985
986
991
992
991
991
987
988
990
991
993
988
985
987
987
991
992
993
990
993
994
995
994
992
996
996
997
1000
995
993
997
994
998
1001
1001
998
996
996
1000
1002
1000
998
998
996
998
1000
997
996
992
991
992
992
991
989
986
988
989
991
992
986
987
988
989
991
988
984
980
985
988
991
991
988
988
991
994
998
995
993
992
992
994
996
996
995
995
993
997
996
999
999
998
999
1000
1000
1003
999
1000
1001
1004
1004
1003
998
996
999
999
999
996
995
999
1018
1039
1062
1085
1104
1120
1141
1167
1191
1204
1205
1200
1190
1181
1169
1144
1107
1065
1033
1015
1009
999
993
984
981
984
982
978
977
972
971
974
975
972
971
968
970
969
974
972
971
970
966
970
969
966
963
963
960
963
961
958
953
953
956
957
957
957
954
953
953
953
954
953
949
948
951
952
951
951
950
949
949
953
955
955
958
958
961
961
963
964
962
962
965
967
970
969
969
967
970
973
976
978
977
974
976
978
981
981
984
983
986
988
987
988
986
986
989
989
992
991
990
985
987
989
993
992
989
985
987
992
994
993
990
987
988
987
991
991
990
986
991
992
992
994
992
992
994
995
998
996
993
995
997
1001
1004
1002
999
998
1000
1004
1005
1003
1000
998
996
999
1000
998
993
992
992
993
995
996
990
989
987
990
992
993
990
989
989
991
993
994
993
992
994
995
996
992
991
991
993
992
994
992
993
994
994
991
994
997
995
995
997
999
999
998
996
995
996
998
998
996
992
990
989
989
993
989
984
983
985
987
990
990
987
981
984
984
989
991
988
986
988
991
995
996
995
994
995
999
1001
1001
1000
998
1000
1000
1002
1002
1000
1000
1003
1005
1011
1026
1043
1063
1088
1116
1140
1161
1186
1206
1222
1227
1221
1204
1184
1160
1126
1082
1046
1021
1010
998
986
981
978
976
970
965
965
964
965
963
961
962
962
962
966
965
962
962
962
964
965
963
957
960
960
966
965
965
963
961
962
962
967
966
961
962
963
961
965
966
962
960
961
962
960
959
956
954
959
959
961
960
958
954
957
960
961
963
960
958
960
962
963
962
962
960
960
962
963
964
962
964
964
968
971
972
972
976
979
981
982
983
982
984
987
991
996
997
999
994
996
998
1002
1000
1001
999
1000
999
999
997
994
994
993
994
993
994
990
991
991
994
993
993
991
987
989
990
992
988
986
985
985
989
990
990
990
990
993
994
996
994
993
995
998
999
998
998
995
998
999
1004
1001
1002
998
997
997
1002
1002
999
997
997
996
997
998
999
997
993
993
995
996
996
994
992
990
992
995
993
992
991
992
994
993
992
991
991
992
995
995
992
989
992
995
998
999
997
993
992
994
993
1000
996
995
993
995
1000
1002
1000
999
999
999
1000
1001
1001
995
997
995
996
997
997
995
993
991
995
995
994
994
994
993
996
997
995
995
992
993
996
998
994
993
990
994
997
1008
1020
1037
1059
1081
1103
1129
1148
1174
1200
1215
1223
1220
1210
1196
1175
1142
1104
1065
1035
1021
1010
998
993
991
984
979
976
975
975
975
970
968
965
968
967
970
968
965
962
963
963
964
963
960
956
957
957
954
957
956
954
954
954
956
956
953
957
957
957
958
956
956
954
957
959
963
963
960
961
961
965
968
969
967
967
966
969
970
970
969
967
966
966
965
965
963
965
969
972
972
971
970
971
971
976
980
981
980
980
982
986
984
985
984
984
987
992
992
994
996
992
993
996
999
999
997
994
995
997
1000
999
999
995
996
1001
1003
1002
1002
1001
1002
1005
1003
1002
998
998
1000
996
995
998
997
996
997
998
1000
999
997
995
997
997
998
996
995
995
992
994
997
994
994
991
993
992
998
995
992
993
995
998
999
999
993
997
994
1001
1001
1002
998
998
999
1001
1003
1002
998
997
1001
1000
1003
999
998
995
994
996
994
994
991
989
990
991
995
992
986
989
990
990
995
991
990
985
985
988
991
989
987
988
989
992
995
993
993
993
994
998
998
998
995
997
999
1001
1002
1001
1001
1001
1001
1003
1003
1001
999
999
1001
1004
1005
1006
1002
996
995
999
1008
1023
1046
1070
1097
1122
1147
1172
1196
1212
1218
1212
1202
1185
1159
1120
1077
1036
1016
1004
995
986
978
978
976
974
970
968
967
969
969
964
967
963
965
967
969
967
965
961
963
964
965
961
961
959
961
959
960
960
956
954
957
958
959
960
956
955
952
958
960
957
952
951
952
956
955
956
954
953
952
955
960
960
961
961
961
964
960
966
964
964
966
969
972
974
974
976
980
982
986
985
984
987
989
988
992
990
988
989
988
992
992
991
989
989
988
993
995
995
992
989
990
991
992
993
992
988
986
988
988
990
988
990
990
992
994
994
994
994
992
995
996
996
998
998
999
1002
1001
1001
999
997
999
999
1003
999
995
994
994
995
995
994
990
988
988
992
996
993
990
990
992
991
993
991
989
987
987
990
991
993
991
992
990
992
992
994
991
989
991
990
994
992
991
989
992
995
997
996
991
991
989
994
997
996
993
993
994
997
995
994
993
988
991
992
995
993
991
988
986
987
991
991
990
987
989
988
989
990
988
987
984
986
986
987
986
987
988
990
993
992
987
987
989
991
992
992
990
989
990
993
995
996
994
993
992
995
998
998
998
997
996
996
998
995
994
992
991
990
990
992
992
993
995
994
995
993
991
990
990
990
992
992
989
988
988
990
992
990
992
989
992
993
993
996
994
990
990
989
994
996
997
996
996
1001
1001
1003
1002
1000
1003
1011
1027
1047
1070
1094
1119
1141
1167
1191
1205
1207
1204
1193
1177
1153
1114
1067
1032
1012
1005
996
984
977
974
974
975
973
968
964
964
968
968
969
965
961
962
964
965
964
959
961
960
962
964
966
962
