998
999
1000
1000
997
997
996
1004
1002
1001
1001
1001
999
1002
1003
1001
999
996
997
998
994
994
993
990
989
992
995
995
990
987
988
994
995
993
991
990
990
991
992
990
989
989
991
994
992
993
991
992
994
994
996
997
995
997
997
997
996
994
995
993
997
999
996
997
996
996
995
1000
1000
998
996
995
997
1001
1000
998
998
995
999
999
998
993
991
990
992
995
994
992
988
984
987
988
999
1013
1031
1050
1071
1091
1114
1138
1159
1184
1204
1221
1230
1229
1221
1206
1194
1176
1149
1107
1060
1027
1013
1007
1001
990
980
977
975
977
974
972
970
971
970
971
967
968
967
961
963
965
964
958
959
956
958
960
957
955
951
950
949
949
948
948
945
947
947
949
950
948
941
943
944
948
949
949
947
945
945
946
949
950
950
950
953
954
954
952
952
954
955
959
958
954
952
953
958
960
961
961
960
960
963
964
968
970
967
970
973
971
976
974
973
975
977
978
978
978
977
978
980
984
980
982
979
979
983
984
986
984
982
978
978
980
983
981
978
977
977
981
987
986
984
985
985
986
988
985
985
984
987
990
988
989
987
989
993
996
995
992
991
991
990
992
995
993
990
987
991
990
990
987
987
986
986
987
988
986
985
984
984
986
989
986
982
982
983
984
982
984
983
986
986
992
993
991
988
987
989
988
994
991
988
989
990
992
992
991
992
990
993
992
993
993
992
992
994
994
993
989
987
988
988
990
989
984
982
982
985
987
987
985
982
980
983
985
984
983
980
980
979
984
982
982
982
980
985
986
988
984
982
985
983
986
988
989
986
985
985
987
990
989
989
988
990
991
994
992
987
991
991
994
996
992
993
991
992
991
991
993
990
987
985
988
988
989
988
986
984
984
988
993
1001
1023
1046
1068
1088
1103
1114
1139
1165
1187
1205
1214
1213
1205
1197
1190
1177
1150
1110
1067
1031
1009
1003
996
987
977
973
975
974
969
968
967
967
970
971
965
964
962
964
964
965
963
961
957
961
959
959
956
953
950
952
954
954
950
948
950
950
954
951
948
947
944
945
947
949
949
946
943
944
946
945
942
942
943
947
949
950
948
946
946
949
954
953
952
951
950
954
959
961
962
958
961
963
965
967
968
968
965
965
970
971
970
970
970
969
975
977
974
976
977
982
984
987
984
979
980
983
988
990
981
982
980
983
988
987
984
980
982
984
986
989
987
985
982
986
988
987
989
986
984
986
989
989
989
989
989
987
992
991
992
991
992
990
992
992
989
987
987
989
990
992
987
984
987
989
992
989
989
985
983
983
985
986
984
981
982
984
987
988
986
984
981
982
985
987
983
979
980
979
985
984
984
985
984
984
986
989
990
985
987
986
987
990
988
986
984
986
984
985
984
983
983
987
986
986
983
985
983
984
986
985
982
978
978
981
984
985
983
980
981
982
985
986
984
983
981
983
985
985
989
988
987
991
993
992
993
991
991
997
1007
1023
1047
1069
1093
1117
1141
1165
1188
1205
1215
1217
1208
1199
1180
1150
1107
1059
1023
1008
998
987
975
968
968
968
966
959
953
954
955
954
953
952
951
950
951
952
953
949
949
948
948
946
947
946
948
950
954
954
951
949
950
952
953
955
954
951
949
951
953
953
951
949
948
950
951
951
953
950
950
949
950
953
950
950
949
955
955
953
950
948
949
950
953
953
953
951
951
953
956
959
958
960
957
959
962
964
967
968
972
975
976
983
984
983
982
985
990
989
987
985
984
986
990
988
987
983
982
981
986
985
982
979
977
978
977
978
979
980
976
974
978
980
979
978
977
978
982
982
983
982
982
983
984
986
985
985
984
987
988
991
989
988
987
991
992
996
992
991
991
993
993
993
992
991
986
988
990
989
988
985
983
980
982
986
982
983
980
982
985
985
983
981
979
978
976
980
977
978
980
980
982
983
981
980
978
982
983
983
982
982
982
985
987
987
990
985
984
983
984
988
989
986
983
984
986
987
982
983
980
978
979
977
978
978
975
975
979
981
982
979
981
981
980
981
980
982
980
982
984
987
983
979
986
1004
1030
1057
1079
1099
1119
1144
1173
1199
1216
1220
1215
1206
1195
1176
1143
1093
1046
1017
1005
1001
988
977
971
971
972
970
963
958
954
952
954
954
950
949
945
949
949
954
951
947
945
943
945
946
948
945
940
942
945
945
945
942
944
944
942
946
945
944
943
944
946
946
949
944
946
949
951
952
951
950
949
951
955
957
956
956
953
952
957
958
956
950
948
949
951
956
956
956
953
953
956
963
962
962
962
964
963
965
966
967
969
970
975
979
976
977
976
979
980
986
983
982
981
981
982
984
985
983
981
982
984
988
988
986
985
985
984
987
986
985
985
983
984
982
981
978
975
978
981
981
981
980
981
982
985
988
986
984
976
980
985
982
983
982
981
983
987
987
986
984
983
982
983
987
984
984
983
984
986
988
987
985
986
984
986
987
985
982
980
983
984
983
980
977
974
976
979
980
980
979
976
978
982
982
981
977
977
978
978
979
978
974
973
974
977
982
981
978
974
976
980
981
980
977
975
977
980
982
983
982
978
979
981
983
983
982
978
980
983
983
982
981
979
980
981
984
982
981
980
983
983
986
979
981
988
1008
1034
1059
1086
1108
1131
1159
1189
1207
1211
1201
1186
1171
1147
1106
1058
1016
999
989
982
975
968
965
961
960
961
963
961
960
956
957
957
959
956
953
952
954
952
954
950
949
946
947
950
948
947
947
945
944
949
949
947
944
943
944
945
946
947
943
941
941
941
943
947
945
943
941
945
949
950
949
946
946
950
953
952
953
950
954
956
958
961
961
960
960
963
965
964
963
963
964
967
970
966
968
968
974
975
980
977
977
976
979
979
981
979
975
972
975
976
981
978
977
976
975
977
980
982
979
979
978
980
982
981
978
977
977
984
987
985
983
984
983
987
985
987
982
980
984
985
988
986
984
983
983
981
983
984
984
986
984
982
986
986
982
984
982
982
984
980
979
978
979
983
984
980
977
980
982
986
984
987
984
982
982
982
983
987
985
984
983
982
986
984
986
982
980
984
984
984
982
981
984
983
983
982
981
980
979
981
983
981
979
978
981
982
984
985
977
977
979
983
984
984
981
978
977
983
986
984
984
985
984
985
986
990
1000
1017
1041
1069
1097
1122
1147
1174
1199
1218
1225
1213
1195
1176
1147
1110
1062
1021
1001
993
985
979
972
969
964
959
958
956
957
956
951
949
950
952
953
952
949
944
943
943
946
945
939
938
939
943
944
942
940
938
941
942
944
943
939
938
940
941
941
943
942
944
945
948
948
947
947
949
950
956
956
957
954
952
953
954
956
954
953
953
951
957
959
959
956
955
957
957
960
961
961
960
961
965
966
965
963
967
969
973
976
977
975
973
977
980
980
978
976
975
977
981
982
980
979
980
978
982
985
986
985
983
986
985
987
987
986
985
985
985
984
986
985
985
987
987
986
983
984
983
984
986
983
981
981
977
978
979
981
981
982
982
980
983
986
987
985
983
982
986
986
986
984
982
986
985
986
986
983
983
979
982
982
981
980
979
982
983
985
984
980
979
977
982
983
984
985
980
982
979
982
982
979
979
981
981
978
978
977
974
978
980
980
980
978
975
978
979
984
982
980
978
974
980
982
980
980
978
979
982
983
983
980
984
982
981
984
979
978
975
975
978
980
975
973
975
973
979
979
976
977
979
978
981
982
980
979
980
977
982
981
980
977
978
980
982
981
982
987
997
1018
1043
1068
1092
1109
1134
1160
1190
1209
1222
1222
1214
1198
1181
1153
1113
1062
1018
1002
997
991
981
971
968
965
964
959
958
957
954
954
955
954
952
950
951
949
953
953
953
948
944
943
946
947
947
941
942
942
943
945
947
945
943
942
946
944
945
945
942
946
946
949
947
948
947
950
952
954
952
953
953
953
954
954
954
950
951
948
952
953
951
952
952
954
956
959
958
958
958
958
959
962
964
962
965
963
967
971
970
967
972
973
977
975
976
976
974
980
982
985
984
978
977
981
984
987
986
986
986
988
989
992
988
983
985
982
983
984
983
982
978
978
981
983
981
983
982
983
983
986
986
983
982
982
984
983
982
980
975
977
978
981
980
977
978
980
981
983
984
984
978
983
981
985
984
982
983
982
983
985
987
987
985
984
987
987
983
982
980
983
982
987
985
981
979
979
981
982
982
981
978
976
979
981
981
981
976
976
981
979
982
975
975
975
978
978
979
978
979
980
985
986
983
980
981
983
982
987
984
983
983
983
986
987
986
985
984
989
991
991
990
987
987
989
991
992
992
989
987
987
991
993
993
990
990
988
987
989
988
989
999
1017
1036
1062
1086
1105
1126
1149
1175
1197
1211
1212
1208
1198
1189
1171
1146
1107
1063
1024
1007
999
992
979
971
969
968
968
965
963
962
962
961
962
962
959
958
957
962
962
962
963
958
958
959
962
961
957
958
955
956
957
955
954
952
951
956
957
956
953
952
954
956
957
955
952
952
953
952
954
954
951
949
946
949
949
951
949
949
950
951
952
952
952
951
954
954
957
957
957
956
959
960
966
967
963
966
968
972
976
977
977
974
975
980
984
983
982
983
983
986
985
988
990
988
989
990
992
992
990
987
988
990
991
990
984
982
984
986
987
987
986
984
986
986
989
991
985
983
984
986
987
984
986
983
984
989
988
990
991
987
989
995
993
992
990
989
992
992
992
990
985
984
988
990
994
993
990
988
987
988
992
991
992
989
989
989
989
989
989
988
988
988
990
990
988
988
990
991
993
993
991
989
990
992
994
993
990
989
990
994
996
996
994
992
989
991
991
992
992
991
990
993
993
991
988
984
984
986
988
986
984
984
984
986
989
987
986
984
983
981
989
986
984
982
978
983
988
984
987
986
985
987
990
991
991
985
991
992
994
993
992
994
996
999
999
1000
996
996
999
1000
1001
998
995
996
1007
1025
1050
1071
1088
1104
1124
1150
1176
1200
1214
1224
1226
1214
1199
1176
1143
1097
1051
1019
1008
999
987
976
975
974
973
971
968
962
962
962
964
962
958
957
957
957
959
959
957
957
957
959
963
963
963
961
962
962
965
963
963
957
960
963
964
961
957
960
958
960
962
960
959
958
957
961
964
964
961
962
964
962
963
963
958
959
959
963
964
960
959
956
957
963
964
960
958
960
960
961
968
970
969
966
967
971
976
977
978
978
982
986
989
991
989
989
992
995
998
999
997
993
996
998
999
997
997
993
996
994
998
997
996
995
996
996
996
996
995
994
992
997
995
993
992
990
988
990
993
992
991
989
989
991
992
993
992
991
991
994
995
995
995
996
998
1002
1002
1000
998
1001
1001
1005
1006
1001
1003
998
1000
1005
1005
1006
1001
999
998
999
1000
998
995
996
998
997
999
998
993
994
996
998
997
996
992
991
992
994
996
996
993
993
990
993
997
995
996
994
992
994
995
994
990
991
988
992
995
994
993
996
996
1003
1003
1001
1001
999
1001
1002
1006
1005
1004
998
1002
1002
1002
1002
1001
998
997
995
998
998
994
995
995
997
1000
995
997
994
994
997
997
996
993
992
993
994
997
997
997
995
994
996
999
999
999
996
996
999
998
998
997
996
998
999
1002
1001
1000
997
994
995
997
996
993
989
992
994
997
997
998
998
994
998
999
999
995
998
997
1000
1000
998
994
992
992
995
999
999
999
994
991
992
994
993
993
994
993
994
996
998
997
996
997
999
999
999
995
994
996
996
1002
999
1001
996
999
1000
1003
1005
1001
1003
1004
1002
1007
1005
1004
1000
1000
1002
1002
999
998
996
995
998
1000
1000
998
1000
1006
1023
1043
1063
1081
1099
1115
1132
1155
1173
1188
1199
1203
1201
1193
1182
1171
1149
1120
1083
1047
1022
1009
1004
995
990
984
983
979
978
978
977
974
976
973
971
972
975
977
975
975
971
971
970
972
974
972
967
967
966
964
962
960
958
957
960
960
958
955
957
960
963
965
964
961
961
961
964
968
966
961
962
962
961
964
962
960
958
962
964
965
965
962
961
964
967
970
970
967
967
965
969
971
972
970
970
971
970
975
974
975
974
974
979
983
981
979
978
978
985
986
986
984
981
981
983
984
985
982
982
983
985
986
987
991
990
991
996
999
997
995
992
994
995
1000
997
992
992
991
994
998
999
997
995
995
997
999
999
999
994
995
997
998
999
996
992
994
998
1003
1003
1003
1000
1000
1005
1005
1001
996
995
993
995
995
994
991
988
989
990
994
996
995
990
992
994
995
996
994
992
993
994
996
995
992
990
989
996
997
994
992
992
991
998
998
995
994
994
995
996
1000
1000
999
997
996
999
1003
1004
997
999
996
999
999
999
997
992
989
990
989
988
986
987
986
987
989
991
991
990
993
994
995
994
992
991
993
991
992
994
1000
1016
1038
1066
1093
1117
1139
1164
1193
1216
1230
1233
1221
1204
1185
1155
1115
1062
1027
1013
1004
996
991
987
984
981
978
977
973
971
966
962
962
962
961
962
961
957
955
959
956
958
953
952
950
954
955
953
951
948
949
951
956
957
956
952
952
951
954
954
953
953
954
955
951
953
954
953
954
955
961
962
959
959
960
964
967
966
964
962
962
964
968
965
965
961
961
959
961
960
959
958
958
963
966
968
968
968
971
975
978
979
976
975
976
979
983
983
982
979
982
985
990
990
989
986
988
988
991
986
990
986
986
992
992
993
991
988
990
992
995
994
993
991
989
993
992
995
993
991
989
990
988
985
982
982
984
984
986
984
984
982
983
987
990
990
989
983
984
987
989
990
988
988
986
986
988
990
989
989
988
989
991
989
987
987
988
992
992
991
988
987
988
991
995
996
995
991
990
993
994
995
993
989
990
990
989
985
985
980
979
977
980
978
980
982
983
982
986
984
986
984
983
984
985
986
983
984
982
987
988
989
985
982
985
988
991
990
989
985
987
990
991
992
994
992
992
994
997
997
996
997
995
998
1001
1001
1000
995
994
993
996
1007
1020
1045
1072
1099
1123
1149
1175
1197
1212
1217
1209
1196
1174
1147
1104
1055
1021
1000
994
980
973
971
972
973
968
963
962
963
963
965
961
960
956
962
963
965
963
962
958
960
960
962
962
956
960
958
960
958
950
949
949
952
954
954
952
950
949
956
955
955
952
952
952
951
953
955
953
947
949
951
955
955
954
952
951
956
960
960
959
957
954
957
962
963
963
962
964
968
972
976
978
975
977
981
982
982
982
980
980
981
984
984
985
983
985
989
991
990
988
986
986
986
987
988
983
983
983
985
985
985
984
983
985
987
989
987
987
984
985
985
989
987
988
986
985
989
993
994
995
992
994
996
997
994
993
992
993
991
994
991
989
986
985
988
993
994
988
988
989
987
992
994
990
990
986
987
988
990
989
983
982
982
986
988
987
985
982
985
989
989
986
986
989
990
992
992
989
988
988
993
995
994
991
988
990
992
994
993
991
988
987
987
988
987
983
979
979
983
987
990
988
987
985
986
989
990
987
985
983
984
988
987
983
982
983
988
988
989
985
987
988
988
990
992
989
985
984
987
991
990
991
988
990
992
996
997
996
996
994
994
996
996
998
1010
1033
1059
1084
1109
1131
1156
1185
1207
1218
1208
1195
1180
1156
1120
1072
1023
1002
991
984
978
972
969
967
965
965
962
964
963
958
958
956
958
960
958
958
954
955
956
961
960
958
956
954
957
959
960
959
955
954
954
953
953
949
946
944
943
947
946
946
947
948
950
955
953
953
952
952
950
954
953
953
951
952
955
957
958
958
956
956
960
962
962
960
958
960
961
968
970
970
970
972
977
982
982
983
980
979
983
988
989
987
984
984
981
981
980
979
978
979
976
979
980
983
984
983
986
984
983
982
981
982
984
984
984
982
979
981
982
985
984
982
981
983
986
986
988
985
984
985
986
990
990
989
989
990
990
992
993
990
991
989
988
990
988
986
981
979
977
979
979
977
975
974
977
982
981
979
977
979
980
985
984
985
981
980
984
984
984
987
984
984
984
984
986
985
984
984
983
987
987
985
984
986
989
990
987
984
985
988
987
992
992
988
986
987
988
991
991
989
983
983
983
985
984
981
981
983
995
1015
1039
1063
1088
1113
1139
1167
1190
1202
1210
1206
1195
1183
1164
1129
1080
1038
1012
1003
995
983
972
966
969
971
971
964
959
960
960
962
962
958
957
953
956
958
957
957
954
951
951
953
950
948
945
943
944
944
944
942
940
940
942
944
941
939
938
937
939
937
937
939
939
941
943
946
943
940
942
943
948
950
949
946
944
947
952
956
955
955
953
952
958
962
962
963
962
965
965
970
967
968
968
966
970
974
974
972
972
967
970
974
975
975
972
971
970
972
972
970
971
970
972
979
977
974
973
974
979
980
979
977
977
977
982
986
985
979
983
983
986
989
986
985
982
982
985
988
987
984
981
976
980
981
982
980
978
977
976
979
980
978
976
971
975
976
973
971
970
