982
981
983
983
983
986
982
980
983
984
987
983
979
981
986
989
989
986
985
984
985
987
989
986
983
982
981
988
988
989
987
989
984
991
992
989
986
984
983
987
987
982
983
980
980
981
981
982
979
980
982
981
983
981
980
979
983
985
984
984
981
982
984
986
985
986
981
985
986
991
992
992
993
992
995
998
997
993
990
989
991
991
992
989
985
984
987
989
991
988
984
984
988
988
989
990
987
987
988
987
987
983
983
994
1020
1047
1072
1098
1119
1146
1179
1203
1217
1216
1204
1189
1172
1140
1095
1042
1005
996
990
984
979
975
973
968
973
973
975
972
967
965
967
971
970
969
964
961
959
962
963
963
960
959
959
962
957
957
955
957
957
955
960
954
953
954
954
960
956
955
952
951
952
957
957
955
957
957
958
962
962
960
956
955
959
963
966
967
967
968
973
976
976
978
977
978
981
986
987
987
987
988
990
991
992
992
992
992
993
992
993
993
989
993
995
997
996
995
992
993
995
999
999
996
992
989
990
991
993
993
992
989
990
992
993
992
990
988
991
993
988
990
990
989
990
993
993
992
991
989
988
993
1000
995
998
997
999
1001
1001
999
999
999
1002
1001
1002
1000
998
997
997
998
1001
998
995
998
999
1001
1001
1001
998
997
996
997
1000
998
994
993
993
994
997
996
995
991
993
995
994
989
987
986
989
994
994
991
989
991
991
995
996
995
993
992
995
996
996
995
993
992
994
996
995
992
989
989
995
1000
1003
1003
1002
999
1000
1000
999
999
997
996
996
1000
999
998
999
998
999
1000
1001
1001
997
998
1000
1000
1001
997
993
990
993
994
996
997
995
993
996
996
997
998
1001
1013
1035
1063
1089
1112
1133
1156
1188
1215
1233
1239
1233
1219
1202
1180
1139
1088
1044
1019
1013
1006
994
985
979
980
978
978
973
974
969
966
970
971
970
969
966
965
965
966
966
962
961
961
961
962
963
961
956
956
957
958
961
960
953
954
954
956
956
954
950
951
953
956
959
957
954
951
955
956
958
956
958
956
959
961
962
961
959
960
959
964
964
965
965
968
966
968
973
970
968
970
973
974
978
977
973
976
977
983
983
984
983
984
987
991
989
989
989
991
994
997
995
992
990
991
992
997
996
996
995
992
992
993
996
996
991
990
992
995
994
990
988
988
987
989
990
989
984
982
983
985
984
982
980
982
984
988
987
987
985
985
985
989
992
989
987
987
988
990
989
990
986
991
990
992
993
995
992
990
989
992
993
993
988
988
989
991
992
990
986
986
986
988
989
986
983
983
983
985
986
986
983
983
983
986
987
985
982
981
983
987
988
986
986
988
992
994
993
992
991
990
989
994
995
990
987
986
985
990
991
993
988
986
986
986
989
986
984
979
980
982
983
980
978
978
979
983
984
980
981
979
982
984
986
985
984
981
984
984
984
983
981
982
982
984
983
984
980
981
980
985
985
980
979
977
976
982
987
985
984
984
984
986
985
984
983
979
981
985
985
986
982
979
979
980
981
983
985
982
984
984
987
985
983
980
984
987
987
984
980
982
985
987
989
986
981
980
981
984
984
983
981
980
980
985
998
1016
1039
1064
1088
1113
1139
1164
1187
1199
1202
1200
1192
1177
1153
1119
1078
1036
1015
1002
989
977
969
968
971
969
963
959
957
957
961
957
954
951
951
954
953
953
951
949
948
951
949
948
943
940
941
945
946
942
939
942
942
944
944
943
939
938
939
940
945
943
939
939
940
943
942
940
937
936
935
941
939
941
938
937
939
942
940
941
941
940
940
942
947
946
941
941
946
944
948
950
952
953
953
958
961
961
962
961
961
964
965
964
964
967
970
974
972
972
972
973
974
975
975
972
968
970
970
976
979
976
974
975
978
976
978
973
971
970
973
977
976
974
974
973
974
975
975
976
974
969
969
973
972
973
973
969
970
970
969
969
970
967
966
964
968
968
967
968
969
973
976
973
971
971
974
976
976
975
974
971
973
972
970
971
975
978
979
982
982
978
976
977
977
980
979
974
974
973
975
974
975
971
969
969
971
970
969
967
965
964
964
967
972
968
966
964
964
967
968
969
967
966
970
969
967
969
966
967
968
973
975
975
975
974
976
979
980
981
979
979
979
980
976
973
974
970
968
971
970
972
970
968
970
970
974
973
973
972
974
977
977
976
972
971
974
971
976
975
973
975
976
980
980
978
979
979
979
981
981
979
977
977
974
979
985
997
1011
1029
1046
1065
1083
1102
1123
1147
1165
1177
1185
1182
1170
1157
1139
1115
1074
1032
997
982
980
976
969
962
963
962
963
962
959
956
956
955
957
961
961
959
956
951
952
951
955
951
950
947
947
949
948
950
947
944
947
950
951
946
945
947
945
946
947
946
944
944
945
946
948
948
947
946
947
949
948
946
942
942
945
947
952
952
953
952
956
962
963
962
961
960
963
965
964
966
964
964
968
971
973
973
970
970
973
976
979
978
979
979
984
986
988
990
985
984
981
984
985
986
983
981
984
982
987
985
986
982
985
987
988
986
986
983
985
986
987
987
983
982
983
987
985
985
983
984
989
990
993
995
994
993
994
996
996
995
993
992
994
995
995
994
990
993
994
996
998
998
996
997
999
1001
1002
1002
998
998
999
1000
1000
998
997
998
995
998
1000
1000
997
994
995
998
999
998
995
992
994
1000
1002
997
994
993
991
992
997
996
993
989
990
993
993
995
993
993
996
999
1002
1001
1000
998
998
998
1002
1001
1000
998
1001
1004
1005
1004
1001
1002
1001
1003
1006
1005
1002
1000
999
1005
1005
1004
1001
1001
1001
1002
1003
1004
1003
1003
1003
1006
1008
1007
1002
1003
1005
1006
1014
1026
1045
1068
1091
1118
1141
1163
1187
1208
1227
1242
1241
1229
1209
1186
1152
1107
1066
1035
1022
1014
1007
1000
995
992
987
983
982
986
985
981
982
980
975
977
979
977
974
973
972
974
974
972
971
970
971
973
974
972
968
967
967
968
969
967
965
962
963
967
967
965
961
959
957
959
960
960
955
957
957
958
963
965
960
964
967
967
972
972
972
972
972
976
979
979
978
976
979
981
983
985
984
984
987
991
995
994
995
993
996
997
1004
1002
1002
999
1000
1001
1005
1005
1003
1001
1000
1006
1007
1005
1002
999
999
996
1000
996
998
998
996
998
997
999
1000
999
1000
1003
1005
1004
1003
1003
1006
1008
1012
1011
1008
1006
1006
1008
1011
1010
1007
1004
1006
1007
1010
1008
1000
1000
1000
1001
1005
1006
1003
1000
998
1003
1008
1005
1003
1001
999
1000
1001
1002
1000
996
1001
1002
1002
1002
1001
1002
1002
1007
1005
1004
1005
1004
1006
1005
1008
1009
1007
1006
1005
1009
1011
1014
1009
1008
1007
1008
1010
1010
1009
1007
1006
1008
1009
1008
1005
1002
1000
1005
1006
1006
1002
1001
1001
1001
1003
1006
1003
1002
1000
1005
1009
1007
1005
1002
1000
1004
1004
1004
1003
1002
1005
1006
1006
1004
1004
1012
1031
1057
1085
1112
1132
1157
1186
1215
1237
1246
1245
1228
1212
1190
1153
1109
1061
1032
1020
1016
1006
1000
993
992
990
988
990
984
980
980
978
980
982
980
977
972
973
970
972
970
967
962
960
963
966
962
960
959
958
958
961
959
958
954
957
960
965
963
963
963
968
967
971
974
972
970
970
973
975
971
970
969
969
971
972
974
969
971
973
975
980
974
974
973
974
976
977
977
976
977
981
986
989
989
989
987
990
996
1000
999
997
998
1001
1003
1007
1004
1003
1003
1002
1004
1004
1004
1000
996
997
998
1001
997
997
997
995
995
995
996
990
988
992
995
996
997
998
996
998
998
1002
1003
1000
998
999
1001
1001
1001
999
997
999
997
1000
999
996
999
998
1001
1001
999
994
992
993
995
996
996
993
990
990
991
992
993
992
989
990
989
989
992
990
989
990
993
996
999
996
996
996
999
1000
1003
1002
1003
1002
1003
1008
1005
1003
999
999
999
1000
998
997
994
993
993
995
992
990
990
989
992
996
996
994
994
995
1000
999
1002
1000
997
997
998
998
997
992
992
990
992
994
992
992
991
993
995
997
994
992
996
1012
1037
1063
1085
1105
1129
1154
1186
1213
1232
1237
1232
1222
1212
1194
1167
1123
1077
1039
1025
1017
1007
992
983
981
981
980
976
972
970
968
969
971
965
959
958
957
958
955
954
952
950
951
951
951
952
946
947
949
954
954
952
951
948
953
953
955
954
955
953
957
957
960
960
958
958
957
960
961
958
955
956
955
958
962
963
962
959
956
963
962
962
961
958
957
959
962
963
964
963
966
970
974
976
973
973
974
976
980
980
980
981
982
985
987
987
985
983
986
989
989
987
984
984
985
986
989
989
984
984
985
991
988
988
985
984
983
987
987
986
983
982
981
985
986
988
987
982
985
988
989
991
988
987
987
990
992
992
991
989
989
991
994
994
989
987
985
987
990
991
988
988
985
988
984
981
980
978
979
981
981
982
982
982
981
984
990
984
982
985
986
989
991
988
987
985
988
991
992
994
991
991
990
991
992
995
993
990
990
991
990
990
987
986
987
988
991
989
988
983
983
989
986
988
987
983
984
987
992
990
991
992
991
992
994
999
996
995
992
998
1000
1000
995
993
994
1002
1018
1039
1061
1082
1103
1131
1158
1184
1201
1214
1217
1210
1201
1180
1148
1105
1055
1023
1011
1003
993
980
975
979
978
977
970
969
967
968
967
967
964
965
966
967
968
967
963
961
961
959
961
959
956
953
954
953
952
953
952
947
947
952
954
952
951
950
950
952
956
956
955
954
955
957
962
962
961
962
963
967
968
968
967
965
964
967
969
969
968
968
968
973
975
976
974
976
975
982
986
985
985
984
984
991
990
991
990
988
988
990
994
994
987
989
986
989
990
991
990
989
988
991
993
991
991
987
990
994
996
993
993
993
991
994
998
996
994
995
994
997
997
996
997
995
995
996
997
996
993
994
994
995
998
995
992
996
994
999
1001
999
999
997
999
999
1001
999
997
995
995
996
1000
997
997
998
996
1001
1002
1002
1000
997
996
999
1002
1004
1000
1000
1001
1002
1006
1003
1003
999
997
1000
1002
1002
1000
996
995
998
1001
1000
998
998
999
999
1002
1004
1001
999
999
1001
1003
1004
1000
995
998
998
1001
998
998
991
994
993
997
1001
1001
1000
1000
1002
1004
1003
1001
999
1002
1012
1031
1048
1069
1091
1111
1133
1156
1182
1207
1230
1239
1243
1237
1219
1192
1155
1107
1060
1033
1020
1012
1001
992
987
991
991
986
980
977
979
980
979
974
969
966
967
970
968
967
966
962
964
965
963
962
959
961
960
964
963
962
961
961
963
968
967
967
966
966
964
966
969
969
966
966
968
968
967
966
962
962
965
967
967
966
962
965
967
967
969
968
968
969
971
972
974
972
973
976
978
983
984
987
987
990
995
998
1001
1001
999
1002
1004
1008
1006
1004
1000
1002
1002
1005
1004
1000
995
998
1000
1002
1000
998
997
994
997
999
1000
997
997
996
999
1003
1003
1001
998
994
998
1001
999
998
995
993
998
999
996
995
997
994
998
1000
1001
1000
999
995
999
1002
1001
999
999
998
1000
1002
1003
1002
999
1000
1004
1005
1006
1002
1003
1001
1004
1008
1007
1006
1004
1002
1006
1007
1008
1008
1003
1004
1003
1006
1007
1005
1001
1000
1004
1004
1001
995
993
997
1015
1047
1078
1104
1135
1167
1199
1230
1246
1252
1239
1217
1186
1149
1092
1045
1016
1003
997
991
986
983
979
975
975
978
974
973
969
969
971
971
967
967
962
961
963
961
961
957
955
955
956
956
958
956
955
955
955
958
957
956
953
953
954
956
954
953
950
949
952
952
954
953
950
951
954
957
955
952
953
951
953
956
955
953
952
953
954
958
960
960
959
957
962
966
969
969
970
970
974
978
980
982
983
982
986
989
990
987
986
987
992
996
995
990
987
984
986
986
987
982
980
979
980
982
982
983
978
981
982
984
985
985
984
980
985
984
984
985
981
983
983
985
985
983
980
980
983
987
985
987
985
986
988
987
989
987
985
984
988
992
992
990
989
985
986
991
991
989
987
987
989
988
989
988
988
986
986
989
988
981
982
984
984
983
983
984
980
981
984
983
985
985
987
983
984
987
990
984
984
981
984
988
987
985
983
983
986
988
989
986
984
985
987
990
990
988
984
984
985
986
988
988
988
984
987
989
988
982
984
985
987
989
989
989
987
987
987
989
992
990
984
983
982
986
1000
1019
1037
1059
1085
1108
1125
1147
1172
1194
1208
1212
1204
1188
1171
1140
1098
1054
1022
1006
995
986
978
978
977
974
971
970
972
972
971
967
959
959
961
963
961
957
955
949
950
955
956
953
953
948
954
953
946
944
946
947
947
949
949
946
944
944
946
948
948
945
943
943
946
949
950
949
944
947
950
952
953
950
949
948
953
955
957
951
951
950
953
957
960
959
957
955
962
962
964
962
963
964
968
974
975
976
973
974
977
982
983
983
979
980
983
985
985
987
984
984
987
989
989
988
984
987
986
988
988
986
985
983
983
988
989
986
983
983
986
988
987
985
982
981
985
988
988
988
986
984
989
992
991
987
989
988
988
991
990
990
988
989
991
988
989
987
987
987
990
992
994
993
992
992
993
993
993
992
992
990
991
993
995
996
994
994
997
997
1000
997
996
991
994
997
996
996
995
996
998
997
996
996
993
991
994
996
994
993
991
990
991
993
994
991
989
989
989
992
992
990
991
988
991
990
990
990
984
988
992
993
995
995
995
992
996
999
998
999
998
997
998
997
1001
998
994
996
1010
1029
1053
1075
1098
1120
1142
1170
1195
1215
1225
1228
1221
1208
1183
1148
1101
1053
1024
1016
1011
1000
983
982
982
984
984
977
974
973
972
973
972
970
965
964
964
964
963
959
957
954
955
960
959
960
957
958
959
963
963
962
959
961
960
962
962
961
958
956
958
963
961
962
958
959
962
963
964
962
959
957
962
966
962
962
962
962
964
967
966
964
963
965
966
972
971
971
971
970
973
975
974
975
973
973
975
977
983
982
985
986
992
992
997
997
997
996
998
1001
999
998
998
996
998
1003
1003
1000
999
999
1000
1003
1002
999
998
996
997
999
995
996
994
993
994
997
994
992
991
988
990
992
995
995
992
991
995
995
997
995
995
995
996
997
995
994
989
989
992
995
997
994
994
994
995
999
999
998
996
997
998
1001
1002
1001
999
997
999
999
999
997
993
993
996
1001
998
995
994
993
991
997
1001
1001
999
999
1001
1002
999
998
998
996
999
998
1000
999
996
996
995
997
998
997
995
993
995
998
997
997
994
996
995
995
994
992
990
988
987
989
991
992
994
996
1002
1000
999
999
1003
1013
1031
1053
1073
1095
1115
1136
1163
1186
1209
1228
1238
1243
1235
1227
1209
1182
1147
1102
1062
1034
1021
1009
997
988
980
980
978
978
973
971
969
969
966
963
960
957
962
961
964
961
958
958
960
960
957
951
952
952
951
953
954
951
948
949
955
956
955
952
952
950
954
953
952
955
952
952
951
954
955
954
952
951
953
956
956
956
956
954
958
958
957
958
959
958
961
964
963
961
959
960
964
968
973
972
974
972
977
980
983
982
983
984
987
988
989
990
987
984
987
990
989
985
987
986
990
990
992
989
990
989
989
994
996
994
990
992
992
994
995
990
988
983
984
986
987
988
983
984
984
988
989
987
984
980
982
984
986
984
981
981
984
985
987
985
984
981
982
987
988
988
985
984
988
990
992
992
991
990
992
993
991
989
991
990
990
994
995
993
990
988
987
989
990
991
988
987
985
987
988
986
981
981
984
985
988
986
985
983
985
986
988
985
983
984
984
987
986
985
979
981
980
983
984
980
975
976
974
981
978
980
978
980
980
983
984
984
981
981
984
983
987
987
984
984
984
985
984
982
981
982
981
985
986
986
980
981
984
985
986
985
983
980
979
985
984
982
976
977
981
984
985
981
977
978
978
981
982
982
980
980
980
985
986
986
984
979
981
985
984
981
981
982
983
983
986
983
982
985
992
1008
1031
1052
1075
1094
1114
1136
1159
1183
1200
1208
1211
1205
1200
1184
1166
1136
1100
1059
1025
1007
998
991
983
973
969
965
962
956
959
958
960
956
950
952
953
956
955
954
952
949
948
951
950
946
944
945
945
949
950
947
943
942
944
944
944
942
940
937
942
943
945
944
943
937
940
944
946
947
945
945
945
947
946
949
947
947
951
954
956
954
950
950
951
953
954
954
951
951
951
953
956
954
951
951
952
955
955
958
955
953
956
960
963
965
963
962
962
971
973
972
973
974
977
980
981
982
981
979
978
979
980
981
978
977
978
974
976
976
974
973
974
976
978
974
974
974
975
976
976
977
977
977
975
975
980
976
972
969
969
974
978
978
976
975
976
979
981
981
975
977
980
982
984
984
982
979
981
984
986
983
980
979
982
985
986
987
982
983
982
984
984
982
981
980
980
980
982
979
979
976
978
981
982
982
980
980
980
983
983
982
978
978
979
981
985
982
980
977
982
983
983
983
981
982
981
983
985
985
982
982
983
984
985
982
982
982
981
981
984
985
984
982
983
984
988
986
984
984
984
986
989
985
984
984
985
986
987
984
980
978
980
983
984
984
984
985
987
991
992
990
988
990
989
994
992
988
985
986
991
1004
1018
1038
1060
1080
1098
1121
1148
