1226
1214
1194
1170
1137
1092
1047
1015
998
988
983
972
967
963
960
956
953
954
956
956
952
950
950
951
951
952
949
946
944
945
946
947
946
945
945
947
946
947
949
946
945
946
948
947
946
945
943
944
949
950
948
943
944
945
951
948
947
944
945
944
947
946
943
944
942
944
947
946
945
944
946
945
949
947
950
949
948
951
953
954
954
950
952
956
960
958
958
958
958
966
972
971
974
971
976
976
981
980
980
978
977
980
985
981
980
977
982
983
986
988
983
982
981
985
985
985
981
979
979
977
981
980
979
977
975
975
978
979
977
971
972
973
974
976
971
967
967
971
971
970
969
970
972
973
977
977
977
975
977
980
982
984
981
978
979
985
988
990
988
987
990
995
998
995
992
992
989
990
993
989
986
985
984
986
988
986
985
983
982
983
985
984
983
982
980
980
982
983
981
979
982
986
984
983
985
994
1017
1046
1075
1098
1123
1150
1182
1211
1233
1240
1235
1220
1198
1170
1126
1072
1023
1002
994
987
979
971
964
961
956
951
954
950
954
953
952
952
953
951
949
945
944
946
948
946
944
938
938
941
941
939
938
937
934
939
943
942
940
937
933
938
940
940
941
941
940
941
944
946
945
941
944
946
950
951
948
947
947
946
949
947
942
941
940
943
945
948
947
949
952
955
960
962
963
962
963
964
970
970
971
971
971
971
972
975
975
974
973
975
975
976
977
977
977
979
980
978
976
973
974
976
977
979
978
979
977
980
978
974
971
973
974
973
976
972
972
970
971
972
974
974
972
970
971
973
975
978
975
973
972
973
977
976
974
972
969
973
980
979
978
977
977
976
979
978
978
977
976
976
982
980
977
975
973
979
981
978
976
976
973
975
976
975
974
971
970
971
973
974
968
970
970
973
975
974
970
970
969
971
972
973
969
968
967
967
970
971
965
969
969
973
976
975
973
972
971
973
973
971
968
971
970
973
978
980
981
978
978
979
978
979
975
977
974
975
975
978
976
975
974
974
976
978
983
1001
1018
1044
1073
1097
1121
1146
1170
1190
1197
1194
1178
1162
1139
1101
1055
1012
989
975
969
963
960
956
955
952
949
949
951
949
947
944
944
944
947
949
944
945
943
944
945
944
943
938
936
937
939
939
937
937
938
940
944
943
940
940
938
940
942
940
937
936
936
937
938
938
934
936
935
940
940
939
939
938
939
943
944
944
942
940
945
948
949
951
951
953
952
957
961
961
963
959
961
964
969
967
965
965
967
970
974
972
972
970
971
973
973
972
975
972
971
971
972
970
968
968
966
968
972
975
970
971
968
970
975
972
971
968
967
972
976
975
973
974
973
976
980
981
979
977
972
978
976
976
973
972
971
973
978
977
976
975
975
978
982
979
977
975
976
975
977
975
973
973
972
975
978
977
973
974
974
975
976
977
975
972
967
969
975
974
974
973
974
975
979
978
974
973
972
974
976
971
970
969
969
971
970
971
970
966
966
968
970
970
969
969
968
970
972
970
969
971
968
969
969
970
968
967
963
970
973
974
969
969
966
970
972
974
971
971
971
972
977
980
976
975
972
977
984
979
979
979
978
977
979
987
997
1017
1041
1064
1094
1116
1134
1160
1182
1202
1206
1197
1183
1165
1141
1105
1057
1019
995
984
976
968
961
955
955
951
949
949
950
948
945
941
941
942
944
943
940
938
938
940
942
941
942
941
941
942
946
943
944
941
940
941
944
943
941
938
937
937
941
939
939
937
936
938
939
936
935
932
933
937
940
937
936
934
933
935
937
936
936
937
937
942
942
945
943
940
941
944
952
952
949
950
951
958
961
964
964
965
966
969
975
976
977
974
976
978
981
982
980
974
976
978
980
978
976
973
974
975
974
973
972
971
972
972
974
974
968
970
968
972
974
971
971
971
971
975
974
974
973
972
970
975
977
976
974
974
971
972
978
976
974
973
978
979
982
981
981
979
979
977
979
975
974
971
968
969
967
968
966
963
968
971
972
972
971
971
969
969
972
972
969
968
967
971
973
973
974
972
973
976
980
978
975
976
973
975
978
977
977
973
975
977
980
979
976
974
974
977
978
979
975
971
974
974
976
973
971
967
969
970
975
972
968
968
970
973
976
975
973
972
973
975
975
976
975
981
989
1015
1039
1062
1083
1101
1121
1144
1173
1197
1212
1220
1217
1213
1202
1186
1161
1125
1081
1045
1019
1004
999
989
978
972
970
969
964
963
959
958
958
954
950
947
946
946
946
946
943
941
938
939
943
941
938
933
933
932
939
936
933
929
928
931
929
925
924
923
926
930
934
935
933
932
931
934
935
935
935
931
932
935
935
936
937
938
935
940
944
946
945
944
943
945
948
949
948
948
944
948
949
951
948
947
946
947
952
953
952
953
955
955
958
958
956
957
962
961
962
963
964
963
966
967
969
974
972
972
973
977
980
980
977
976
975
979
979
980
976
973
975
976
979
979
978
977
976
980
983
983
980
981
975
981
984
984
979
975
974
975
978
977
973
972
972
976
976
976
973
969
970
970
972
975
972
969
968
970
974
975
975
973
975
977
979
980
978
975
978
979
983
984
983
980
979
981
984
984
982
982
981
984
985
983
983
981
981
982
985
985
981
976
975
979
982
980
977
977
974
978
978
979
976
975
974
977
978
980
978
973
975
977
978
979
977
975
975
976
982
983
982
984
981
983
984
985
983
981
981
983
988
989
985
986
985
986
988
991
989
988
988
987
989
986
990
996
1010
1032
1058
1080
1101
1119
1144
1172
1195
1216
1222
1215
1205
1192
1178
1155
1115
1068
1027
1006
998
988
975
964
960
959
961
959
955
954
952
951
953
951
948
946
946
948
949
948
947
945
946
947
949
946
947
946
947
949
948
953
950
944
945
949
951
954
949
946
943
943
943
943
941
941
939
943
946
944
943
944
945
947
949
950
944
944
942
945
949
948
946
943
943
945
950
951
949
950
949
949
949
948
948
949
953
956
954
954
952
955
958
964
967
969
966
969
973
975
977
977
973
977
975
981
979
979
980
978
977
979
980
983
977
977
973
978
982
981
977
978
978
978
981
977
977
974
974
977
978
976
975
972
973
977
978
977
974
973
976
979
982
981
980
978
979
981
980
978
978
977
981
982
984
985
985
981
981
983
986
989
986
984
983
988
987
987
985
981
981
981
982
984
983
979
979
981
983
983
984
983
977
981
982
984
980
976
975
977
981
981
978
977
975
975
980
980
981
978
976
983
985
985
981
979
981
978
983
984
982
983
983
983
988
984
982
982
984
985
984
985
980
982
982
982
984
982
981
977
976
980
981
980
979
978
976
977
978
978
975
973
972
978
978
977
977
975
977
978
984
983
980
980
982
982
986
984
979
980
982
984
984
986
985
987
986
987
989
989
990
989
990
995
995
995
993
992
989
990
991
1002
1018
1038
1062
1091
1115
1135
1163
1184
1202
1210
1209
1197
1178
1157
1125
1080
1038
1009
995
986
976
972
973
971
969
963
962
963
961
959
957
955
952
955
957
958
959
956
956
958
960
959
957
955
952
952
955
955
952
948
947
949
952
950
948
947
945
944
949
949
945
946
944
948
950
950
947
942
943
947
944
945
944
942
944
949
952
954
952
951
951
952
954
956
955
954
953
959
963
964
964
961
964
968
971
973
974
974
974
979
982
986
983
982
982
985
986
988
986
983
982
987
989
991
989
985
986
988
990
989
988
984
984
986
985
985
981
979
977
979
978
982
981
982
981
983
986
985
984
982
981
984
986
987
983
979
979
986
984
988
986
983
984
985
990
990
988
987
987
991
991
992
989
986
980
984
986
988
985
982
983
985
985
986
983
982
978
981
986
983
981
978
978
981
983
985
981
984
981
984
989
988
987
985
986
987
992
989
987
986
985
986
989
990
989
987
988
989
992
991
988
987
983
987
991
989
988
986
986
989
990
992
987
985
986
989
991
991
990
985
989
989
991
991
988
995
1010
1034
1058
1082
1103
1126
1150
1182
1210
1229
1230
1229
1215
1196
1174
1136
1085
1038
1012
1005
997
985
977
971
969
971
970
969
966
964
962
960
961
964
963
958
957
959
959
957
955
953
953
955
955
954
952
950
948
951
952
952
946
944
940
943
948
943
940
938
939
942
945
945
944
944
943
945
949
947
948
946
948
948
950
953
955
952
952
955
959
964
962
961
963
965
968
969
967
966
967
969
973
974
973
975
974
977
980
982
981
981
980
982
985
986
986
984
983
984
987
985
983
980
980
981
984
983
982
982
982
985
986
988
987
983
985
987
988
989
986
985
988
988
989
988
987
986
987
987
994
993
991
990
988
990
993
992
988
987
984
985
987
987
986
985
985
988
991
989
988
985
985
989
992
990
985
989
985
987
988
989
987
985
986
989
990
991
990
984
983
987
989
993
991
988
989
989
992
995
994
993
995
995
998
998
999
997
993
997
997
999
996
993
994
993
992
991
990
989
988
986
987
989
986
985
986
988
989
987
988
984
985
988
989
989
988
985
986
987
988
989
989
987
987
989
993
993
992
987
988
990
993
994
993
991
989
993
995
998
997
995
993
997
1000
1000
999
997
995
996
998
997
996
995
991
993
996
997
995
992
990
989
993
997
998
993
991
993
995
995
989
988
994
1007
1033
1059
1086
1110
1130
1164
1197
1223
1235
1236
1229
1216
1194
1160
1110
1055
1019
1011
1008
999
988
982
977
978
978
977
973
970
965
965
964
967
963
961
961
959
963
964
960
959
954
955
954
955
952
952
954
954
955
956
955
953
954
954
954
953
955
953
954
957
958
961
962
961
960
963
965
969
967
965
968
968
968
970
971
968
966
969
969
965
963
961
962
963
967
969
968
967
969
971
973
975
976
975
974
975
979
981
981
978
981
981
983
987
987
988
986
991
991
994
993
993
993
995
996
995
995
995
994
997
1000
1001
1000
999
997
999
1001
1000
1000
997
993
997
999
998
995
991
991
995
996
994
994
991
990
993
994
994
991
990
990
990
994
995
991
988
989
989
993
994
991
990
989
992
994
995
995
993
989
990
992
993
992
989
989
992
994
994
994
994
994
994
996
999
996
996
994
994
997
998
994
992
991
989
994
994
992
991
988
992
992
990
990
990
988
990
993
992
992
986
987
986
990
989
992
989
991
993
995
996
995
994
992
994
995
996
994
989
992
993
994
995
994
993
994
994
999
1000
999
996
995
999
1001
1002
1001
999
999
997
999
997
997
994
992
995
1000
999
997
995
993
999
1014
1031
1054
1073
1097
1121
1149
1176
1199
1223
1230
1231
1222
1209
1187
1151
1102
1056
1029
1016
1006
993
983
980
981
977
978
973
973
971
973
973
970
968
962
965
967
967
963
963
960
962
963
965
962
960
957
958
960
961
959
956
958
960
959
962
956
953
954
957
957
959
954
955
956
957
962
959
959
955
954
958
961
961
960
954
958
961
964
967
966
964
966
970
971
974
971
971
971
972
975
972
972
974
975
977
979
983
984
983
984
986
987
991
989
989
984
987
990
989
987
984
985
987
989
991
989
988
988
993
994
995
993
989
990
994
995
995
994
993
993
994
997
998
998
998
994
998
1000
999
998
995
994
998
997
998
994
992
991
991
993
992
990
987
986
987
989
988
987
987
982
985
983
985
985
979
979
979
983
985
983
981
984
988
990
990
989
986
985
988
990
993
991
991
991
993
995
996
997
995
998
997
999
1000
1000
996
998
996
1000
999
996
992
993
991
992
994
993
991
991
992
989
992
991
989
987
989
989
988
984
978
983
991
1007
1031
1050
1076
1102
1127
1154
1182
1206
1224
1232
1235
1230
1217
1198
1171
1135
1087
1044
1020
1011
1002
992
986
983
982
979
974
971
971
971
970
968
963
960
961
962
962
959
954
954
956
957
956
952
951
948
949
949
951
947
942
941
940
943
944
941
936
937
942
944
945
944
941
940
947
950
949
950
947
948
951
953
955
954
955
956
960
962
963
964
962
961
962
964
967
966
962
961
963
965
969
973
970
969
971
974
975
973
975
975
974
976
979
978
975
974
976
977
981
980
979
980
980
983
985
979
980
978
984
983
985
984
982
981
982
989
990
987
986
986
988
989
989
987
986
982
983
983
984
981
979
978
980
980
980
981
979
978
978
981
982
980
978
977
977
977
978
980
980
980
981
982
980
982
981
983
984
982
984
985
980
981
983
986
989
983
981
980
986
988
986
984
983
984
984
986
985
982
978
978
977
983
984
984
981
979
981
980
982
979
977
976
979
981
982
982
977
977
979
982
981
983
981
979
984
986
987
985
981
978
979
984
986
987
983
984
986
989
991
987
986
984
983
986
988
986
985
984
982
986
986
985
983
983
982
985
987
982
981
981
982
980
985
978
979
977
978
982
981
979
977
974
978
982
985
985
985
982
984
986
989
987
986
987
991
992
993
993
994
993
994
997
997
994
992
994
997
996
998
995
993
997
1013
1034
1060
1081
1101
1119
1145
1167
1189
1196
1191
1186
1177
1167
1150
1117
1071
1032
1007
1002
995
986
974
973
972
975
975
970
966
966
966
970
971
967
967
966
968
968
970
969
965
964
966
966
968
968
964
964
965
968
967
966
963
959
959
960
964
960
961
960
960
959
961
959
956
957
959
960
960
959
958
958
959
962
963
961
963
961
965
966
967
969
968
968
971
972
973
974
975
975
975
982
983
982
987
987
988
993
994
994
995
994
996
1000
1000
998
997
998
998
1000
1002
1000
999
998
999
999
1000
997
995
994
995
996
995
996
992
992
994
998
998
998
996
995
997
1000
1002
1002
1000
1003
1003
1007
1009
1008
1010
1010
1012
1011
1014
1011
1011
1008
1010
1011
1015
1011
1007
1007
1006
1007
1006
1004
1002
1000
1001
1004
1006
1005
1001
999
1002
1003
1001
1001
1000
995
1000
1002
1004
1002
1002
1001
1002
1004
1006
1005
1004
1002
1006
1009
1010
1011
1009
1011
1015
1012
1014
1014
1010
1010
1011
1012
1012
1010
1009
1005
1005
1006
1007
1006
1003
1001
1005
1006
1006
1004
1002
1000
1003
1004
1004
1002
1000
998
999
999
1002
1001
1001
1002
1003
1004
1005
1005
1002
1002
1005
1006
1009
1009
1005
1005
1013
1030
1054
1078
1102
1128
1155
1184
1212
1237
1250
1253
1242
1225
1197
1151
1087
1038
1021
1014
1007
996
988
985
983
982
978
974
971
970
968
969
971
971
968
965
965
970
970
972
968
967
970
973
974
972
971
973
976
978
980
980
978
976
976
980
980
975
975
973
975
978
978
975
975
976
977
980
980
980
976
977
976
979
980
979
974
974
976
979
979
978
980
982
983
988
992
991
991
992
998
1000
998
1000
997
999
1000
1006
1008
1006
1007
1007
1010
1013
1012
1011
1009
1006
1011
1011
1011
1009
1006
1005
1006
1007
1007
1005
1006
1003
1003
1005
1007
1002
1001
1000
1003
1003
1004
1004
1000
997
1003
1002
1002
1004
1001
1004
1007
1008
1009
1008
1007
1006
1010
1012
1011
1010
1007
1009
1009
1011
1010
1009
1014
1012
1014
1019
1019
1017
1015
1011
1010
1016
1019
1014
1011
1012
1013
1013
1015
1013
1010
1009
1011
1014
1012
1011
1009
1007
1007
1009
1007
1007
1004
1000
1002
1006
1009
1007
1004
1004
1005
1007
1006
1006
1004
1002
1006
1010
1010
1008
1006
1004
1005
1008
1010
1008
1006
1005
1012
1014
1015
1014
1011
1011
1010
1014
1018
1025
1039
1061
1084
1105
1131
1148
1172
1196
1219
1238
1247
1249
1242
1234
1222
1208
1181
1143
1097
1053
1035
1027
1020
1005
994
991
990
991
989
986
980
978
978
977
977
978
975
974
973
975
975
975
972
970
969
972
971
974
971
970
970
971
977
972
973
970
973
974
975
975
972
972
971
975
975
971
969
968
969
969
970
971
966
969
972
974
976
975
974
973
973
974
976
974
970
969
970
971
973
971
970
969
974
976
980
977
974
976
980
985
987
986
986
985
988
991
994
996
996
997
998
1002
1005
1005
1005
1005
1007
1009
1012
1009
1010
1009
1008
1013
1012
1011
1008
1005
1007
1009
1010
1008
1006
1006
1008
1009
1008
1006
1004
1002
1007
1005
1006
1005
1000
999
997
1001
1001
1001
998
995
999
1000
1004
1001
1000
1001
1000
1003
1007
1006
1003
1005
1004
1008
1005
1007
1006
1006
1009
1012
1013
1013
1014
1010
1014
1013
1016
1016
1016
1013
1015
1017
1017
1015
1011
1011
1011
1016
1014
1014
1010
1009
1011
1012
1012
1008
1008
1006
1008
1008
1009
1005
1005
1004
1004
1006
1008
1005
1001
1000
1003
1007
1005
1006
1004
1004
1005
1007
1009
1005
1004
1003
1003
1009
1010
1009
1005
1005
1006
1011
1015
1014
1011
1012
1011
1013
1014
1014
1013
1011
1012
1016
1015
1010
1010
1016
1031
1052
1075
1096
1118
1138
1161
1187
1208
1228
1239
1246
1244
1235
1221
1199
1170
1130
1086
1049
1028
1019
1008
998
992
989
990
988
983
980
978
978
975
977
975
969
972
975
975
973
970
973
971
975
976
977
975
973
974
976
975
977
976
972
972
974
973
973
970
967
969
970
970
968
966
965
963
968
966
964
963
962
965
966
965
965
962
961
959
961
963
962
963
962
965
968
969
966
968
969
968
969
973
975
972
970
975
979
983
983
983
987
987
991
996
999
999
999
1003
1005
1005
1004
1000
1002
1004
1006
1007
1003
1002
1000
1002
1002
1004
1002
1000
997
999
1002
1002
1002
1000
998
995
