943
942
943
942
942
940
938
940
944
944
945
944
945
948
947
951
949
948
946
949
952
954
954
950
950
954
958
962
965
966
965
971
971
974
973
972
972
974
977
979
976
974
974
975
977
980
980
976
976
974
973
978
975
974
973
974
973
974
973
969
968
968
967
967
968
967
968
969
971
974
971
970
969
969
976
976
977
971
970
971
974
974
979
979
981
981
982
986
986
984
984
985
987
985
986
984
984
983
982
985
982
978
979
983
985
986
986
981
979
979
980
976
975
970
971
970
972
971
971
971
972
970
973
974
973
972
971
971
974
975
975
973
972
972
978
980
980
977
979
980
981
983
982
981
978
976
980
981
982
982
981
981
979
979
980
980
979
980
984
981
981
978
978
976
980
980
977
973
973
971
974
976
974
971
971
972
973
976
979
980
978
978
979
983
981
979
975
979
991
1006
1021
1041
1065
1090
1117
1141
1164
1186
1203
1220
1226
1225
1214
1199
1171
1136
1090
1048
1018
1004
995
987
978
970
970
965
963
962
961
961
956
950
950
951
951
953
952
948
949
951
952
954
953
951
948
948
951
953
953
950
948
947
947
946
951
947
946
946
950
950
951
947
945
945
951
952
950
948
947
945
950
948
948
948
947
946
947
949
952
951
950
951
951
954
951
955
955
956
956
958
956
955
955
960
964
968
968
970
970
972
976
983
983
980
980
981
984
987
985
985
982
985
985
989
990
988
984
984
984
986
984
981
984
983
984
984
984
982
980
977
979
980
978
975
973
973
977
978
977
973
973
974
978
983
981
978
978
976
978
981
979
981
976
976
978
980
984
984
981
984
984
986
989
986
983
983
985
981
985
984
979
978
982
984
982
977
973
976
978
980
976
973
971
974
977
978
977
974
974
977
981
983
982
979
980
979
981
985
986
983
981
981
985
985
985
985
985
987
986
989
987
985
985
986
986
985
985
982
980
978
983
981
981
979
976
976
975
972
974
974
975
977
980
983
980
978
978
978
983
983
983
984
980
980
983
989
999
1016
1036
1061
1089
1113
1135
1162
1190
1218
1231
1236
1228
1211
1192
1158
1113
1063
1024
1003
997
989
981
973
970
965
963
959
961
958
957
956
953
950
952
952
952
944
938
940
942
944
946
943
941
940
940
940
941
939
939
940
941
942
942
941
944
945
947
949
943
945
944
946
947
951
951
949
951
952
954
955
951
951
950
952
956
957
956
958
958
960
961
965
968
966
963
965
966
964
968
965
966
968
971
973
972
971
969
973
974
975
970
970
969
971
972
972
973
972
968
973
977
981
983
981
979
979
984
982
981
980
982
982
982
984
985
986
985
984
984
987
987
985
985
987
988
992
990
985
981
984
985
985
981
979
978
982
982
983
981
979
977
978
979
982
981
977
976
974
976
978
977
975
977
976
979
981
982
983
983
981
982
984
983
984
985
985
982
986
985
983
982
983
983
982
982
980
981
980
983
981
979
978
975
974
979
982
981
978
976
976
976
980
977
976
972
973
974
978
977
975
973
975
977
978
983
980
978
977
979
981
979
980
988
1002
1025
1051
1077
1100
1124
1155
1186
1214
1225
1224
1211
1195
1176
1144
1094
1040
1004
991
984
976
966
960
958
958
956
956
954
953
949
949
950
951
949
946
940
941
942
945
943
941
938
939
944
948
947
946
944
944
949
951
951
948
945
944
943
950
950
950
945
946
944
947
949
947
946
945
945
946
948
944
947
949
952
953
952
951
950
951
955
956
953
949
951
950
953
955
957
956
956
962
969
971
973
971
970
973
977
980
975
973
976
978
981
980
985
982
982
982
981
984
983
982
982
981
981
979
977
978
974
975
975
976
974
972
971
972
975
976
975
972
972
972
975
976
978
977
975
974
976
978
977
977
979
979
982
982
981
981
985
986
988
990
990
989
989
989
990
993
993
994
992
992
992
994
996
992
994
990
990
989
989
985
984
984
985
986
985
983
983
983
987
986
986
986
984
986
986
986
983
983
979
983
986
989
986
984
981
982
984
988
987
985
987
990
989
992
992
990
990
989
993
994
992
989
989
988
992
992
988
983
986
987
989
992
989
986
987
986
991
990
988
988
986
988
987
990
990
985
984
984
988
991
991
988
986
996
1015
1041
1063
1091
1113
1138
1166
1196
1223
1235
1240
1231
1217
1200
1168
1125
1075
1034
1015
1007
1000
986
979
977
976
974
972
966
962
960
962
961
956
956
952
954
956
958
957
953
951
952
947
952
952
949
946
946
948
952
953
953
951
953
955
958
957
955
954
953
960
963
960
958
956
957
961
963
964
960
958
960
961
965
963
963
959
960
961
959
962
960
961
961
963
962
964
961
958
962
961
966
962
963
962
965
967
970
974
972
973
976
981
984
984
984
984
988
991
992
996
994
991
995
999
997
999
998
994
999
1000
1002
998
996
996
998
998
999
997
991
993
995
993
995
994
992
989
988
984
987
988
984
985
982
986
987
988
982
979
982
983
989
987
985
982
986
988
992
990
990
991
988
992
994
993
993
994
994
999
1002
1001
997
996
998
999
1001
1002
998
995
994
995
997
999
998
997
993
996
998
998
995
993
993
995
995
994
990
988
987
991
991
989
987
983
983
984
986
986
984
989
1000
1020
1047
1066
1089
1111
1138
1168
1197
1221
1237
1245
1246
1243
1233
1211
1180
1131
1084
1042
1021
1010
999
989
981
979
980
977
973
971
969
969
969
968
964
960
961
963
963
961
955
954
954
955
958
953
949
945
943
949
952
951
945
943
943
945
947
944
941
937
940
943
943
945
943
944
944
948
947
946
946
943
946
950
951
950
945
948
951
950
951
952
951
952
953
955
955
956
955
958
959
963
965
966
967
964
966
970
974
976
976
975
976
977
983
983
982
981
982
981
983
981
980
979
981
980
982
982
980
977
977
984
984
985
983
981
983
984
985
986
985
981
980
985
988
989
987
983
983
985
987
986
984
984
981
985
988
987
986
985
983
986
987
986
984
983
987
986
988
988
984
983
983
984
986
981
979
979
978
979
985
985
986
981
985
986
987
987
984
986
986
989
988
987
984
985
987
989
990
989
984
983
981
988
990
989
988
986
985
985
986
987
984
982
978
982
984
982
981
981
981
983
983
979
978
975
974
979
982
984
978
975
978
978
981
980
979
974
973
979
982
982
981
978
980
982
984
983
983
977
976
979
983
983
980
981
980
983
984
984
982
983
983
986
990
991
987
987
987
988
992
994
990
986
986
986
988
988
985
986
984
983
983
985
983
983
985
986
989
989
986
983
983
981
984
990
1002
1014
1034
1056
1078
1094
1111
1133
1158
1186
1203
1214
1211
1203
1197
1187
1174
1145
1101
1054
1022
1006
1003
993
984
976
973
972
975
971
969
966
964
963
964
961
960
958
955
959
959
959
955
950
950
951
953
954
950
948
947
946
947
949
946
946
943
941
943
943
941
936
937
939
941
942
941
939
939
943
945
948
944
943
943
946
950
953
953
953
951
955
958
962
960
962
959
962
962
963
961
962
966
966
967
967
965
964
962
965
967
969
969
967
967
969
972
974
975
976
975
979
980
976
977
980
979
979
981
980
982
981
981
984
986
985
985
983
985
985
988
986
984
982
983
990
992
994
988
987
990
992
996
998
994
994
993
994
993
990
986
989
987
990
990
986
985
983
985
989
992
988
985
983
983
987
990
989
985
986
983
986
987
987
987
986
986
989
992
991
989
989
990
992
997
995
995
990
991
992
997
996
994
995
995
997
1002
1003
1001
1000
1000
1002
1003
1002
999
997
998
1000
1002
1000
995
993
990
992
994
994
994
991
990
990
993
994
992
990
990
992
995
991
989
985
987
986
990
989
987
985
986
988
992
991
988
987
989
988
991
989
989
989
990
992
994
993
990
988
990
994
998
999
1000
997
994
997
1002
1003
1000
1001
999
1000
1003
1001
999
998
998
999
1001
996
993
992
992
997
999
999
996
994
993
997
996
995
994
996
1002
1014
1032
1050
1067
1084
1101
1123
1145
1170
1191
1200
1209
1208
1205
1199
1186
1168
1139
1100
1058
1026
1010
1003
998
993
988
985
983
982
981
983
984
986
982
981
980
981
985
980
981
978
977
975
978
975
972
970
969
973
973
972
970
966
966
968
970
970
967
964
963
964
962
964
961
958
957
959
961
961
958
957
957
963
964
965
961
959
960
959
964
965
961
957
957
962
965
964
964
967
967
969
972
974
972
971
973
973
979
978
975
974
975
978
982
982
978
978
981
982
987
990
987
985
988
989
995
995
996
993
993
994
993
995
992
991
990
991
994
995
994
992
992
995
999
1000
997
995
994
998
1000
1002
997
997
998
1001
1007
1008
1005
1005
1005
1006
1006
1009
1007
1006
1004
1003
1007
1007
1002
1003
1004
1005
1005
1004
1002
1004
1002
1001
1007
1005
1002
999
998
1000
1004
1005
1001
998
998
1001
1004
1005
1005
1002
1001
1001
1006
1003
1000
1000
1001
1002
1003
1005
1003
1003
1006
1005
1006
1006
1004
1003
1004
1007
1006
1008
1006
999
998
1005
1005
1003
1001
1001
998
1001
1003
1004
1003
1002
1000
1000
1003
1006
1004
1002
1000
998
1000
1002
1002
1004
1015
1033
1058
1080
1106
1130
1154
1181
1211
1237
1249
1252
1248
1238
1222
1197
1153
1102
1056
1034
1030
1021
1012
1001
995
997
1000
995
989
984
982
980
981
979
976
974
971
972
972
971
967
965
963
966
969
967
962
960
960
963
963
964
961
959
961
964
967
966
966
962
961
963
965
965
967
962
963
966
969
968
968
966
969
972
974
972
974
970
969
972
975
975
974
971
970
972
973
971
969
967
967
970
975
975
978
979
978
981
986
985
979
985
990
993
992
993
992
993
992
996
999
999
996
993
994
996
1000
1001
999
999
997
999
1002
1001
1000
1000
998
997
999
1000
999
999
997
1000
1001
999
996
994
994
997
998
997
994
990
986
989
993
993
991
992
993
996
999
998
996
997
995
993
995
993
988
989
989
992
992
991
987
987
985
987
993
994
993
989
988
993
995
994
990
992
990
991
992
996
995
992
992
994
996
996
991
990
989
991
996
996
994
992
989
992
994
991
988
984
982
982
982
981
982
981
981
984
987
984
984
980
976
979
982
986
985
983
981
980
987
989
987
987
987
987
990
992
989
986
990
993
990
989
990
991
993
996
997
995
992
992
991
994
996
997
994
992
991
992
993
993
990
995
1007
1031
1059
1084
1107
1128
1155
1184
1208
1221
1214
1204
1189
1167
1137
1091
1045
1017
1003
998
992
984
982
979
978
976
973
969
972
970
970
973
970
972
971
968
966
968
972
967
967
965
962
964
965
964
963
961
959
962
965
965
963
959
956
959
962
961
959
956
954
954
952
957
955
955
956
959
959
960
959
959
959
962
965
964
960
961
962
967
970
971
971
969
971
974
979
981
979
979
981
984
986
986
987
984
987
987
992
993
993
991
991
994
996
997
998
994
996
996
998
995
992
990
992
995
995
997
994
993
994
996
997
999
994
995
995
996
1000
999
1000
997
997
997
1000
1005
1007
1004
1003
1003
1006
1007
1005
1007
1007
1007
1009
1008
1006
1006
1005
1008
1007
1010
1006
1007
1006
1008
1011
1008
1007
1005
1003
1006
1008
1007
1004
1000
999
1005
1008
1007
1005
1004
1004
1004
1010
1011
1006
1005
1006
1007
1008
1010
1008
1008
1010
1012
1011
1010
1008
1009
1007
1012
1014
1013
1010
1009
1009
1012
1014
1011
1010
1007
1004
1009
1011
1012
1021
1034
1057
1087
1111
1134
1160
1185
1210
1236
1249
1251
1240
1220
1193
1161
1116
1070
1036
1022
1013
1008
1000
996
993
992
990
987
988
988
985
983
984
983
983
983
978
978
977
978
981
981
976
972
969
971
970
972
970
968
965
967
967
966
965
964
962
963
965
965
965
964
960
961
962
963
964
963
964
964
967
966
963
963
966
969
972
973
968
966
965
969
974
975
977
978
977
980
984
989
986
987
988
988
992
995
996
998
999
1000
1002
1003
1002
1001
1002
1005
1008
1005
1002
1000
1002
1002
1005
1006
1003
999
996
997
1001
998
999
997
993
997
998
998
999
996
999
1001
1002
1001
999
997
995
1001
1002
1001
999
997
997
1000
1004
1005
1000
998
999
1000
1004
1005
1003
999
999
1002
1003
1004
999
999
1000
1002
1002
1000
998
1001
998
1001
1004
1000
1001
1000
1000
1001
1005
1002
1000
999
1000
1003
1005
1004
1003
1002
1002
1002
1004
1002
998
999
997
1002
1001
1001
1000
1002
1002
1003
1005
1007
1006
1004
1003
1005
1006
1007
1002
999
1000
998
1003
1004
999
997
998
1001
1003
1002
998
1002
1011
1031
1058
1078
1098
1118
1145
1170
1200
1222
1232
1240
1236
1227
1209
1182
1150
1100
1051
1023
1013
1007
996
984
980
977
981
979
974
973
971
972
975
973
974
972
968
970
968
971
969
967
965
965
963
960
958
954
952
954
956
957
951
949
953
956
958
957
953
954
950
952
955
952
951
949
947
949
952
952
951
953
951
950
952
952
952
953
952
952
958
958
958
959
959
963
966
964
964
961
966
969
971
972
972
971
970
977
980
983
981
978
978
981
984
986
987
983
984
984
985
989
986
985
982
984
984
986
983
981
979
981
983
984
982
982
981
982
984
982
984
979
977
984
987
987
985
982
982
989
990
988
987
985
985
987
983
987
985
980
973
978
980
982
981
984
981
981
983
980
983
983
981
981
979
979
979
976
977
982
984
985
984
982
982
982
984
983
981
980
980
983
985
985
980
978
979
981
983
988
984
983
982
984
988
988
986
986
983
984
986
987
984
983
981
979
986
985
985
984
983
982
983
986
990
1004
1025
1055
1081
1100
1123
1147
1172
1196
1215
1215
1203
1182
1162
1133
1093
1047
1013
994
984
978
975
970
970
967
965
966
967
965
962
960
958
956
958
959
957
951
950
950
949
947
942
940
942
946
946
945
942
943
940
946
948
947
943
941
942
943
946
946
941
940
940
945
946
946
946
945
943
945
947
949
947
945
944
945
945
948
949
946
949
955
953
954
953
951
956
957
961
965
962
959
958
961
966
969
971
970
970
969
975
977
974
976
977
976
977
975
976
974
974
975
977
975
972
973
970
973
974
975
976
971
974
975
976
979
979
975
971
975
975
977
976
977
978
975
980
980
983
983
983
985
985
985
982
982
982
984
986
986
985
984
982
982
985
987
984
979
980
982
983
984
982
982
978
979
976
975
976
972
974
974
977
973
974
976
977
979
981
980
979
978
979
983
982
984
983
978
979
980
986
987
987
983
984
985
989
989
987
984
980
982
987
997
1022
1049
1082
1114
1147
1179
1203
1220
1231
1223
1209
1188
1154
1106
1054
1018
1002
995
980
971
964
963
967
962
960
955
952
950
953
954
954
950
950
948
951
950
951
947
948
947
947
946
947
945
944
942
941
942
943
938
939
942
942
944
939
937
938
940
941
941
938
934
933
936
939
939
937
935
934
936
941
942
941
940
940
943
949
946
946
945
949
951
954
958
963
963
966
970
973
975
978
978
979
982
982
983
981
981
978
980
981
981
981
980
978
978
981
978
979
975
974
975
975
974
972
969
969
971
973
976
974
973
972
977
976
978
975
971
968
972
974
979
981
976
977
982
983
984
982
980
984
983
985
984
984
982
981
984
982
983
979
978
978
981
984
981
980
977
978
979
981
980
977
974
973
973
977
977
977
975
974
975
977
980
977
976
979
979
981
981
979
977
977
980
982
984
980
980
982
983
985
983
985
982
983
983
987
989
988
986
983
984
985
989
996
1012
1034
1058
1080
1100
1122
1145
1169
1190
1211
1218
1220
1216
1200
1183
1165
1131
1090
1043
1010
996
987
979
969
960
960
961
961
960
956
950
952
950
950
948
945
942
942
947
948
946
947
946
943
947
947
949
944
944
942
943
944
941
942
940
939
940
941
940
939
935
933
934
940
935
937
933
932
933
935
933
933
932
929
930
931
934
932
932
930
932
935
937
935
937
938
940
941
944
943
941
943
947
951
953
953
951
953
960
965
967
968
967
966
971
974
975
976
975
973
973
975
976
976
973
973
973
977
975
975
970
973
973
973
972
967
967
966
969
971
968
968
965
965
966
969
973
967
964
964
963
967
969
971
968
965
964
966
970
968
968
971
972
975
978
973
972
971
976
977
978
976
975
974
974
978
978
973
968
968
972
974
973
971
967
966
967
967
966
966
964
964
964
966
964
960
960
961
964
962
966
962
961
962
965
966
965
965
958
958
963
968
967
965
962
962
965
969
970
971
969
966
964
968
969
967
964
964
963
966
965
965
960
958
960
961
962
960
956
957
959
964
964
962
957
957
957
956
956
957
956
954
959
959
959
956
956
954
959
962
965
961
957
955
960
960
963
960
958
958
960
961
960
962
960
963
965
968
969
966
962
960
961
966
966
966
963
961
965
965
964
965
962
960
960
962
962
962
960
961
961
960
961
958
957
957
957
962
961
960
955
954
956
959
961
957
954
953
955
958
961
961
959
960
960
962
963
963
961
958
963
968
968
964
963
965
970
984
1000
1016
1033
1052
1070
1091
1112
1134
1153
1170
1180
1178
1172
1160
1148
1127
1094
1056
1015
987
977
970
962
956
954
955
950
945
945
945
943
940
939
935
935
936
936
934
