987
987
985
984
985
990
991
991
987
986
989
992
993
990
989
987
989
989
992
990
988
987
985
987
988
988
987
988
985
988
990
986
986
984
986
989
988
986
984
982
983
982
985
985
984
982
985
987
988
987
986
985
987
990
992
989
988
987
990
991
991
990
988
985
996
1013
1033
1056
1077
1100
1125
1153
1180
1203
1214
1216
1213
1205
1192
1175
1148
1105
1061
1028
1013
1004
993
982
975
972
974
972
969
964
965
964
960
960
956
957
958
960
960
958
954
952
952
955
956
954
953
950
952
953
958
956
953
954
954
956
954
959
956
954
953
954
954
954
952
950
952
953
954
951
950
950
953
956
960
956
954
954
957
960
960
957
957
954
956
957
960
956
957
952
957
960
963
965
963
961
964
969
972
968
969
972
977
982
982
983
982
984
986
989
990
988
986
985
991
992
992
987
987
983
984
987
989
985
985
982
984
986
990
985
984
984
984
984
986
981
981
979
978
979
979
977
978
977
980
982
980
980
979
980
981
984
985
982
983
982
986
989
992
990
988
988
990
994
994
992
990
990
989
992
993
990
987
984
988
988
991
987
987
989
989
989
988
986
984
983
981
982
982
977
978
977
977
982
982
982
981
977
982
986
986
985
981
980
982
985
988
987
984
986
989
992
990
993
990
989
989
990
991
990
986
985
985
987
992
989
989
986
987
990
992
988
985
985
986
991
989
989
985
978
977
980
988
998
1013
1033
1061
1086
1109
1131
1159
1183
1206
1222
1223
1214
1201
1183
1160
1126
1080
1037
1010
1001
994
989
980
975
973
969
968
969
966
965
961
960
960
960
963
960
955
954
954
953
955
953
949
946
949
948
949
945
945
943
945
946
942
942
939
937
939
941
943
943
940
940
940
944
942
946
944
944
941
944
947
948
948
946
949
953
956
956
955
956
956
963
964
961
962
959
963
966
964
963
961
961
962
968
969
972
971
971
972
974
978
980
978
976
977
979
979
980
975
977
974
980
979
975
973
972
977
976
977
977
975
974
976
976
979
980
979
977
977
981
983
986
984
982
983
983
986
986
983
983
983
985
983
986
982
979
982
985
984
985
982
981
982
983
985
983
982
977
979
979
979
979
978
974
972
977
981
981
980
977
978
979
984
982
982
980
982
984
987
984
983
983
985
987
989
987
986
984
985
988
990
988
985
984
984
984
984
983
983
981
981
982
985
984
978
979
977
983
979
981
978
975
977
979
982
982
980
979
976
979
983
993
1011
1033
1058
1091
1119
1147
1174
1201
1219
1226
1218
1203
1178
1146
1103
1050
1013
1001
993
981
977
970
970
965
959
959
957
955
957
954
950
948
949
952
952
949
946
944
945
946
946
943
939
938
938
942
941
941
939
938
935
939
943
941
940
939
942
943
945
946
946
947
948
946
952
950
948
947
951
953
956
952
950
950
951
953
955
953
951
951
952
956
956
955
952
955
958
960
962
964
963
961
963
966
970
972
970
970
972
977
974
978
977
978
980
982
982
980
978
976
981
981
985
986
985
984
985
988
990
990
986
982
984
986
987
986
982
979
980
983
986
983
982
979
980
980
981
981
982
977
978
978
981
978
978
978
977
981
981
980
979
978
979
981
982
982
981
981
980
982
985
986
984
981
986
990
993
991
988
986
987
987
992
988
987
986
983
986
985
984
983
979
981
984
982
980
979
976
978
980
981
979
976
972
975
976
980
977
975
975
975
978
980
978
976
972
971
974
978
979
978
975
980
981
986
990
990
988
988
990
993
994
992
991
990
994
996
994
993
989
989
991
992
990
987
983
985
987
990
988
987
983
985
986
988
984
982
985
999
1024
1051
1077
1100
1122
1149
1180
1204
1218
1215
1205
1192
1174
1146
1099
1048
1015
1001
996
989
982
975
975
975
974
974
972
967
965
965
963
961
960
957
954
954
955
957
952
952
950
949
949
950
947
946
942
941
943
946
945
942
941
943
945
948
948
946
942
945
947
945
949
948
946
948
953
955
958
956
957
959
961
962
961
961
962
963
964
963
961
962
961
960
965
966
970
970
965
966
971
979
980
978
977
978
980
987
987
987
982
982
989
991
989
986
984
983
988
990
989
984
985
986
989
992
993
992
989
989
991
993
992
988
986
986
988
991
991
992
990
988
990
992
993
992
989
989
987
987
988
987
985
985
989
991
991
987
986
986
993
992
990
987
985
987
990
991
990
988
987
989
990
992
990
988
985
985
986
989
987
989
987
986
986
986
984
984
983
983
988
988
989
986
984
984
987
988
984
982
982
983
986
987
986
983
981
984
986
988
988
985
982
982
985
985
985
983
981
980
984
986
988
988
988
989
991
994
995
992
989
993
995
996
994
992
991
992
993
994
994
991
987
986
991
992
991
988
983
984
988
987
986
985
981
980
983
984
985
981
983
980
981
982
993
1004
1027
1049
1076
1099
1119
1144
1172
1195
1214
1221
1215
1204
1193
1181
1162
1128
1081
1041
1017
1007
1004
995
989
982
978
977
975
975
973
968
966
964
966
968
964
959
957
956
957
957
959
957
953
952
953
953
951
947
947
942
943
944
945
943
944
943
944
947
948
945
946
946
946
951
949
950
948
950
955
959
960
959
958
960
962
964
966
965
962
965
966
969
968
963
964
964
967
965
966
963
964
964
968
968
969
968
966
967
967
968
970
971
967
970
974
978
976
979
980
982
984
986
988
986
984
986
990
993
990
988
987
984
989
991
992
991
987
990
992
995
995
994
994
992
994
995
995
992
992
991
993
995
992
990
988
988
992
992
992
990
988
986
987
990
986
989
984
987
986
987
989
986
984
987
989
993
991
992
989
988
993
992
994
993
991
988
994
994
992
994
992
993
993
994
996
995
993
994
998
1002
998
994
994
995
996
998
997
995
995
991
993
993
991
992
988
991
992
992
992
988
987
985
989
991
989
988
982
983
985
986
989
984
981
983
987
989
988
986
984
985
986
987
987
988
988
988
989
992
992
989
988
988
989
994
995
993
992
992
992
994
994
992
993
993
994
996
994
992
991
986
991
993
993
989
985
983
987
989
989
987
987
987
987
991
992
988
985
987
987
991
989
987
982
981
985
985
986
985
982
983
984
989
986
987
988
989
988
991
992
990
988
987
991
996
996
995
992
993
995
999
999
996
995
997
1001
1001
1001
1000
997
998
998
999
1003
1004
1015
1026
1047
1068
1085
1103
1118
1138
1166
1187
1203
1210
1209
1201
1190
1183
1170
1141
1104
1062
1031
1016
1008
1000
988
979
976
976
979
975
971
969
970
970
970
968
965
964
965
967
968
965
962
962
965
968
969
966
963
963
965
967
966
963
960
962
962
962
961
958
955
956
953
957
955
953
952
950
955
955
957
955
954
955
953
957
957
957
953
951
955
957
956
951
954
954
961
962
963
961
960
958
963
967
968
966
964
964
966
970
972
972
973
974
975
983
985
984
983
984
987
988
986
986
986
986
989
991
992
990
987
987
990
991
993
990
987
988
989
991
989
989
987
985
986
987
986
986
980
979
983
986
983
983
984
983
985
988
988
985
987
986
986
986
990
990
989
988
989
993
994
992
993
992
991
994
992
993
991
992
995
994
994
989
989
988
992
993
993
989
990
989
991
991
991
991
989
986
986
990
989
987
983
982
987
986
986
984
983
982
987
989
988
986
982
985
985
984
986
987
983
980
985
990
993
993
989
989
990
994
995
996
990
991
992
995
993
988
987
986
987
989
989
988
984
986
987
991
991
988
986
984
987
991
990
988
985
982
984
995
1007
1028
1044
1069
1092
1113
1136
1157
1181
1198
1215
1227
1222
1209
1190
1172
1146
1106
1061
1027
1008
1000
995
989
981
975
971
969
969
970
967
964
958
959
959
961
959
956
952
949
949
949
953
951
948
947
950
951
951
944
945
947
948
950
949
947
946
943
947
950
949
945
943
945
946
946
947
944
942
940
943
947
947
945
944
943
947
951
950
949
949
949
951
957
958
957
954
952
956
956
956
957
956
958
960
960
960
960
959
958
963
965
965
967
965
966
968
976
976
975
974
976
976
980
978
979
976
975
979
982
978
981
980
979
982
984
984
983
981
981
982
984
984
981
981
981
984
984
985
986
984
984
988
988
986
988
985
982
986
987
983
983
981
980
980
981
980
979
981
981
981
983
983
983
984
983
986
985
988
984
983
982
982
983
985
982
980
982
986
989
989
987
987
986
987
986
988
985
985
986
988
992
993
991
989
988
988
988
990
989
990
988
992
993
990
987
983
981
983
984
982
980
980
978
979
982
979
981
979
975
975
978
976
977
976
976
978
978
975
977
976
976
979
982
982
980
979
978
982
983
983
983
980
983
988
993
993
993
993
990
993
995
997
995
992
987
990
998
1011
1031
1052
1075
1101
1127
1152
1178
1194
1209
1215
1206
1191
1169
1139
1091
1044
1010
995
985
975
964
963
965
964
958
954
953
954
957
956
952
951
945
949
953
954
954
950
950
955
956
956
957
953
952
952
956
954
952
950
947
948
949
950
946
946
944
948
953
951
949
946
946
949
951
950
946
944
942
943
946
947
943
943
941
943
946
945
947
945
946
948
951
950
950
951
950
955
958
960
961
959
963
968
974
977
975
975
975
979
984
984
983
982
980
981
985
984
980
982
979
982
985
984
982
979
979
981
983
983
981
978
976
977
980
980
977
972
973
972
978
977
979
978
976
978
982
982
981
981
979
981
984
986
985
982
983
985
990
990
989
984
986
988
990
990
987
987
986
988
990
987
983
981
980
983
984
983
979
977
977
978
980
978
974
973
970
968
975
975
973
969
971
972
973
975
974
975
973
971
975
975
973
974
974
978
980
982
981
979
981
983
983
982
982
980
980
984
986
985
979
976
976
978
979
981
979
976
976
978
979
980
980
976
974
976
977
978
975
974
972
973
977
980
978
978
975
976
978
977
979
977
977
978
978
980
979
977
977
982
981
987
985
987
983
989
990
991
990
983
984
986
989
991
988
983
980
983
990
1001
1018
1038
1061
1086
1107
1127
1149
1173
1195
1206
1205
1197
1185
1169
1146
1113
1067
1028
1000
991
982
973
968
963
960
957
954
954
954
955
953
952
953
953
956
956
951
952
950
949
953
950
951
947
949
951
952
951
948
943
942
943
948
947
946
941
941
945
947
945
945
941
941
940
939
942
942
940
940
941
942
945
942
940
941
944
948
947
946
944
945
947
948
950
950
949
949
950
957
958
956
958
958
958
960
967
965
963
966
969
971
970
969
971
970
972
976
977
976
973
972
973
978
978
977
975
973
974
974
973
974
972
971
973
973
973
971
972
974
975
975
973
972
975
974
976
977
976
973
972
975
977
982
983
982
980
981
981
985
985
985
982
979
979
980
980
979
978
976
977
978
979
977
977
972
974
975
976
976
971
972
976
977
975
972
969
970
972
973
976
970
971
969
970
973
976
974
972
970
969
971
976
975
973
972
974
978
980
980
979
978
977
981
979
982
977
976
977
978
975
973
973
970
972
973
974
974
972
971
973
974
973
970
969
968
972
971
971
969
969
968
971
974
973
972
971
972
972
975
975
973
973
971
980
984
982
981
979
980
981
984
984
985
980
980
983
993
1011
1031
1056
1077
1105
1133
1156
1182
1201
1210
1209
1196
1175
1146
1106
1055
1014
998
987
976
964
959
957
957
958
953
951
948
949
949
949
947
943
939
941
945
945
944
943
942
943
945
945
946
942
939
942
943
944
943
941
940
941
942
942
941
938
938
939
942
940
939
939
940
939
942
944
940
937
937
940
937
939
937
937
936
939
943
941
943
941
938
941
946
943
947
945
946
951
953
954
955
958
961
965
966
968
970
967
965
974
977
977
974
973
971
971
972
974
969
972
969
970
973
974
973
971
971
973
974
975
971
971
970
970
971
971
970
968
967
970
976
976
974
972
973
975
977
979
974
972
974
977
981
979
979
978
978
979
980
979
977
978
977
979
982
980
978
976
976
977
979
973
974
975
973
976
976
975
974
972
972
974
974
973
970
968
968
969
970
974
972
970
971
970
974
973
973
971
971
972
972
974
973
972
974
977
977
980
977
971
972
975
978
977
975
977
973
976
976
977
975
973
970
972
973
975
973
972
973
974
976
975
975
976
975
974
978
975
979
977
976
975
976
986
999
1022
1049
1078
1106
1130
1159
1186
1206
1216
1215
1203
1183
1158
1120
1071
1028
1005
993
983
972
967
968
967
962
955
952
952
955
952
951
948
946
944
945
947
946
944
940
941
940
942
941
938
939
935
935
935
933
931
929
934
935
932
933
934
935
935
937
940
935
933
935
938
941
942
941
940
940
940
943
945
946
941
943
946
946
949
948
946
943
947
948
946
947
949
948
951
952
954
952
954
956
959
963
963
962
960
962
964
967
967
968
967
968
971
974
976
976
974
975
975
973
975
975
974
975
973
978
979
980
980
979
980
982
981
980
982
981
984
982
981
976
978
976
979
981
979
975
971
971
975
977
977
974
970
972
972
973
974
972
971
969
971
974
977
977
975
973
976
978
978
976
975
974
975
976
976
976
976
976
980
983
983
981
979
980
981
983
984
980
978
978
981
980
981
978
975
973
975
977
977
976
975
972
971
977
975
976
974
974
974
977
975
976
972
972
973
977
975
977
975
976
976
979
981
976
975
976
977
977
979
979
977
974
977
983
983
981
979
979
983
983
982
982
980
979
981
982
981
979
972
975
977
976
976
973
972
970
973
976
979
977
974
972
974
976
978
977
974
975
973
979
979
979
977
976
980
979
981
979
977
978
981
981
984
982
980
982
985
983
987
985
981
981
982
984
986
985
982
984
984
984
985
981
978
976
979
981
981
982
979
975
979
981
982
980
978
976
978
980
981
982
980
981
980
982
982
984
980
984
983
987
986
985
984
984
988
989
989
988
988
987
992
992
992
990
990
989
989
993
997
1006
1023
1050
1077
1099
1119
1138
1161
1183
1198
1203
1192
1182
1165
1141
1101
1054
1012
996
989
980
974
969
970
966
965
962
962
964
962
957
955
956
955
957
957
958
954
953
954
957
956
954
953
952
954
955
955
951
949
947
950
950
951
949
947
946
948
952
950
948
948
946
948
951
951
949
948
950
951
955
955
952
954
955
958
959
958
958
959
960
960
968
969
971
970
970
971
976
978
982
980
980
981
985
985
984
984
984
983
988
989
989
990
986
987
989
992
989
987
985
985
987
985
984
981
980
980
982
983
981
978
976
978
980
983
984
981
979
980
983
986
987
985
986
987
990
991
991
992
991
989
991
992
990
988
985
989
991
992
989
984
984
986
986
989
988
985
983
983
987
987
988
982
983
982
984
984
982
979
976
978
978
980
980
979
978
981
982
983
983
981
983
984
988
988
988
984
984
986
989
992
991
989
989
988
989
992
991
986
986
986
986
987
986
980
981
982
983
985
983
981
978
981
983
980
976
978
979
978
978
979
976
973
974
975
979
982
981
979
976
978
979
979
982
983
981
986
986
989
988
984
987
991
988
992
992
999
1016
1039
1073
1100
1127
1151
1181
1208
1228
1234
1222
1206
1183
1155
1112
1065
1025
1000
991
983
976
970
967
964
961
961
958
957
952
948
948
947
949
950
949
947
946
946
948
947
945
945
945
947
948
949
951
949
950
952
954
956
952
952
951
951
951
954
954
952
952
952
952
953
951
951
949
949
952
954
953
951
950
951
951
951
952
949
948
947
948
945
943
942
946
949
956
958
959
959
959
964
968
972
972
969
971
974
979
981
983
983
983
988
988
987
987
987
987
985
987
989
987
984
983
983
985
984
984
982
981
981
981
982
976
977
977
979
979
976
972
972
971
972
974
976
974
974
973
974
979
981
981
983
984
985
988
986
985
985
983
985
989
989
991
989
989
991
993
994
992
985
986
988
988
992
989
986
983
983
983
983
984
981
981
983
983
981
980
977
979
981
981
980
979
977
978
977
981
981
981
979
978
981
983
983
980
982
981
983
985
986
984
984
985
987
990
989
988
990
990
990
993
994
993
992
990
990
994
992
990
996
1011
1032
1056
1085
1106
1127
1151
1178
1206
1225
1233
1225
1214
1205
1188
1165
1127
1079
1037
1014
1001
997
987
974
965
964
968
969
967
963
960
959
960
960
960
958
954
955
955
955
954
954
952
953
957
956
956
954
953
956
958
958
953
952
953
953
954
954
951
947
946
946
948
947
950
947
949
949
953
952
953
951
952
950
951
953
950
948
948
950
949
952
948
947
947
951
952
952
953
953
954
952
957
957
958
954
956
960
965
969
970
971
972
977
979
984
981
979
980
982
983
985
983
985
985
984
986
987
985
983
983
985
987
988
987
984
983
985
986
989
987
986
984
984
985
986
986
983
982
981
982
984
980
984
983
986
988
988
985
983
983
985
990
988
990
987
986
988
