934
935
933
937
939
936
934
937
940
943
943
942
942
943
947
947
950
946
946
949
953
958
957
955
955
956
959
963
963
963
961
963
966
968
969
970
969
970
972
973
974
972
971
971
974
974
972
971
970
973
972
969
970
969
968
970
975
976
973
970
968
967
971
974
973
970
969
971
975
973
975
973
969
971
975
976
975
975
971
970
975
977
975
974
975
973
974
974
976
975
971
973
975
974
975
972
971
971
969
972
972
972
970
971
971
976
975
975
973
973
973
974
975
975
974
975
977
978
977
977
973
971
973
975
976
973
976
975
977
979
976
974
970
972
975
978
975
974
971
969
976
983
993
1009
1033
1059
1086
1108
1135
1156
1173
1185
1192
1185
1173
1150
1120
1081
1039
1011
995
982
971
963
961
960
957
955
950
949
948
950
948
946
941
943
944
949
945
940
938
938
938
936
936
933
929
929
931
934
931
928
926
925
927
928
927
925
921
922
924
926
924
924
920
923
925
927
927
924
923
925
927
932
928
927
926
930
930
933
933
931
933
935
939
941
941
939
939
941
946
949
947
945
948
948
952
954
957
956
953
955
956
956
957
956
954
956
957
956
955
952
954
948
950
948
946
947
947
952
963
969
963
930
891
862
848
845
846
844
841
842
840
838
836
835
832
835
845
853
865
874
880
886
891
893
894
897
903
912
926
937
943
945
945
948
952
956
959
958
955
958
963
964
962
963
962
961
963
968
967
967
968
969
976
976
977
973
974
976
983
987
986
987
988
990
994
1002
1001
1001
1002
1004
1010
1014
1018
1017
1017
1018
1022
1026
1031
1031
1032
1030
1034
1036
1039
1037
1035
1035
1041
1042
1043
1039
1037
1035
1035
1036
1034
1030
1025
1020
1020
1016
1013
1006
1002
999
997
997
994
991
986
984
986
984
979
975
971
971
973
974
970
964
962
963
966
966
969
964
959
962
962
967
966
961
960
958
960
957
955
954
953
955
957
957
955
953
952
950
952
952
953
948
947
946
948
949
949
947
945
944
947
946
946
944
945
943
947
949
946
944
945
944
946
947
948
941
944
944
950
951
951
953
950
951
953
956
955
954
953
952
955
955
956
955
952
951
954
953
951
950
950
952
955
955
955
952
950
951
950
955
953
949
947
946
947
949
949
948
945
944
946
948
949
947
948
947
951
949
952
951
950
952
955
956
955
954
951
954
954
956
955
954
955
953
956
959
960
957
954
955
953
957
955
955
953
954
956
955
956
951
950
952
954
955
955
952
948
949
950
952
951
949
947
948
952
954
957
954
951
952
955
954
957
953
952
952
954
955
956
955
953
954
962
960
959
958
957
959
963
965
964
960
958
960
962
964
962
958
956
953
955
961
960
959
957
957
957
960
957
956
956
956
956
960
960
957
958
959
960
958
958
958
956
958
961
964
964
962
960
962
962
962
965
963
962
963
968
970
971
972
970
970
973
977
982
994
1010
1032
1053
1071
1085
1102
1119
1136
1149
1155
1148
1136
1124
1105
1081
1049
1013
987
973
966
962
957
953
948
942
941
941
939
943
941
938
939
938
938
935
935
933
931
932
934
934
931
931
932
934
937
939
935
935
932
936
937
938
935
936
934
931
938
939
935
935
933
933
938
937
934
934
932
936
939
939
936
934
934
938
940
942
939
935
936
940
942
939
938
938
939
940
943
943
943
942
943
944
947
947
946
945
944
946
951
948
947
947
951
954
955
958
954
955
956
960
963
965
964
962
963
964
966
965
963
963
966
967
968
968
965
962
964
967
969
967
965
961
964
964
966
967
963
959
961
962
965
965
964
965
964
966
966
967
967
964
966
970
968
968
965
966
966
970
974
976
974
971
971
976
977
975
977
973
973
973
974
974
970
968
968
969
971
971
969
967
967
965
966
966
965
960
960
962
965
965
961
958
960
962
963
965
962
961
961
961
968
968
968
967
964
966
968
968
966
964
966
969
972
969
971
969
972
974
976
975
972
970
971
975
977
976
972
969
969
971
974
978
974
972
972
972
969
971
969
973
980
994
1016
1032
1057
1076
1097
1127
1151
1171
1185
1187
1183
1173
1158
1132
1092
1049
1015
995
987
977
964
955
953
953
956
956
952
949
947
946
948
946
945
940
942
940
943
941
939
936
936
936
936
934
930
931
933
933
931
931
929
927
928
928
931
929
925
924
925
927
928
930
928
927
926
925
929
931
928
927
926
927
929
932
930
930
931
932
938
939
940
939
938
942
946
946
944
946
947
951
955
952
950
950
953
955
962
961
963
961
961
963
968
968
963
959
960
963
966
966
961
959
958
962
962
963
964
960
963
964
965
965
964
963
964
964
968
969
966
965
967
971
976
975
971
972
970
974
976
977
975
971
970
972
975
974
972
969
965
971
973
970
967
964
965
968
968
969
967
963
963
966
966
965
962
963
963
966
970
971
968
966
964
967
969
970
971
970
966
970
973
972
970
970
971
973
975
974
972
971
970
973
975
975
973
968
970
973
975
973
969
964
965
966
968
967
969
967
967
968
969
970
966
965
968
968
968
967
962
963
963
964
967
966
966
962
962
963
968
967
969
964
966
970
970
972
969
969
969
971
973
974
973
974
974
974
982
981
980
981
980
989
997
1014
1029
1051
1072
1096
1119
1142
1161
1177
1183
1181
1171
1160
1137
1109
1066
1028
1002
990
977
968
956
955
953
954
948
945
942
943
942
940
940
938
938
937
939
938
939
939
938
938
940
941
941
939
939
940
942
942
941
939
939
939
943
939
936
932
934
936
937
938
935
930
929
936
937
937
935
933
931
934
935
937
933
931
932
933
936
938
939
936
938
937
938
943
943
941
943
945
950
955
951
952
956
962
967
967
965
965
965
971
973
972
969
965
962
970
971
968
968
965
968
969
971
971
970
966
967
968
967
969
964
965
965
967
968
967
963
964
962
969
970
969
969
967
968
968
973
972
970
965
967
969
972
969
972
970
968
972
975
976
974
968
970
971
973
973
969
967
966
969
970
968
967
964
965
968
968
968
965
962
963
968
967
966
961
961
960
964
966
965
965
963
962
966
968
969
968
964
964
967
968
968
962
966
966
966
972
969
967
966
968
971
970
971
966
965
966
969
971
969
966
963
962
966
968
967
963
961
959
962
963
964
960
961
961
963
967
967
965
965
966
968
970
970
966
967
970
973
976
972
975
980
995
1017
1043
1065
1084
1105
1128
1157
1176
1189
1193
1189
1175
1162
1143
1112
1074
1032
1005
990
983
972
960
953
949
949
947
943
940
935
934
939
938
936
933
933
933
936
936
935
932
929
928
925
927
927
927
923
922
925
928
928
925
923
924
927
927
927
926
924
926
926
931
930
929
928
930
935
932
932
928
931
930
935
935
932
930
927
929
930
933
934
933
931
933
935
939
939
938
938
939
941
942
946
947
943
946
944
952
953
952
956
954
957
960
962
960
963
961
963
965
963
962
963
963
962
963
962
961
962
962
967
968
967
963
963
960
962
963
962
961
959
957
961
961
962
961
960
959
958
963
964
961
958
956
956
959
960
961
958
958
960
964
962
962
960
960
961
963
963
959
958
958
959
960
960
960
958
957
959
964
965
966
966
964
966
969
969
967
961
960
960
960
962
960
959
958
958
957
960
956
957
958
958
961
959
958
954
957
957
960
961
962
960
960
960
963
966
973
985
1004
1026
1051
1074
1098
1125
1155
1175
1186
1186
1180
1168
1152
1132
1102
1061
1018
991
978
971
962
955
944
940
940
937
935
934
927
927
925
926
925
924
921
918
919
918
920
918
915
913
911
911
912
911
906
903
904
908
914
911
911
905
909
908
914
913
910
908
907
911
913
912
911
912
914
916
919
917
918
918
918
918
920
920
920
921
920
922
923
921
918
916
916
921
924
925
923
920
921
925
929
933
931
929
931
933
935
938
935
935
937
938
941
942
942
944
943
946
948
946
944
947
944
946
950
948
946
946
945
947
946
944
940
940
935
933
931
927
917
908
896
889
883
874
865
852
844
838
837
837
842
853
863
876
888
892
896
893
888
884
886
884
891
900
920
937
950
956
960
962
960
962
964
964
963
963
964
966
969
971
969
969
969
972
975
973
970
970
969
973
975
975
974
972
973
974
979
980
980
980
980
984
988
989
991
990
995
998
999
1003
1005
1004
1003
1008
1012
1015
1014
1016
1015
1020
1026
1026
1025
1024
1022
1023
1030
1030
1027
1024
1023
1024
1024
1022
1021
1017
1013
1013
1012
1010
1002
1000
998
996
993
991
985
979
974
973
979
974
972
969
967
968
968
967
964
964
959
962
966
965
961
957
956
959
961
962
961
961
958
957
961
963
962
960
958
963
964
962
961
962
959
962
965
964
964
960
958
964
964
961
965
959
955
956
960
958
955
958
954
955
957
957
955
955
951
953
955
955
953
952
948
952
954
953
950
950
949
949
957
956
951
948
951
951
955
957
956
950
949
951
955
957
958
957
956
958
959
958
958
957
956
956
962
959
959
959
958
961
964
962
956
956
955
957
961
960
956
956
954
959
959
962
957
955
954
954
959
958
954
954
952
952
952
954
954
952
952
953
953
955
950
950
951
955
955
955
956
956
953
958
963
963
961
960
958
963
967
968
965
966
965
966
967
966
966
965
966
967
966
970
969
967
965
966
969
975
984
1001
1022
1044
1066
1085
1106
1127
1150
1167
1174
1168
1155
1137
1110
1075
1034
1001
979
974
963
960
953
954
949
945
942
945
945
944
943
939
939
941
940
940
938
935
933
932
933
934
931
928
924
926
930
929
927
924
925
925
926
923
921
923
923
925
927
926
920
923
926
930
932
932
926
928
927
931
934
932
928
929
930
935
939
940
939
938
939
940
943
944
940
940
940
941
945
945
942
943
943
945
953
951
952
954
953
956
960
962
960
959
958
960
963
962
961
961
961
964
966
965
963
962
960
963
968
962
963
961
962
966
967
967
960
962
961
966
969
968
966
966
965
969
971
969
969
964
962
964
964
964
962
963
961
965
961
959
959
960
957
962
964
962
959
959
957
961
960
958
959
959
957
959
966
963
960
957
958
960
963
962
961
958
958
960
965
966
965
963
964
966
968
967
967
965
965
963
966
966
964
962
961
965
964
962
959
960
959
963
963
962
960
961
961
962
962
960
960
959
958
961
964
964
963
962
961
965
968
970
970
965
963
969
977
991
1011
1031
1054
1081
1104
1128
1152
1169
1180
1189
1184
1173
1152
1127
1090
1050
1017
995
981
972
959
955
955
953
948
943
940
941
944
942
939
934
932
931
934
934
932
927
925
924
931
932
930
927
925
926
927
931
929
921
923
925
929
928
928
930
926
931
933
931
930
931
932
933
934
932
931
931
929
931
934
935
935
932
929
932
937
937
937
934
933
936
940
943
942
942
946
952
955
957
955
957
957
961
960
962
963
961
963
963
966
970
970
969
970
971
974
974
970
969
966
970
968
968
965
962
960
965
967
965
962
960
960
963
964
962
956
959
956
959
962
961
960
959
958
961
964
963
962
962
958
960
963
965
963
961
959
963
964
965
965
967
967
969
970
969
970
970
969
970
970
970
967
967
965
965
968
968
966
965
965
968
970
966
965
964
964
966
968
968
967
964
970
984
1003
1021
1042
1063
1082
1106
1134
1159
1176
1189
1193
1191
1179
1159
1128
1087
1042
1009
994
982
973
963
960
956
958
952
952
945
946
945
942
943
939
937
935
936
938
935
934
928
929
931
930
929
924
922
924
925
926
925
923
919
917
920
922
921
920
916
914
918
920
921
921
921
919
921
926
926
926
923
925
929
932
930
928
929
929
934
937
938
935
932
934
937
940
942
943
940
940
944
947
951
950
950
950
955
957
960
958
956
955
955
959
960
955
954
953
955
956
957
957
956
955
955
959
960
959
957
956
957
961
963
963
964
962
967
971
972
971
971
970
972
970
970
970
969
968
970
971
971
967
965
964
966
968
967
963
961
960
963
961
963
961
961
959
961
958
962
961
958
956
957
960
960
959
959
959
963
961
962
959
959
959
961
964
965
963
964
962
965
967
967
966
965
964
967
968
969
970
967
966
967
968
970
965
965
963
963
964
964
964
961
960
961
963
960
961
958
957
958
956
958
954
951
951
955
959
961
958
957
957
960
963
965
962
961
961
963
965
966
965
962
965
968
969
972
969
969
971
975
976
976
975
973
971
974
976
975
973
977
982
999
1020
1040
1057
1076
1097
1120
1143
1160
1169
1170
1164
1158
1146
1127
1098
1064
1023
997
982
977
967
956
949
948
949
950
947
944
942
941
940
942
938
934
935
936
938
939
938
936
936
938
940
941
937
935
934
936
939
938
938
935
932
932
933
933
933
932
932
933
934
934
933
934
931
934
931
933
930
928
928
930
929
929
924
925
924
928
930
931
932
930
932
936
941
942
944
944
944
946
949
948
948
947
947
951
957
958
957
958
957
963
964
969
969
969
967
968
976
976
975
972
970
974
974
974
973
970
970
973
972
969
969
966
965
967
967
968
966
965
960
963
965
963
963
961
959
962
964
963
965
965
963
966
971
970
970
969
969
970
974
973
974
973
972
974
980
977
979
980
976
979
980
981
980
978
978
979
982
980
979
975
972
976
978
977
974
972
970
973
974
975
976
973
972
973
973
972
971
966
967
968
971
972
967
964
967
968
971
972
972
970
968
971
973
973
973
970
969
970
973
972
974
971
974
978
980
980
978
976
971
976
980
979
978
974
973
974
974
976
975
975
971
972
974
973
969
967
968
970
975
975
970
968
966
968
970
970
967
964
963
962
966
967
969
967
968
967
969
970
969
968
970
973
971
969
968
966
969
981
994
1015
1034
1051
1073
1098
1121
1146
1167
1183
1187
1186
1179
1168
1150
1123
1089
1050
1018
995
983
968
963
956
956
954
947
944
941
942
943
942
938
938
933
939
938
937
934
929
926
930
932
934
933
931
928
931
930
929
929
927
929
929
933
933
930
929
931
933
934
935
935
932
933
934
937
939
937
936
937
940
940
942
936
935
937
937
941
942
941
942
941
941
942
944
945
939
939
940
943
942
941
939
941
946
949
950
948
950
952
956
959
960
959
958
958
961
964
966
967
967
963
968
974
973
973
972
971
973
971
972
972
970
970
971
971
974
973
970
969
973
975
973
972
971
969
973
975
976
973
971
969
970
971
974
974
969
965
968
971
975
973
967
970
972
973
973
973
971
971
970
975
976
976
972
975
978
982
981
981
980
977
981
983
984
981
979
980
982
981
981
978
976
975
971
977
976
978
973
973
973
978
976
977
974
974
974
975
975
973
971
971
973
975
975
975
976
974
975
974
974
976
975
974
977
976
979
978
974
975
981
983
985
983
985
983
985
986
989
985
982
986
988
991
990
987
983
984
984
985
984
985
984
983
985
984
986
983
981
983
982
988
995
1004
1016
1038
1064
1089
1108
1127
1150
1174
1191
1199
1198
1187
1173
1156
1142
1107
1069
1031
1009
1002
994
987
980
976
975
974
975
978
973
969
968
968
970
971
969
966
960
961
961
962
961
958
953
953
952
955
956
954
951
952
951
954
955
951
949
948
950
952
949
945
945
945
948
953
955
953
952
952
954
959
960
960
957
957
961
964
968
966
964
963
964
969
971
969
968
966
967
970
975
974
970
973
974
976
978
979
980
978
984
988
989
986
984
988
990
993
996
992
989
989
990
994
997
997
993
992
993
999
997
1000
996
993
995
998
998
998
995
992
997
998
1001
999
998
1002
1004
1008
1003
1006
1005
1003
1007
1009
1009
1005
1004
1001
1005
1006
1008
1004
1003
1002
1005
1007
1004
1004
1003
999
1003
1003
1005
1004
1001
999
1001
1003
1003
1005
1004
1003
1007
1009
1011
1012
1010
1005
1006
1009
1008
1008
1006
1004
1007
1010
1012
1008
1006
1006
1006
1008
1008
1006
1006
1003
1002
1004
1003
1003
1001
1004
1005
1008
1007
1006
1005
1005
1006
1008
1008
1004
1004
1005
1008
1012
1011
1007
1006
1010
1020
1039
1059
1083
1104
1127
1153
1181
1206
1228
1241
1246
1241
1229
1208
1178
1140
1094
1057
1040
1029
1021
1011
1004
1000
998
996
993
990
985
986
987
986
986
981
978
979
980
982
980
976
975
976
977
974
973
969
968
971
970
970
968
967
970
969
969
970
968
966
965
967
973
972
968
971
973
974
976
978
979
977
977
979
982
981
983
979
981
982
985
985
985
982
980
983
986
987
987
989
988
989
992
994
996
995
996
999
1001
1001
1002
1002
1003
1004
1006
1006
1006
1006
1005
1007
1012
1012
1010
1010
1010
1011
1013
1013
1015
1012
1012
1011
1016
1020
1018
1014
1017
1016
1015
1018
1019
1018
1016
1016
1017
1019
1017
1014
1012
1016
1017
1016
1016
1015
1011
1013
1016
1017
1016
1014
1008
1014
1014
1015
1012
1007
1009
1013
1016
1020
1016
1013
1014
1015
1016
1017
1018
1016
1013
1014
1019
1018
1016
1015
1014
1015
1019
1020
1021
1020
1019
1020
1022
1023
1023
1021
1020
1020
1019
1020
1020
1015
1015
1017
1020
1020
1018
1016
1017
1017
1020
1018
1017
1014
1012
1017
1021
1021
1016
1016
1014
1015
1018
1019
1019
