1004
1000
999
1002
1003
1003
1000
997
1000
1002
1006
1004
1004
1005
1004
1008
1012
1009
1010
1011
1014
1015
1018
1017
1015
1014
1012
1019
1028
1047
1069
1092
1116
1142
1167
1190
1212
1227
1238
1237
1231
1213
1187
1155
1115
1072
1044
1028
1018
1005
994
993
995
992
988
985
982
985
984
983
981
980
980
982
981
982
981
978
980
981
981
981
976
975
977
976
978
975
972
971
969
973
973
971
968
966
967
967
968
967
967
964
965
966
965
964
965
962
960
964
967
968
967
968
969
971
975
974
975
974
975
978
981
985
988
990
994
995
1003
1003
1004
1006
1005
1007
1012
1013
1013
1007
1009
1011
1013
1011
1008
1010
1006
1008
1011
1007
1006
1007
1007
1008
1007
1008
1006
1005
1004
1004
1005
1008
1006
1005
1004
1009
1008
1012
1011
1006
1007
1011
1017
1017
1014
1010
1010
1016
1020
1021
1018
1017
1016
1017
1023
1021
1020
1015
1012
1017
1017
1018
1015
1015
1014
1016
1019
1017
1015
1012
1010
1014
1014
1013
1011
1007
1007
1008
1010
1012
1012
1012
1011
1012
1016
1016
1017
1014
1015
1019
1020
1019
1021
1020
1020
1023
1024
1025
1023
1022
1023
1023
1026
1025
1023
1020
1020
1023
1022
1022
1023
1028
1043
1063
1087
1111
1130
1149
1173
1199
1220
1232
1232
1226
1209
1191
1166
1123
1079
1048
1035
1027
1022
1016
1010
1004
1002
1001
1003
1000
998
994
995
995
996
996
996
992
994
994
994
992
990
990
988
989
993
989
984
980
981
980
981
982
979
975
978
979
983
982
977
978
980
978
982
980
981
979
977
980
979
979
979
975
977
980
985
987
983
982
983
987
992
991
988
986
988
992
994
996
996
995
998
1004
1007
1007
1008
1008
1010
1014
1017
1016
1015
1014
1013
1017
1019
1019
1017
1014
1013
1015
1018
1021
1020
1019
1017
1021
1022
1023
1022
1021
1019
1018
1018
1018
1017
1013
1014
1017
1018
1017
1017
1018
1018
1022
1024
1023
1021
1019
1017
1021
1022
1025
1022
1022
1021
1022
1025
1024
1025
1024
1025
1023
1028
1026
1024
1024
1024
1027
1028
1026
1023
1021
1022
1025
1028
1026
1023
1022
1021
1024
1026
1027
1024
1023
1022
1021
1024
1021
1018
1015
1014
1016
1016
1016
1014
1015
1017
1019
1022
1020
1015
1014
1014
1017
1019
1021
1016
1015
1015
1019
1024
1023
1022
1022
1019
1020
1023
1024
1020
1019
1018
1019
1020
1018
1015
1014
1014
1014
1017
1015
1015
1009
1012
1017
1020
1018
1012
1014
1013
1013
1018
1018
1017
1016
1013
1016
1021
1016
1016
1016
1014
1020
1032
1047
1062
1084
1106
1131
1158
1183
1205
1222
1228
1233
1226
1215
1197
1173
1140
1101
1069
1048
1035
1023
1013
1005
1008
1006
998
992
991
991
991
990
989
986
985
986
988
984
982
980
980
983
983
981
978
977
976
975
979
977
975
972
974
978
979
980
975
971
972
976
977
977
977
977
975
978
980
978
978
981
982
983
984
985
985
985
983
985
989
988
987
986
983
985
988
988
985
984
985
986
990
992
989
992
993
992
996
995
995
1000
1002
1002
1005
1004
1006
1003
1006
1011
1012
1012
1009
1009
1008
1012
1017
1015
1013
1012
1011
1016
1017
1018
1017
1015
1018
1020
1019
1018
1018
1015
1018
1020
1025
1024
1022
1019
1017
1020
1022
1021
1022
1018
1017
1018
1019
1019
1018
1015
1017
1021
1017
1016
1017
1016
1015
1020
1020
1019
1016
1014
1014
1014
1017
1015
1015
1012
1012
1015
1015
1016
1016
1012
1015
1017
1021
1019
1015
1014
1016
1019
1023
1021
1017
1014
1015
1020
1024
1025
1023
1021
1018
1022
1023
1021
1022
1021
1021
1023
1025
1024
1022
1019
1018
1018
1022
1020
1016
1014
1013
1016
1017
1015
1013
1013
1013
1014
1014
1013
1012
1010
1009
1010
1013
1012
1011
1011
1010
1014
1016
1013
1012
1012
1011
1016
1016
1018
1017
1014
1014
1013
1017
1015
1017
1017
1018
1020
1026
1025
1020
1019
1016
1018
1023
1022
1021
1020
1018
1019
1022
1020
1019
1019
1017
1016
1019
1017
1018
1017
1014
1016
1019
1018
1020
1026
1041
1062
1086
1107
1125
1145
1167
1194
1219
1232
1234
1232
1220
1209
1191
1158
1116
1074
1047
1034
1029
1017
1009
1002
999
1000
999
998
996
995
991
993
994
991
988
986
985
986
989
985
983
980
978
981
982
982
975
979
977
977
981
980
978
975
975
976
979
975
976
973
972
974
975
974
975
974
975
978
980
979
978
975
977
979
981
980
977
977
976
981
985
985
983
985
983
986
989
991
990
992
991
992
999
1000
999
999
999
1001
1004
1006
1006
1009
1009
1012
1014
1013
1012
1011
1013
1014
1016
1012
1012
1010
1010
1010
1012
1012
1010
1006
1009
1012
1012
1013
1012
1011
1009
1012
1014
1014
1011
1010
1010
1010
1013
1011
1010
1009
1014
1015
1016
1012
1013
1014
1014
1016
1018
1016
1014
1012
1012
1013
1017
1016
1014
1012
1012
1011
1015
1012
1011
1010
1011
1008
1012
1010
1009
1009
1008
1008
1012
1011
1009
1008
1006
1010
1013
1010
1011
1008
1011
1014
1018
1018
1013
1011
1010
1015
1017
1016
1016
1016
1013
1016
1017
1019
1016
1012
1013
1015
1015
1016
1016
1014
1010
1013
1012
1010
1009
1006
1006
1011
1010
1009
1006
1005
1007
1007
1010
1010
1005
1003
1002
1005
1005
1008
1005
1004
1005
1007
1009
1008
1006
1008
1008
1009
1008
1009
1009
1009
1010
1015
1016
1012
1014
1012
1016
1019
1020
1018
1016
1015
1017
1021
1024
1024
1020
1017
1017
1020
1024
1031
1046
1064
1084
1106
1129
1148
1169
1190
1211
1228
1235
1229
1218
1204
1188
1163
1125
1085
1052
1033
1025
1020
1015
1005
1001
999
995
996
997
995
993
987
989
991
992
993
991
985
988
988
993
990
991
986
987
989
988
988
987
985
984
986
989
987
987
979
978
984
986
985
982
980
979
977
979
982
981
978
975
977
979
977
975
973
970
974
979
978
977
973
977
979
983
983
981
982
982
986
989
990
989
987
986
990
999
999
998
1001
1001
1006
1010
1012
1011
1011
1011
1011
1014
1012
1009
1007
1011
1013
1013
1013
1007
1005
1009
1013
1016
1013
1006
1004
1002
1007
1009
1010
1006
1003
1002
1000
1008
1007
1005
1000
1001
1001
1004
1007
1005
1003
1005
1006
1010
1009
1009
1006
1007
1012
1012
1012
1009
1009
1010
1010
1012
1009
1005
1004
1000
1004
1002
998
997
997
995
999
1001
999
997
997
998
998
997
996
995
993
992
993
995
998
995
995
990
994
995
996
998
997
994
997
996
1001
1000
999
1001
1004
1004
1004
1004
1003
1000
1004
1005
1005
1002
998
996
997
996
997
993
995
993
998
1000
1000
994
993
992
991
994
995
991
988
985
992
993
994
989
988
988
991
992
993
992
989
987
990
995
994
993
993
992
992
993
996
996
999
998
999
1000
1001
1003
1000
1000
1005
1006
1006
1009
1022
1041
1070
1095
1113
1137
1163
1182
1201
1203
1195
1181
1164
1144
1113
1071
1037
1016
1004
998
990
986
983
980
979
976
976
977
976
975
973
970
970
970
971
967
968
965
968
970
971
970
973
973
975
973
973
972
969
966
971
973
967
967
964
964
966
969
968
964
966
963
963
968
966
965
966
962
967
968
968
964
965
962
965
965
961
962
962
965
968
970
970
966
965
970
972
976
974
974
976
976
979
982
982
988
989
989
993
998
1002
1001
1001
1000
1004
1007
1005
1002
1001
1000
1004
1004
1003
1002
1002
1000
1000
1005
1004
1000
1000
998
1001
1002
1000
998
997
993
993
1001
997
998
996
997
999
1003
1004
1002
1001
1003
1006
1008
1007
1006
1006
1008
1011
1013
1013
1011
1009
1008
1011
1013
1010
1008
1006
1008
1012
1016
1016
1014
1010
1009
1010
1013
1012
1010
1007
1007
1008
1008
1010
1008
1008
1008
1010
1010
1008
1007
1005
1004
1002
1003
1005
1003
1002
1003
1005
1008
1008
1009
1004
1002
1004
1004
1003
1004
1003
1003
1002
1006
1008
1004
1003
1003
1004
1005
1005
1006
1005
1005
1004
1007
1005
1000
996
996
1000
1002
999
997
996
995
998
1000
1001
999
997
996
998
1004
1003
999
997
995
994
995
993
995
996
993
997
999
998
995
993
993
997
999
998
996
993
995
996
1001
1001
1000
999
1000
1002
1004
1004
1003
998
998
997
1002
1003
1001
999
995
997
995
995
994
992
992
997
1002
1003
1001
998
998
996
1001
1000
996
994
991
996
1000
1003
1002
1000
998
998
1003
1005
1004
1000
998
1003
1005
1005
1007
1012
1027
1050
1071
1090
1111
1129
1153
1179
1203
1213
1216
1211
1205
1202
1189
1164
1132
1092
1055
1032
1025
1016
1004
992
988
987
987
984
982
981
979
983
984
982
978
976
975
976
979
975
974
973
969
971
974
973
972
972
971
972
973
974
974
973
974
972
972
972
968
970
966
971
976
974
973
971
968
971
976
976
976
974
975
977
980
982
978
973
970
971
974
975
973
971
971
974
979
980
978
977
978
982
982
985
986
984
988
992
996
998
998
999
999
1001
1006
1007
1009
1009
1009
1012
1016
1017
1013
1009
1011
1016
1021
1022
1021
1021
1022
1024
1022
1018
1016
1016
1018
1020
1019
1013
1012
1013
1016
1016
1015
1011
1008
1009
1011
1012
1012
1012
1011
1010
1005
1009
1012
1008
1007
1006
1005
1005
1011
1015
1012
1012
1015
1017
1019
1018
1018
1020
1025
1020
1025
1023
1023
1021
1022
1025
1031
1031
1025
1019
1017
1023
1026
1023
1022
1023
1017
1015
1012
1012
1016
1018
1017
1015
1015
1013
1016
1013
1012
1014
1015
1015
1014
1006
999
997
1002
1013
1019
1024
1020
1021
1021
1021
1021
1023
1031
1039
1046
1037
1018
1006
1008
1020
1027
1023
1022
1020
1022
1024
1023
1023
1025
1024
1023
1026
1029
1027
1020
1013
1012
1016
1020
1017
1014
1012
1007
1011
1014
1010
1012
1011
1012
1012
1015
1011
1011
1007
1009
1015
1025
1040
1056
1074
1093
1117
1140
1160
1175
1185
1187
1185
1179
1170
1155
1127
1088
1052
1033
1020
1011
1004
1002
1002
1002
999
995
990
987
988
990
983
975
971
971
972
970
969
966
965
961
962
962
960
958
956
960
966
970
966
958
952
948
951
954
956
955
956
958
963
973
976
975
966
956
957
963
965
966
964
957
960
971
978
979
972
963
961
966
971
972
969
960
953
957
968
972
970
967
972
978
980
974
970
969
973
975
974
971
967
965
970
975
973
984
991
992
986
985
985
983
980
979
985
988
993
992
988
989
996
1003
1000
996
995
997
996
995
983
983
988
992
996
998
1000
995
990
987
990
1000
995
996
996
994
997
1002
1002
1002
1000
1004
1003
1003
1001
997
995
1000
1002
1003
1003
1003
1002
1000
1004
1008
1011
1010
1011
1010
1015
1018
1017
1016
1011
1010
1016
1020
1019
1019
1018
1018
1023
1024
1024
1024
1022
1020
1023
1026
1026
1024
1020
1016
1020
1021
1017
1014
1013
1012
1016
1015
1014
1014
1010
1008
1009
1012
1015
1016
1013
1009
1011
1018
1020
1020
1026
1025
1026
1029
1030
1027
1026
1025
1026
1029
1031
1030
1029
1030
1033
1037
1038
1034
1033
1033
1036
1036
1035
1035
1030
1029
1032
1032
1030
1029
1029
1029
1031
1032
1030
1026
1026
1023
1031
1036
1047
1065
1087
1113
1138
1165
1190
1218
1239
1255
1263
1260
1244
1217
1182
1138
1096
1071
1057
1045
1034
1027
1026
1025
1026
1023
1016
1016
1014
1017
1015
1013
1007
1005
1004
1005
1006
1002
999
995
997
1000
998
996
992
991
991
993
991
989
984
982
987
987
986
982
985
982
988
989
993
991
991
991
998
1001
1001
999
999
998
1003
1008
1008
1010
1006
1010
1011
1016
1015
1014
1009
1009
1013
1018
1017
1016
1016
1012
1019
1022
1024
1023
1023
1024
1028
1031
1030
1031
1030
1028
1029
1033
1032
1028
1026
1026
1032
1032
1031
1026
1026
1028
1029
1035
1034
1032
1029
1027
1031
1031
1033
1028
1027
1027
1029
1035
1034
1033
1033
1031
1037
1036
1036
1035
1033
1032
1032
1033
1031
1029
1026
1025
1026
1029
1028
1025
1021
1024
1025
1025
1023
1020
1020
1019
1020
1022
1021
1018
1017
1017
1022
1024
1026
1023
1021
1021
1020
1025
1028
1025
1021
1022
1026
1030
1028
1028
1025
1024
1027
1030
1030
1029
1027
1024
1025
1027
1026
1022
1023
1023
1027
1030
1029
1026
1024
1022
1025
1027
1027
1022
1021
1020
1023
1027
1025
1023
1022
1024
1027
1028
1027
1025
1023
1026
1027
1031
1033
1031
1029
1031
1037
1038
1035
1035
1034
1034
1035
1035
1033
1031
1029
1029
1032
1035
1035
1032
1033
1032
1034
1037
1038
1037
1038
1036
1035
1038
1043
1051
1064
1083
1104
1126
1146
1163
1186
1209
1235
1245
1242
1237
1221
1208
1185
1156
1115
1080
1063
1056
1049
1042
1037
1033
1029
1027
1028
1029
1028
1021
1021
1016
1018
1020
1020
1015
1010
1009
1008
1011
1015
1013
1012
1009
1015
1017
1015
1017
1017
1015
1015
1014
1016
1015
1012
1013
1016
1019
1019
1016
1016
1017
1020
1022
1023
1019
1017
1018
1021
1023
1024
1023
1023
1024
1027
1031
1032
1034
1033
1033
1036
1038
1038
1036
1036
1035
1038
1041
1039
1038
1038
1036
1041
1045
1050
1045
1048
1052
1057
1060
1062
1062
1063
1061
1064
1069
1068
1067
1064
1062
1066
1068
1068
1068
1066
1067
1071
1074
1073
1069
1070
1071
1075
1076
1075
1073
1074
1073
1075
1078
1079
1078
1078
1078
1076
1081
1083
1082
1080
1079
1081
1085
1082
1080
1079
1075
1076
1081
1079
1079
1078
1077
1082
1084
1084
1083
1082
1080
1083
1085
1083
1083
1078
1080
1082
1085
1087
1085
1083
1083
1087
1088
1087
1087
1086
1088
1089
1090
1093
1091
1091
1088
1090
1091
1091
1093
1092
1092
1094
1096
1096
1092
1093
1092
1092
1094
1093
1091
1086
1086
1087
1093
1094
1090
1091
1090
1094
1096
1095
1095
1093
1092
1093
1097
1095
1093
1093
1092
1090
1094
1094
1094
1096
1093
1096
1101
1097
1096
1096
1097
1098
1101
1102
1101
1100
1100
1103
1103
1105
1105
1104
1103
1101
1108
1105
1104
1102
1099
1101
1105
1103
1100
1099
1108
1121
1144
1165
1185
1205
1223
1242
1263
1285
1302
1307
1300
1292
1277
1254
1217
1173
1143
1129
1122
1116
1103
1096
1094
1093
1096
1092
1089
1086
1083
1084
1087
1087
1084
1081
1080
1082
1086
1085
1085
1081
1080
1081
1083
1081
1077
1074
1071
1072
1074
1074
1071
1070
1069
1071
1074
1072
1072
1069
1069
1072
1074
1075
1071
1071
1069
1071
1073
1073
1070
1068
1065
1067
1072
1073
1071
1072
1073
1073
1079
1080
1078
1077
1078
1079
1083
1082
1083
1081
1083
1084
1091
1090
1090
1089
1090
1093
1098
1101
1099
1098
1096
1099
1102
1103
1100
1102
1100
1101
1103
1104
1103
1104
1105
1108
1106
1108
1104
1103
1103
1105
1107
1107
1104
1101
1100
1103
1109
1107
1105
1103
1102
1102
1105
1106
1106
1104
1102
1106
1108
1107
1105
1103
1105
1106
1108
1107
1105
1103
1105
1108
1111
1111
1109
1107
1109
1111
1111
1112
1110
1104
1105
1104
1107
1103
1100
1100
1101
1103
1105
1102
1101
1098
1097
1100
1102
1104
1098
1097
1095
1096
1095
1097
1095
1093
1092
1093
1097
1099
1098
1094
1093
1096
1098
1097
1097
1093
1093
1095
1095
1098
1097
1095
1092
1095
1098
1101
1098
1097
1094
1095
1097
1098
1094
1092
1090
1092
1094
1092
1095
1094
1090
1091
1093
1092
1092
1092
1092
1093
1097
1095
1094
1094
1090
1093
1096
1099
1104
1116
1134
1155
1177
1195
1216
1235
1251
1270
1288
1295
1291
1284
1270
1255
1228
1188
1146
1119
1108
1100
1094
1083
1078
1075
1075
1074
1073
1072
1067
1066
1063
1064
1065
1062
1062
1056
1054
1053
1056
1055
1053
1052
1050
1050
1052
1051
1050
1048
1046
1051
1052
1048
1046
1045
1045
1047
1048
1047
1043
1042
1043
1046
1049
1049
1046
1044
1043
1045
1049
1049
1045
1041
1036
1039
1044
1043
1042
1043
1042
1042
1047
1048
1046
1047
1047
1052
1051
1051
1046
1047
1045
1050
1054
1054
1055
1055
1053
1057
1063
1065
1064
1062
1062
1065
1069
1070
1066
1067
1068
1071
1071
1070
1068
1067
1064
1064
1068
1067
1064
1065
1066
1067
1070
1068
1067
1066
1063
1067
1068
1067
1067
1065
1062
1067
1071
1069
1067
1070
1068
1070
1073
1072
1069
1065
1066
1068
1070
1068
1067
1064
1062
1063
1064
1063
1064
1062
1060
1059
1060
1059
1055
1052
1055
1056
1059
1059
1056
1055
1054
1058
1058
1058
1055
1050
1052
1058
1060
1058
1056
1053
1054
1057
1060
1056
1056
1054
1054
1054
1056
1060
1055
1055
1057
1055
1062
1061
1054
1055
1052
1055
1057
1059
1057
1054
1051
1051
1052
1055
1051
1048
1045
1050
1050
1053
1049
1048
1046
1047
1046
1046
1043
1042
1042
1043
1044
1045
1039
1039
1038
1037
1045
1046
1043
1041
1041
1044
1045
1046
1045
1045
1044
1044
1044
1045
1043
1046
1045
1047
1049
1048
1047
1049
1048
1049
1053
1051
1051
1047
1048
1048
1049
1051
1051
1045
1044
1045
1054
1063
1078
1093
1112
1132
1151
1173
1192
1211
1226
1240
1245
1240
1221
1208
1189
1160
1122
1089
1066
1053
1044
1039
1034
1030
1028
1022
1018
1021
1020
1019
1016
1011
1011
1012
1014
1013
1011
1007
1008
1010
1009
1011
1007
1005
1004
1006
1006
1004
1003
998
999
998
997
997
998
996
995
995
998
999
997
993
992
994
998
997
994
992
991
991
995
992
991
992
990
995
996
995
996
994
996
999
1001
999
999
996
994
999
1002
1000
996
1000
1001
1004
1008
1008
1008
1007
1006
1011
1016
1016
1014
1014
1014
1016
1016
1016
1018
1016
1017
1018
1019
1017
1012
1015
1013
1016
1017
1013
1009
1008
1009
1011
1013
1011
1008
1007
1009
1012
1015
1013
1009
1008
1006
1010
1010
1012
1008
1005
1004
1007
1009
1009
1006
1006
1007
1006
1010
1009
1006
1001
1001
1008
1010
1008
1008
1005
1001
1004
1003
1002
1001
999
1001
1003
1004
1006
1001
997
995
998
1000
1000
998
997
994
997
999
996
997
995
995
996
995
996
994
994
993
998
997
998
996
993
992
995
999
998
993
989
992
996
997
996
993
990
990
993
994
994
992
989
987
989
991
989
985
983
985
985
987
989
987
979
983
985
986
983
982
977
976
978
981
981
977
976
977
980
981
984
979
975
977
978
981
982
981
978
977
979
982
986
985
982
984
984
986
991
990
989
987
989
988
988
984
981
983
991
1005
1023
1039
1056
1077
1101
1126
1148
1163
1168
1163
1155
1146
1136
1113
1082
1043
1011
994
984
975
965
958
956
959
958
957
952
950
950
953
949
946
948
951
951
952
952
952
951
948
950
951
954
947
946
941
943
948
945
944
939
936
937
936
938
936
933
934
936
938
937
935
933
934
934
934
932
931
927
927
933
935
933
930
927
930
934
936
935
934
932
932
934
939
940
939
937
938
941
944
947
949
951
951
953
954
959
960
960
959
961
961
964
963
961
959
960
963
962
958
960
957
960
961
959
958
955
955
953
958
957
956
954
953
955
955
958
952
954
953
955
959
960
957
957
954
954
959
960
959
959
960
961
962
963
964
961
960
960
961
962
960
957
955
956
955
955
954
949
949
952
953
952
951
949
948
948
951
950
950
944
944
943
948
949
948
945
944
945
949
951
949
946
944
945
948
950
947
947
946
946
952
953
952
951
946
953
952
953
954
951
950
952
953
952
950
947
947
950
949
952
948
948
944
948
952
953
947
946
945
946
950
955
961
975
998
1019
1041
1061
1082
1103
1122
1139
1148
1151
1139
1128
1112
1088
1050
1008
