959
956
954
955
957
958
958
956
953
953
957
957
955
955
952
951
951
951
950
945
947
946
950
948
946
945
945
946
949
948
948
946
945
944
948
949
948
947
943
943
945
949
948
950
951
951
951
951
952
952
950
954
955
956
959
960
959
962
970
973
976
975
975
978
981
985
983
980
980
982
984
986
984
987
983
983
985
985
985
981
981
984
984
987
984
980
977
978
981
984
981
979
975
975
976
981
981
980
979
981
983
985
984
983
982
982
983
986
987
986
985
987
987
988
988
986
985
989
992
993
992
986
985
990
991
993
989
985
982
981
986
987
987
986
984
985
986
987
985
983
981
978
982
983
982
979
979
981
984
982
984
980
978
981
984
984
982
979
976
980
985
985
986
984
983
985
986
988
987
985
984
985
987
989
988
987
984
984
983
991
988
989
986
987
987
986
986
987
986
987
987
988
987
985
985
982
982
984
983
982
983
983
981
984
986
985
988
985
987
989
989
988
990
995
1005
1021
1043
1062
1088
1118
1146
1180
1205
1225
1227
1222
1210
1192
1164
1114
1057
1020
1008
1001
994
978
974
972
974
974
970
964
959
957
956
960
954
952
950
950
955
953
954
950
948
952
953
954
952
948
949
952
954
952
952
950
952
952
956
957
956
955
953
955
956
960
957
953
950
955
956
958
958
956
957
957
959
960
960
959
959
959
960
960
959
957
957
960
961
961
959
960
961
965
969
973
973
973
975
978
981
982
983
984
985
987
989
990
993
991
991
990
993
994
996
993
994
990
992
993
992
990
991
988
989
990
990
988
988
988
993
990
989
989
989
990
993
991
991
987
988
989
990
992
990
989
989
990
992
995
994
993
991
996
996
996
993
992
995
996
997
997
997
997
996
998
1000
1000
998
995
994
994
995
996
995
990
987
988
990
991
991
991
990
988
991
991
990
991
989
988
987
988
989
986
987
988
992
991
991
986
986
988
990
992
989
985
986
987
990
993
992
989
989
990
996
997
997
992
991
994
994
996
995
993
994
993
990
992
993
989
990
992
993
993
993
989
991
991
992
994
994
991
990
992
993
995
993
990
984
987
989
992
991
988
987
988
991
994
992
989
988
987
991
994
991
994
990
990
993
994
995
993
991
991
995
997
994
993
990
993
992
996
992
991
990
994
993
992
992
990
989
990
989
992
989
987
987
988
991
991
991
990
988
991
991
993
991
989
989
988
991
989
991
990
989
988
990
993
994
994
992
993
996
996
995
995
991
992
993
997
992
989
988
991
992
993
993
992
991
993
993
997
994
992
989
991
994
995
994
993
991
992
993
992
992
991
994
995
996
995
995
994
991
992
994
995
996
997
997
1003
1005
1007
1004
1001
1002
1011
1028
1051
1069
1091
1109
1131
1154
1177
1197
1203
1203
1195
1186
1177
1158
1123
1080
1036
1009
1000
998
987
981
975
976
974
969
967
965
963
966
968
966
961
961
962
963
962
966
963
961
958
961
963
965
963
962
963
962
965
964
962
964
962
962
965
965
961
961
962
966
967
964
960
960
960
962
965
964
963
961
960
963
965
964
963
964
965
965
965
963
961
960
960
965
966
963
964
962
966
968
971
972
968
966
968
972
975
973
971
971
973
977
980
982
984
985
986
988
991
989
987
990
992
995
999
997
994
992
993
998
997
993
992
989
992
996
994
994
992
990
991
992
994
992
991
989
989
988
986
992
988
991
990
991
995
993
989
992
990
992
992
990
990
988
990
995
997
998
995
997
998
998
1001
1001
996
996
996
998
994
995
993
988
987
988
988
991
991
987
985
987
987
987
985
984
982
982
983
984
982
983
987
989
988
985
986
987
989
990
990
992
987
983
989
993
995
995
991
990
992
994
997
996
994
993
992
993
995
992
989
986
984
987
987
985
982
980
982
986
986
986
984
986
988
990
990
987
985
983
984
989
1000
1019
1042
1068
1098
1128
1155
1183
1205
1223
1231
1233
1223
1205
1186
1158
1116
1065
1033
1014
1003
993
982
980
979
976
972
968
965
967
964
961
957
957
956
957
960
960
958
954
957
957
959
957
952
950
951
955
953
951
951
953
954
957
958
956
958
955
953
956
957
957
957
957
956
959
960
962
962
961
961
966
966
966
965
963
965
968
970
968
966
962
966
966
973
975
975
972
973
976
980
982
983
986
987
988
987
989
988
989
990
992
991
989
989
989
990
992
990
990
989
988
992
995
994
991
993
991
993
994
997
998
997
997
997
998
1000
999
997
996
998
1000
1000
997
993
992
994
999
1001
999
997
995
998
1000
1001
999
996
994
994
995
995
993
992
989
986
988
989
988
989
990
991
996
995
993
994
993
992
999
1002
1000
997
997
1000
1001
1003
1005
1004
1002
1002
1004
1005
1004
1003
1002
1001
1005
1005
1003
999
998
996
997
993
995
992
990
993
995
995
994
990
990
991
991
992
992
989
988
989
991
992
993
995
999
1001
1004
1006
1007
1003
1002
1004
1008
1009
1008
1005
1005
1007
1009
1012
1013
1013
1010
1014
1015
1018
1019
1017
1017
1013
1015
1018
1016
1016
1016
1014
1017
1016
1012
1006
1004
1007
1010
1011
1008
1007
1005
1006
1009
1013
1008
1005
1003
1004
1006
1008
1009
1016
1029
1053
1076
1102
1124
1147
1170
1200
1226
1246
1252
1245
1236
1225
1211
1190
1147
1099
1056
1039
1035
1028
1017
1007
1006
1004
1002
1004
1002
997
991
992
990
989
987
983
981
978
978
977
977
975
975
974
975
974
973
970
970
972
975
974
973
968
965
965
967
970
970
970
968
971
972
977
978
974
976
975
978
978
980
978
980
983
983
987
987
987
987
990
994
992
989
987
985
988
991
988
987
985
986
986
988
993
991
995
993
996
999
1000
1005
1004
1000
1002
1002
1004
1004
1005
1004
1006
1007
1008
1009
1006
1006
1010
1011
1014
1013
1009
1008
1010
1011
1012
1014
1009
1010
1010
1012
1014
1016
1016
1014
1013
1017
1021
1018
1017
1015
1016
1013
1014
1014
1011
1010
1008
1010
1013
1009
1008
1007
1009
1008
1011
1006
1006
1005
1003
1004
1005
1005
1002
1000
1000
1003
1005
1007
1002
1003
1002
1005
1008
1004
1003
1006
1005
1006
1006
1008
1006
1004
1006
1012
1013
1011
1009
1011
1014
1015
1017
1015
1010
1008
1009
1011
1011
1007
1005
1006
1004
1007
1005
1005
1000
1001
1003
1006
1008
1005
1001
1001
1001
1002
1005
1004
999
1000
998
1001
1003
1002
1000
996
999
1003
1002
1003
1003
1002
1003
1006
1008
1008
1006
1007
1010
1013
1015
1015
1013
1014
1016
1018
1019
1019
1015
1016
1014
1015
1016
1016
1017
1024
1039
1061
1081
1101
1118
1138
1160
1188
1210
1229
1236
1237
1235
1225
1216
1197
1168
1130
1084
1047
1028
1019
1006
997
989
986
985
981
979
978
973
979
979
974
972
970
972
975
979
978
974
974
975
977
977
977
977
976
976
978
977
976
976
977
975
980
980
977
976
975
973
976
975
976
973
969
969
970
971
969
967
966
967
972
972
970
964
965
967
972
972
970
968
967
965
971
972
974
972
968
970
972
976
977
974
972
975
979
980
981
980
980
983
985
991
991
993
993
995
1002
1003
1006
1005
1008
1009
1011
1014
1012
1009
1007
1010
1014
1016
1012
1009
1007
1005
1008
1011
1008
1008
1003
1004
1004
1006
1003
1002
1001
1002
1003
1004
998
998
995
997
999
1001
999
997
994
995
998
1003
1005
1001
999
999
1002
1005
1003
1003
1000
1002
1004
1007
1003
1003
1000
1004
1008
1010
1007
1007
1006
1006
1011
1013
1012
1010
1009
1008
1009
1008
1007
1005
1005
1004
1005
1009
1008
1004
1003
1003
1006
1005
1004
1001
999
1001
1001
1005
1004
1004
1000
998
999
1003
1003
1001
998
1000
1001
1001
1000
999
998
998
1000
1001
1002
999
997
997
1002
1003
1006
1004
1005
1005
1007
1007
1006
1004
1002
1004
1008
1007
1007
1004
1002
1004
1005
1005
1006
1001
1002
998
997
1000
1002
1003
1004
1007
1009
1009
1006
1003
998
1001
1005
1007
1007
1004
999
1002
1001
1002
1003
1001
1000
1002
1004
1003
1004
1003
1003
1004
1007
1012
1008
1006
1002
1003
1008
1018
1032
1046
1068
1088
1108
1130
1147
1169
1192
1215
1237
1246
1249
1243
1232
1219
1207
1185
1151
1108
1064
1038
1026
1020
1009
995
987
984
986
987
983
980
978
979
981
981
980
977
975
974
974
974
971
970
969
965
967
967
966
965
967
968
967
971
967
964
961
962
965
968
970
964
965
963
965
969
971
969
968
971
971
975
974
975
972
977
978
979
980
975
974
970
974
976
976
971
968
967
970
973
973
972
974
975
976
979
978
978
978
979
985
986
985
982
982
984
986
990
992
991
992
993
997
999
1000
1001
1003
1004
1005
1005
1005
1003
1002
1007
1005
1007
1004
1007
1010
1010
1011
1015
1014
1010
1009
1010
1011
1012
1012
1009
1005
1004
1004
1003
1004
1003
1000
1002
1003
1005
1004
1001
1000
1003
1003
1009
1003
1003
1002
1002
1005
1009
1008
1005
1000
1004
1005
1011
1009
1006
1005
1004
1006
1010
1007
1005
1002
1004
1009
1007
1006
1008
1006
1008
1008
1011
1010
1008
1007
1006
1010
1011
1010
1006
1003
1001
1004
1004
1003
998
996
998
999
1001
998
995
995
994
995
999
1002
999
997
999
1000
1002
1000
1000
998
1000
1004
1006
1005
1002
1003
1005
1006
1007
1008
1006
1002
1004
1007
1010
1007
1008
1008
1008
1011
1013
1013
1013
1010
1011
1009
1012
1013
1011
1010
1008
1011
1011
1007
1005
1003
1005
1017
1034
1056
1077
1098
1121
1145
1172
1195
1218
1231
1236
1233
1220
1205
1185
1151
1107
1065
1038
1024
1014
1003
996
992
991
989
985
982
979
978
979
978
976
976
974
978
979
977
974
972
976
979
981
979
977
973
975
975
975
974
971
964
966
965
965
962
962
961
960
962
963
960
961
959
959
963
964
965
963
960
958
964
967
965
962
960
965
968
972
972
970
967
968
973
977
975
971
972
972
972
976
977
977
974
976
979
987
989
988
989
990
994
998
999
996
995
996
999
1000
1000
998
996
994
996
1000
999
997
993
996
995
998
997
995
994
993
994
997
997
996
995
995
997
999
1000
999
999
1002
1002
1004
1004
1004
1002
1004
1006
1008
1007
1007
1003
1003
1008
1009
1011
1009
1007
1008
1010
1008
1008
1008
1005
1002
1004
1006
1003
998
995
996
996
996
996
994
990
993
995
995
995
996
993
994
995
995
994
991
993
992
996
1000
999
999
997
998
1001
1003
1004
1000
996
1000
1005
1006
1007
1005
1004
1006
1005
1008
1009
1007
1006
1005
1007
1009
1010
1004
1004
1000
1002
1002
999
998
995
995
997
998
997
991
994
996
997
1001
1000
1000
997
998
998
1000
999
1002
1013
1035
1063
1092
1118
1140
1164
1198
1224
1238
1239
1229
1215
1195
1165
1122
1070
1034
1020
1010
1003
997
993
986
988
985
984
983
978
973
967
968
969
969
967
964
960
961
964
964
965
962
958
960
959
961
960
957
956
956
961
962
962
964
959
960
963
967
964
966
963
964
966
970
970
970
967
970
975
977
975
971
973
972
977
975
977
974
973
973
973
976
974
972
972
972
974
978
980
980
978
981
986
990
989
987
987
991
994
995
997
994
995
995
999
1003
1005
1004
1006
1006
1006
1009
1007
1006
1003
1005
1006
1009
1009
1008
1006
1008
1008
1010
1011
1010
1008
1011
1012
1014
1013
1010
1007
1004
1007
1009
1008
1006
1001
1000
1003
1002
1003
999
997
995
999
999
1000
998
995
994
997
998
999
996
993
997
999
1002
1001
999
998
999
1003
1004
1006
1003
1000
1002
1003
1005
1006
1005
1004
1003
1008
1007
1006
1003
1002
1004
1007
1007
1007
1003
1002
999
1002
1003
1002
999
996
996
1000
1000
999
998
995
997
999
1001
1000
994
995
998
999
1001
1000
997
998
998
997
1000
1000
999
998
999
999
999
1002
1001
1002
1000
1005
1008
1008
1008
1004
1002
1008
1008
1008
1006
1007
1006
1009
1008
1007
1002
1010
1025
1048
1080
1105
1128
1152
1182
1211
1227
1235
1227
1210
1193
1172
1138
1085
1040
1013
1009
1003
996
989
986
982
979
980
978
976
971
969
971
972
973
972
971
968
969
972
971
970
970
968
966
969
970
971
969
965
964
966
967
966
965
965
966
969
971
969
966
966
965
967
968
967
967
966
968
968
970
970
969
966
967
970
972
973
970
969
970
973
977
976
971
971
975
980
982
983
984
985
986
991
994
996
995
995
995
999
999
999
996
997
996
1000
1001
1001
1000
997
999
1000
1001
998
997
994
995
995
998
999
996
994
998
995
999
996
999
993
995
998
1001
1000
996
996
999
998
1000
1000
996
996
999
999
1005
1005
1004
1004
1007
1010
1012
1011
1009
1008
1006
1007
1011
1006
1004
1003
1003
1001
1004
1007
1004
1001
1000
1001
1004
1002
1000
998
998
999
1002
999
998
997
997
999
1002
1002
1000
998
995
1000
1000
1001
999
995
995
1000
1003
1003
999
999
1002
1003
1007
1005
1002
1001
1000
1000
1000
998
995
991
991
992
996
996
995
995
998
1000
1003
1002
1001
999
997
998
999
1001
1010
1026
1050
1078
1101
1126
1148
1174
1202
1225
1235
1231
1216
1197
1174
1141
1094
1045
1015
1004
997
990
988
983
985
979
980
981
979
978
975
973
971
970
970
963
958
954
953
952
956
955
957
955
961
956
961
961
960
957
956
958
959
958
957
954
954
956
959
958
957
955
956
959
959
959
960
956
957
960
964
964
963
962
965
967
971
972
972
969
969
972
976
973
972
970
969
974
976
974
976
978
978
984
985
988
987
988
988
990
992
990
990
988
989
989
993
992
989
991
992
994
992
993
992
989
992
992
995
996
995
994
993
995
998
998
998
997
998
1000
1003
1001
998
998
993
996
995
992
988
986
985
988
991
992
992
989
989
988
991
994
990
988
985
985
989
988
989
987
986
991
990
991
991
989
987
990
992
993
992
987
990
992
994
994
992
991
991
993
992
994
993
992
991
992
997
995
994
992
988
992
993
990
986
981
982
981
986
986
983
981
982
987
993
992
990
992
988
990
990
991
993
1003
1026
1051
1079
1103
1125
1148
1176
1203
1221
1230
1223
1212
1198
1184
1160
1118
1067
1027
1011
1004
1000
990
982
974
973
976
975
974
969
966
964
965
964
959
956
954
954
954
954
951
947
943
943
947
948
947
946
945
943
945
948
946
945
944
945
946
949
949
949
945
946
947
949
950
948
948
947
951
953
955
954
954
955
957
958
957
955
954
956
960
961
964
960
958
958
960
964
964
965
963
966
969
974
973
970
971
972
975
978
978
976
977
976
980
983
983
984
983
981
984
987
986
986
982
985
989
987
989
986
986
986
986
990
991
989
989
987
992
993
995
989
988
990
989
993
988
987
983
984
984
987
984
983
980
982
982
983
985
982
980
979
982
982
982
979
978
978
982
981
984
984
983
985
986
987
986
985
984
984
983
987
989
987
985
986
989
991
990
988
985
983
990
991
991
988
987
985
988
987
987
983
979
976
978
980
980
977
975
974
974
977
978
977
975
976
978
980
979
976
972
972
972
974
986
1002
1027
1056
1091
1119
1152
1184
1212
1227
1225
1209
1182
1137
1075
1026
1002
994
986
978
971
972
972
969
965
959
956
956
954
952
953
951
947
946
946
948
947
943
941
939
942
945
942
939
935
935
939
939
937
934
933
934
937
941
940
939
938
936
940
941
941
939
938
938
941
944
946
944
943
944
947
950
951
948
948
948
950
954
954
954
951
950
952
956
955
954
950
950
953
953
954
954
957
956
960
963
964
964
961
966
969
972
974
971
970
971
970
973
975
973
972
975
978
980
980
978
976
976
980
983
981
982
979
976
981
985
985
983
979
982
987
990
987
986
986
984
988
989
987
982
980
983
984
985
985
981
978
977
979
982
979
979
977
976
978
978
976
977
975
974
975
977
975
974
971
972
977
979
980
979
978
978
979
982
981
980
978
979
979
984
982
979
979
978
982
987
984
979
981
979
983
987
984
983
982
981
983
983
984
980
978
976
978
980
980
978
977
975
974
979
975
974
976
984
1001
1028
1053
1076
1096
1123
1153
1183
1206
1217
1219
1213
1202
1191
1163
1126
1076
1027
997
994
987
977
967
963
966
967
965
959
957
955
956
956
955
951
950
948
949
949
950
945
944
942
943
942
941
940
940
940
941
941
938
936
938
935
937
938
937
933
932
930
933
934
932
932
932
934
933
938
937
935
933
934
938
940
940
937
937
938
940
943
944
942
942
943
946
950
948
944
948
950
953
957
958
959
958
955
960
965
968
966
965
966
969
974
973
969
970
968
973
977
977
974
970
967
970
974
973
969
969
965
970
974
976
973
971
967
974
975
976
975
973
972
974
979
980
978
976
975
977
981
983
982
978
979
982
981
983
982
982
979
980
981
979
978
977
973
978
979
979
978
977
975
975
979
979
977
976
974
976
976
976
975
974
972
975
978
975
975
973
974
975
979
976
975
974
973
975
977
974
973
974
973
977
982
983
977
974
976
979
980
980
979
978
976
978
981
982
978
975
974
974
975
974
973
973
973
975
975
975
972
973
975
976
978
978
976
975
974
976
979
976
973
974
974
978
979
979
977
976
976
978
981
981
978
978
976
978
984
982
981
981
981
984
985
983
981
978
982
984
987
988
986
985
985
988
990
988
985
980
980
985
994
1010
1026
1045
1067
1092
1114
1134
1159
1179
1196
1207
1207
1199
1183
1169
1145
1114
1074
1033
1006
992
985
978
972
967
966
964
962
961
962
960
955
955
953
955
958
955
954
951
949
953
954
952
951
949
947
947
951
948
945
943
944
943
945
943
937
939
939
941
943
943
942
942
941
944
947
945
943
941
940
944
946
944
942
941
941
945
949
950
949
948
949
954
957
955
952
952
951
959
963
964
963
962
966
968
969
972
973
973
972
979
981
