1025
1028
1030
1028
1026
1029
1030
1033
1034
1032
1036
1036
1037
1040
1039
1039
1036
1038
1045
1051
1049
1050
1049
1053
1059
1061
1063
1063
1063
1067
1072
1079
1080
1084
1084
1087
1089
1093
1094
1094
1096
1096
1098
1103
1100
1099
1096
1094
1093
1091
1090
1084
1078
1076
1073
1074
1068
1063
1057
1055
1052
1051
1045
1041
1040
1036
1035
1035
1035
1031
1028
1023
1025
1029
1030
1024
1023
1023
1027
1028
1027
1026
1024
1025
1025
1029
1026
1026
1024
1026
1029
1030
1028
1024
1023
1022
1023
1026
1026
1022
1022
1021
1022
1025
1023
1022
1021
1019
1020
1020
1016
1014
1010
1011
1013
1015
1013
1013
1011
1010
1012
1017
1015
1012
1011
1012
1016
1017
1018
1016
1014
1014
1015
1017
1017
1014
1014
1013
1014
1017
1016
1012
1010
1011
1014
1015
1017
1013
1011
1010
1014
1015
1012
1010
1008
1011
1012
1015
1015
1012
1011
1010
1014
1018
1015
1012
1010
1012
1015
1017
1013
1010
1008
1008
1011
1013
1012
1010
1006
1007
1008
1011
1013
1013
1010
1010
1012
1013
1012
1011
1011
1008
1009
1011
1012
1010
1008
1008
1014
1016
1017
1014
1012
1013
1013
1014
1013
1011
1010
1011
1012
1013
1016
1013
1012
1014
1016
1021
1019
1018
1014
1016
1019
1023
1022
1018
1019
1018
1019
1024
1034
1049
1070
1096
1120
1146
1166
1192
1217
1235
1243
1239
1225
1210
1188
1152
1103
1066
1041
1032
1025
1012
1002
1004
1002
998
995
989
991
994
991
993
987
986
990
988
988
988
984
983
982
987
982
978
978
975
978
979
979
978
976
977
979
982
983
979
977
979
982
983
983
984
982
979
981
985
984
982
983
983
985
991
992
989
986
985
988
991
991
988
985
986
988
990
989
991
987
985
991
992
993
993
992
993
995
997
1000
999
1001
1001
1005
1011
1011
1011
1011
1012
1017
1019
1020
1016
1014
1014
1015
1016
1017
1015
1015
1014
1016
1020
1020
1018
1016
1014
1018
1020
1019
1016
1015
1013
1013
1014
1016
1015
1010
1010
1011
1017
1016
1016
1014
1012
1017
1020
1022
1019
1019
1018
1020
1022
1021
1017
1016
1014
1018
1022
1019
1019
1014
1014
1014
1018
1018
1016
1012
1013
1010
1013
1012
1011
1009
1007
1012
1016
1014
1011
1009
1007
1011
1012
1012
1010
1009
1009
1012
1014
1014
1016
1016
1017
1019
1020
1017
1011
1013
1008
1013
1017
1016
1013
1014
1012
1008
1015
1016
1011
1011
1009
1013
1014
1014
1014
1007
1011
1012
1011
1013
1011
1013
1011
1012
1013
1014
1016
1016
1014
1016
1022
1020
1020
1017
1016
1018
1016
1016
1013
1014
1012
1015
1017
1014
1015
1014
1014
1023
1037
1054
1075
1098
1122
1148
1178
1203
1228
1244
1255
1250
1239
1220
1200
1167
1123
1079
1049
1037
1029
1019
1010
1003
1001
1003
996
994
992
992
992
991
991
988
986
986
987
984
981
977
977
978
978
978
977
976
972
975
978
979
978
978
976
979
980
980
977
977
974
977
980
981
979
976
975
979
982
983
982
980
980
983
986
986
983
983
983
986
987
988
986
982
982
985
984
987
984
982
982
984
986
989
989
984
986
990
994
996
997
999
996
1001
1003
1005
1003
1002
1000
1004
1006
1006
1003
1004
1001
1005
1003
1002
1006
1009
1009
1013
1017
1017
1014
1012
1011
1014
1013
1013
1013
1011
1009
1013
1016
1013
1013
1012
1012
1011
1014
1015
1012
1013
1013
1016
1017
1016
1013
1011
1011
1015
1015
1013
1013
1011
1006
1009
1012
1013
1008
1008
1007
1007
1009
1011
1013
1011
1010
1013
1016
1015
1013
1014
1011
1013
1018
1014
1016
1014
1012
1014
1016
1014
1013
1014
1011
1014
1013
1015
1012
1011
1011
1013
1014
1012
1011
1010
1009
1010
1016
1013
1012
1008
1007
1009
1011
1009
1009
1009
1008
1010
1011
1013
1005
1005
1004
1009
1013
1013
1013
1011
1011
1013
1012
1016
1014
1013
1012
1013
1015
1016
1012
1008
1011
1013
1016
1016
1014
1010
1011
1014
1014
1014
1012
1010
1008
1011
1015
1013
1012
1013
1011
1015
1015
1014
1012
1012
1012
1015
1019
1018
1016
1014
1012
1014
1015
1018
1014
1013
1011
1014
1014
1017
1012
1014
1009
1012
1015
1016
1014
1014
1012
1016
1018
1013
1016
1013
1012
1015
1017
1015
1016
1013
1013
1015
1017
1018
1016
1014
1013
1018
1020
1019
1018
1017
1016
1017
1018
1016
1019
1018
1020
1023
1027
1024
1023
1021
1020
1022
1023
1022
1019
1017
1015
1018
1020
1020
1016
1017
1023
1039
1061
1086
1107
1127
1146
1173
1201
1222
1233
1238
1231
1223
1215
1200
1169
1128
1080
1050
1036
1029
1022
1011
1004
1004
1006
1008
999
997
994
995
997
997
993
994
993
995
995
993
993
988
984
988
989
989
986
986
987
987
989
990
986
983
982
984
986
985
983
977
978
981
984
983
979
980
979
983
985
988
989
985
985
988
988
989
990
987
988
990
992
993
992
992
991
992
992
992
995
991
993
995
997
996
995
992
994
998
1000
1002
1000
998
1001
1004
1006
1006
1005
1004
1006
1009
1011
1011
1014
1012
1011
1015
1018
1019
1016
1018
1014
1018
1020
1019
1020
1019
1018
1020
1022
1022
1020
1020
1017
1021
1019
1022
1019
1016
1016
1018
1018
1019
1019
1014
1014
1013
1015
1015
1014
1014
1014
1016
1018
1017
1017
1014
1014
1015
1020
1018
1019
1016
1016
1018
1017
1020
1017
1015
1014
1017
1017
1017
1017
1013
1012
1013
1015
1016
1013
1010
1011
1013
1013
1013
1010
1006
1005
1005
1013
1011
1011
1009
1007
1010
1012
1013
1012
1012
1011
1013
1013
1012
1011
1009
1007
1010
1014
1015
1015
1014
1012
1014
1016
1015
1012
1010
1009
1012
1012
1012
1009
1006
1008
1011
1012
1009
1006
1007
1005
1007
1009
1008
1008
1005
1002
1004
1005
1006
1004
1001
1003
1008
1012
1012
1012
1008
1007
1013
1012
1013
1013
1009
1008
1010
1010
1011
1012
1009
1007
1012
1014
1012
1008
1014
1022
1040
1065
1090
1113
1129
1152
1177
1206
1229
1246
1252
1253
1241
1232
1215
1190
1153
1105
1065
1043
1035
1024
1013
1004
1000
1003
1002
996
993
990
991
991
988
985
981
979
979
982
981
978
974
971
974
976
973
972
971
974
974
979
979
977
973
971
972
977
979
978
978
976
980
984
984
979
981
981
982
985
985
983
977
978
979
982
984
982
979
979
981
984
983
984
982
982
982
982
983
984
982
983
987
989
989
992
991
989
994
995
998
997
997
1001
1006
1010
1009
1009
1007
1007
1007
1010
1010
1010
1006
1006
1008
1007
1007
1008
1005
1003
1006
1009
1006
1007
1006
1004
1006
1009
1010
1008
1008
1007
1005
1010
1008
1008
1006
1006
1007
1013
1014
1012
1010
1008
1009
1013
1011
1011
1008
1007
1008
1014
1012
1008
1007
1008
1007
1011
1011
1012
1009
1007
1007
1011
1012
1008
1006
1006
1008
1007
1007
1007
1002
1005
1007
1008
1012
1011
1009
1007
1008
1012
1013
1010
1006
1005
1007
1010
1008
1008
1006
1005
1006
1010
1011
1008
1003
1003
1006
1008
1009
1008
1007
1008
1008
1012
1010
1010
1010
1009
1013
1015
1014
1013
1009
1006
1014
1029
1051
1075
1097
1118
1148
1174
1201
1223
1244
1253
1256
1251
1239
1225
1202
1168
1124
1077
1048
1032
1022
1009
1005
997
999
996
990
989
985
986
984
980
976
977
977
979
980
979
974
976
977
980
980
977
975
976
976
976
977
976
971
969
968
971
970
971
973
970
972
974
976
979
978
975
978
977
977
975
974
976
977
975
976
978
975
974
978
982
982
984
981
982
983
985
987
988
985
984
986
988
985
987
986
987
988
992
996
996
993
997
1000
1004
1007
1006
1006
1007
1007
1012
1011
1009
1008
1007
1008
1010
1012
1010
1005
1006
1007
1011
1013
1012
1013
1010
1014
1015
1015
1012
1013
1011
1012
1013
1009
1010
1008
1006
1010
1012
1014
1014
1012
1013
1012
1014
1014
1014
1013
1010
1013
1015
1014
1014
1009
1010
1012
1017
1018
1014
1012
1012
1012
1013
1012
1011
1010
1009
1010
1008
1014
1011
1009
1008
1008
1009
1010
1010
1006
1007
1009
1011
1012
1011
1010
1008
1011
1013
1012
1014
1011
1011
1014
1016
1015
1015
1013
1013
1014
1019
1019
1016
1012
1013
1012
1014
1011
1010
1007
1005
1007
1005
1003
1005
1005
1003
1004
1005
1009
1006
1005
1004
1007
1010
1009
1009
1009
1011
1013
1014
1016
1016
1013
1014
1016
1018
1016
1014
1013
1012
1011
1014
1014
1012
1009
1007
1010
1013
1011
1007
1005
1005
1006
1006
1006
1004
1001
1000
1003
1006
1005
1007
1006
1005
1009
1012
1012
1013
1011
1013
1014
1015
1019
1017
1016
1015
1016
1018
1019
1018
1015
1014
1017
1019
1024
1019
1016
1012
1016
1024
1039
1056
1078
1099
1121
1144
1168
1192
1217
1233
1239
1235
1225
1210
1188
1155
1110
1063
1038
1026
1018
1008
1002
1000
1001
1000
991
990
990
990
992
989
985
982
985
985
985
986
983
982
984
987
987
985
980
978
977
979
978
974
970
968
969
969
969
968
967
965
967
969
971
971
971
970
973
975
974
975
978
977
978
980
982
980
982
979
983
985
986
985
984
983
983
988
989
992
988
989
992
991
992
990
987
987
988
990
993
992
993
994
996
1002
1004
1005
1004
1003
1004
1010
1014
1013
1010
1009
1011
1010
1012
1013
1011
1008
1011
1012
1013
1013
1011
1009
1008
1010
1011
1008
1007
1007
1008
1012
1013
1013
1012
1011
1011
1015
1016
1013
1012
1010
1011
1012
1015
1014
1011
1010
1014
1014
1018
1018
1015
1015
1017
1017
1017
1016
1014
1011
1012
1014
1016
1013
1011
1008
1009
1009
1010
1011
1009
1007
1010
1013
1013
1013
1009
1009
1010
1012
1011
1011
1007
1005
1007
1009
1008
1009
1007
1006
1010
1011
1013
1009
1011
1012
1011
1015
1015
1012
1010
1008
1007
1013
1012
1014
1009
1007
1009
1009
1011
1009
1010
1008
1010
1013
1011
1013
1008
1010
1012
1013
1016
1014
1014
1012
1015
1017
1016
1016
1016
1012
1012
1013
1017
1025
1041
1064
1090
1116
1140
1165
1191
1216
1237
1252
1252
1243
1229
1208
1186
1151
1105
1061
1037
1027
1021
1014
1006
1001
998
994
991
992
988
985
981
981
982
982
982
980
977
975
974
976
978
976
971
967
967
969
970
971
969
971
973
977
976
975
974
974
976
979
981
979
976
978
978
981
983
981
979
978
980
983
984
981
978
977
977
982
982
982
980
980
982
984
986
984
983
981
982
985
987
984
984
985
988
992
993
994
992
998
1002
1007
1013
1011
1007
1010
1012
1015
1017
1016
1013
1009
1013
1012
1012
1011
1009
1008
1009
1012
1012
1011
1008
1008
1010
1011
1009
1012
1009
1008
1008
1010
1011
1008
1007
1004
1009
1012
1013
1010
1009
1010
1011
1012
1012
1012
1009
1010
1011
1013
1014
1012
1011
1010
1014
1016
1016
1015
1010
1008
1011
1011
1013
1013
1012
1008
1012
1012
1012
1012
1012
1012
1013
1014
1016
1012
1013
1011
1013
1014
1015
1012
1007
1004
1008
1009
1012
1011
1009
1008
1009
1011
1012
1012
1008
1008
1010
1010
1011
1013
1007
1009
1010
1010
1011
1008
1005
1002
1003
1005
1006
1006
1002
1004
1004
1007
1009
1008
1008
1006
1009
1012
1013
1013
1012
1013
1016
1020
1018
1017
1017
1017
1018
1017
1020
1018
1014
1010
1013
1021
1040
1061
1084
1107
1131
1156
1181
1210
1231
1241
1241
1235
1222
1203
1172
1131
1080
1044
1026
1019
1005
996
992
992
992
989
982
980
981
981
983
981
975
979
979
980
982
978
977
976
976
979
981
978
977
974
975
977
976
972
968
966
966
967
969
968
967
965
968
968
970
973
972
968
971
975
976
975
970
970
967
971
973
972
972
969
971
973
978
977
977
976
979
981
981
978
975
978
981
983
987
985
985
985
987
991
993
994
992
993
994
997
1002
999
999
998
1001
1006
1007
1008
1006
1005
1007
1008
1008
1009
1008
1003
1004
1007
1008
1005
1002
1002
1004
1004
1005
1007
1002
1001
1001
1004
1006
1005
1001
1000
1000
1002
1003
1003
1001
1001
1003
1000
1003
1004
1004
1002
1004
1008
1008
1006
1006
1002
1007
1007
1010
1006
1002
1000
1000
1002
1003
1000
999
1000
1002
1005
1006
1005
1002
1001
1001
1003
1008
1006
1005
1005
1007
1007
1009
1007
1003
1002
1002
1006
1006
1005
1000
999
1003
1003
1006
1006
1005
1006
1006
1007
1010
1008
1003
1003
1002
1000
1001
999
999
997
999
1002
1004
1003
1000
998
999
1001
1002
1001
1000
996
1000
1001
1003
1002
1004
1004
1004
1008
1008
1007
1004
1003
1003
1006
1007
1007
1000
1002
1003
1004
1004
1006
1001
1001
1003
1003
1003
1003
1001
1000
1005
1018
1041
1067
1091
1114
1139
1168
1199
1224
1232
1233
1229
1215
1196
1165
1112
1061
1028
1015
1008
1000
989
987
989
989
986
981
978
976
974
973
974
973
971
968
967
969
970
967
966
966
969
968
971
967
965
964
966
969
970
970
969
968
968
970
972
970
971
968
971
974
974
975
972
973
974
977
979
977
975
974
973
974
976
976
974
978
980
982
985
982
982
981
982
985
991
991
990
991
992
994
997
996
995
995
997
1001
1002
1002
1002
1001
999
1001
1006
1003
1000
999
1003
1005
1005
1001
998
997
998
1004
1003
1003
1001
1002
1003
1006
1009
1008
1003
1004
1006
1007
1007
1007
1004
1004
1004
1007
1009
1009
1005
1003
1005
1009
1009
1008
1004
1003
1003
1005
1005
1003
1002
1001
1003
1004
1004
1002
1001
999
1002
1004
1003
1006
1004
1005
1005
1009
1012
1010
1007
1005
1006
1005
1008
1006
1002
998
1002
1004
1005
1004
1000
1001
1001
1004
1004
1004
999
999
999
1002
1004
1002
1002
1001
1004
1008
1007
1006
1005
1001
999
1004
1005
1006
1004
1000
1003
1006
1005
1008
1006
1001
1003
1005
1005
1004
1003
1005
1006
1007
1008
1008
1006
1006
1008
1008
1009
1010
1006
1006
1007
1009
1009
1008
1007
1008
1009
1010
1012
1011
1013
1011
1010
1010
1012
1008
1008
1013
1026
1049
1080
1105
1127
1149
1176
1203
1228
1240
1245
1237
1227
1214
1198
1167
1120
1073
1038
1025
1019
1009
996
990
988
989
989
987
984
980
977
982
980
978
972
973
971
972
976
976
978
974
977
977
977
978
976
974
976
977
978
978
977
973
974
975
976
975
974
972
973
975
977
976
973
974
975
978
978
977
973
975
978
978
980
977
976
973
975
975
981
983
978
980
981
984
987
988
988
987
990
993
995
996
998
997
996
1001
1005
1006
1002
1001
1005
1008
1008
1004
1006
1005
1005
1009
1009
1009
1008
1002
1002
1005
1005
1005
1004
1003
1004
1006
1009
1009
1010
1008
1009
1011
1014
1012
1011
1009
1006
1011
1011
1010
1012
1008
1007
1013
1014
1011
1010
1010
1009
1010
1016
1012
1010
1011
1013
1011
1009
1010
1006
1004
1004
1006
1011
1009
1008
1006
1007
1008
1011
1010
1009
1009
1009
1011
1012
1012
1004
1006
1005
1009
1011
1008
1005
1004
1003
1006
1005
1003
1002
1000
1000
1001
1001
1001
1001
999
998
1000
1005
1002
1002
1000
999
1002
1002
1001
1001
1003
1007
1013
1016
1016
1014
1012
1013
1015
1018
1018
1011
1011
1013
1012
1016
1013
1012
1013
1009
1010
1011
1012
1009
1005
1007
1007
1008
1006
1006
1005
1006
1008
1007
1005
1005
1004
1006
1006
1009
1007
1005
1006
1005
1006
1011
1007
1010
1020
1041
1064
1090
1112
1135
1154
1180
1207
1229
1240
1240
1233
1225
1213
1199
1169
1133
1093
1061
1043
1030
1022
1007
996
993
995
995
992
984
981
979
978
978
976
974
972
975
977
981
976
977
973
974
977
976
973
972
972
973
974
977
975
971
965
969
972
973
972
969
971
970
970
973
973
971
969
970
968
972
971
967
964
969
969
973
973
974
972
971
973
976
973
974
974
977
978
979
980
977
977
978
979
982
981
981
981
983
985
989
988
988
988
992
992
995
996
995
994
998
1000
1000
999
998
998
999
1002
1001
1001
999
996
998
1001
1003
1002
998
997
999
1002
1004
1004
1001
1002
1004
1004
1007
1007
1004
999
1002
1003
1007
1006
1003
1002
1003
1005
1005
1004
1006
1004
1004
1004
1005
1005
1003
1002
1002
1003
1006
1003
1002
1000
1001
1003
1005
1004
1002
1001
1000
1004
1006
1004
998
997
998
1002
1006
1005
1005
1003
1005
1007
1009
1008
1006
1001
1002
1003
1006
1006
1003
999
996
998
999
998
995
992
996
999
1000
997
999
998
996
1001
1003
1000
999
997
997
1001
1000
1004
1003
1002
1000
1000
1001
1002
1001
1000
1000
1003
1003
1007
1006
1004
1005
1005
1006
1005
1005
1001
1004
1004
1004
1002
1002
999
999
1003
1004
1004
1003
1000
999
1002
1004
1002
1000
995
995
999
1003
1002
1001
999
998
998
1001
997
998
997
998
1001
1004
1005
1003
1003
1003
1006
1007
1007
1002
1002
1001
1003
1006
1003
1003
1000
1002
1004
1006
1006
1001
998
1003
1007
1012
1020
1036
1051
1073
1099
1119
1136
1153
1175
1199
1219
1236
1238
1231
1222
1211
1198
1177
1143
1097
1054
1031
1022
1019
1012
1000
990
986
987
986
984
982
978
975
978
979
978
973
972
971
969
973
971
970
968
967
969
973
969
968
963
967
970
967
967
967
966
966
969
970
969
968
966
967
970
972
971
967
968
967
970
971
974
975
969
970
970
972
973
967
968
967
971
973
972
972
973
970
976
978
975
976
977
977
979
982
982
980
978
979
979
984
985
983
981
985
988
992
994
994
993
997
1000
1002
1003
1000
1000
1001
1002
1005
1005
1006
1002
1001
1005
1010
1007
1005
1005
1004
1004
1007
1006
1003
1000
1001
1005
1006
1004
1005
1000
1001
1002
1003
1005
1004
1000
1001
1005
1008
1006
1005
1003
1006
1009
1010
1013
1010
1006
1009
1011
1012
1012
1011
1009
1009
1010
1012
1010
1007
1004
1006
1006
1009
1009
1006
1004
1005
1004
1003
1005
1002
1001
1001
1004
1007
1007
1004
1001
1003
1004
1006
1003
1003
1001
1002
1003
1006
1006
1004
1002
1002
1005
1010
1008
1008
1006
1007
1010
1012
1011
1007
1004
1008
1010
1012
1008
1005
1002
1001
1004
1006
1005
1003
1001
999
998
1000
1004
1000
997
1001
1005
1005
1004
1002
999
999
1000
1001
1001
999
998
998
1002
1006
1011
1020
1038
1062
1089
1115
1137
1159
1181
1207
1229
1245
1249
1240
1226
1216
1198
1169
1123
1075
1041
1027
1021
1014
1007
998
992
992
990
989
990
984
981
978
976
977
975
973
969
968
970
969
966
964
962
961
967
969
965
965
962
962
964
968
969
968
965
967
970
972
971
973
972
972
973
976
976
975
973
974
975
977
977
976
973
973
975
976
978
975
973
973
976
977
979
977
977
975
977
980
979
974
973
975
981
982
982
983
984
988
991
993
993
992
992
994
997
997
999
997
996
998
1003
1007
1006
1003
1001
1005
1008
1007
1009
1006
1007
1008
1012
1010
1011
1010
1008
1009
1009
1009
1008
1006
1004
1003
1007
1009
1011
1007
1005
1004
1007
1007
1008
1003
999
1002
1002
1003
1004
1001
999
1000
1003
1005
1005
1000
997
996
999
1000
1001
1000
998
998
1002
1004
1005
1003
1004
1005
1007
1009
1012
1011
1010
1011
1013
1013
1012
1013
1013
1010
1012
1011
1013
1007
1007
1007
1008
1010
1008
1004
1004
1001
1002
1001
1002
1000
997
996
1000
1002
1002
1000
1000
1000
1004
1006
1007
1003
999
1001
999
1000
1003
1001
1001
1001
1004
1005
1007
1004
1002
1005
1004
1005
1007
1006
1004
1006
1008
1007
1009
1008
1006
1004
1008
1008
1008
1008
1005
1007
1008
1010
1010
1009
1008
1010
1012
1014
1015
1013
1011
1009
1007
1011
1018
1035
1056
1082
1111
1138
1164
1190
1212
