943
941
940
941
944
946
944
943
942
941
944
946
944
939
940
942
941
944
944
940
941
943
946
946
947
945
943
945
949
951
948
948
947
950
955
959
959
957
959
963
967
973
973
971
972
971
971
976
974
975
972
972
972
972
972
969
969
968
974
976
975
970
969
968
971
972
972
968
965
965
966
967
967
965
960
962
966
971
969
967
967
967
971
972
971
969
967
967
968
971
972
970
970
972
975
974
974
975
973
975
976
977
975
974
969
970
970
972
971
968
965
966
967
971
970
965
964
964
967
969
967
964
962
962
963
965
964
962
959
960
962
965
963
962
963
963
965
968
966
966
964
965
967
970
969
965
965
964
970
970
969
969
965
967
969
970
970
966
966
967
969
969
968
966
963
964
965
965
963
962
961
962
963
966
965
962
962
964
978
999
1021
1041
1061
1088
1110
1136
1158
1179
1195
1200
1193
1183
1171
1151
1124
1086
1041
1007
987
978
968
959
952
952
948
948
944
945
948
945
946
942
941
940
938
939
937
934
931
930
932
929
930
926
923
922
924
927
929
926
926
924
928
928
928
925
923
921
924
927
925
921
917
920
921
923
922
920
918
920
921
923
922
921
923
922
925
929
929
927
922
923
926
929
930
927
925
928
932
931
930
929
927
930
935
935
936
936
934
937
939
941
939
943
939
943
946
951
951
950
948
952
955
956
956
955
953
955
954
955
955
953
952
950
952
954
956
955
953
954
957
957
957
959
959
958
960
962
961
958
957
955
958
961
963
962
959
960
961
962
961
960
957
958
959
963
962
960
959
958
959
960
961
959
957
957
958
962
958
958
955
955
956
956
956
954
952
955
957
960
958
959
954
955
958
962
959
957
957
953
955
958
959
955
957
959
960
963
964
962
960
959
961
964
964
960
958
959
958
962
962
958
958
958
960
963
961
959
958
956
961
961
962
959
959
956
960
960
960
958
953
954
957
961
961
960
958
954
956
959
962
960
959
958
962
966
964
963
963
966
971
973
975
971
968
971
970
973
973
970
967
974
989
1011
1033
1053
1074
1096
1120
1150
1174
1191
1197
1191
1183
1172
1152
1122
1077
1025
993
980
973
959
949
946
947
948
948
941
940
937
939
940
940
937
932
932
936
939
938
934
935
936
939
944
943
941
940
939
939
943
941
938
936
937
939
939
936
936
935
931
936
938
939
933
929
932
934
936
938
936
935
933
935
937
934
931
930
930
933
937
940
937
937
936
938
944
946
945
944
943
945
950
951
950
950
953
958
960
967
965
966
968
971
974
976
974
973
974
974
977
976
973
971
971
975
975
979
975
972
972
972
973
973
972
968
968
969
971
969
968
966
964
967
969
967
965
964
965
967
972
972
971
969
968
970
973
978
973
971
973
975
983
981
980
977
977
977
982
980
977
975
974
972
975
975
973
970
972
974
977
976
971
970
968
970
972
974
972
968
968
966
972
969
963
963
964
966
971
970
972
967
970
970
974
974
972
970
966
973
975
975
975
972
976
980
981
979
979
977
979
981
982
984
983
979
981
977
980
979
978
977
975
979
979
978
975
975
985
1002
1024
1050
1072
1094
1116
1142
1170
1189
1204
1211
1211
1204
1193
1176
1150
1113
1068
1026
1003
993
984
973
964
961
962
960
955
953
951
953
954
952
949
948
948
949
950
949
946
944
943
942
950
948
945
942
941
939
941
939
940
935
934
940
941
942
938
935
935
938
942
942
939
935
934
935
940
938
937
934
933
937
939
938
941
939
937
939
942
944
941
942
943
946
946
949
949
948
951
954
958
960
958
959
956
962
964
968
969
966
970
972
975
975
974
972
969
973
974
979
978
979
979
980
984
983
979
980
979
980
981
979
976
974
974
975
976
975
973
974
972
974
979
979
978
974
974
975
977
978
976
975
976
980
980
983
979
980
979
983
984
987
983
982
981
984
985
987
984
982
979
983
981
981
979
979
979
981
982
981
979
977
977
981
980
980
978
975
972
976
975
975
973
973
972
973
978
975
974
973
972
976
978
978
976
976
975
978
979
980
981
978
978
982
983
985
982
979
979
982
982
981
982
981
980
980
983
982
980
979
975
977
980
980
978
975
973
975
976
975
975
972
973
974
973
974
971
968
969
967
971
970
969
968
970
970
973
974
972
973
969
976
976
975
974
975
972
977
979
982
979
980
980
982
986
982
982
980
978
978
981
982
978
979
977
978
979
976
976
976
975
975
978
978
985
996
1019
1048
1073
1097
1118
1143
1170
1192
1205
1200
1191
1174
1150
1116
1070
1022
993
981
973
967
966
961
961
957
956
960
959
959
952
951
951
952
955
953
949
947
943
945
946
944
939
938
938
939
942
941
938
937
935
937
940
939
937
933
931
931
936
935
936
932
932
933
937
936
937
935
935
940
940
942
939
937
940
943
945
949
948
950
950
953
957
957
956
956
952
956
961
960
959
957
957
963
965
968
966
963
964
967
970
971
970
969
965
967
971
971
968
968
967
969
969
968
968
969
968
970
972
972
971
968
969
970
971
971
969
970
970
971
971
974
974
972
973
972
977
976
973
972
969
973
976
975
973
971
969
969
971
973
973
966
968
967
972
970
969
967
967
966
971
970
968
966
965
967
971
970
969
967
965
967
971
972
970
965
963
965
968
969
966
965
967
966
970
970
967
965
964
965
967
964
965
962
963
963
964
964
963
962
961
962
963
963
961
958
960
962
965
966
965
962
961
962
966
967
962
963
961
964
968
965
967
964
963
966
971
966
966
967
965
966
970
970
969
968
969
970
974
972
973
971
968
972
976
976
972
972
977
997
1021
1043
1068
1088
1111
1139
1167
1188
1196
1191
1180
1167
1154
1126
1083
1034
996
981
975
968
957
951
948
950
952
946
942
939
937
939
941
937
934
929
929
932
935
935
931
933
933
935
938
936
933
934
934
937
937
934
932
931
927
932
936
934
933
932
932
935
935
935
936
935
934
935
939
937
933
933
934
933
934
932
935
934
932
934
939
939
939
938
939
942
945
945
942
945
948
951
957
960
961
960
961
966
968
970
969
968
969
968
971
972
970
969
967
971
974
974
971
968
966
969
970
969
966
964
960
963
965
966
966
965
965
969
970
971
968
968
969
970
972
972
972
972
969
974
976
975
975
976
974
977
979
977
975
974
973
975
976
974
972
971
972
971
976
973
968
971
970
972
971
976
974
971
971
971
972
973
972
970
969
972
977
976
976
973
975
975
980
979
976
974
973
976
979
979
979
978
976
978
982
980
978
975
973
977
980
975
975
973
971
975
975
975
972
972
972
974
976
977
974
974
973
976
979
977
976
976
973
974
973
971
976
983
999
1026
1054
1078
1100
1123
1151
1181
1206
1220
1222
1214
1201
1181
1157
1114
1066
1025
1006
997
992
982
970
966
965
966
964
963
955
950
949
949
950
950
943
943
944
944
947
943
941
940
940
942
942
940
938
936
934
936
938
936
934
936
934
937
940
940
937
935
936
939
941
942
937
939
938
940
943
944
942
942
944
946
950
951
949
949
949
951
955
954
950
953
948
953
956
954
954
957
956
957
961
962
961
962
962
967
968
969
966
965
965
970
972
975
975
976
973
975
976
976
974
975
974
976
977
978
978
975
976
980
985
984
982
981
981
980
983
982
980
979
977
979
979
978
976
976
973
976
979
977
977
974
973
975
981
975
974
973
973
974
976
978
978
975
977
977
979
979
978
979
978
980
982
982
981
982
981
983
987
986
985
984
981
982
985
985
983
979
979
981
983
978
979
977
975
979
983
981
978
977
977
979
981
980
977
974
973
980
993
1011
1030
1055
1079
1105
1133
1159
1185
1205
1220
1232
1235
1223
1204
1185
1157
1117
1071
1029
1004
994
989
981
973
971
968
964
962
961
961
960
956
954
950
951
951
949
947
942
943
944
947
946
939
940
937
942
941
941
936
935
934
934
933
931
927
924
925
929
932
931
932
933
933
937
939
940
942
941
941
942
942
945
945
942
944
945
949
952
950
952
949
954
951
957
956
953
954
957
960
958
958
954
956
960
964
965
964
964
968
971
974
974
974
975
973
979
979
976
974
970
969
972
975
970
969
967
967
973
975
975
973
973
971
975
979
977
977
974
973
973
974
976
975
974
973
976
980
980
977
977
977
981
981
981
981
979
978
981
980
977
977
975
972
975
978
976
976
974
972
975
976
975
974
973
972
974
972
971
972
968
968
971
973
974
973
973
973
975
978
978
978
976
974
974
982
983
982
979
978
983
987
986
983
980
979
983
986
984
980
979
978
978
979
976
976
973
972
976
978
976
973
974
975
978
978
978
978
974
971
973
974
978
990
1008
1035
1062
1088
1114
1140
1168
1191
1207
1215
1212
1196
1176
1152
1116
1068
1024
999
988
981
972
968
962
961
958
956
956
954
952
949
945
941
943
942
941
937
938
937
938
938
936
936
935
934
935
935
934
933
931
931
931
932
932
930
930
931
933
938
936
938
935
936
940
940
940
938
939
937
938
941
941
939
941
939
943
946
947
943
941
944
948
952
951
949
946
946
951
953
953
949
950
950
951
958
961
961
963
960
965
970
968
966
967
966
968
970
970
969
965
966
969
970
974
973
972
973
973
976
975
974
971
973
974
974
973
972
972
972
976
979
978
976
974
976
981
982
982
980
978
977
977
981
979
979
977
977
976
977
978
976
976
974
974
979
977
977
974
974
976
977
979
978
976
975
976
978
978
975
973
973
977
979
979
976
977
976
979
980
981
981
981
981
983
984
983
981
980
979
984
986
988
987
985
984
986
991
990
987
984
986
988
988
988
986
985
982
980
981
983
982
982
980
984
986
986
982
982
982
982
982
984
982
980
980
982
981
983
981
976
977
980
982
981
980
979
977
980
984
983
981
981
979
982
982
984
983
982
976
982
985
986
988
988
985
989
991
991
987
986
987
989
988
991
989
987
984
984
988
986
983
983
981
986
987
989
987
982
985
986
987
988
987
984
984
987
989
988
986
983
982
987
991
1003
1019
1042
1064
1090
1111
1132
1154
1181
1198
1219
1228
1225
1214
1202
1184
1160
1125
1077
1036
1012
1005
1000
995
986
980
975
974
973
976
973
969
964
963
960
963
960
959
956
954
956
954
954
953
954
955
953
955
951
949
948
948
948
949
947
946
946
942
947
950
949
949
947
947
950
952
954
955
951
951
954
958
956
955
950
952
955
957
962
960
955
956
957
963
962
961
959
961
962
964
963
961
958
957
964
964
967
964
963
962
967
968
970
969
968
971
973
975
977
974
975
973
976
979
980
979
978
977
980
986
987
986
985
984
987
990
991
991
988
986
989
991
992
987
988
989
990
995
996
993
993
990
993
994
993
992
993
989
992
993
992
989
986
988
987
992
992
990
989
988
989
989
990
988
986
985
986
989
988
984
981
982
980
984
985
984
984
983
984
987
987
986
984
983
987
988
987
985
983
984
984
987
987
987
986
987
990
993
994
992
991
988
988
992
991
987
986
986
986
988
986
984
983
983
986
987
989
986
987
985
987
988
987
986
981
982
983
988
986
984
978
980
980
983
983
983
982
980
982
985
987
985
983
982
984
989
988
987
983
983
983
988
987
984
981
981
985
988
989
985
986
983
987
988
989
988
985
985
987
988
988
986
980
976
977
977
976
975
973
973
978
984
983
982
983
985
987
992
991
986
986
983
984
989
999
1010
1027
1050
1077
1102
1122
1142
1170
1193
1213
1227
1222
1214
1198
1172
1145
1101
1055
1018
1000
992
990
983
975
967
967
965
966
968
965
962
958
957
955
958
955
951
949
942
946
945
946
942
939
937
940
943
941
939
938
937
940
942
942
938
938
934
939
940
943
942
941
940
943
943
945
942
941
941
942
946
946
943
941
943
944
948
948
945
947
948
951
952
956
953
952
954
954
957
956
952
950
953
955
960
960
959
960
959
962
966
967
966
964
965
967
970
970
971
966
968
969
970
970
971
971
973
977
978
976
976
975
975
981
981
982
979
976
975
976
978
978
977
977
975
980
982
982
976
974
976
978
976
976
974
970
969
968
971
969
965
967
965
967
970
967
962
962
961
965
968
967
967
963
962
964
968
967
965
964
967
968
976
977
975
970
969
972
975
977
972
971
972
972
971
976
972
974
974
977
978
979
976
975
972
974
977
978
975
973
968
969
971
973
967
963
963
963
963
967
964
963
962
964
968
969
965
963
962
961
964
963
962
962
962
965
968
969
965
966
965
963
967
969
966
964
964
965
969
971
966
960
962
967
967
970
968
966
966
967
968
970
965
965
963
967
967
966
964
960
957
961
963
962
961
960
956
959
961
961
962
960
960
961
964
961
960
961
959
961
961
961
964
966
965
967
970
971
970
965
965
967
969
971
976
988
1010
1034
1058
1078
1098
1118
1142
1170
1187
1193
1187
1175
1163
1143
1115
1069
1021
989
974
969
962
954
950
943
943
942
943
940
937
934
934
934
933
936
934
933
932
934
936
936
933
931
930
931
933
933
930
928
927
927
927
930
929
928
927
930
933
932
929
929
928
930
932
933
931
932
932
932
933
934
933
927
931
932
934
935
936
933
934
937
938
941
937
935
938
940
943
942
942
945
945
951
956
956
957
957
958
957
965
964
964
962
964
968
970
970
970
969
969
969
974
972
969
969
968
969
971
972
969
964
963
966
965
966
969
964
964
964
968
968
967
965
966
966
969
967
965
964
966
966
965
966
969
969
967
971
973
971
973
973
972
972
974
972
972
970
971
974
976
977
974
970
970
972
975
973
971
973
971
972
975
973
971
967
965
969
975
973
971
970
969
972
973
974
972
973
970
971
973
971
972
969
972
975
977
977
976
973
974
975
977
977
978
974
973
976
980
980
976
976
975
978
979
978
977
976
977
979
981
980
980
978
976
978
980
981
977
977
977
977
980
978
983
993
1010
1034
1064
1087
1110
1130
1155
1180
1203
1218
1221
1210
1191
1168
1139
1091
1043
1011
993
988
981
972
966
960
955
956
958
956
955
953
952
951
952
954
952
949
948
949
953
950
950
948
946
943
947
947
945
943
942
943
947
947
945
940
940
943
946
946
944
942
940
941
942
942
940
937
939
939
940
944
944
940
938
941
943
944
943
940
942
945
947
951
950
952
954
958
960
961
963
963
964
967
968
972
974
972
973
974
978
977
979
978
978
979
985
986
980
982
980
983
984
984
980
978
976
980
978
978
978
974
970
973
976
975
972
970
967
968
974
971
972
972
970
973
978
978
976
976
975
981
981
985
982
980
980
978
982
982
980
977
978
979
980
980
980
977
977
978
982
982
979
979
976
978
980
978
976
972
974
971
975
976
972
970
972
967
973
974
974
972
974
975
979
978
976
977
975
978
982
982
982
981
982
982
984
984
983
983
982
986
988
989
985
985
982
983
989
988
987
985
985
997
1013
1036
1057
1078
1101
1127
1153
1177
1201
1216
1223
1219
1209
1190
1164
1127
1079
1033
1008
996
987
977
969
965
964
964
961
957
956
957
956
957
956
955
954
951
956
954
952
951
950
951
949
950
948
947
944
947
942
942
939
940
939
940
943
943
941
939
939
939
939
944
942
940
937
938
937
939
936
932
935
937
939
943
941
940
939
944
946
948
947
947
946
948
951
954
954
952
953
958
962
963
964
966
965
966
971
972
972
972
972
976
977
977
975
974
976
976
981
982
981
980
979
980
982
983
983
979
979
981
983
984
979
973
976
977
976
978
977
978
977
979
980
981
981
978
977
980
979
978
978
973
976
981
981
982
981
976
977
980
981
983
982
980
982
982
985
983
982
979
979
981
983
982
981
979
981
979
983
980
979
979
978
978
976
978
976
975
975
976
978
980
978
976
974
975
979
981
980
978
980
981
984
983
981
982
980
982
987
986
982
984
983
984
987
987
984
983
980
981
981
982
981
976
977
979
982
984
982
980
981
979
983
980
979
976
976
976
977
982
980
978
982
984
985
983
982
987
1002
1026
1055
1079
1100
1122
1150
1180
1205
1220
1222
1214
1197
1180
1154
1113
1064
1023
1005
998
990
980
973
965
960
962
957
957
954
949
951
950
949
951
950
949
948
949
947
948
943
940
940
940
944
944
942
940
940
938
944
948
944
941
936
939
941
943
941
940
940
940
944
948
948
946
947
947
947
948
949
949
951
953
953
950
948
947
946
947
946
950
948
947
946
950
952
954
953
953
952
955
959
959
960
962
963
961
965
969
971
968
967
968
971
974
972
971
973
974
978
978
978
974
975
980
979
981
983
980
981
979
981
982
981
978
978
978
979
978
979
975
975
977
979
979
980
980
977
977
973
977
978
974
970
975
979
979
981
976
974
973
971
974
980
977
979
973
976
981
984
985
987
988
989
989
987
986
984
984
988
992
991
988
988
988
993
