967
968
966
964
966
968
971
972
971
971
974
976
977
978
978
976
978
982
983
981
977
979
978
974
976
979
979
978
979
980
983
982
980
979
979
978
982
982
981
980
982
983
986
987
986
983
984
986
985
987
986
983
982
984
984
983
980
980
982
986
986
985
982
980
981
982
983
982
980
980
976
978
978
980
980
979
980
979
982
980
980
979
978
980
983
981
978
979
976
977
983
987
988
983
982
985
986
985
986
980
984
987
984
986
983
980
980
980
982
978
979
978
978
979
981
977
979
977
978
979
980
979
980
973
973
975
978
980
981
978
978
979
982
982
978
980
983
985
989
988
987
986
984
986
992
1003
1018
1041
1071
1097
1120
1143
1170
1191
1204
1205
1196
1181
1164
1141
1105
1058
1022
999
992
981
974
967
965
961
960
958
956
956
956
956
953
953
954
952
957
949
951
950
952
954
954
955
951
950
951
951
956
956
958
952
952
954
954
954
952
952
952
952
954
953
952
948
946
950
953
951
950
946
945
948
950
952
948
947
948
948
952
953
950
949
950
950
951
951
947
948
950
955
956
957
955
955
958
961
965
965
966
966
968
971
975
979
977
975
979
984
987
986
987
987
984
988
991
988
987
985
985
988
985
985
985
981
984
984
987
986
983
980
982
982
984
981
978
976
973
975
979
976
974
973
975
982
982
983
981
981
982
985
984
987
985
984
983
987
989
988
987
988
990
991
994
994
993
989
987
991
994
994
992
988
985
988
990
989
984
982
980
985
985
985
982
981
979
982
982
979
977
973
974
974
976
976
975
977
978
981
987
984
983
982
982
985
985
987
985
985
986
987
990
993
989
987
989
989
992
989
992
987
990
990
991
990
987
986
984
984
986
987
985
983
983
985
987
985
983
979
979
979
980
979
975
972
972
977
984
986
986
984
989
989
993
993
991
993
992
993
993
995
998
1010
1031
1058
1085
1109
1129
1154
1181
1205
1221
1225
1216
1201
1184
1159
1118
1067
1026
1005
1000
992
983
977
974
971
969
965
967
965
961
958
957
956
958
955
951
947
949
952
949
954
952
950
952
951
954
952
952
950
950
951
954
953
953
949
952
956
957
957
957
955
955
958
959
957
956
955
959
957
959
956
957
955
955
955
959
958
956
955
953
957
959
960
956
955
955
960
960
960
959
957
958
962
963
965
964
965
966
971
975
975
975
978
978
982
986
986
984
982
985
986
990
992
990
988
988
995
997
997
995
994
993
995
995
995
992
991
990
991
992
989
987
984
984
986
988
986
984
982
978
980
981
984
980
981
983
985
987
985
985
984
984
984
987
989
987
985
989
991
992
992
989
988
989
990
993
993
988
989
990
994
995
994
992
992
990
990
993
992
990
985
987
986
987
987
983
983
982
984
985
983
982
980
980
983
984
983
980
980
980
984
986
986
985
985
985
988
992
990
990
989
990
994
996
994
993
990
992
993
997
995
995
992
994
997
999
998
995
993
995
995
997
991
992
989
988
990
992
989
986
985
985
988
988
987
984
982
982
984
987
986
984
984
982
984
985
984
983
985
999
1019
1044
1067
1089
1107
1128
1157
1186
1208
1220
1220
1214
1208
1195
1170
1131
1084
1041
1020
1012
1005
994
983
976
979
979
977
969
966
966
967
966
961
961
956
956
958
959
958
954
951
952
952
957
954
952
948
949
949
952
952
950
946
947
947
948
948
945
945
947
947
952
951
948
947
948
950
954
954
950
946
950
952
956
956
956
956
956
960
962
961
961
959
958
960
965
962
961
958
959
962
963
963
961
960
961
963
969
968
967
966
967
970
974
975
974
974
975
976
980
977
977
975
976
980
983
985
980
978
977
981
986
985
984
983
981
985
989
988
985
983
986
987
985
988
987
986
986
988
991
991
987
987
985
988
989
986
985
981
981
983
982
982
982
979
981
982
980
978
977
976
976
978
980
974
973
971
971
971
975
975
975
974
977
978
982
981
977
978
980
981
984
984
980
981
982
984
988
989
988
985
988
989
993
994
991
990
989
993
994
992
990
988
987
987
989
987
985
982
981
981
985
984
983
974
977
977
979
981
975
973
971
973
974
975
971
967
968
972
975
974
973
970
969
970
973
974
970
968
971
974
976
976
977
976
977
985
988
986
986
985
986
987
990
992
988
985
986
985
984
983
980
980
981
981
985
984
979
977
978
982
984
982
973
970
978
992
1016
1042
1065
1089
1114
1142
1168
1186
1193
1191
1179
1170
1154
1120
1073
1025
1001
985
984
975
962
962
961
961
959
959
957
952
952
953
958
955
954
948
950
952
952
950
947
947
945
947
949
949
948
947
944
943
944
944
940
940
939
941
941
942
939
939
937
943
944
944
938
939
941
942
944
945
941
943
940
944
945
948
949
949
950
951
956
957
953
949
951
953
955
954
951
948
948
953
953
957
955
958
963
967
970
972
968
967
970
974
979
977
974
970
971
973
974
973
972
972
971
974
977
976
973
972
972
976
978
980
979
975
974
978
981
982
976
974
978
979
982
980
980
977
975
978
977
978
974
974
973
973
974
973
971
968
971
975
978
979
975
975
975
979
982
981
983
979
979
979
978
980
978
976
975
978
981
981
978
978
978
979
982
982
979
979
979
980
983
982
980
979
978
980
983
983
981
980
982
984
986
983
982
978
979
982
981
981
973
972
971
972
973
973
968
966
968
972
976
977
974
974
975
977
979
979
976
975
975
975
978
977
975
974
976
979
982
979
979
975
973
975
978
982
978
975
979
981
983
982
982
982
981
984
986
985
983
983
981
982
985
983
980
973
974
974
974
974
973
971
974
975
975
976
978
984
1000
1024
1049
1071
1090
1110
1134
1157
1183
1196
1196
1190
1181
1170
1150
1113
1061
1018
993
989
985
976
966
962
964
964
963
961
959
957
958
957
960
958
955
951
950
950
950
951
947
946
945
945
948
947
945
944
939
944
949
947
945
942
942
946
947
948
945
941
942
943
944
945
941
942
937
946
948
949
946
946
946
946
952
953
951
947
948
951
957
955
955
953
954
958
961
963
958
958
957
960
963
962
963
959
958
963
967
964
966
967
969
972
974
975
976
976
978
980
981
981
978
980
972
976
979
979
975
973
974
975
979
978
979
978
977
980
980
979
982
978
977
979
981
982
980
980
976
982
982
982
982
981
982
983
986
986
984
982
981
983
986
985
982
980
979
982
981
980
981
980
980
981
983
985
983
980
979
981
981
981
981
975
977
978
979
981
979
978
979
979
983
985
981
979
976
980
983
982
981
979
978
980
983
983
980
980
979
985
985
986
986
981
981
985
987
987
984
982
981
983
984
982
983
980
980
981
986
986
986
983
982
984
984
984
983
980
981
982
982
983
979
977
976
979
980
981
980
978
976
981
983
982
983
981
980
980
983
983
981
978
978
981
984
985
984
984
982
984
987
987
985
984
983
985
985
982
981
978
975
974
974
973
973
966
968
972
977
979
979
979
978
980
983
982
982
979
979
979
981
981
981
981
979
982
984
980
981
981
982
983
986
984
982
983
982
986
988
992
986
984
987
990
992
992
989
988
987
988
988
985
981
977
974
975
984
999
1020
1044
1067
1091
1113
1142
1166
1185
1195
1195
1192
1177
1157
1127
1080
1036
1005
993
988
981
971
969
968
967
963
955
956
958
960
957
955
953
954
957
959
957
954
954
953
955
958
955
950
950
945
944
945
944
938
937
935
938
943
943
940
939
939
943
945
943
943
943
943
945
947
947
944
944
945
948
950
950
950
947
950
952
954
956
954
952
953
957
960
960
956
959
961
963
966
967
966
967
968
973
976
976
972
971
969
970
972
975
973
972
970
974
976
977
975
978
976
977
981
979
978
977
977
978
980
978
978
977
976
977
979
977
977
975
976
977
976
978
974
974
976
978
981
979
977
978
976
980
982
980
980
978
976
979
975
978
974
972
971
970
976
976
974
967
967
970
971
973
970
971
972
974
978
978
974
972
969
973
980
981
980
978
975
977
980
981
980
975
976
978
980
981
981
979
978
982
981
981
981
980
979
981
983
981
980
977
975
972
977
976
972
971
971
971
972
972
969
969
969
971
974
973
972
971
970
972
974
975
974
976
977
977
979
978
975
977
976
977
979
979
977
979
978
979
981
978
976
980
980
984
986
987
983
980
983
983
984
981
979
977
974
975
977
975
972
971
971
975
974
972
972
971
974
974
977
972
970
970
969
969
976
976
977
977
979
980
981
979
979
976
975
977
980
977
978
977
976
980
983
983
979
979
980
982
985
985
980
980
980
980
982
980
976
974
974
973
977
976
971
971
969
970
974
970
970
971
966
972
975
975
970
973
974
976
977
980
982
980
980
979
979
978
978
979
979
983
985
984
986
986
985
988
991
989
988
987
989
992
987
989
992
1003
1023
1045
1068
1086
1104
1126
1146
1166
1179
1177
1169
1157
1138
1108
1064
1019
992
983
980
975
971
968
966
963
960
959
961
958
958
955
954
954
956
955
954
952
952
955
954
954
954
952
951
954
954
952
950
947
945
944
947
945
941
942
944
944
942
942
941
941
940
944
946
942
941
941
940
943
946
948
947
949
948
951
954
956
957
954
956
958
959
961
959
959
960
961
966
966
965
966
968
970
974
975
976
978
977
977
981
978
978
977
977
979
980
982
981
978
975
976
979
979
977
972
971
974
976
976
975
973
973
977
981
982
981
978
979
981
981
984
981
979
977
983
986
987
985
984
983
987
989
988
987
985
987
987
988
985
985
983
980
983
984
983
980
978
979
978
980
980
978
975
977
976
977
978
975
973
972
975
977
980
978
976
977
980
982
984
983
983
982
982
983
986
983
982
983
986
992
990
986
986
986
987
989
987
986
985
981
983
987
984
980
979
978
978
980
979
977
976
974
977
978
979
974
973
973
974
977
978
975
975
975
976
983
984
983
981
982
984
987
986
985
981
982
984
987
988
989
987
987
993
995
996
992
993
989
992
994
999
1013
1027
1052
1077
1102
1123
1144
1168
1189
1207
1210
1200
1187
1168
1144
1109
1063
1021
1000
988
979
972
971
967
964
964
960
961
963
962
960
957
955
957
961
959
956
954
954
958
956
958
959
956
958
959
963
963
959
957
956
959
959
959
955
955
955
956
956
955
952
950
947
951
954
954
951
950
949
951
954
952
951
951
949
953
953
954
954
953
953
954
958
961
960
960
960
962
966
968
965
965
966
970
971
973
975
974
978
981
982
985
984
984
983
989
992
990
986
986
987
987
989
987
984
980
979
981
983
983
981
979
975
979
981
981
981
977
977
976
978
981
979
977
975
979
981
982
980
980
979
983
984
983
983
983
978
984
985
987
985
984
986
989
990
991
989
987
986
988
992
989
987
984
983
983
985
984
982
982
983
982
982
984
982
980
981
979
984
983
980
977
977
980
982
982
979
979
979
981
982
981
981
980
981
981
983
984
983
978
978
983
985
985
983
981
983
986
986
987
987
987
985
988
987
988
985
984
984
980
985
986
983
980
979
981
984
982
983
982
979
982
983
985
981
982
981
984
984
984
982
979
979
982
983
981
979
981
980
985
989
989
987
984
981
987
992
1000
1014
1034
1056
1083
1105
1128
1149
1176
1198
1219
1229
1226
1213
1200
1184
1159
1121
1074
1035
1011
1001
993
985
974
970
968
966
966
966
965
963
959
958
960
961
960
957
954
952
950
953
950
948
945
944
946
949
950
947
944
944
945
946
946
943
943
940
941
946
946
945
943
943
947
950
949
949
945
947
948
952
953
955
954
950
956
956
957
956
955
954
953
959
959
960
960
959
961
963
964
964
961
960
963
964
966
965
964
964
965
970
969
973
971
973
976
978
978
978
977
977
980
980
983
980
979
980
980
983
985
986
983
985
985
987
991
989
986
985
987
986
988
986
985
979
984
986
987
986
985
985
986
986
987
983
982
981
984
987
986
983
980
980
980
980
982
983
980
980
984
985
983
980
974
974
976
981
982
979
974
977
984
988
988
984
984
986
987
990
992
990
987
986
990
990
990
988
987
985
984
986
986
984
980
977
983
984
984
980
980
980
980
983
981
978
977
976
976
979
979
977
975
975
978
980
982
978
978
976
979
982
982
982
979
979
980
984
984
982
980
980
981
987
989
986
984
984
986
988
986
985
985
987
987
993
992
988
986
985
987
989
990
987
983
983
982
984
983
985
992
1005
1027
1052
1075
1091
1107
1129
1157
1183
1197
1208
1204
1198
1191
1179
1160
1131
1091
1047
1017
1001
997
986
976
967
966
967
966
962
961
957
957
959
963
959
957
954
956
959
959
956
950
948
951
954
957
953
950
946
949
950
949
946
943
945
947
948
949
946
942
942
945
943
945
940
938
937
942
945
942
943
939
939
938
941
944
942
941
939
946
950
950
949
946
949
953
953
952
954
953
951
958
962
962
958
960
962
963
966
969
970
965
968
971
974
972
973
969
970
974
979
980
978
977
976
977
980
983
980
977
976
978
980
981
977
974
974
977
979
980
978
976
975
978
981
980
978
978
977
980
980
981
980
979
979
977
981
982
983
983
981
980
985
986
983
983
982
982
985
986
985
983
978
980
981
983
981
979
981
980
983
982
980
978
975
978
982
982
979
976
974
978
980
980
979
977
974
979
981
982
981
979
975
982
983
985
987
985
984
984
989
989
987
985
984
985
989
990
988
985
982
984
983
986
981
978
977
977
980
980
978
977
976
978
978
978
976
976
975
974
977
977
975
973
975
976
980
981
979
976
976
979
982
981
980
980
985
984
987
990
990
987
987
991
993
992
993
992
990
989
989
994
1000
1015
1032
1058
1080
1102
1121
1144
1168
1190
1208
1213
1207
1195
1181
1170
1149
1112
1066
1027
1003
995
990
981
970
964
963
966
967
963
961
960
960
958
961
961
958
955
954
956
955
957
957
953
950
952
955
958
955
955
951
952
952
951
951
952
949
951
955
954
949
949
948
949
948
949
950
949
948
949
951
952
951
951
948
952
953
953
951
950
947
949
955
953
952
953
952
956
960
959
960
958
958
961
963
965
965
963
958
964
968
971
969
968
974
977
980
983
980
981
981
987
989
989
990
986
987
987
987
988
985
984
983
986
986
988
988
986
985
988
991
988
987
984
982
986
985
984
984
982
981
983
986
985
984
983
982
984
987
988
986
984
985
987
990
989
989
987
989
992
993
997
993
991
990
994
995
994
994
990
990
990
992
992
989
989
987
989
990
991
989
987
986
985
989
986
983
983
980
984
987
987
986
984
985
983
986
986
987
985
983
984
986
985
985
987
982
986
990
993
991
990
990
991
991
995
994
993
993
993
993
993
993
991
990
989
991
992
990
990
990
991
991
989
988
987
985
987
986
986
987
984
982
984
983
982
985
982
985
985
986
989
987
983
982
986
987
990
987
988
989
992
994
996
995
994
995
995
996
1001
1005
1015
1036
1059
1084
1103
1126
1143
1167
1191
1211
1224
1223
1216
1205
1194
1177
1150
1108
1059
1024
1012
1008
1001
989
978
975
972
972
970
968
964
962
962
962
962
964
961
960
962
961
961
960
956
955
957
958
955
954
954
954
954
956
955
957
954
952
955
956
957
957
955
953
954
958
958
955
952
951
952
954
954
954
950
950
951
955
957
954
953
953
955
957
960
958
955
954
955
956
959
960
958
958
960
963
968
967
965
965
968
970
970
973
973
971
975
979
980
982
981
981
983
987
990
990
989
990
992
991
994
994
990
990
989
990
990
991
988
989
988
990
991
989
987
986
986
987
986
986
985
982
984
985
984
983
981
982
983
987
986
989
988
988
989
991
993
988
991
988
988
992
992
993
992
989
994
997
997
998
991
992
993
991
995
994
987
986
988
991
990
988
986
984
985
985
988
985
983
983
982
984
984
984
979
980
982
983
984
985
980
982
986
986
987
986
986
985
985
990
987
989
986
986
988
992
994
993
990
989
990
994
992
992
989
989
990
992
993
990
987
987
987
991
993
994
991
991
990
989
989
991
993
1009
1033
1059
1085
1110
1131
1158
1188
1212
1226
1226
1217
1199
1178
1153
1111
1061
1020
1004
997
992
983
975
973
971
972
971
973
971
966
964
963
966
965
963
958
957
956
957
956
956
953
953
952
954
954
952
950
947
950
952
954
953
950
946
947
945
946
947
943
939
942
944
945
947
944
940
943
946
948
948
942
947
947
950
952
952
949
951
955
962
965
962
963
963
964
964
964
967
966
966
967
970
971
970
970
968
972
975
978
978
980
977
974
981
983
984
980
981
983
983
981
981
979
980
980
982
983
981
982
982
985
984
984
981
981
981
983
988
990
987
983
984
986
987
990
988
988
987
990
991
992
992
989
988
990
990
990
989
986
986
985
986
989
987
987
984
985
987
986
985
986
982
982
