961
961
962
959
958
960
963
965
962
960
958
958
961
963
962
963
962
962
962
963
964
963
961
961
962
965
964
965
961
962
964
966
969
969
964
967
970
973
971
971
970
971
976
982
986
990
994
997
998
1000
998
997
997
996
996
995
994
988
985
981
983
985
981
975
968
965
967
967
967
965
960
958
956
961
963
960
956
956
958
959
958
959
956
956
959
958
956
953
950
946
944
950
967
998
1039
1090
1150
1208
1246
1241
1196
1140
1089
1048
1021
1011
1000
994
991
986
980
973
964
960
956
952
952
949
948
945
946
947
946
945
943
944
945
949
948
944
941
943
947
949
947
945
941
941
942
947
951
952
949
946
948
950
951
948
947
950
949
950
953
949
946
947
948
949
949
947
945
947
952
957
953
949
948
952
954
956
956
955
956
957
959
962
961
962
958
960
964
966
966
967
966
968
972
975
977
974
976
979
982
985
989
990
988
989
993
996
997
999
997
1000
1004
1004
1005
1006
1006
1005
1006
1007
1005
1000
996
998
1000
997
997
992
988
984
983
985
982
980
978
978
976
974
974
969
968
967
967
972
972
968
964
964
966
966
966
963
962
962
963
966
964
961
960
963
961
963
961
961
958
957
964
966
966
966
962
961
961
963
966
965
965
962
965
966
966
964
965
962
966
967
966
966
965
964
968
966
968
965
966
965
967
969
968
969
964
964
966
968
968
968
965
965
964
965
964
964
963
965
967
970
971
967
964
965
967
970
967
967
963
968
970
972
968
966
966
969
968
972
974
973
971
970
974
977
977
974
975
979
984
989
994
995
997
1003
1002
1003
1001
1001
996
995
995
996
995
990
988
987
991
988
987
981
977
973
971
975
972
969
967
967
968
967
965
963
961
962
964
965
964
960
959
961
959
963
963
958
957
955
955
953
952
950
954
977
1014
1058
1105
1158
1206
1235
1226
1184
1135
1090
1046
1020
1010
1007
998
990
986
983
979
975
969
959
952
952
954
954
953
948
946
946
949
952
950
950
947
947
947
947
950
950
948
949
946
948
949
948
946
947
948
949
948
945
947
947
948
950
950
946
944
945
949
953
953
948
945
946
948
948
949
949
948
947
951
953
951
953
950
952
953
957
956
955
955
955
956
962
961
959
960
962
963
966
966
969
969
970
975
976
980
978
978
981
984
988
989
990
991
991
996
1000
1001
1001
999
1004
1004
1005
1008
1009
1007
1005
1006
1006
1004
1003
999
999
999
998
996
992
986
983
985
986
982
979
976
973
973
977
977
973
971
969
969
971
969
970
968
967
970
970
970
970
967
965
966
970
968
966
966
964
965
969
967
965
965
965
967
969
970
969
968
967
970
969
971
970
970
969
970
975
973
971
969
966
970
971
972
969
971
972
975
976
974
972
969
967
969
972
974
970
969
971
970
974
973
969
970
968
971
972
972
970
969
969
972
974
971
970
970
967
972
973
971
971
971
972
971
974
974
973
973
976
976
978
977
978
983
985
991
999
1004
1005
1004
999
1002
1002
1002
999
995
994
994
993
992
991
988
987
985
983
980
975
969
969
970
970
969
967
964
965
965
969
965
962
962
963
963
963
961
961
959
961
962
963
962
958
951
946
950
955
970
996
1034
1079
1130
1187
1229
1234
1199
1147
1100
1062
1028
1013
1006
998
994
992
989
982
975
969
965
963
957
955
952
953
951
952
950
945
946
946
948
950
949
948
946
945
948
949
946
947
944
946
949
951
948
945
944
944
946
947
947
945
945
944
945
950
951
949
947
945
947
951
950
947
945
947
949
953
950
949
949
948
946
952
953
954
953
952
957
959
958
957
957
955
955
961
961
962
963
964
964
969
971
972
973
974
976
977
978
981
983
986
988
991
992
993
992
994
996
999
1003
1002
1003
1005
1007
1007
1006
1006
1002
1002
1002
1003
1000
998
996
992
992
991
989
986
982
980
980
981
978
974
973
971
972
972
969
968
967
966
971
972
969
967
966
964
965
966
965
964
965
962
967
967
965
963
962
963
964
966
967
965
962
962
964
965
966
963
962
963
964
966
968
967
964
964
965
969
966
969
967
968
968
971
970
971
970
969
971
971
972
970
969
969
970
972
970
969
968
967
970
970
969
970
969
968
970
972
971
971
968
970
971
970
969
970
967
967
969
973
974
974
972
971
972
975
974
975
975
976
978
975
977
980
983
990
999
1004
1006
1005
1001
997
999
1002
1000
996
992
991
991
994
990
988
985
981
981
978
975
970
971
968
965
967
967
965
962
961
964
964
963
962
961
961
962
963
962
963
961
956
954
951
948
952
960
992
1035
1085
1143
1200
1229
1211
1160
1106
1059
1026
1015
1009
1001
993
989
987
981
972
965
959
955
952
953
950
950
951
951
949
947
948
947
950
945
947
947
948
948
951
948
945
944
944
949
949
951
948
946
943
947
949
949
949
945
944
946
948
947
946
945
946
947
948
946
947
945
948
950
951
951
949
949
949
951
953
955
954
951
951
955
959
958
959
959
959
962
966
967
967
968
969
972
975
975
977
974
975
983
987
989
990
988
990
994
992
995
995
994
995
997
1000
1002
1002
1000
1001
1001
1001
1002
999
995
994
994
995
993
989
986
984
983
982
978
978
974
974
973
975
972
971
971
967
967
970
970
970
967
964
968
971
968
969
965
965
963
967
965
966
964
963
963
967
969
966
965
964
965
967
968
966
964
965
965
967
968
968
967
967
968
969
970
969
966
968
969
971
972
970
969
965
968
971
969
968
966
967
967
970
967
967
966
965
967
967
969
967
969
965
967
969
968
967
965
964
965
965
966
967
966
965
967
967
969
969
969
967
968
969
966
964
962
962
966
970
971
968
967
969
974
975
976
976
973
978
984
991
993
998
999
997
997
999
998
996
992
991
994
992
989
986
983
981
980
982
978
975
969
967
968
968
965
960
960
962
963
962
961
960
961
957
961
961
961
959
960
959
959
958
956
953
951
952
955
976
1009
1050
1093
1148
1203
1224
1197
1143
1089
1039
1009
999
993
984
975
972
966
968
964
957
947
945
946
949
945
943
942
940
941
943
941
940
940
941
940
942
942
940
938
938
939
940
942
938
936
933
937
942
941
941
938
935
934
937
940
941
938
935
938
941
939
937
936
935
940
940
939
939
935
935
939
942
942
943
942
942
946
944
947
946
945
945
946
949
954
952
952
952
958
956
959
960
961
962
963
966
967
968
970
970
973
976
976
973
974
978
983
983
982
980
982
981
984
984
985
981
981
980
981
976
980
978
972
969
967
967
970
967
964
961
964
962
958
958
956
959
960
958
954
954
951
952
952
954
955
954
950
951
949
950
950
951
950
948
951
951
951
950
947
946
949
951
950
948
947
948
952
954
950
951
950
950
954
955
953
949
948
949
952
955
952
951
951
951
952
953
956
954
952
950
953
955
957
955
951
949
951
952
953
952
950
948
950
951
952
951
951
945
952
954
949
948
947
949
950
951
951
949
948
948
948
951
951
950
949
947
950
952
953
949
949
951
955
958
956
958
955
956
957
959
961
960
960
959
966
976
981
984
984
982
983
984
983
980
974
972
974
973
968
968
966
962
961
960
954
953
952
949
950
948
944
944
944
944
945
946
947
944
942
941
943
944
943
943
940
936
937
933
931
933
946
982
1029
1083
1143
1203
1232
1207
1147
1088
1036
1000
986
983
972
968
965
960
953
948
942
938
935
935
934
933
934
935
934
933
932
932
933
934
933
935
932
931
932
934
934
932
929
928
933
933
935
932
930
931
933
936
935
934
931
929
934
933
931
933
930
931
933
934
933
935
933
932
934
936
936
938
936
935
936
938
938
940
942
942
946
948
948
950
951
949
955
957
959
960
959
961
963
967
968
971
972
975
977
978
978
979
980
979
982
983
985
986
989
984
987
987
984
986
983
981
980
980
978
973
970
967
967
965
963
960
960
959
960
959
959
958
952
950
953
954
953
952
949
949
950
950
950
948
947
945
949
951
951
949
945
947
947
949
950
953
949
946
950
952
952
948
950
947
951
952
951
948
948
950
954
957
955
954
952
950
951
956
956
956
954
953
956
958
955
955
951
952
954
955
955
953
954
956
956
958
957
959
956
954
956
956
956
953
953
954
956
957
959
957
957
955
955
955
956
954
952
954
957
959
958
956
953
953
956
960
960
958
956
954
955
957
958
959
957
954
956
959
961
960
960
958
961
962
964
963
965
965
969
971
970
970
971
975
983
990
994
996
994
988
991
992
993
987
984
981
980
980
978
976
975
973
973
972
969
963
960
958
958
962
960
959
957
957
958
961
960
957
954
954
955
957
957
955
949
951
953
953
951
948
943
944
964
1001
1048
1102
1167
1227
1254
1232
1176
1114
1058
1019
1005
1002
995
989
983
977
972
965
959
953
943
941
945
948
947
943
942
939
939
940
939
940
940
937
937
939
942
942
940
937
938
941
939
939
941
937
938
940
942
936
935
934
937
940
941
941
940
939
941
941
942
940
941
939
939
944
942
939
940
942
944
946
946
946
944
946
950
953
955
954
952
952
956
961
963
960
962
960
965
969
973
971
974
974
976
980
981
981
981
983
986
988
989
990
990
987
991
991
993
991
990
991
994
993
993
987
984
980
979
979
979
975
971
966
968
968
966
965
966
961
960
960
960
959
959
954
957
956
957
957
955
953
955
956
957
953
954
953
953
954
956
953
951
952
954
955
955
955
954
954
953
955
958
955
956
954
954
955
956
955
953
954
957
957
956
955
952
953
954
955
955
956
953
953
955
956
955
954
952
951
950
951
952
951
950
948
950
952
953
950
948
947
948
950
949
950
948
946
947
949
948
948
948
945
948
948
946
946
945
945
947
949
949
947
946
944
942
943
946
946
943
942
943
944
945
943
940
941
941
942
942
946
947
942
943
945
947
947
944
942
947
951
950
950
949
946
947
948
953
958
965
970
976
980
977
975
974
969
969
971
969
967
965
963
960
961
960
958
955
949
948
946
942
940
938
937
938
937
939
938
935
934
933
935
937
935
934
933
934
934
933
931
930
931
932
933
931
925
922
923
932
962
1001
1048
1099
1159
1207
1217
1176
1107
1042
989
970
969
961
952
944
943
940
936
933
926
921
921
921
922
922
919
918
915
918
919
920
917
917
915
916
921
922
920
916
914
915
918
917
920
918
917
917
920
921
923
918
915
915
919
922
922
922
920
921
922
925
921
919
917
921
923
925
921
922
921
922
925
927
925
925
924
926
928
931
930
929
932
935
938
940
940
939
940
943
947
951
951
951
952
954
956
959
962
961
963
964
966
965
966
967
965
969
971
969
969
969
969
967
967
970
966
963
959
957
956
956
953
951
949
950
952
952
946
944
942
940
942
943
941
940
936
938
939
938
937
937
934
937
938
939
938
934
933
935
937
938
936
934
931
933
938
939
938
938
936
939
938
940
939
940
937
937
938
940
941
938
935
936
940
940
941
939
938
937
938
938
935
936
936
938
938
940
937
935
934
938
936
937
936
937
935
934
935
935
934
936
934
935
935
936
936
933
930
933
936
935
933
932
930
929
932
934
933
933
932
933
932
930
931
929
930
932
928
929
929
927
926
928
931
931
931
931
928
929
930
929
927
928
925
926
928
928
927
928
926
927
928
930
931
931
930
932
935
933
932
936
933
937
937
940
940
942
946
951
960
962
963
958
954
956
955
955
954
951
947
948
947
948
946
944
939
938
938
936
931
928
926
925
926
927
926
923
920
920
920
923
924
922
917
918
919
920
920
919
917
919
919
919
915
911
907
905
910
923
949
987
1029
1080
1137
1192
1216
1199
1143
1084
1030
987
962
950
940
929
925
925
921
917
912
910
907
907
904
905
902
905
904
905
903
905
902
902
902
905
904
901
899
901
905
904
903
901
901
901
903
906
904
904
901
903
905
905
905
905
901
903
904
904
904
903
902
901
906
906
907
905
904
905
906
909
910
907
907
909
909
911
912
914
910
912
914
918
918
915
915
918
922
924
924
924
925
925
930
933
934
934
934
937
939
941
944
943
945
945
950
951
952
953
952
954
958
960
959
956
953
953
956
960
957
954
951
950
950
949
948
946
939
939
940
938
936
935
931
933
934
934
931
928
927
927
929
931
931
927
924
924
927
930
924
922
922
923
926
928
925
925
924
927
930
929
927
927
921
924
926
929
929
930
927
928
930
932
934
932
929
931
932
934
934
931
930
929
933
935
935
934
931
930
930
932
931
931
930
933
933
935
933
931
930
930
934
933
934
931
928
929
932
934
934
931
930
932
933
933
933
929
929
930
931
933
933
931
928
929
931
933
930
930
931
931
934
933
932
931
929
930
932
931
929
931
930
930
931
931
933
931
930
929
933
933
934
927
926
930
933
934
932
931
929
931
933
937
936
937
935
935
939
940
941
941
937
939
941
944
946
950
955
960
967
970
969
965
959
960
961
961
959
956
953
951
951
950
951
947
943
941
939
933
934
930
929
930
930
930
930
928
926
925
924
927
926
923
922
923
923
926
925
923
921
921
922
919
917
912
912
918
938
970
1019
1064
1119
1180
1223
1223
1179
1121
1065
1016
982
967
963
955
943
938
939
936
933
923
916
913
915
915
912
915
910
911
912
912
913
910
907
907
908
909
907
908
909
910
910
911
910
909
907
907
909
911
914
910
907
907
911
912
914
911
909
910
911
916
915
910
911
911
915
915
914
917
913
914
914
918
919
918
917
917
917
920
922
919
919
922
925
926
925
925
923
927
929
935
935
933
934
936
938
941
942
941
942
946
949
952
952
951
952
953
959
958
958
960
958
962
965
967
967
965
962
962
965
963
960
961
958
959
958
957
956
951
948
947
946
946
942
939
938
937
937
937
936
932
931
931
933
932
931
933
929
930
930
931
930
929
927
927
930
930
931
930
929
931
931
934
933
932
931
930
931
934
932
933
929
931
934
935
934
934
931
933
935
936
935
932
933
935
935
937
935
932
931
931
935
932
937
933
930
932
933
935
936
933
931
933
934
935
936
935
936
932
932
935
935
931
931
932
936
934
937
934
931
932
933
935
935
935
931
931
933
934
934
932
931
931
934
937
936
930
929
930
931
934
936
931
931
933
934
934
934
933
931
932
931
931
931
934
932
932
931
935
933
932
930
931
934
934
934
932
930
929
934
935
933
933
932
932
933
935
936
936
935
937
939
940
939
939
937
940
940
942
945
946
948
956
965
970
972
968
963
963
965
965
964
962
958
957
956
957
954
954
948
947
944
943
938
937
932
934
933
934
934
931
929
930
933
931
931
927
927
926
927
932
929
926
923
927
929
931
926
921
915
916
920
929
951
983
1023
1074
1133
1186
1215
1207
1163
1105
1056
1014
985
972
965
958
955
951
947
939
932
928
925
924
924
923
919
919
920
920
918
919
915
915
916
919
917
915
913
915
915
917
916
914
915
913
914
917
919
916
914
915
916
918
917
917
916
917
918
919
920
918
916
917
918
920
919
918
916
919
918
921
919
922
919
921
924
926
925
925
923
924
926
930
930
930
929
931
933
938
936
936
937
938
942
946
947
946
945
947
952
953
956
956
955
958
961
963
965
966
964
964
968
971
973
972
970
971
973
974
973
971
970
970
970
972
970
964
962
961
961
962
961
956
954
953
953
952
950
947
942
942
945
945
944
941
940
941
943
942
942
939
937
937
937
939
939
938
937
938
940
941
942
940
937
938
940
944
943
941
940
941
943
945
944
942
942
941
943
946
945
946
943
944
946
947
946
945
942
944
946
946
948
947
947
947
948
950
949
948
942
943
944
945
946
943
942
943
945
948
948
943
942
944
945
946
945
946
943
945
943
947
947
945
945
943
947
948
946
944
942
944
947
948
949
946
942
945
947
951
946
947
945
945
944
946
948
946
944
946
949
950
949
948
945
947
947
949
951
950
950
947
945
948
949
948
946
947
951
954
953
953
950
949
954
958
958
959
954
956
957
960
965
968
972
979
985
985
982
979
976
974
976
973
973
970
970
967
967
968
965
959
958
958
956
955
952
950
944
946
951
950
951
948
943
944
947
949
947
945
944
942
946
945
946
943
942
943
945
942
935
932
937
960
1003
1050
1102
1161
1214
1240
1220
1163
1102
1047
1004
982
975
966
959
956
952
951
949
945
937
931
930
932
934
934
934
932
929
929
933
936
935
932
926
926
927
931
932
931
930
929
930
935
933
931
929
929
930
932
932
932
928
929
932
932
935
932
930
929
931
935
934
931
930
933
935
936
938
936
934
934
937
941
945
940
938
939
941
942
946
947
946
946
947
948
951
951
951
952
959
963
962
961
959
960
965
969
969
968
968
972
975
976
975
973
973
