832
838
838
834
836
838
839
843
841
843
847
850
852
854
855
855
857
859
859
858
858
859
861
865
862
862
859
855
854
854
857
851
845
844
843
846
846
845
839
836
833
836
835
835
833
832
835
834
833
831
830
830
829
830
830
831
830
829
827
831
832
831
829
825
826
828
828
829
830
828
829
832
836
836
833
832
832
834
834
834
832
829
829
831
833
831
829
828
831
833
834
835
836
835
836
837
836
834
832
832
836
838
838
840
840
839
840
840
840
840
843
841
842
840
837
835
836
834
837
837
835
833
835
832
832
832
832
833
833
829
831
832
836
840
837
835
835
835
835
836
835
837
838
838
838
836
836
837
840
844
846
843
840
840
842
844
848
852
854
854
857
862
870
874
872
866
863
867
866
866
860
852
849
848
850
850
849
845
847
847
845
839
836
835
839
840
841
836
827
821
825
830
833
831
828
825
828
831
831
833
833
830
830
832
833
833
831
824
823
822
841
877
924
982
1051
1122
1169
1166
1112
1038
974
922
894
878
864
847
845
845
844
837
831
824
819
819
821
822
820
819
821
820
822
819
820
819
823
827
827
825
821
819
821
825
824
825
817
820
820
823
826
824
822
821
825
828
826
827
829
828
826
824
826
820
820
818
820
824
825
826
824
825
828
829
831
830
828
825
828
832
833
834
834
834
838
839
845
845
845
840
840
844
848
848
846
848
853
858
862
864
863
859
862
866
867
870
874
875
876
876
876
875
877
879
882
885
885
883
881
873
872
875
875
873
872
870
868
865
865
862
860
861
858
859
858
858
858
861
861
859
857
852
847
845
845
847
849
850
850
850
847
844
840
843
845
844
842
844
842
844
850
846
848
850
853
849
844
845
846
850
852
853
847
846
849
849
851
850
845
846
850
855
856
851
854
854
855
856
858
857
857
854
854
854
859
858
856
854
857
860
863
863
861
860
861
860
858
858
857
859
862
867
866
861
858
856
859
860
859
858
855
853
854
857
860
862
862
860
860
861
859
858
861
862
861
863
864
862
864
861
863
864
865
865
863
857
860
865
866
868
867
863
868
869
871
872
874
870
870
872
874
877
879
877
883
888
893
901
902
901
900
901
902
901
900
897
896
896
894
891
887
890
889
891
889
881
879
878
877
877
880
877
874
873
872
874
876
878
876
874
872
874
876
872
871
872
876
881
879
873
870
864
862
867
882
909
948
1001
1071
1145
1202
1220
1182
1115
1052
996
957
945
940
928
917
913
908
899
890
879
872
870
869
867
865
861
862
862
866
867
869
865
866
867
869
870
868
865
866
869
869
868
865
862
864
865
870
870
867
867
867
871
872
872
870
867
866
867
869
868
870
870
870
871
871
867
865
864
867
869
873
873
872
869
872
873
877
878
877
877
877
881
883
883
882
881
884
888
891
893
893
892
894
898
903
903
904
900
904
910
915
915
915
914
916
919
921
921
922
922
921
926
927
925
925
921
921
923
921
919
915
914
912
913
914
912
908
906
905
907
906
904
906
906
904
902
900
897
895
892
897
899
899
901
898
896
896
899
901
902
898
896
897
901
903
905
903
900
898
898
900
901
899
897
902
905
906
906
903
901
905
907
907
904
903
904
906
907
908
909
905
904
902
905
905
907
905
903
906
908
908
911
908
907
906
904
903
905
902
900
900
903
904
905
902
902
902
904
907
904
904
900
902
902
905
903
902
903
904
906
906
909
906
906
904
906
907
911
906
904
905
907
907
903
900
901
901
906
910
911
908
905
908
908
912
911
907
904
908
912
915
917
918
917
916
911
912
915
919
924
934
939
944
941
936
931
933
932
931
932
931
930
929
927
928
925
921
917
915
918
918
921
918
911
911
914
914
909
903
899
901
908
913
910
909
906
906
910
912
909
905
902
900
895
896
900
912
938
986
1043
1111
1183
1234
1230
1185
1125
1071
1019
990
985
983
976
962
949
936
925
916
910
908
904
899
894
893
895
896
895
893
891
890
894
891
891
888
885
890
893
897
893
893
889
891
891
895
892
891
890
890
893
895
896
893
889
894
895
895
892
894
894
893
893
895
896
896
894
896
899
902
898
896
893
894
897
901
903
904
904
901
899
903
905
906
905
909
912
916
919
920
917
917
920
926
931
932
930
928
931
936
938
935
934
936
941
947
947
946
943
946
947
947
946
944
942
940
940
938
937
933
929
928
933
933
931
926
923
922
921
921
922
922
918
914
916
919
917
920
918
918
917
919
920
917
916
917
917
917
918
917
918
922
920
922
922
917
915
916
919
923
924
922
917
916
918
922
923
922
919
921
924
924
923
922
922
924
925
924
923
924
927
926
923
923
920
920
920
924
929
929
925
919
919
920
919
922
925
927
923
924
924
925
926
928
928
929
927
927
922
918
910
915
922
931
933
928
921
921
925
924
923
925
922
922
924
927
929
928
925
922
925
931
932
929
927
931
932
931
931
927
924
926
927
929
932
934
931
930
934
935
937
936
935
936
940
950
960
965
958
956
958
959
960
952
952
952
953
950
948
943
940
940
939
941
935
934
932
932
934
931
928
929
930
929
927
927
926
927
926
927
928
930
927
926
923
921
924
925
924
922
919
919
920
937
969
1008
1057
1125
1198
1237
1214
1153
1092
1047
1022
1014
1006
993
981
970
957
947
937
926
918
915
917
919
921
921
918
917
915
912
911
911
910
910
915
917
915
913
911
912
915
917
914
915
915
916
915
918
918
918
916
914
918
922
920
916
914
917
919
922
922
920
917
920
920
922
923
923
922
923
922
924
922
925
924
927
927
927
926
930
931
932
932
934
936
939
942
946
946
947
948
947
947
947
948
952
955
958
961
966
968
973
974
977
974
969
971
975
979
976
969
965
964
969
976
976
974
967
965
960
955
948
948
954
956
958
953
951
950
947
947
949
952
949
945
942
942
941
945
946
944
946
943
945
943
940
934
934
938
943
945
950
947
948
943
941
939
943
946
948
948
945
943
940
937
935
937
940
944
943
942
944
947
946
946
945
944
947
946
946
952
949
944
941
941
944
945
947
942
947
948
949
950
950
951
947
948
947
947
944
942
942
948
951
950
947
948
954
963
962
948
936
930
934
939
946
949
955
964
958
948
942
943
948
947
939
939
947
954
957
954
952
951
950
949
949
950
951
954
956
950
943
939
946
957
960
949
942
939
944
950
954
958
958
955
949
944
946
952
960
972
981
989
995
984
975
970
972
980
986
987
991
992
987
982
970
955
947
950
958
961
966
976
989
985
958
940
950
976
980
953
918
910
926
944
950
947
947
946
946
942
937
935
938
937
938
938
936
954
984
1031
1092
1173
1234
1246
1198
1135
1087
1057
1047
1042
1032
1019
1006
990
974
961
952
948
944
941
935
932
933
933
936
935
929
926
927
928
931
930
930
927
929
931
934
938
937
934
929
929
927
926
923
921
920
926
930
932
930
929
928
932
935
935
933
933
932
930
932
930
925
924
928
934
938
935
935
936
935
936
939
938
938
938
936
937
939
940
940
941
944
944
948
945
949
948
951
954
960
959
958
957
955
958
966
966
968
967
969
974
975
975
973
970
971
977
980
980
984
982
987
991
991
986
982
979
978
979
979
979
974
972
971
973
977
974
973
970
966
967
967
968
968
965
966
966
967
965
963
961
961
966
969
969
969
969
966
963
966
967
964
961
963
966
970
970
968
967
970
973
972
969
969
969
969
972
975
975
971
966
965
967
969
971
971
972
972
974
976
979
983
985
978
976
969
967
971
971
969
971
976
975
976
974
974
979
983
982
981
976
973
972
974
971
971
967
968
970
973
977
985
989
988
984
982
978
981
974
970
966
967
968
969
970
970
973
974
976
975
971
972
976
984
984
980
976
973
976
976
977
977
978
974
975
978
977
976
975
974
977
978
978
979
974
975
979
980
981
984
981
979
978
979
981
984
989
991
997
1003
1007
1008
1008
1004
1002
1010
1010
1008
1003
1000
1001
1002
999
997
991
989
987
988
984
984
980
979
977
980
980
978
979
974
976
979
975
975
979
979
984
985
980
976
969
966
964
964
963
964
963
957
956
957
967
993
1020
1054
1102
1161
1219
1239
1216
1166
1127
1101
1085
1074
1069
1056
1041
1029
1026
1015
1003
991
984
977
970
960
959
960
960
962
961
960
959
956
957
961
960
958
956
953
955
960
960
958
959
953
955
954
953
954
956
953
955
958
957
955
953
955
955
958
956
954
953
954
959
962
956
955
954
954
957
961
959
958
956
957
957
960
959
959
958
959
960
961
961
959
960
960
961
967
965
964
967
968
971
972
971
969
969
973
978
981
981
979
978
979
980
986
988
988
986
986
987
990
993
994
991
991
994
998
999
998
996
993
993
996
995
1000
997
992
993
992
989
987
983
983
985
986
986
985
982
978
979
982
983
983
981
979
981
982
980
980
975
977
980
983
980
976
973
972
978
979
979
977
974
974
979
982
983
982
977
975
977
980
981
981
978
979
979
977
977
977
976
978
980
982
982
982
980
979
978
980
980
982
980
979
981
982
980
982
981
979
980
979
979
977
975
976
980
984
978
975
977
975
977
977
976
974
973
974
978
980
979
977
978
976
978
980
979
979
974
973
975
976
976
975
971
970
974
976
975
977
974
973
974
978
977
975
978
977
978
978
978
975
973
971
971
976
976
975
976
976
977
976
977
979
979
979
981
984
986
982
979
977
981
987
992
995
1000
1007
1010
1008
1007
1003
1004
999
1002
1003
999
997
993
993
994
994
993
988
984
980
980
981
979
976
975
972
971
973
974
973
970
967
968
971
971
969
968
968
970
969
972
971
968
966
965
961
959
956
956
970
999
1032
1069
1122
1184
1238
1251
1211
1154
1107
1075
1056
1051
1041
1026
1014
1012
1007
997
988
978
970
961
959
961
963
961
958
955
955
956
956
956
954
954
954
955
958
958
955
953
950
951
954
953
954
953
955
954
955
955
952
952
948
953
956
957
957
953
951
953
954
954
954
955
954
955
954
953
952
953
954
954
954
954
955
956
956
958
962
962
962
958
957
959
965
966
964
963
965
967
970
971
971
970
971
973
977
979
979
978
980
984
984
985
985
988
989
991
994
995
995
995
998
996
998
999
1001
999
1001
1004
1005
1004
1000
999
994
997
999
999
996
991
988
987
988
989
987
986
984
984
984
984
980
975
973
978
979
981
976
975
972
973
975
975
973
974
975
978
979
977
975
972
970
970
976
975
975
976
974
976
979
980
977
974
969
970
974
975
975
972
970
973
974
976
977
976
975
977
981
982
982
979
974
976
975
974
974
974
973
974
974
977
980
978
980
979
981
978
975
972
972
975
980
979
976
972
971
970
971
972
972
971
972
976
976
973
971
970
972
974
976
975
974
967
968
971
972
974
974
973
973
975
972
970
971
971
972
975
976
973
972
971
966
968
970
974
975
972
969
972
972
971
971
970
971
975
976
974
973
975
972
972
970
967
970
973
975
975
977
973
971
973
979
986
993
1002
1005
1004
1000
1000
1001
1000
996
993
992
990
993
992
991
988
985
984
979
976
972
971
968
969
967
969
969
968
968
969
968
967
961
960
960
969
972
972
971
965
960
958
961
959
954
950
953
970
1001
1042
1087
1148
1212
1243
1222
1164
1114
1080
1065
1064
1057
1040
1025
1013
1007
997
988
979
964
951
944
945
948
949
947
947
945
947
944
941
938
936
939
944
941
938
935
933
931
934
939
941
936
937
937
940
943
939
939
934
931
931
933
934
935
935
938
938
940
940
936
932
926
927
933
934
936
935
936
937
943
942
941
939
937
937
937
938
940
945
947
954
949
947
944
944
952
962
969
968
967
967
961
957
950
951
955
961
961
965
970
972
968
962
963
970
973
971
968
972
976
978
977
976
977
978
981
981
980
970
960
952
957
972
981
983
977
961
953
949
958
965
963
958
946
940
937
946
954
953
948
939
937
935
938
944
945
945
944
950
954
949
940
934
929
927
928
930
936
944
950
952
954
954
958
955
939
923
917
920
932
945
952
952
947
943
929
926
932
945
956
958
954
939
924
921
936
945
942
937
934
936
940
937
939
951
953
944
928
921
930
938
942
932
926
925
934
941
942
932
929
931
931
931
932
930
930
929
930
933
936
939
939
932
931
932
931
929
931
929
932
933
935
940
940
935
931
930
934
933
934
937
934
928
923
927
935
937
935
928
927
930
932
934
934
932
930
935
936
937
933
929
927
928
931
936
941
950
959
964
965
963
962
961
960
958
953
953
952
955
952
948
949
954
950
940
930
926
930
933
935
935
932
928
926
927
928
931
931
927
929
931
933
932
927
921
920
918
915
917
921
926
925
917
909
916
938
973
1014
1070
1137
1185
1191
1144
1080
1034
1010
998
998
983
963
952
947
943
937
925
918
914
911
910
909
910
910
907
903
903
907
910
907
901
896
899
907
905
901
895
896
902
907
909
905
903
901
903
906
905
900
895
894
900
905
905
901
895
898
902
906
907
902
900
902
910
910
909
902
899
899
901
903
907
910
908
907
908
912
912
910
911
911
911
913
915
916
917
919
925
927
929
927
926
924
923
921
925
927
932
935
938
938
937
941
940
940
938
944
947
950
949
948
948
947
947
941
938
939
944
950
949
946
943
939
937
935
938
938
935
925
927
930
931
932
934
931
932
933
933
930
929
926
924
923
926
932
937
933
934
933
933
931
929
926
926
926
926
922
923
928
931
934
931
925
925
924
930
936
938
940
939
934
927
927
926
930
932
933
934
932
937
937
934
933
934
937
938
935
931
931
935
939
942
939
932
929
933
937
938
938
940
938
937
936
936
937
939
932
929
932
938
941
939
935
937
936
939
934
935
936
941
942
939
934
931
933
941
941
942
938
940
940
943
939
938
935
935
939
944
946
943
936
931
934
940
946
946
944
942
938
941
943
947
947
949
950
951
950
947
947
951
953
960
968
973
976
971
972
974
979
977
968
962
959
964
966
965
961
955
953
953
953
951
946
942
941
942
946
946
944
945
948
948
946
943
940
941
937
940
945
946
945
944
939
938
937
934
930
929
939
971
1010
1058
1124
1191
1225
1202
1147
1094
1054
1032
1026
1017
1002
992
985
978
968
955
946
943
941
939
936
935
935
934
932
934
935
936
934
932
929
929
927
929
930
930
929
927
931
933
935
940
934
929
926
926
932
934
934
936
936
937
935
931
933
937
938
933
930
928
930
928
928
931
932
934
937
937
937
939
938
940
941
943
943
947
947
941
939
938
941
947
949
948
948
952
956
957
963
961
964
963
961
960
959
962
965
966
967
971
975
973
973
977
977
981
978
978
979
982
979
978
977
978
977
975
970
971
974
973
972
969
967
967
968
971
970
972
969
968
962
962
960
955
950
950
951
954
956
957
957
959
959
959
956
957
953
956
959
960
962
963
959
956
956
955
959
960
960
965
961
960
951
952
953
955
961
965
965
965
963
962
961
961
958
957
958
960
957
958
960
966
966
966
963
960
960
961
961
963
958
960
962
964
960
955
958
960
959
960
960
964
966
964
958
958
960
962
964
966
963
961
959
965
971
968
961
955
956
962
967
968
965
965
963
961
961
960
960
957
956
963
966
969
972
973
967
958
952
957
961
962
960
960
964
963
960
965
965
961
957
957
960
965
966
962
963
962
961
963
964
967
967
972
977
982
985
990
994
990
986
985
987
989
986
990
989
987
981
979
978
975
972
970
969
966
966
968
969
967
963
964
962
960
959
959
960
968
974
973
967
958
956
955
956
957
960
959
949
940
940
942
952
974
1003
1041
1103
1173
1226
1231
1181
1124
1082
1063
1055
1059
1054
1042
1030
1018
1002
982
971
968
964
960
951
946
942
943
948
952
948
945
941
941
947
948
943
934
927
928
935
940
942
940
941
943
943
945
944
941
939
945
948
946
940
935
932
932
932
935
939
944
944
943
940
937
933
934
937
942
944
943
940
937
938
938
941
940
942
944
943
947
949
950
954
950
943
941
945
949
948
952
952
959
965
964
961
956
955
957
956
960
962
961
967
972
973
970
969
968
972
978
978
981
979
980
976
976
975
975
973
971
971
969
968
969
967
965
959
961
962
960
961
960
957
954
954
953
954
953
951
954
956
958
958
957
954
955
956
957
955
953
950
950
952
955
952
947
946
951
953
953
953
955
951
954
955
957
959
961
958
958
954
955
953
950
943
948
952
954
954
951
949
953
956
959
957
955
955
959
967
967
963
954
946
947
950
952
954
954
953
952
953
952
952
952
951
952
957
958
958
950
943
944
947
952
952
951
951
952
956
958
956
954
952
954
953
954
949
945
944
948
