928
927
928
926
925
926
927
930
928
926
924
924
927
928
927
926
924
928
926
928
927
927
925
926
932
931
930
931
930
929
933
934
935
936
937
937
942
944
944
943
943
946
949
953
953
955
955
957
963
964
967
969
970
973
978
981
982
985
983
985
990
993
994
992
991
993
994
995
995
993
989
989
989
987
984
984
980
977
975
974
971
968
965
964
963
963
962
957
956
952
954
956
955
953
951
950
951
950
952
948
947
947
950
950
950
947
943
945
946
946
946
945
943
943
942
945
947
946
943
944
946
948
948
945
946
946
946
947
945
944
943
944
946
949
950
949
945
948
950
952
949
948
947
952
952
953
951
950
948
949
950
951
951
951
948
950
952
954
953
951
951
953
953
952
953
951
949
950
951
955
952
952
949
950
951
952
954
951
948
950
952
953
952
954
953
952
951
953
955
954
951
950
951
954
955
953
952
952
956
955
956
955
953
954
952
955
955
954
954
955
955
959
957
958
955
954
955
958
959
959
955
956
956
962
961
963
958
958
961
961
963
961
959
959
961
960
960
958
957
959
961
964
964
965
963
961
963
964
964
966
964
965
968
969
970
971
970
973
977
975
977
974
972
975
980
982
987
988
991
996
997
998
992
987
986
987
988
988
988
988
984
983
984
985
984
980
977
974
970
971
970
965
964
963
963
967
967
966
965
965
966
966
963
965
966
963
965
964
965
965
964
963
965
964
960
953
949
950
961
988
1030
1074
1127
1194
1258
1296
1291
1249
1187
1133
1094
1075
1062
1044
1021
1007
1003
1000
992
981
975
971
966
964
964
963
964
963
964
966
968
962
958
957
955
959
960
960
957
957
960
962
962
961
959
959
960
960
957
953
955
958
962
967
967
964
960
964
963
964
961
961
958
955
957
958
959
960
959
961
957
957
956
955
955
958
962
965
967
966
963
964
967
967
965
964
962
970
972
975
975
978
977
976
977
978
979
979
978
982
985
991
993
993
990
994
999
1002
1002
1001
1001
1006
1010
1016
1022
1024
1023
1027
1024
1024
1023
1022
1018
1020
1023
1026
1026
1021
1016
1013
1014
1020
1023
1021
1018
1017
1015
1010
1005
998
994
996
995
994
990
987
984
981
980
983
981
981
981
977
979
981
981
978
974
974
974
974
975
973
971
974
976
978
975
973
971
971
970
969
968
969
972
976
974
976
972
970
968
968
968
972
971
968
965
969
970
975
976
973
970
969
973
976
975
972
970
971
974
977
975
971
972
977
979
979
982
980
978
976
975
974
972
968
967
970
974
975
979
979
973
972
969
972
975
973
972
974
974
978
975
972
966
966
972
976
975
974
971
972
970
970
969
970
973
974
975
973
975
971
968
970
970
971
971
974
972
972
971
973
974
973
972
970
968
972
973
975
971
971
973
977
975
975
972
970
975
978
975
974
973
975
977
979
974
970
973
974
978
978
975
977
978
979
982
988
987
987
987
986
987
991
993
989
989
992
991
997
1007
1011
1013
1013
1014
1007
1004
999
997
997
999
1000
999
994
995
995
994
992
992
992
987
983
977
974
973
972
971
971
972
978
978
976
969
968
971
976
979
979
976
978
978
977
976
978
976
978
977
976
977
972
964
958
954
957
970
994
1029
1083
1145
1208
1275
1323
1337
1318
1269
1214
1160
1121
1098
1084
1065
1044
1031
1022
1016
1009
1002
999
993
988
981
981
980
978
975
973
971
970
971
972
972
971
969
970
972
972
969
969
965
966
967
967
967
968
967
967
969
971
971
970
965
966
968
970
970
969
965
967
964
966
968
969
969
965
963
961
965
968
969
968
968
972
971
970
963
965
967
974
972
970
969
971
977
979
981
981
978
978
982
984
984
984
984
987
994
999
999
999
996
1002
1005
1007
1012
1015
1016
1017
1017
1023
1027
1028
1028
1031
1036
1040
1041
1040
1038
1040
1041
1042
1041
1039
1036
1037
1040
1040
1036
1030
1027
1025
1024
1021
1018
1013
1010
1006
1002
1002
1001
1003
1001
995
989
990
990
989
988
986
985
987
984
985
980
978
980
981
977
975
974
975
976
977
976
973
974
973
975
977
978
978
975
974
976
978
979
976
974
978
980
981
980
978
977
977
978
979
978
978
978
981
985
984
983
981
978
979
979
982
982
983
983
984
983
981
983
982
980
981
983
984
982
981
978
975
980
981
982
981
979
977
982
981
981
979
972
973
975
978
979
976
977
977
980
981
978
973
970
973
974
977
978
975
971
972
975
980
980
976
973
974
976
978
976
978
973
974
977
975
976
974
973
974
973
976
976
975
974
973
975
977
977
977
973
975
974
974
976
975
973
974
976
979
981
979
975
972
974
978
978
978
975
975
977
981
983
980
981
982
985
990
991
991
989
993
994
995
994
992
993
995
1002
1006
1010
1012
1008
1007
1003
1002
1004
1000
997
996
997
998
998
996
993
991
990
989
988
984
977
977
980
977
974
972
966
967
970
973
970
968
967
967
968
968
967
965
963
965
966
970
969
964
963
959
955
948
945
946
957
987
1034
1090
1157
1226
1285
1326
1324
1280
1210
1148
1097
1069
1061
1048
1026
1007
996
990
986
980
974
965
958
955
955
957
956
954
951
948
950
948
949
950
947
948
948
950
950
950
948
950
951
953
951
951
948
948
948
953
950
948
946
946
947
950
953
951
946
946
947
947
945
943
944
944
945
947
947
945
943
942
947
948
948
949
946
944
946
948
948
947
947
949
951
953
954
954
951
954
955
960
963
964
963
964
965
970
972
973
975
976
982
984
988
988
990
994
997
1001
1003
1003
1005
1006
1012
1014
1014
1013
1010
1016
1019
1017
1018
1015
1010
1010
1013
1012
1007
1004
997
994
993
992
988
985
981
977
975
976
972
970
964
964
965
966
964
962
960
961
962
961
960
958
956
958
958
961
960
958
955
956
955
958
958
957
954
955
957
956
955
958
954
957
958
959
957
956
954
957
959
962
960
957
956
954
958
959
963
960
960
962
967
966
964
963
961
961
964
967
965
962
961
960
964
966
965
963
961
963
964
966
965
963
962
962
963
965
964
963
963
960
964
967
966
965
962
960
961
962
962
960
962
958
963
966
967
962
961
961
964
964
963
962
961
963
962
960
965
961
959
961
962
966
964
963
962
962
962
962
965
963
963
963
962
963
963
961
961
962
961
963
962
963
961
962
965
969
967
967
963
965
969
974
975
977
976
978
978
980
978
978
978
980
983
988
990
989
992
995
1000
999
994
991
991
989
989
991
990
987
986
987
987
986
982
978
971
969
969
968
967
961
958
957
960
961
960
958
956
957
958
958
962
958
956
958
958
958
958
955
955
954
958
956
955
948
940
935
937
949
970
1009
1060
1122
1193
1264
1310
1316
1277
1208
1139
1086
1057
1047
1030
1005
987
981
978
972
962
956
953
952
950
948
947
945
947
947
950
946
943
945
944
944
943
942
943
941
945
947
945
945
942
943
944
946
946
944
944
944
946
947
946
948
945
946
946
945
943
944
944
943
945
942
943
943
941
941
942
944
944
944
942
946
947
948
949
948
945
947
950
952
951
951
951
952
957
960
962
963
962
962
966
969
974
974
974
975
981
982
987
987
989
990
994
997
1001
1001
1001
1005
1008
1012
1012
1010
1012
1014
1013
1015
1012
1010
1009
1009
1010
1009
1005
1002
999
997
994
995
989
987
985
982
981
982
978
974
972
974
971
972
973
968
967
967
966
970
970
967
967
965
965
970
967
966
965
964
964
965
964
960
960
962
965
963
961
960
961
962
964
965
967
964
964
966
968
970
969
966
965
963
966
966
967
968
967
966
967
972
971
971
969
968
970
972
974
971
968
967
969
971
972
968
966
967
968
972
970
968
967
970
971
972
972
972
970
968
969
969
971
969
967
966
968
970
968
966
968
967
970
971
970
967
966
968
970
968
968
967
967
966
967
969
969
966
967
964
966
967
967
967
967
968
969
969
966
965
967
966
968
968
969
967
963
963
968
970
968
969
968
970
971
974
974
971
973
975
978
981
980
978
978
979
982
987
989
994
997
1002
1004
1003
999
998
993
990
991
992
990
989
984
983
985
986
983
981
978
973
971
970
966
963
959
960
962
963
962
964
960
960
961
963
961
962
959
960
960
962
960
957
956
953
951
946
939
935
943
968
1010
1067
1129
1199
1265
1313
1314
1271
1194
1123
1074
1055
1042
1024
1000
988
981
973
968
967
961
956
948
946
948
953
950
952
945
946
948
948
946
944
942
940
944
944
944
946
943
942
942
944
943
942
942
941
941
942
937
936
934
935
941
942
940
937
936
937
939
940
939
936
933
931
936
937
937
934
934
934
937
939
938
938
937
935
939
943
942
944
942
942
946
948
949
948
949
948
950
957
959
962
962
962
967
972
974
975
975
978
982
988
988
992
991
992
995
998
999
997
999
1001
1003
1003
1003
1002
1001
997
998
996
992
989
984
978
979
979
976
972
967
963
963
963
961
956
954
951
951
953
950
946
946
943
943
948
949
946
942
942
943
944
943
940
942
941
941
940
940
940
939
937
941
942
940
940
940
940
940
942
942
939
940
942
941
945
944
942
942
942
942
947
946
944
942
941
943
946
945
943
941
941
943
944
942
941
940
939
941
944
943
939
938
937
940
943
943
942
939
938
941
943
942
942
937
938
939
940
940
938
938
938
939
939
937
937
936
936
937
939
940
937
936
936
937
937
936
939
935
936
937
939
937
935
936
934
934
937
936
936
934
935
936
938
935
935
934
933
933
937
936
934
934
934
933
935
937
936
934
932
935
938
937
937
935
933
935
942
942
943
942
944
945
949
949
948
947
945
948
950
956
959
962
967
970
969
966
959
961
956
958
958
958
957
956
954
954
956
949
948
943
937
939
938
936
933
931
927
929
933
933
931
930
928
932
933
933
929
924
925
928
929
929
927
927
926
924
924
916
905
906
907
931
966
1016
1073
1140
1218
1278
1303
1278
1214
1143
1082
1047
1038
1023
998
976
966
961
956
947
939
935
927
925
923
923
920
917
916
918
919
918
919
916
914
916
916
917
914
915
914
916
918
918
916
912
915
915
921
919
916
916
916
915
917
916
917
916
914
915
916
917
914
912
913
918
919
919
916
917
915
916
916
916
913
915
916
918
919
918
918
918
917
923
927
925
927
925
927
930
935
936
937
937
938
941
944
945
947
948
951
953
959
961
965
967
968
972
978
977
979
980
981
982
986
987
985
987
986
987
986
984
980
975
973
972
970
965
962
957
955
953
954
950
946
944
940
938
939
938
935
934
933
934
935
934
934
931
931
931
934
933
932
927
926
928
931
927
926
925
927
927
929
925
927
924
925
927
929
928
928
928
930
929
932
930
927
929
929
929
934
933
933
932
929
931
933
933
934
931
932
934
936
933
933
934
933
936
939
936
937
933
934
936
938
935
934
935
932
936
939
937
936
934
935
938
942
941
936
934
932
932
937
938
937
935
933
936
937
935
936
935
933
935
938
937
936
936
936
937
939
940
941
937
935
935
937
938
939
937
938
939
941
941
938
939
939
941
943
940
940
941
938
944
943
939
940
938
939
941
947
946
944
942
939
941
941
939
939
938
937
941
945
946
947
945
945
947
949
947
952
952
951
952
953
955
953
954
954
960
969
973
975
975
971
971
969
966
965
963
959
960
962
963
960
959
958
959
958
953
948
944
939
942
942
938
938
936
937
938
940
940
938
936
934
934
937
937
937
935
935
936
938
940
940
936
930
924
921
920
922
936
973
1030
1095
1168
1237
1293
1309
1282
1220
1146
1085
1051
1038
1026
1006
983
972
965
958
952
949
943
936
930
926
927
931
931
928
925
924
924
927
925
925
922
923
921
922
926
924
921
921
919
923
923
921
922
918
922
925
923
922
919
919
921
923
924
921
919
920
922
922
921
920
919
919
921
921
919
919
918
917
920
923
926
927
926
924
927
931
930
930
927
926
928
931
933
935
933
935
938
942
942
943
943
940
944
946
949
953
953
953
956
960
964
964
966
969
975
978
983
985
984
982
987
989
991
990
988
990
992
996
998
996
993
993
995
996
993
990
986
983
981
982
978
971
969
966
966
963
957
954
950
950
950
951
949
946
942
938
940
943
942
940
938
935
939
943
941
937
933
935
937
938
937
933
934
933
933
935
935
934
931
931
935
935
936
933
932
933
935
939
935
936
933
932
936
935
935
936
935
934
938
941
941
938
937
935
939
942
942
939
936
939
940
941
941
944
942
941
944
945
943
942
940
936
940
942
944
943
940
938
941
944
944
942
939
941
942
943
942
942
942
942
944
943
944
944
940
938
939
943
943
942
939
939
942
941
941
940
938
941
943
945
945
943
939
941
942
944
945
944
939
940
942
943
944
941
940
940
943
943
945
944
940
939
939
941
942
940
939
937
941
945
944
943
940
940
941
942
943
941
939
938
941
945
944
944
941
941
942
944
944
943
940
941
944
946
945
943
943
940
945
947
948
951
951
953
954
956
956
955
955
955
956
956
960
961
962
965
969
976
980
979
975
971
971
970
972
967
963
963
965
966
965
964
961
958
960
960
957
951
951
947
946
947
945
942
941
937
939
942
942
942
940
939
941
942
941
938
939
938
939
938
939
940
940
937
938
934
928
922
920
925
941
974
1021
1079
1146
1217
1283
1315
1304
1254
1193
1132
1089
1066
1056
1040
1016
997
988
985
977
966
958
950
946
944
939
933
932
929
932
930
931
926
926
926
926
927
927
927
925
925
926
926
926
925
927
922
923
929
927
927
925
921
927
926
926
926
928
926
926
926
926
925
923
925
923
923
924
926
922
922
920
922
924
924
925
925
925
928
927
926
924
925
925
928
931
932
932
931
934
936
938
936
938
938
943
946
948
949
948
949
955
958
962
964
962
965
970
975
978
979
979
984
988
990
992
993
993
994
999
1001
1001
1001
999
998
999
1002
1001
997
994
992
991
990
989
984
980
976
973
971
968
963
959
956
954
951
951
950
946
944
945
945
944
942
939
942
944
946
944
941
937
937
938
940
940
939
938
937
936
936
937
937
936
936
937
939
938
937
935
935
936
939
940
939
935
936
938
939
940
940
938
937
937
939
941
941
937
936
938
942
941
942
940
939
943
944
944
943
943
940
941
943
944
941
939
940
941
945
944
941
941
940
940
942
942
943
942
939
940
942
943
940
939
941
940
941
941
938
938
939
939
942
942
943
940
937
940
943
941
941
939
938
943
942
942
943
940
940
943
946
944
942
939
940
943
943
945
943
943
942
944
944
943
940
940
940
941
944
943
942
941
938
937
932
933
930
929
927
930
931
933
930
931
929
931
937
938
941
938
938
940
941
939
937
936
935
941
939
944
947
947
951
950
949
949
946
945
943
946
945
946
946
948
947
948
950
950
949
944
940
935
933
934
940
959
1001
1059
1126
1195
1263
1303
1299
1250
1175
1099
1053
1036
1029
1016
1002
991
981
970
962
956
949
947
943
939
939
942
944
946
941
939
939
940
943
941
941
938
936
940
941
939
939
938
939
941
942
941
941
941
937
939
942
942
940
940
939
942
945
942
940
937
937
940
943
942
941
939
938
941
941
941
938
938
937
940
939
940
937
938
935
939
940
939
937
937
941
942
945
947
944
943
943
947
950
953
956
953
956
957
959
963
965
968
971
970
974
975
979
979
981
986
989
993
992
993
992
998
1002
1003
1004
1002
1000
1002
1004
1004
1004
1002
999
999
999
997
994
987
982
981
981
979
977
971
969
969
967
967
963
960
959
960
960
960
958
955
953
955
958
955
951
952
953
955
959
958
954
952
948
951
954
954
950
948
950
950
952
952
949
949
949
952
951
953
950
948
949
950
954
954
951
954
952
952
955
954
954
950
953
954
957
959
958
957
956
958
960
958
957
956
958
960
961
962
961
956
955
956
959
959
960
958
957
957
958
961
960
957
958
957
959
959
958
956
956
957
958
960
959
957
957
958
962
962
962
960
960
961
964
964
961
960
954
959
962
962
961
960
960
961
961
963
962
960
960
964
963
966
963
960
959
960
961
962
964
963
961
963
966
963
963
962
961
962
963
967
967
965
964
963
965
966
966
961
963
963
965
966
964
964
959
959
964
966
967
964
963
965
967
966
967
967
967
968
968
970
967
964
964
968
970
971
971
966
967
969
969
970
971
969
967
969
968
971
969
969
968
972
970
970
971
971
971
974
973
974
974
971
970
972
975
976
975
972
974
975
978
979
981
981
980
985
986
989
988
987
984
984
988
992
995
999
1002
1010
1013
1011
1006
1002
1001
997
999
995
998
994
995
995
997
994
992
987
984
982
982
979
976
972
971
972
974
973
972
970
969
970
972
972
970
970
973
972
974
973
971
968
963
958
953
952
957
976
1016
1078
1148
1225
1296
1337
1329
1275
1196
1129
1088
1066
1053
1030
1007
997
993
986
978
972
970
964
960
958
959
