937
941
943
943
944
947
950
951
947
946
947
948
951
948
943
941
943
947
949
944
943
949
958
960
960
957
956
958
966
970
972
971
971
972
976
981
983
986
986
988
992
996
1001
1005
1006
1007
1011
1017
1020
1020
1018
1021
1027
1036
1039
1040
1043
1046
1051
1056
1056
1050
1047
1045
1052
1056
1060
1059
1060
1063
1064
1067
1068
1070
1071
1069
1071
1075
1075
1078
1078
1077
1081
1082
1082
1082
1084
1082
1084
1084
1084
1081
1085
1083
1083
1086
1082
1082
1081
1078
1080
1082
1082
1081
1077
1079
1080
1081
1081
1078
1076
1074
1076
1078
1075
1072
1071
1071
1072
1071
1072
1071
1069
1069
1066
1067
1060
1056
1055
1055
1057
1059
1060
1058
1055
1053
1054
1059
1061
1057
1051
1051
1047
1048
1049
1046
1043
1044
1044
1045
1044
1042
1043
1044
1046
1047
1046
1048
1046
1043
1048
1047
1049
1047
1048
1046
1049
1053
1058
1057
1058
1057
1054
1054
1055
1052
1051
1050
1053
1054
1055
1047
1039
1036
1036
1036
1033
1028
1025
1025
1024
1023
1023
1023
1019
1020
1020
1021
1018
1014
1015
1013
1015
1014
1014
1013
1013
1008
1008
1005
998
991
988
995
1018
1055
1102
1155
1217
1265
1281
1257
1205
1152
1120
1102
1097
1082
1065
1052
1049
1042
1034
1027
1020
1016
1006
1004
1004
1004
1004
1001
999
999
1000
999
997
995
993
991
992
995
996
994
994
993
994
991
994
994
993
991
992
992
994
991
990
986
989
990
989
989
986
986
987
990
992
989
986
984
987
985
986
985
985
981
984
986
989
985
986
986
987
990
987
987
988
986
986
989
990
992
990
991
992
995
998
999
1001
1000
1003
1007
1007
1006
1007
1006
1009
1012
1014
1013
1011
1009
1012
1015
1017
1018
1016
1015
1015
1015
1013
1009
1005
1004
1004
1003
1000
1001
999
994
994
995
993
992
989
988
986
987
986
987
983
982
981
982
982
984
980
977
978
980
979
979
977
975
979
976
977
975
975
974
975
978
980
977
978
976
977
978
977
975
975
974
973
975
978
980
979
979
979
980
980
979
977
976
976
977
979
978
976
972
977
977
980
978
976
975
975
976
977
978
976
975
977
977
980
977
972
968
965
968
969
971
968
969
972
974
968
966
965
962
965
965
966
967
964
961
964
967
966
966
963
961
962
962
966
966
962
962
965
967
970
969
969
968
968
969
971
970
971
970
974
977
982
983
985
985
981
981
980
979
976
974
975
973
974
971
971
969
969
970
968
966
962
956
954
954
954
953
948
947
948
950
950
949
949
946
945
947
949
947
946
945
946
944
941
936
927
922
923
926
947
979
1020
1075
1140
1202
1229
1221
1175
1120
1077
1052
1044
1040
1026
1005
995
989
982
973
967
956
954
945
943
940
938
934
934
935
936
937
930
930
930
929
930
930
925
925
925
928
928
929
927
926
925
929
930
928
927
926
927
929
929
927
927
923
928
927
927
926
925
922
923
925
927
926
922
923
923
926
927
928
925
923
928
929
926
925
925
929
932
938
937
937
934
929
928
932
936
940
939
938
939
945
949
954
956
952
949
950
947
949
952
952
955
954
959
959
958
956
956
957
959
958
954
956
956
962
961
951
941
936
940
944
947
942
938
936
937
939
941
941
940
939
940
938
940
937
938
940
940
939
937
931
931
924
926
932
935
936
930
924
926
927
926
925
929
928
929
931
934
934
934
933
935
938
937
941
943
937
936
933
931
930
927
925
923
925
930
937
938
935
934
937
935
930
923
920
924
929
927
927
928
929
935
935
933
928
926
924
927
931
933
933
931
932
935
938
931
923
916
916
925
928
933
933
934
933
930
924
923
923
919
920
922
925
923
920
920
920
920
923
925
926
929
926
930
937
935
939
941
935
933
933
936
936
940
944
950
956
956
956
952
946
945
946
947
943
943
943
945
946
941
936
928
930
933
933
932
925
925
927
928
929
929
924
918
914
918
927
925
922
921
923
928
927
925
915
905
899
905
911
918
919
914
913
938
979
1034
1098
1157
1190
1189
1153
1103
1054
1018
1000
993
976
957
948
943
938
933
924
915
913
911
907
904
903
905
907
908
905
903
903
904
903
902
897
899
899
903
902
903
902
901
898
897
894
894
899
903
902
897
895
896
894
896
901
905
905
900
895
894
899
900
899
899
898
901
904
904
897
899
903
907
907
909
910
913
909
907
906
907
903
897
892
893
904
915
915
912
909
910
912
917
920
919
920
927
934
936
934
934
940
944
942
938
933
937
937
937
937
938
940
941
939
939
941
945
946
945
940
934
933
938
939
939
931
927
926
927
929
931
926
924
921
923
925
922
921
918
918
921
923
921
920
921
924
927
919
909
903
909
914
916
909
907
909
913
921
925
927
929
922
914
906
902
904
909
914
913
913
914
918
917
913
914
918
919
922
924
922
922
924
923
916
910
912
915
918
922
922
922
917
917
917
920
922
921
918
919
916
920
922
918
915
917
921
924
925
922
923
921
920
920
922
922
921
923
921
922
923
920
916
915
917
917
920
922
921
922
925
927
925
926
923
925
929
929
930
930
930
930
930
928
936
941
941
946
951
951
946
943
939
938
939
940
941
935
931
932
937
937
937
934
925
921
920
919
920
918
915
913
914
919
922
922
919
916
911
910
915
917
916
919
920
922
918
912
901
892
887
889
903
926
958
999
1054
1123
1191
1234
1236
1199
1147
1099
1060
1028
1012
999
983
966
951
940
930
925
923
919
912
906
905
911
914
909
903
906
907
907
905
903
901
904
908
907
902
901
902
907
906
904
903
907
905
906
904
903
902
902
905
908
907
909
908
902
898
899
898
899
900
905
910
909
903
899
900
907
908
906
900
901
903
903
901
903
910
911
908
905
906
908
910
913
914
917
919
919
914
910
909
912
919
925
929
929
930
930
930
931
930
930
935
944
946
943
942
944
945
946
951
952
950
951
950
950
951
948
948
948
946
945
939
938
940
945
948
941
933
932
935
939
935
927
922
917
918
919
923
919
921
921
918
919
919
916
914
915
910
906
904
907
912
910
904
898
901
913
918
913
900
901
906
914
913
910
903
902
908
914
916
913
913
915
913
910
907
904
905
912
919
919
914
909
911
919
921
918
909
906
908
914
918
918
918
917
912
908
908
915
917
913
908
913
917
919
919
914
906
904
909
907
906
904
906
911
914
914
907
903
903
910
916
923
921
905
897
899
906
911
909
911
918
922
920
917
913
912
912
912
908
916
931
933
927
926
931
938
938
941
938
930
924
921
923
925
925
935
940
933
918
912
914
913
907
906
912
917
910
902
898
895
897
896
890
889
894
900
901
898
893
896
896
895
894
887
888
891
894
894
889
879
870
873
887
907
951
1013
1089
1171
1239
1291
1310
1298
1232
1147
1059
993
953
946
943
935
922
916
913
909
905
908
914
926
934
937
933
934
933
937
939
947
952
962
967
968
967
968
970
969
969
973
974
970
966
967
969
967
968
971
967
963
958
963
964
965
967
968
963
964
963
964
964
965
967
967
969
967
964
963
965
966
964
963
969
973
973
967
964
963
964
964
969
972
972
972
970
969
970
973
977
980
976
977
982
986
985
982
982
987
992
994
996
997
997
1000
1003
1004
1002
1004
1004
1007
1010
1011
1011
1011
1008
1012
1012
1010
1006
1006
1005
1007
1006
1005
1001
995
993
994
991
988
983
984
979
982
982
980
978
975
969
967
970
972
971
967
966
964
966
966
967
967
961
959
963
966
966
966
963
963
966
967
965
966
967
969
969
972
973
973
968
971
974
975
975
975
975
977
977
978
977
980
979
978
979
980
983
982
978
979
980
982
981
980
977
978
977
981
982
981
977
975
977
975
975
974
972
974
973
974
973
974
971
970
971
971
970
968
966
967
968
971
971
971
968
967
966
968
969
966
964
965
965
966
966
964
964
963
962
967
969
965
963
963
968
974
974
973
973
970
967
970
973
970
971
975
980
986
990
990
989
986
986
985
984
979
974
973
974
977
975
973
969
969
969
969
965
960
954
955
953
955
953
950
951
950
950
953
951
948
943
946
951
954
950
948
945
945
944
942
936
932
931
945
973
1015
1073
1139
1210
1268
1296
1278
1222
1156
1100
1063
1053
1048
1034
1016
1002
992
987
979
967
959
952
945
944
940
938
938
936
939
941
942
940
934
934
933
935
937
935
934
930
931
932
935
932
933
931
934
934
936
936
934
930
930
933
936
937
935
932
932
931
933
932
933
929
933
935
934
934
935
936
934
934
937
938
938
936
936
936
937
937
937
938
939
942
946
943
941
943
947
950
953
954
953
954
954
958
962
965
969
965
965
966
969
968
970
971
971
974
977
981
979
980
979
983
987
989
985
984
982
984
986
981
978
973
971
974
973
971
969
964
962
963
965
963
960
958
957
956
957
958
957
954
954
957
960
958
952
949
950
950
952
951
952
952
949
950
950
951
950
947
949
950
953
954
952
953
951
954
955
955
953
954
954
956
952
951
952
952
957
963
965
962
956
953
955
958
960
958
957
960
965
962
960
960
958
958
956
958
957
954
957
959
959
960
960
960
959
957
958
960
961
958
954
953
952
955
958
958
957
959
957
961
961
961
957
954
951
952
958
957
959
955
956
963
966
960
955
953
957
961
962
964
967
966
965
966
967
967
966
967
967
972
976
982
983
980
978
979
978
976
969
968
968
971
973
972
965
960
965
968
967
965
955
948
947
952
956
953
947
944
940
942
946
945
943
945
945
945
945
945
943
944
943
942
944
938
932
926
926
933
960
1006
1059
1116
1192
1259
1289
1266
1207
1144
1090
1058
1045
1030
1008
988
976
968
961
952
943
936
927
926
934
935
930
926
928
927
930
927
925
924
924
929
932
927
922
921
924
927
922
918
921
921
921
919
920
921
923
923
921
924
928
929
926
919
917
920
919
919
918
921
924
926
924
922
920
921
920
916
917
917
918
918
920
922
927
928
926
928
929
928
927
925
926
927
932
935
939
937
934
938
942
945
945
946
948
948
950
954
958
955
955
954
956
960
961
964
963
962
959
958
959
960
959
954
951
954
957
951
944
938
937
942
949
951
949
940
936
937
942
942
940
937
939
941
943
943
941
938
941
944
942
944
941
941
941
942
943
940
940
937
937
940
943
940
937
935
939
941
941
937
935
932
934
933
934
937
939
935
937
938
938
933
935
934
940
942
943
940
944
941
940
943
943
943
942
943
943
946
946
943
946
944
944
946
948
947
946
943
941
943
945
945
944
941
938
939
940
942
943
942
942
944
947
945
945
944
946
946
948
947
948
944
943
944
949
948
947
946
944
946
950
951
952
952
954
955
959
961
961
961
958
962
964
966
967
967
973
979
984
984
979
974
971
974
978
976
971
971
971
973
971
966
964
962
962
960
958
952
953
949
945
943
947
946
948
948
948
950
950
946
942
942
943
946
948
948
944
938
933
928
927
935
950
988
1046
1120
1200
1271
1306
1289
1225
1157
1102
1067
1051
1042
1023
1006
999
986
977
966
955
950
943
942
939
937
938
935
934
935
933
931
931
932
933
931
930
931
927
929
933
933
934
934
934
931
933
935
934
932
931
931
935
937
938
937
933
934
936
936
939
936
936
937
938
935
933
933
934
936
938
937
936
934
934
940
945
942
943
944
945
946
948
947
950
951
951
953
956
962
960
962
964
968
971
972
974
979
978
980
982
982
985
989
989
992
993
991
991
993
988
989
989
990
989
985
981
982
980
980
974
969
967
967
967
967
965
962
958
960
960
958
957
956
956
959
957
957
956
956
953
954
954
956
954
952
950
954
955
954
952
954
955
958
959
956
954
952
954
957
960
963
959
955
955
956
959
960
959
957
959
960
962
962
961
960
958
957
962
963
960
961
959
964
967
963
962
960
961
963
966
964
963
963
961
963
965
963
959
956
958
960
962
964
963
963
960
958
963
964
965
964
960
961
962
960
960
963
961
967
968
965
962
961
960
963
965
964
965
963
962
964
963
966
966
965
966
965
968
967
969
971
970
974
977
977
974
975
976
978
980
979
978
978
984
990
998
1001
995
988
985
986
990
991
989
987
984
986
984
981
978
980
973
972
972
968
967
962
961
962
963
962
960
959
958
963
963
961
958
957
959
960
961
961
958
954
948
945
943
948
963
996
1051
1120
1195
1267
1311
1303
1249
1178
1118
1082
1069
1057
1040
1024
1013
1003
992
981
971
966
964
959
956
950
950
951
952
951
947
944
946
947
950
949
948
947
944
946
947
945
945
943
944
948
951
947
944
945
945
946
947
947
946
944
943
948
948
950
949
947
946
946
947
949
948
947
945
947
950
950
950
949
947
950
951
955
954
952
950
953
957
957
959
960
961
964
965
967
969
969
972
975
979
981
982
980
985
989
994
994
992
994
994
996
1000
1001
1001
1004
1000
999
1001
996
992
994
990
993
990
990
986
981
978
979
978
979
975
975
974
972
973
972
972
972
970
973
971
970
967
968
969
971
971
967
967
965
963
965
966
966
967
963
962
962
965
968
970
968
968
967
968
968
968
966
969
968
970
970
970
969
969
975
976
972
972
970
972
976
977
978
975
972
971
974
977
976
972
970
969
977
978
979
976
974
971
976
980
978
976
974
973
976
973
973
972
974
974
976
979
974
974
973
972
977
977
978
974
975
974
979
980
976
974
971
973
974
976
977
975
975
974
976
976
975
976
975
975
975
975
975
975
973
973
975
976
978
977
978
976
980
984
987
985
984
986
986
992
992
989
989
987
992
997
1000
1003
1007
1010
1011
1007
1003
1003
999
999
1002
1003
998
996
993
990
993
992
990
986
979
977
977
979
976
973
970
968
970
972
971
971
969
969
970
971
971
968
968
967
968
970
969
961
954
951
955
961
984
1021
1069
1129
1203
1271
1309
1304
1259
1194
1141
1106
1087
1078
1062
1044
1031
1026
1016
1005
995
986
980
976
972
966
963
964
962
962
962
958
958
957
958
960
959
959
957
955
957
960
959
955
955
956
958
958
957
954
953
953
959
960
958
958
957
955
960
961
961
958
957
956
955
961
962
959
957
955
958
959
957
958
958
958
960
962
962
961
960
962
963
962
963
964
966
968
972
979
979
977
975
977
984
986
985
986
987
988
991
999
998
997
997
997
999
1004
1002
1004
1002
1004
1008
1011
1012
1010
1006
1004
1005
1005
1004
1002
998
996
994
995
994
991
986
986
986
985
985
979
976
978
981
980
978
980
978
978
978
980
975
974
973
971
974
974
972
972
969
970
973
972
969
969
972
974
977
976
974
972
967
964
967
973
974
971
970
971
975
978
977
975
973
970
973
975
976
976
974
976
978
978
976
971
973
975
979
979
980
982
978
977
977
981
981
981
977
975
977
979
979
976
976
976
978
977
976
974
975
975
972
975
977
977
974
971
971
974
974
977
975
973
969
972
974
974
974
973
972
974
973
975
971
969
974
974
973
972
973
971
972
975
975
972
970
967
971
973
970
971
971
971
972
978
978
975
970
970
972
977
978
975
973
975
980
981
982
985
984
986
985
986
987
984
983
983
988
994
996
999
1001
1001
1000
998
995
993
990
988
989
994
996
992
990
988
986
984
986
982
979
978
974
971
967
966
968
967
967
967
966
967
963
963
966
966
966
964
962
962
965
966
965
964
963
958
955
952
948
945
946
956
984
1023
1072
1130
1193
1250
1292
1296
1256
1197
1148
1111
1087
1078
1068
1054
1034
1020
1014
1008
999
987
980
972
969
964
957
956
954
954
955
959
956
954
953
953
955
956
954
954
951
949
953
952
952
950
949
950
953
953
953
951
947
947
950
952
956
953
953
949
949
949
953
952
948
945
947
952
951
952
951
949
948
947
948
950
951
950
954
956
956
954
952
953
956
958
959
959
958
957
959
961
964
964
965
963
967
969
970
970
973
973
980
982
984
983
984
983
989
993
996
994
995
994
1000
1004
1001
999
996
995
996
996
998
995
994
993
991
992
991
987
984
980
981
978
973
972
970
971
969
970
968
965
963
961
964
966
968
964
962
960
961
962
963
962
960
959
958
963
958
957
958
957
958
961
964
962
958
960
963
964
962
958
958
958
960
963
963
964
963
962
965
967
964
965
965
964
966
966
964
963
963
962
967
966
966
966
963
961
963
966
966
965
963
963
966
965
963
961
965
965
966
966
966
966
963
962
963
961
961
958
958
958
960
961
961
959
957
954
959
961
960
961
958
958
960
961
963
963
956
957
958
960
962
964
961
955
956
960
963
960
957
956
956
961
966
964
961
956
953
956
958
963
962
962
962
959
960
957
955
955
961
962
964
964
964
963
968
969
969
968
970
967
966
969
970
968
971
972
976
980
989
993
989
983
976
976
975
974
971
969
972
973
974
969
963
960
963
962
955
951
951
951
954
952
952
953
954
952
952
950
948
945
943
943
948
949
950
947
946
945
947
947
942
938
931
925
927
928
937
953
980
1023
1076
1137
1200
1253
1278
1264
1216
1164
1117
1081
1062
1051
1041
