942
940
939
941
937
935
931
932
930
930
931
931
932
931
927
927
930
930
927
928
928
929
931
931
930
929
927
929
932
933
931
932
930
932
936
937
935
936
936
942
945
946
947
947
946
952
958
960
962
964
966
970
975
978
981
984
988
994
996
1003
1003
1009
1007
1012
1018
1022
1022
1023
1023
1027
1030
1032
1032
1031
1035
1037
1039
1035
1035
1032
1028
1026
1026
1023
1018
1013
1008
1000
997
992
988
984
978
978
974
973
970
966
964
959
963
962
958
957
954
958
961
959
957
957
958
958
962
960
960
956
958
961
964
964
963
962
962
964
965
967
964
963
965
966
967
968
965
965
963
965
966
967
966
967
965
965
967
967
966
966
967
967
967
968
964
964
962
961
965
965
965
963
962
962
962
961
960
959
958
960
961
960
960
957
956
957
956
956
954
955
954
954
956
956
956
953
952
953
955
957
954
954
953
955
960
963
967
966
967
967
970
971
970
968
969
972
975
976
974
972
975
978
975
973
970
968
962
961
964
966
966
966
964
964
963
963
960
954
952
953
950
950
947
943
942
942
942
941
942
939
936
939
940
941
942
941
939
940
943
943
942
939
939
939
934
922
909
901
905
913
929
956
1004
1074
1152
1230
1302
1352
1373
1362
1310
1217
1104
1004
938
912
913
924
944
960
965
960
953
951
951
949
949
942
939
937
938
938
935
932
932
932
933
932
930
931
931
933
935
935
934
931
931
933
937
935
935
934
934
935
936
937
939
938
938
942
943
944
947
946
947
948
953
956
956
957
960
962
966
972
973
975
978
984
990
993
997
999
1003
1010
1015
1018
1020
1022
1021
1026
1031
1032
1036
1033
1036
1040
1039
1042
1041
1040
1039
1039
1037
1035
1031
1026
1022
1018
1014
1011
1004
998
993
991
987
986
980
974
972
971
969
967
966
962
961
960
961
961
961
959
959
961
962
961
958
958
957
961
964
963
960
962
960
958
962
965
967
965
964
964
963
966
967
966
964
967
970
971
969
964
965
966
969
969
968
967
965
967
968
968
964
967
966
967
969
966
963
962
959
961
964
964
960
959
956
961
960
960
959
954
957
955
958
957
956
955
953
953
956
956
958
955
954
954
957
953
950
952
953
953
954
953
953
953
956
958
960
966
968
966
966
967
968
968
969
969
971
971
973
972
972
973
970
971
973
971
967
964
960
960
964
965
965
963
957
956
956
953
951
946
942
944
944
941
939
938
936
936
936
937
938
936
931
936
938
938
938
937
934
936
938
939
937
932
927
919
906
899
899
905
920
947
990
1059
1139
1214
1285
1342
1370
1367
1328
1245
1128
1019
944
912
905
913
926
947
958
958
951
945
942
941
940
942
937
932
929
926
929
928
925
922
922
921
924
926
922
921
921
920
923
924
923
923
922
925
927
928
927
924
925
926
928
928
929
928
929
931
935
938
936
935
931
936
938
943
944
944
943
949
950
952
954
956
957
962
967
973
975
976
978
982
987
993
996
996
997
1005
1009
1010
1012
1014
1015
1019
1022
1025
1027
1027
1025
1029
1031
1033
1030
1030
1025
1026
1023
1023
1018
1011
1004
1002
1001
996
991
984
979
980
977
974
969
965
961
962
963
959
957
953
950
951
952
953
951
948
950
951
952
953
949
948
948
949
951
953
952
950
949
949
952
953
953
953
952
954
957
957
956
955
952
956
957
954
954
954
953
954
956
957
955
954
953
954
956
957
957
954
951
952
953
954
954
953
953
953
953
952
950
948
945
946
949
951
949
945
944
946
948
947
946
943
943
943
945
943
942
938
936
940
941
942
941
940
936
937
938
941
940
936
936
937
941
940
940
938
933
936
936
939
939
940
941
943
946
950
953
953
948
949
951
953
952
953
957
959
960
957
957
958
960
960
959
958
955
951
945
947
947
950
952
950
952
951
952
946
943
941
939
938
937
935
934
933
929
931
931
931
927
926
925
926
926
928
926
925
925
925
924
925
925
924
922
927
925
927
926
922
913
902
896
895
904
915
934
974
1035
1104
1169
1234
1292
1335
1354
1343
1291
1205
1103
1021
961
924
907
904
915
938
952
950
940
932
928
929
929
931
928
924
921
922
924
921
921
919
917
918
921
921
919
915
912
915
918
916
915
915
916
920
921
920
920
918
916
923
923
923
922
923
921
923
925
927
927
925
929
930
932
934
932
932
936
938
941
945
946
951
950
954
960
963
964
967
972
976
984
986
990
990
991
995
997
1002
1006
1004
1006
1011
1011
1016
1019
1020
1021
1021
1021
1022
1021
1018
1013
1011
1010
1010
1006
1002
998
996
994
988
984
978
974
972
970
967
962
957
956
954
956
953
954
951
949
948
949
947
946
944
948
948
950
949
948
949
947
949
949
949
949
948
946
950
952
952
954
952
951
953
955
954
952
950
950
955
952
954
953
953
954
955
957
956
954
953
953
955
954
955
954
951
949
951
954
953
951
951
949
950
951
952
950
949
947
946
946
945
946
946
946
945
947
946
946
943
943
944
943
942
940
940
938
940
940
942
940
938
935
939
940
939
940
937
936
937
939
937
936
935
934
937
938
942
941
941
942
946
948
951
952
949
949
952
955
955
955
954
953
957
961
960
961
956
956
956
957
954
953
948
946
947
950
954
953
953
947
947
945
943
942
940
936
933
936
934
933
928
927
927
929
928
929
927
926
925
928
927
926
926
925
927
930
930
929
926
924
928
928
925
921
909
899
892
899
907
921
939
977
1036
1104
1172
1238
1298
1345
1366
1361
1317
1228
1117
1014
941
909
901
906
920
937
951
953
949
943
937
934
935
936
933
929
926
923
923
923
924
922
918
918
917
920
919
919
919
918
918
923
921
922
921
921
922
920
923
924
923
922
923
922
922
924
923
923
926
928
929
930
930
929
933
937
937
939
940
940
944
947
949
951
952
954
960
963
969
971
974
974
982
984
988
992
994
995
1001
1007
1009
1009
1012
1011
1016
1020
1022
1026
1023
1026
1028
1028
1027
1028
1026
1026
1024
1022
1015
1014
1008
1003
998
992
990
985
979
972
972
970
968
961
959
955
955
953
953
950
950
948
949
950
949
948
945
946
947
948
949
949
947
946
949
950
950
952
949
948
952
952
954
955
952
952
954
955
956
956
953
951
954
957
957
957
953
955
953
959
959
953
954
953
956
957
958
955
951
950
953
954
956
955
954
951
953
953
954
952
950
949
951
950
954
949
949
945
946
947
948
945
946
942
943
945
945
945
941
942
942
945
942
942
941
941
941
942
942
942
939
940
942
942
943
944
942
941
942
943
944
945
947
950
951
956
958
956
957
954
956
961
962
965
961
961
965
966
966
968
967
965
963
964
963
959
953
950
952
955
957
956
956
952
952
948
949
947
941
940
939
940
940
939
935
933
934
937
933
932
932
933
931
935
934
933
931
931
931
934
933
933
932
932
934
931
929
917
904
895
900
911
925
952
994
1061
1144
1216
1283
1344
1380
1387
1364
1300
1192
1074
979
924
908
910
918
932
949
953
954
946
942
940
938
938
937
937
935
930
926
925
926
925
925
926
925
922
926
925
924
924
921
920
924
924
923
924
925
923
925
926
925
927
929
928
930
932
932
930
931
931
936
937
939
939
941
941
941
941
946
948
951
951
956
960
963
966
964
967
971
978
983
986
988
992
999
1002
1003
1008
1012
1013
1017
1022
1026
1028
1029
1031
1034
1038
1039
1040
1039
1042
1042
1040
1040
1039
1035
1030
1031
1028
1026
1022
1013
1009
1006
998
999
992
986
981
978
978
974
971
966
964
962
964
962
959
960
958
958
955
955
954
953
953
955
957
958
957
955
953
955
956
955
954
955
956
956
959
958
960
958
957
962
961
963
960
961
961
963
965
963
962
963
964
965
965
967
965
962
965
964
964
965
962
963
962
963
964
964
965
961
961
965
964
964
962
959
959
960
960
957
955
956
956
954
955
954
956
954
952
955
955
955
953
951
951
952
952
950
949
949
948
950
952
950
949
948
946
948
950
949
947
946
946
947
951
948
947
944
943
945
948
947
947
947
945
948
949
953
957
959
957
960
962
964
962
960
960
964
969
968
969
967
966
971
973
974
968
964
962
959
961
960
958
958
960
964
963
961
957
955
950
951
950
951
948
943
943
940
940
941
940
937
938
937
937
938
939
937
937
938
939
940
939
937
937
939
939
942
941
936
930
924
912
903
903
913
929
959
1014
1086
1169
1244
1313
1366
1390
1376
1308
1199
1080
988
933
915
912
921
942
958
960
953
947
944
943
942
941
941
938
935
933
929
931
934
933
934
931
930
933
932
929
931
930
931
934
933
933
931
930
932
935
935
934
936
936
936
937
941
938
939
940
942
944
946
946
947
947
948
952
954
956
957
960
966
969
973
976
978
978
984
990
996
999
1001
1002
1009
1011
1016
1016
1018
1022
1024
1032
1033
1033
1033
1032
1035
1039
1040
1041
1037
1036
1039
1039
1035
1033
1025
1022
1018
1018
1011
1004
1001
997
994
990
987
982
977
976
975
976
973
967
963
964
965
963
968
964
963
961
963
963
963
960
959
959
962
965
965
963
960
959
962
963
963
964
963
962
964
964
965
964
965
964
966
968
970
969
966
965
965
966
965
965
967
966
968
971
971
971
968
965
967
967
969
968
969
968
970
969
968
967
966
962
967
968
966
966
962
960
961
960
962
960
958
958
958
960
962
959
958
955
955
956
959
956
956
954
952
953
953
953
950
952
952
955
954
952
950
948
950
951
951
952
949
950
951
953
952
951
950
946
949
952
954
955
954
957
961
964
966
967
968
966
969
970
971
973
972
966
969
973
975
974
970
967
964
964
961
961
963
962
965
968
968
964
957
952
955
956
953
949
949
945
944
945
943
939
940
940
942
946
945
944
943
941
942
944
944
945
941
939
941
944
945
944
941
938
931
923
913
912
921
935
959
1001
1071
1144
1217
1289
1347
1378
1377
1334
1245
1132
1029
963
929
917
921
938
959
966
961
953
951
948
949
950
949
945
937
937
940
940
941
936
935
935
937
935
937
937
934
934
934
936
934
935
934
933
935
937
939
937
936
936
938
941
941
943
940
939
943
945
946
947
948
945
949
953
955
956
958
959
961
966
969
970
975
977
980
988
992
994
998
998
1002
1007
1013
1015
1016
1018
1022
1025
1029
1031
1031
1032
1037
1040
1043
1045
1046
1043
1046
1046
1045
1045
1042
1039
1038
1034
1032
1029
1024
1018
1014
1011
1008
1002
997
992
989
987
984
979
977
974
975
973
972
969
967
963
965
966
968
967
966
965
965
966
966
964
964
961
964
965
967
967
965
964
966
966
969
969
967
967
968
970
972
969
972
966
971
972
974
974
973
971
973
972
973
974
973
973
974
975
974
975
973
970
972
973
974
974
972
971
971
972
972
969
969
967
969
969
969
967
964
965
965
966
967
966
964
963
964
962
962
961
958
958
960
959
959
960
960
958
957
956
957
957
957
956
957
957
959
958
955
952
956
956
957
956
956
954
954
958
957
960
960
960
963
966
970
967
967
968
970
976
978
980
974
972
974
979
978
978
976
972
973
970
969
969
968
970
971
970
968
963
958
956
956
955
954
952
949
945
946
947
947
944
941
940
940
943
943
942
942
939
941
942
944
945
942
940
940
939
931
917
904
907
920
941
974
1033
1114
1198
1282
1352
1396
1403
1359
1264
1136
1022
952
922
918
927
944
961
969
959
952
949
949
950
948
946
938
936
935
934
933
932
934
932
933
934
935
932
931
930
932
933
933
935
932
931
933
935
936
934
935
935
938
939
939
941
938
939
939
943
946
946
944
946
949
952
954
956
957
961
963
967
971
974
975
979
982
987
995
997
998
1001
1005
1012
1016
1017
1022
1025
1029
1031
1038
1037
1038
1037
1043
1047
1048
1049
1050
1047
1046
1047
1046
1040
1036
1034
1031
1028
1024
1021
1014
1005
1004
1002
997
991
985
982
978
977
975
971
967
964
965
964
963
960
958
958
958
960
959
960
958
956
957
957
957
958
957
954
958
960
961
961
958
960
960
964
963
963
965
962
964
964
965
967
965
964
969
970
969
966
967
963
967
967
968
969
968
965
970
970
968
962
965
966
964
965
966
966
962
961
963
960
959
958
957
957
958
959
957
958
957
955
954
957
958
956
955
953
951
952
954
954
953
950
952
952
954
952
950
951
948
951
955
951
950
948
949
951
950
950
950
946
952
952
955
952
952
953
954
959
964
963
963
965
965
967
967
970
973
970
971
973
974
972
971
966
967
966
964
963
962
963
965
966
964
962
957
954
953
952
952
948
946
941
941
940
940
940
939
939
936
940
939
938
939
938
940
941
940
939
939
936
939
940
939
938
934
920
910
902
910
924
943
976
1038
1117
1201
1275
1333
1368
1373
1337
1257
1145
1039
966
930
921
927
940
953
957
955
951
948
945
942
940
941
939
936
937
933
928
929
930
929
930
928
927
927
930
931
928
924
923
927
929
931
930
928
929
928
930
930
932
933
934
933
935
937
937
936
938
941
942
946
946
946
948
950
954
955
958
961
963
964
970
972
975
978
982
985
988
994
998
1001
1002
1006
1012
1015
1019
1021
1022
1025
1030
1033
1035
1034
1033
1035
1038
1038
1039
1038
1039
1038
1038
1037
1033
1026
1024
1023
1021
1015
1012
1007
999
995
993
991
985
981
977
974
969
968
967
964
961
963
965
963
963
960
959
958
958
958
961
959
958
957
960
959
959
958
956
960
961
965
962
961
959
960
962
963
964
964
963
964
965
967
965
963
963
964
966
966
966
966
963
965
964
965
965
965
964
965
967
968
967
965
963
960
962
964
964
961
959
960
961
962
961
959
957
955
959
958
959
956
952
952
954
954
953
949
950
951
953
952
951
950
950
949
950
952
952
950
948
949
950
952
950
949
947
948
949
949
948
946
946
947
948
950
948
948
947
946
947
949
950
949
950
953
958
960
965
963
961
964
966
965
964
966
967
967
968
968
971
967
965
967
967
967
963
959
957
959
963
964
962
962
958
958
958
954
949
948
947
943
942
945
941
941
941
939
939
936
940
937
936
936
938
938
935
937
935
936
939
939
938
934
935
937
937
938
936
930
922
914
908
907
918
926
949
985
1045
1116
1188
1252
1307
1352
1372
1367
1319
1229
1125
1032
966
931
912
906
914
933
953
959
953
944
944
943
944
944
940
938
936
934
934
933
932
929
927
928
930
932
930
928
926
925
930
931
930
929
926
928
931
931
929
929
930
931
930
932
930
930
931
933
936
939
938
936
937
938
942
944
946
944
946
946
952
954
955
954
954
959
962
967
968
968
970
974
979
982
983
987
989
993
995
1001
1004
1005
1008
1013
1016
1018
1022
1022
1021
1026
1029
1032
1033
1031
1033
1035
1035
1037
1035
1037
1034
1035
1031
1028
1027
1023
1018
1014
1009
1008
1004
1000
994
990
990
987
982
982
973
977
972
972
966
965
960
963
963
962
960
961
958
959
960
960
959
958
957
959
959
961
958
956
957
957
960
961
960
958
957
960
961
962
963
960
959
960
961
965
963
964
963
963
967
966
966
964
964
965
967
967
965
964
965
966
969
966
968
966
963
968
968
968
969
965
965
965
963
963
964
962
962
962
962
962
961
959
958
961
961
960
957
955
954
954
954
955
956
955
952
954
955
957
952
950
948
949
948
952
952
953
952
951
952
952
951
948
946
948
951
953
953
951
949
949
947
950
951
950
952
952
955
959
958
959
958
964
969
967
969
967
967
969
970
974
973
972
973
973
976
973
974
969
965
965
965
964
966
964
963
966
964
963
959
957
955
954
954
950
948
948
944
945
945
944
942
942
941
941
945
945
945
943
942
944
943
946
944
943
941
943
944
944
943
940
933
923
914
914
923
931
944
975
1026
1095
1168
1233
1295
1349
1381
1386
1361
1293
1194
1089
1004
952
928
925
929
942
958
966
967
960
954
953
952
952
949
945
942
941
940
942
939
939
936
938
937
937
934
935
933
935
936
938
936
936
932
935
936
937
938
937
938
938
940
940
940
939
938
941
943
945
944
945
944
946
949
950
952
952
951
957
958
962
962
963
961
967
972
976
978
979
980
986
992
996
999
1000
1004
1008
1014
1019
1020
1022
1025
1027
1031
1036
1036
1037
1039
1041
1046
1049
1050
1050
1048
1050
1051
1055
1051
1050
1045
1045
1044
1042
1036
1028
1025
1021
1018
1018
1009
1005
1000
995
992
990
985
983
979
978
979
977
974
970
966
969
970
968
967
964
963
963
967
966
966
964
962
963
966
965
965
966
964
966
966
968
969
967
967
968
969
970
969
969
967
968
970
971
970
971
971
971
972
972
974
972
970
974
975
977
975
975
974
975
974
974
975
973
972
975
971
971
973
969
968
968
970
970
970
967
968
967
968
966
963
964
962
963
965
965
963
964
962
961
962
962
961
960
958
961
960
962
961
959
956
959
960
959
959
958
954
958
957
957
957
957
957
958
959
957
957
955
954
955
957
960
959
956
957
960
963
968
969
970
970
971
974
976
979
977
977
977
976
979
980
980
977
976
974
973
969
966
967
968
972
976
975
973
964
963
961
960
958
958
953
951
952
955
