950
948
944
943
946
947
951
947
944
945
947
947
945
945
944
946
947
951
951
947
944
944
942
934
920
910
909
922
939
963
1006
1075
1157
1236
1309
1369
1401
1403
1363
1271
1155
1046
970
933
927
927
936
956
968
970
962
958
958
957
954
951
948
948
947
946
942
940
937
937
942
941
939
938
935
936
937
942
938
936
935
939
939
939
938
937
936
938
941
943
940
939
937
941
942
945
947
946
945
949
951
951
949
950
949
953
955
960
959
960
961
966
967
971
972
974
977
984
989
992
995
998
1001
1006
1009
1011
1013
1017
1020
1024
1029
1030
1031
1034
1034
1040
1044
1045
1047
1049
1048
1051
1053
1055
1052
1052
1050
1051
1051
1049
1045
1042
1036
1035
1030
1026
1025
1018
1014
1009
1007
999
995
990
985
984
983
982
978
977
972
972
972
970
968
967
966
967
968
969
968
966
964
966
967
969
968
965
964
966
967
968
967
962
964
966
969
970
970
969
969
972
972
972
972
973
973
974
975
975
973
973
972
975
976
974
975
973
970
974
975
976
971
971
971
973
974
973
971
968
967
968
968
967
966
967
965
965
967
965
963
963
962
963
963
963
961
960
956
957
957
960
958
959
958
958
956
957
957
955
955
955
957
957
957
955
953
953
955
955
954
953
953
955
955
956
954
953
951
954
955
957
959
953
957
963
966
970
970
970
970
971
975
977
977
976
976
975
976
979
979
978
976
975
976
974
969
965
963
969
970
974
976
972
966
965
964
962
958
957
956
954
955
953
952
950
946
943
946
949
947
944
947
947
948
949
947
949
945
946
948
950
950
948
949
949
950
950
949
942
935
925
918
920
929
940
955
988
1045
1114
1186
1250
1308
1358
1386
1385
1345
1261
1147
1046
974
939
927
926
933
952
968
971
965
958
954
954
957
958
956
950
946
948
948
950
949
944
942
944
944
945
943
943
943
945
945
943
944
943
941
943
946
947
947
944
944
946
949
950
949
948
948
949
952
956
954
957
957
958
961
964
962
965
966
970
973
973
974
975
977
982
986
991
994
995
997
1002
1005
1010
1010
1014
1016
1022
1025
1031
1030
1033
1035
1038
1044
1046
1048
1048
1049
1052
1054
1055
1055
1054
1051
1052
1051
1047
1046
1039
1033
1030
1030
1024
1020
1013
1007
1005
1001
999
996
992
989
986
988
986
983
981
979
981
981
978
981
978
977
976
976
978
979
979
977
979
978
980
979
979
975
979
981
983
984
982
978
982
985
987
988
987
982
986
987
988
987
985
987
989
992
991
991
986
985
984
989
989
987
987
984
986
986
985
984
984
982
983
985
985
983
983
977
978
977
979
980
978
976
977
976
977
975
976
971
972
972
975
974
971
969
970
970
973
973
972
972
971
973
972
970
968
968
969
973
974
973
970
967
968
971
973
971
969
970
970
973
975
976
977
979
982
985
989
988
986
986
988
993
994
993
989
988
991
993
994
992
987
985
982
984
982
983
981
981
985
984
983
978
976
973
974
976
973
968
966
964
964
966
963
962
962
961
963
964
966
964
962
961
965
965
968
967
963
960
963
964
964
963
961
959
957
950
938
931
935
944
960
986
1028
1091
1162
1228
1291
1346
1381
1394
1378
1319
1226
1125
1036
977
945
933
939
956
973
987
985
977
972
973
973
972
969
965
965
964
960
961
958
955
957
957
957
957
954
955
956
956
957
955
956
954
954
958
959
957
957
956
957
959
961
961
961
961
962
964
964
964
963
963
967
969
969
971
974
974
978
980
981
982
985
987
993
998
1001
1003
1004
1009
1013
1018
1022
1027
1027
1030
1037
1040
1042
1045
1046
1047
1052
1056
1057
1061
1060
1061
1062
1065
1065
1063
1060
1058
1058
1056
1055
1050
1048
1040
1036
1032
1029
1021
1019
1011
1009
1007
1005
1000
997
990
991
990
990
987
985
985
984
985
984
983
982
981
984
982
986
984
981
980
983
985
983
984
984
982
985
987
990
987
983
984
986
990
991
991
988
987
990
990
992
990
987
988
991
993
992
991
991
989
989
992
992
990
987
989
991
991
991
989
988
984
987
988
989
987
986
983
985
982
984
982
981
980
980
982
983
980
977
975
977
977
976
974
974
972
973
972
975
974
972
970
970
973
973
969
968
967
970
970
971
970
967
966
968
969
968
967
964
964
966
970
971
969
968
966
969
975
976
980
979
979
981
986
987
988
985
984
988
989
988
990
988
986
991
989
989
983
979
976
980
982
981
986
982
978
978
978
977
973
969
968
965
966
963
959
958
959
957
960
958
958
956
955
955
956
958
958
956
954
957
957
958
957
955
955
957
955
954
947
931
919
916
923
934
948
974
1022
1094
1173
1248
1312
1368
1400
1410
1382
1310
1201
1086
998
951
937
938
942
955
971
982
980
970
964
961
958
957
958
955
952
947
946
946
946
946
943
941
939
942
946
945
942
941
939
940
943
945
941
939
939
944
945
947
946
944
943
944
948
949
949
947
947
950
952
952
950
952
953
956
960
961
965
964
965
970
975
975
980
981
984
992
996
998
1001
1006
1010
1016
1021
1026
1029
1029
1031
1033
1039
1041
1043
1043
1045
1048
1048
1051
1052
1053
1049
1048
1049
1047
1044
1038
1032
1030
1028
1023
1018
1012
1006
1002
998
995
991
984
980
978
978
974
974
972
966
969
971
967
968
967
962
964
964
966
966
965
964
965
967
965
965
966
965
967
967
969
968
965
964
967
970
972
972
972
970
970
971
971
973
970
969
969
972
975
973
972
969
973
973
974
973
970
970
968
972
972
969
966
963
965
966
966
964
962
961
961
962
964
964
960
959
958
961
960
956
955
955
956
960
959
956
954
952
953
955
955
954
950
949
950
952
952
951
949
947
950
951
953
952
948
948
950
952
953
952
949
949
952
953
953
951
951
953
955
963
966
967
965
964
966
970
970
971
970
970
971
971
973
973
970
968
966
965
963
961
957
958
960
966
967
965
961
956
957
956
953
950
947
944
945
945
945
943
939
938
938
940
940
939
937
935
939
939
941
939
939
938
939
940
937
938
939
936
938
936
929
915
906
903
917
929
952
987
1050
1125
1202
1271
1329
1365
1378
1350
1279
1172
1060
975
934
916
916
928
948
963
962
955
945
944
944
943
944
938
940
939
937
934
931
929
933
933
932
934
930
930
928
929
932
931
931
930
931
932
934
934
933
932
932
932
936
938
937
936
938
939
940
938
937
940
943
948
949
949
950
951
955
961
966
966
970
971
976
980
982
986
987
992
1000
999
1005
1006
1009
1013
1017
1020
1023
1027
1027
1029
1029
1032
1037
1037
1037
1036
1039
1036
1036
1031
1027
1023
1022
1018
1017
1010
1006
997
995
992
987
984
980
974
972
974
972
969
964
962
962
966
964
964
960
958
959
960
961
961
959
958
957
958
959
960
957
955
959
959
962
961
961
960
963
965
965
966
964
963
965
968
968
967
967
967
966
967
969
968
970
967
968
969
971
968
970
967
971
967
969
967
964
963
964
964
966
963
961
959
962
963
961
961
959
958
959
958
958
956
954
953
954
952
953
953
952
950
953
952
951
950
949
951
954
955
953
952
947
947
947
948
950
949
948
947
948
948
950
948
948
944
949
950
951
951
951
951
953
956
961
963
964
963
964
966
966
969
966
967
969
969
971
973
972
969
969
968
968
965
962
959
961
963
964
966
963
962
959
957
955
955
953
949
948
945
946
946
945
942
942
943
942
944
940
937
937
941
941
940
938
938
940
942
943
940
938
939
938
940
942
935
926
914
913
915
929
942
963
1003
1068
1139
1206
1268
1318
1353
1368
1347
1285
1184
1077
999
947
925
919
920
934
953
964
963
958
953
948
947
948
948
946
943
940
937
937
937
938
935
934
933
934
936
936
935
935
933
936
936
936
937
936
935
938
938
938
937
937
935
936
941
942
941
943
941
943
944
945
948
946
947
952
952
954
954
955
955
958
962
965
968
969
971
976
979
984
985
986
991
995
1001
1006
1009
1011
1012
1016
1020
1023
1025
1027
1028
1032
1033
1036
1037
1038
1039
1040
1042
1041
1041
1041
1038
1038
1041
1038
1033
1029
1026
1025
1023
1020
1016
1009
1004
1001
997
995
991
986
982
979
978
976
973
970
968
967
966
968
965
963
962
963
963
964
963
960
958
961
962
962
964
963
961
960
964
963
964
964
962
965
967
966
966
965
966
967
970
969
971
969
968
972
971
976
970
970
968
972
971
973
973
972
970
973
974
974
973
972
970
970
973
973
971
971
969
972
970
971
969
969
967
968
971
971
968
967
963
964
966
966
965
961
960
964
964
964
962
959
957
957
960
960
958
957
955
955
956
958
956
955
952
951
954
958
955
955
953
953
955
955
956
954
955
955
953
953
953
951
952
952
955
954
953
954
956
959
963
966
965
968
967
970
971
972
971
972
973
976
978
976
974
972
974
977
980
979
974
971
967
966
968
967
967
970
968
970
968
966
963
958
957
956
955
955
952
949
946
947
948
945
945
940
940
941
942
943
943
939
940
940
940
941
941
941
940
945
945
945
945
942
938
936
931
923
909
904
908
920
938
962
1008
1074
1151
1229
1299
1357
1392
1401
1382
1324
1230
1124
1030
964
932
923
924
932
950
964
965
960
956
953
952
949
947
947
946
941
937
934
933
933
933
935
934
931
929
931
930
932
931
928
932
934
933
932
933
932
931
933
935
935
938
936
936
938
940
941
941
939
937
941
942
947
946
945
946
948
949
952
952
952
956
960
965
967
967
969
973
976
982
986
990
991
993
995
1002
1005
1008
1011
1015
1021
1026
1029
1032
1034
1035
1038
1041
1043
1046
1048
1047
1050
1051
1051
1048
1046
1045
1046
1044
1039
1036
1030
1028
1023
1017
1012
1009
1003
995
994
991
988
984
979
973
973
972
970
969
965
963
964
964
964
961
960
960
961
960
962
961
961
960
962
962
962
961
964
963
965
968
968
964
965
961
964
968
969
968
969
969
969
972
971
970
969
969
972
972
974
971
972
970
971
974
974
973
970
971
971
973
972
973
970
970
971
971
970
970
969
968
968
969
972
967
965
961
962
965
965
962
961
959
960
962
962
960
959
957
957
959
962
959
956
953
954
957
957
958
956
954
952
956
958
956
956
954
954
955
957
953
954
952
953
955
956
953
954
952
953
955
953
954
953
954
958
961
965
966
967
967
968
971
971
970
972
973
973
976
976
977
976
974
974
975
978
975
973
967
965
965
968
967
965
966
968
968
963
962
959
956
958
956
954
950
947
946
945
946
944
943
943
941
943
944
943
945
944
943
946
946
945
945
945
945
947
947
945
944
940
934
921
914
910
917
931
952
995
1060
1139
1218
1289
1343
1379
1390
1362
1288
1175
1058
974
934
923
923
930
940
958
966
962
956
952
946
951
952
952
948
945
939
938
939
939
936
933
935
935
935
933
935
933
932
934
935
936
936
936
935
935
935
936
935
935
933
938
942
940
942
939
938
941
943
943
946
945
946
947
950
952
955
953
956
958
963
965
966
970
971
974
977
982
985
987
990
993
999
1003
1006
1008
1012
1016
1022
1024
1029
1032
1031
1035
1039
1040
1041
1043
1043
1040
1046
1044
1040
1038
1036
1036
1036
1032
1028
1022
1013
1009
1005
1002
996
993
986
986
985
982
977
974
970
970
972
971
968
965
962
961
964
966
966
964
963
964
965
966
965
961
963
965
966
965
965
962
961
965
966
964
968
968
967
967
969
969
970
968
967
969
970
972
969
969
970
969
974
972
971
971
970
971
972
973
969
968
967
967
970
969
969
968
966
967
966
966
962
959
959
958
964
964
959
960
959
958
961
962
959
957
956
957
957
956
955
954
950
954
956
955
954
953
950
951
954
953
948
949
950
951
955
955
953
952
952
951
952
951
953
951
951
950
953
953
952
952
953
955
960
963
965
965
963
966
970
970
967
967
970
974
976
974
971
972
971
973
974
971
967
965
962
962
965
964
968
966
963
963
962
959
956
953
951
950
950
946
945
943
941
941
944
942
942
942
939
942
942
943
942
941
939
939
941
941
940
938
940
942
942
933
923
911
911
918
933
954
990
1048
1116
1192
1260
1320
1363
1379
1361
1304
1208
1106
1018
957
926
916
922
941
960
966
959
952
949
947
946
946
941
939
938
939
937
934
932
933
934
934
934
933
930
932
934
935
935
932
930
930
933
937
933
933
932
932
937
937
937
935
935
938
939
942
941
939
941
944
946
948
950
951
951
952
956
959
963
963
963
967
970
973
978
980
982
988
992
998
1000
999
1001
1006
1010
1015
1018
1017
1018
1023
1026
1029
1029
1029
1031
1035
1040
1039
1039
1036
1036
1037
1036
1034
1033
1026
1026
1023
1019
1018
1011
1006
998
996
994
992
987
983
979
974
976
975
971
968
966
967
969
969
967
964
963
960
965
964
964
961
960
962
963
963
964
962
962
962
967
966
964
965
964
966
968
968
968
967
968
969
972
972
972
967
968
969
971
973
974
974
972
973
974
974
972
972
967
968
970
972
971
971
967
969
973
969
968
969
967
967
969
969
970
967
964
967
966
966
965
964
961
963
962
961
958
958
957
957
957
960
959
957
955
956
957
956
954
953
952
952
954
957
955
952
951
952
955
955
952
953
952
952
956
956
959
958
960
962
968
970
969
968
969
972
974
975
976
973
973
973
979
979
977
973
972
970
969
967
962
966
965
968
970
969
963
958
954
954
951
950
951
950
946
944
944
942
942
941
939
941
942
942
942
940
938
939
942
942
943
941
938
939
939
933
917
903
901
912
927
944
979
1035
1110
1192
1268
1335
1386
1405
1392
1333
1231
1113
1008
942
917
917
932
950
965
967
956
951
949
950
948
943
940
938
936
937
933
933
932
933
934
934
928
932
931
931
933
932
933
932
930
930
933
934
934
934
933
933
937
940
937
937
937
940
945
944
942
943
942
946
948
951
953
954
952
956
962
964
967
969
970
975
984
986
990
992
994
1001
1003
1008
1012
1013
1017
1021
1029
1029
1032
1032
1032
1037
1040
1044
1042
1043
1042
1043
1046
1045
1041
1041
1038
1036
1037
1034
1030
1023
1018
1014
1012
1008
1002
996
991
988
986
984
977
973
969
970
971
970
967
965
962
961
963
963
963
961
961
961
963
962
963
960
959
960
965
966
965
961
961
964
966
966
964
963
963
965
967
969
968
969
964
965
967
966
968
968
966
969
972
973
972
970
967
971
971
974
971
969
968
969
969
970
969
966
965
969
968
968
967
963
963
962
964
965
962
963
961
960
962
963
962
959
957
960
961
960
958
957
954
954
959
957
956
954
952
953
956
954
953
949
950
953
955
955
953
952
950
950
954
953
953
952
950
952
953
955
955
956
959
964
967
970
968
968
967
970
974
977
978
976
974
977
979
979
977
976
971
971
969
968
967
967
967
970
970
967
964
958
954
954
953
953
950
948
946
946
948
946
944
943
939
944
945
946
946
943
943
944
944
944
943
943
940
941
946
945
942
930
917
909
909
919
931
948
982
1047
1121
1203
1277
1341
1386
1405
1387
1322
1213
1091
992
938
924
926
932
945
961
972
966
958
954
952
950
955
954
949
946
941
939
941
941
942
941
938
937
940
941
942
940
937
937
936
940
938
937
938
935
939
939
940
941
939
938
941
944
945
946
945
947
948
951
952
950
950
950
953
959
957
959
960
962
966
971
974
975
976
980
985
988
992
995
1000
1004
1007
1015
1016
1018
1022
1023
1029
1034
1035
1036
1040
1039
1044
1047
1050
1050
1052
1052
1053
1055
1056
1054
1050
1046
1049
1045
1042
1039
1032
1027
1025
1025
1019
1014
1009
1004
1003
1000
995
992
984
979
976
977
975
974
973
968
970
972
970
968
964
965
965
966
969
967
966
964
969
969
968
968
968
969
969
974
974
973
970
971
974
975
977
977
976
974
976
979
980
978
978
976
978
979
979
977
974
974
975
977
977
979
975
974
976
974
976
974
971
970
970
974
972
970
968
967
969
970
970
970
970
966
966
967
967
963
963
962
963
963
963
963
961
959
961
961
960
961
957
959
958
958
957
958
956
953
957
959
960
957
955
956
956
956
958
957
953
955
957
959
961
957
961
962
968
971
972
973
971
971
974
979
980
981
978
976
979
981
980
975
973
970
966
967
968
968
969
970
973
972
969
963
959
957
958
959
955
953
951
948
949
952
950
948
945
944
945
946
947
948
946
946
946
946
944
945
945
944
947
948
948
943
941
925
915
914
924
936
954
990
1055
1130
1205
1274
1334
1373
1385
1362
1288
1175
1059
975
932
922
924
939
957
966
969
962
958
955
954
951
950
950
949
946
942
936
940
942
943
941
938
938
940
941
944
940
938
938
939
941
940
939
939
941
941
942
942
942
943
942
943
946
946
948
946
945
948
951
954
955
957
955
957
960
962
963
964
964
969
973
976
978
979
980
985
989
994
997
999
1003
1006
1010
1016
1017
1018
1019
1025
1030
1031
1034
1034
1033
1036
1042
1046
1046
1049
1046
1048
1048
1048
1042
1043
1040
1039
1039
1037
1032
1029
1023
1019
1016
1012
1008
1002
997
993
992
992
988
985
979
979
980
981
979
975
973
975
975
974
974
972
969
972
971
973
974
971
972
971
973
970
970
973
973
974
976
975
974
971
973
975
976
979
