945
943
942
941
941
942
939
938
936
937
937
941
940
939
936
938
938
940
941
937
938
938
941
943
944
941
941
942
942
945
943
944
943
944
947
951
949
951
952
954
955
959
961
963
962
964
970
974
977
979
982
982
990
996
999
1002
1005
1007
1011
1018
1022
1023
1026
1029
1032
1036
1040
1040
1042
1044
1046
1050
1051
1049
1050
1048
1049
1048
1046
1041
1038
1035
1033
1031
1026
1016
1011
1007
1006
1001
997
994
987
985
983
983
981
978
976
974
974
975
975
974
970
971
970
973
972
968
968
971
971
972
972
970
965
969
971
974
975
974
972
970
973
976
976
977
977
976
977
980
980
978
978
979
979
982
982
980
979
978
980
983
981
980
978
980
978
982
980
979
975
973
975
976
974
975
971
973
971
972
971
972
971
968
968
970
970
969
966
965
967
971
969
967
964
961
965
966
965
964
960
960
961
962
961
959
957
960
961
963
962
960
960
958
960
963
961
959
959
956
959
960
963
963
960
964
969
972
978
975
972
976
979
983
982
980
980
982
981
985
985
982
982
980
981
979
979
971
968
969
975
979
978
973
969
966
965
965
965
962
959
957
958
958
954
952
949
950
950
952
950
950
950
949
953
951
952
953
952
951
952
954
953
952
950
949
944
936
926
919
925
937
957
991
1045
1111
1183
1253
1318
1362
1382
1369
1310
1209
1095
1011
955
931
928
937
958
975
977
968
961
957
957
959
957
954
949
948
947
949
947
945
943
943
945
947
947
943
941
944
946
948
947
948
944
944
946
948
949
948
946
948
950
951
952
952
950
952
955
958
959
960
958
958
963
967
966
969
967
971
975
979
983
984
988
990
995
1004
1006
1008
1013
1014
1021
1025
1028
1031
1031
1034
1038
1044
1047
1048
1048
1052
1054
1054
1056
1054
1051
1049
1051
1047
1045
1040
1034
1029
1027
1026
1020
1013
1008
1003
1002
998
996
992
987
985
985
985
981
979
978
976
977
976
974
973
973
973
975
978
978
976
974
975
976
980
978
979
975
976
979
982
982
980
980
982
980
983
982
983
981
982
983
983
984
982
981
978
983
983
981
982
984
982
984
984
985
982
983
981
983
986
983
979
978
979
978
977
981
978
976
978
978
977
978
976
975
973
974
976
975
974
969
969
968
970
969
968
966
965
967
968
969
966
966
963
967
968
966
966
964
963
964
967
966
964
963
963
964
966
964
964
963
963
966
970
972
974
975
978
980
982
982
980
980
982
985
987
986
985
985
987
989
988
988
984
980
978
975
977
978
979
979
979
979
975
973
972
966
966
965
964
963
960
957
954
957
958
955
953
950
952
954
954
953
953
948
951
953
953
954
952
952
950
954
955
954
953
947
939
930
920
919
923
937
958
995
1055
1132
1206
1277
1346
1396
1417
1404
1350
1250
1131
1031
966
937
929
933
948
966
979
976
967
963
960
961
959
960
955
949
947
947
949
946
945
945
943
944
948
945
943
943
944
946
947
946
944
943
944
945
949
948
947
945
945
948
951
949
952
949
950
952
953
957
956
955
957
961
962
965
966
963
966
971
975
980
981
983
986
992
995
1001
1005
1006
1010
1015
1018
1023
1025
1029
1033
1038
1041
1043
1044
1042
1046
1050
1053
1055
1054
1054
1055
1056
1058
1058
1054
1050
1049
1048
1045
1043
1037
1031
1026
1022
1019
1015
1009
1002
999
997
995
991
988
983
980
981
980
979
977
972
973
971
974
975
974
969
969
972
973
975
972
971
972
972
971
975
971
971
970
971
975
974
974
972
974
976
980
979
977
976
978
980
982
982
980
979
978
980
982
982
979
978
979
979
982
978
978
979
980
980
980
980
980
978
979
978
981
975
974
973
973
976
975
974
975
971
972
972
974
974
973
971
970
970
971
968
967
967
966
969
969
967
966
965
965
966
966
966
965
964
963
965
967
965
962
962
963
961
965
966
966
963
964
964
966
966
965
961
963
962
964
965
961
961
965
970
972
978
978
975
976
979
982
980
981
983
982
984
986
985
985
985
987
988
985
985
981
977
975
974
975
978
979
977
974
974
972
969
966
963
962
962
962
961
958
955
953
951
954
952
951
949
949
951
952
951
950
945
946
948
950
953
952
950
949
951
954
951
947
935
921
914
915
928
942
965
1015
1085
1165
1242
1310
1364
1400
1409
1393
1336
1235
1124
1025
964
939
934
933
939
958
972
977
970
961
958
957
957
959
955
951
948
944
946
946
946
945
941
940
942
943
943
941
939
938
942
945
944
943
941
941
943
945
945
944
941
944
947
951
951
950
949
950
951
953
956
955
953
955
958
964
963
964
965
967
971
975
978
979
979
984
991
997
999
1001
1004
1007
1014
1018
1022
1022
1023
1027
1035
1037
1041
1042
1043
1044
1048
1054
1054
1056
1054
1056
1058
1059
1059
1055
1048
1050
1050
1048
1048
1039
1035
1031
1026
1026
1020
1015
1007
1002
1001
999
995
990
983
980
980
980
979
974
973
973
972
976
975
972
971
968
970
972
972
969
966
965
968
972
972
970
971
971
971
975
973
972
970
971
976
977
978
976
972
976
978
980
979
978
977
976
980
980
980
978
976
976
980
979
978
979
977
977
977
977
977
976
974
976
978
977
978
975
972
971
973
974
974
970
970
971
971
971
972
968
964
967
965
967
966
963
961
962
962
964
967
963
962
963
963
965
964
961
958
957
958
960
958
955
955
957
957
960
960
957
955
955
957
960
960
957
958
957
958
958
959
958
958
958
959
961
965
969
970
973
971
975
975
974
971
972
976
978
979
979
976
979
982
985
984
981
978
975
974
973
972
970
970
972
971
973
972
966
962
958
961
962
957
954
950
950
954
952
952
947
947
946
948
950
949
948
948
947
946
949
948
948
947
948
949
951
951
951
945
946
942
932
918
915
920
933
952
986
1045
1121
1194
1267
1334
1372
1385
1365
1301
1200
1093
1009
954
929
923
929
948
967
973
967
960
958
957
959
958
955
949
948
945
948
947
945
943
942
942
945
944
941
941
940
944
943
942
941
939
942
944
946
945
943
942
943
946
948
946
945
946
945
949
948
948
948
949
950
952
955
959
958
956
959
965
970
969
968
969
972
978
981
983
984
985
989
994
999
1000
1006
1007
1012
1018
1022
1020
1023
1024
1029
1033
1038
1039
1039
1041
1043
1047
1050
1050
1050
1050
1053
1051
1053
1050
1049
1045
1044
1042
1038
1034
1028
1021
1019
1015
1014
1010
1004
1000
997
995
993
990
985
980
978
983
983
982
979
977
973
977
978
976
972
972
974
975
977
977
976
975
975
977
977
978
977
977
976
978
980
981
979
976
976
978
981
981
979
979
980
983
983
986
982
982
982
985
984
984
981
983
982
981
983
983
981
980
980
980
982
980
979
977
977
976
980
980
981
975
975
977
978
978
975
972
972
971
973
972
971
968
969
966
972
971
968
964
964
964
967
966
964
961
963
963
962
962
963
962
962
965
967
966
965
961
961
965
966
962
963
962
961
963
963
964
961
962
962
965
968
968
972
973
974
976
980
981
979
978
978
983
986
987
983
979
981
984
988
986
984
982
978
978
978
974
975
974
976
978
979
979
974
968
966
967
967
967
962
960
955
960
960
959
956
954
955
953
956
956
954
952
950
953
955
955
953
952
953
955
956
959
956
952
952
953
953
949
939
929
927
933
945
960
981
1016
1075
1141
1204
1261
1310
1348
1369
1370
1333
1253
1151
1057
984
946
930
933
941
959
970
978
974
969
965
958
961
963
963
962
955
949
952
950
952
950
950
948
949
947
948
950
950
944
950
949
951
952
950
947
948
951
951
952
952
949
948
950
950
952
954
952
952
952
956
958
956
957
959
962
965
965
964
965
965
970
972
973
973
974
976
981
987
990
988
991
996
1001
1007
1007
1009
1011
1014
1019
1024
1030
1029
1031
1031
1035
1040
1043
1044
1046
1047
1048
1053
1054
1055
1053
1053
1057
1058
1059
1055
1051
1049
1049
1047
1044
1039
1033
1029
1027
1025
1021
1015
1009
1004
1002
1001
998
992
989
987
989
984
985
982
978
980
978
979
980
976
975
975
976
979
978
976
974
972
974
976
975
976
975
977
980
978
982
980
977
977
980
983
983
981
980
979
983
986
985
985
984
985
988
989
986
985
983
983
987
986
988
987
984
985
989
990
989
985
983
986
987
988
987
986
982
982
983
985
984
983
979
979
980
982
981
978
976
976
976
979
977
975
972
970
974
975
975
973
970
971
972
974
973
971
971
968
968
971
969
970
968
970
969
970
970
967
966
966
966
967
969
965
966
967
968
970
970
969
970
971
974
979
980
981
981
981
983
984
986
987
988
989
990
993
992
991
992
992
991
992
989
986
981
981
981
984
985
985
985
981
980
978
973
972
967
964
965
964
964
961
958
956
955
957
958
956
953
956
957
958
958
957
955
955
956
959
958
957
956
955
953
949
938
922
915
924
936
958
996
1053
1127
1206
1283
1353
1402
1422
1407
1344
1237
1121
1018
955
931
931
942
964
983
984
977
971
967
967
968
963
960
956
954
956
955
953
950
947
949
950
950
947
947
946
949
950
951
950
946
948
949
951
951
951
949
950
951
955
955
954
951
952
957
959
961
957
958
960
964
966
967
967
967
972
974
980
981
983
986
987
992
999
1000
1005
1006
1008
1014
1021
1024
1027
1027
1031
1039
1043
1047
1047
1048
1052
1056
1060
1061
1062
1060
1064
1066
1067
1064
1061
1061
1059
1058
1057
1050
1048
1041
1037
1035
1031
1025
1017
1010
1007
1005
1000
998
993
988
988
987
986
985
983
979
980
977
979
979
980
978
976
978
981
979
976
976
976
978
981
980
981
977
979
982
983
984
983
983
983
985
986
987
986
984
983
986
990
989
986
985
986
987
988
989
988
985
986
985
988
988
986
984
984
985
985
986
984
983
982
983
985
984
981
981
980
981
981
980
980
974
978
979
983
977
976
975
971
971
973
972
972
969
967
969
971
969
967
969
966
969
969
967
966
966
966
967
970
969
969
965
966
966
969
969
967
964
963
969
968
968
967
968
971
972
978
983
983
978
980
984
983
983
986
986
986
990
990
991
989
988
989
987
987
983
979
977
978
984
984
981
977
972
970
970
967
968
964
958
959
961
960
958
957
954
953
956
957
956
957
954
953
955
959
960
958
954
955
956
954
950
938
919
919
927
940
961
1001
1064
1150
1238
1319
1382
1414
1409
1355
1248
1124
1016
951
931
933
945
963
980
981
974
966
964
965
964
961
953
951
952
953
951
948
947
947
948
949
947
949
947
943
947
948
949
947
945
947
949
949
949
948
948
949
951
952
955
953
952
955
958
960
960
959
960
961
965
969
971
970
970
972
979
981
986
988
988
993
1000
1003
1006
1010
1013
1016
1023
1027
1029
1033
1035
1040
1043
1048
1050
1052
1052
1055
1058
1062
1065
1064
1065
1064
1067
1067
1065
1063
1058
1054
1050
1048
1048
1041
1033
1029
1025
1022
1016
1010
1004
1002
1000
998
994
989
988
985
985
985
984
980
978
978
979
980
980
976
975
976
976
977
978
978
975
978
981
981
980
981
978
978
980
982
981
982
981
979
982
984
986
985
983
986
986
986
987
985
983
983
984
987
988
985
982
983
985
987
986
981
980
981
982
982
982
980
977
976
978
980
981
978
974
976
976
976
976
973
972
969
970
970
973
971
967
969
968
970
969
967
965
966
968
970
969
969
964
964
966
966
963
962
961
962
963
964
967
965
960
963
966
965
963
961
957
962
963
963
967
968
968
969
975
978
979
978
978
978
978
981
986
986
985
983
987
989
990
988
984
981
981
980
976
975
975
979
981
982
979
974
968
966
966
969
965
962
959
959
959
959
957
957
951
952
954
959
959
955
954
955
955
956
956
956
956
957
956
957
956
950
937
926
924
930
944
958
986
1040
1108
1184
1249
1314
1362
1392
1397
1365
1287
1181
1076
997
953
936
932
940
954
974
979
975
969
964
960
960
962
960
956
952
947
948
949
952
952
946
946
946
949
950
950
949
946
945
947
949
950
949
945
948
949
952
951
952
951
950
951
954
955
952
953
955
957
960
961
960
960
962
965
967
968
968
969
972
978
981
985
985
987
990
992
999
1003
1004
1007
1011
1016
1021
1023
1024
1027
1030
1035
1041
1042
1044
1045
1048
1050
1051
1054
1055
1053
1058
1057
1059
1057
1055
1051
1050
1049
1046
1044
1042
1035
1033
1027
1025
1020
1015
1009
1006
1005
1002
999
994
992
990
989
990
987
986
981
982
983
984
982
982
979
980
978
981
982
980
978
978
982
984
984
984
981
982
985
988
987
988
984
984
988
990
990
988
985
987
988
990
991
988
986
988
990
992
990
987
985
986
991
991
992
988
982
981
985
986
987
983
982
983
984
982
983
981
976
977
981
980
979
978
976
975
977
977
976
975
973
971
975
974
975
973
969
968
972
973
973
972
969
968
971
972
972
971
967
969
971
971
972
970
966
968
973
979
980
979
982
985
985
987
989
985
985
988
990
994
992
991
992
994
996
995
994
989
987
984
985
983
984
986
985
984
984
983
980
975
970
970
969
970
969
966
963
962
963
962
960
959
956
956
957
959
960
960
957
959
960
962
962
961
958
958
960
959
958
952
937
930
929
937
945
959
977
1022
1085
1158
1233
1298
1355
1390
1399
1374
1302
1194
1088
1005
956
939
936
941
956
975
981
979
974
967
965
965
969
969
965
958
953
953
955
954
955
951
950
949
951
952
955
953
951
951
949
955
953
952
951
951
952
955
954
955
952
953
956
957
958
956
956
958
962
963
963
964
963
965
967
971
972
973
974
976
977
982
984
985
989
992
996
1002
1004
1005
1008
1012
1018
1024
1025
1029
1029
1033
1038
1043
1045
1047
1047
1050
1054
1057
1061
1061
1061
1063
1066
1067
1067
1065
1061
1060
1060
1059
1054
1050
1045
1042
1038
1037
1030
1027
1019
1014
1013
1008
1004
999
994
991
991
991
987
986
986
984
985
986
983
982
981
978
980
982
984
978
978
980
981
984
983
983
981
982
985
985
986
984
985
984
986
989
989
988
986
991
992
988
992
989
985
989
987
989
992
990
989
990
990
991
988
989
986
986
989
989
989
987
985
985
986
986
985
982
980
980
982
983
982
980
978
978
978
981
979
979
974
976
976
978
979
977
973
974
975
976
977
974
970
971
972
974
974
975
971
972
973
975
974
972
970
969
971
973
975
972
967
968
971
973
972
972
970
972
975
977
981
982
983
986
987
988
989
988
986
987
992
997
995
993
991
991
996
999
997
991
990
988
987
984
983
985
982
985
989
987
983
982
976
974
974
974
972
970
967
964
966
965
962
959
958
960
961
962
962
960
958
960
961
961
962
961
959
957
961
961
960
961
957
957
955
948
935
923
923
932
947
968
998
1052
1118
1192
1261
1325
1377
1408
1409
1381
1311
1203
1091
1002
953
937
938
946
960
973
980
980
976
973
971
968
966
963
967
963
960
957
954
952
951
951
953
950
948
948
951
951
952
952
949
948
950
953
953
951
948
950
950
953
955
954
949
954
955
956
956
957
954
956
959
962
959
961
958
961
966
968
968
968
968
967
973
978
978
980
982
985
987
990
993
995
998
1002
1007
1011
1015
1017
1018
1024
1029
1035
1037
1039
1038
1041
1049
1054
1056
1057
1059
1061
1063
1066
1068
1067
1065
1069
1069
1071
1070
1065
1064
1061
1059
1060
1054
1050
1044
1039
1035
1034
1030
1023
1016
1013
1012
1010
1005
1000
994
991
991
990
990
988
981
982
984
986
981
978
976
978
980
981
982
978
976
980
979
980
979
979
977
979
983
986
984
983
979
981
983
987
987
984
982
984
986
989
987
987
985
984
984
988
988
984
984
986
986
992
988
987
984
985
985
987
987
983
982
984
984
985
985
983
980
979
979
982
979
975
973
975
976
978
978
975
972
973
973
975
972
970
970
969
970
970
970
970
966
968
969
969
968
964
963
965
967
968
967
965
964
965
966
969
968
967
965
966
967
972
971
970
969
975
979
983
983
981
978
982
984
987
988
988
986
987
989
993
993
991
989
987
985
983
982
978
975
976
979
984
984
979
973
970
969
967
967
964
960
959
960
961
957
957
954
953
954
956
955
952
947
951
953
955
953
953
951
952
953
955
955
955
953
951
952
946
935
921
914
919
932
946
970
1010
1068
1144
1217
1285
1345
1387
1401
1388
1336
1243
1130
1028
962
932
933
941
954
966
975
976
970
967
963
961
957
957
956
956
952
948
943
946
944
947
948
947
945
945
946
946
945
946
941
943
943
946
946
944
944
943
943
944
946
946
944
944
948
948
946
947
947
950
951
955
954
955
954
957
957
960
959
963
961
962
967
968
970
974
975
978
983
988
989
988
992
995
1000
1006
1010
1011
1014
1021
1025
1028
1031
1033
1033
1037
1041
1046
1047
1048
1047
1051
1054
1055
1053
1054
1054
1055
1056
1056
1054
1049
1048
1041
1040
1036
1029
1024
1019
1015
1013
1010
1002
1000
994
990
986
985
982
982
981
980
978
977
979
977
973
975
974
976
971
971
968
970
973
975
976
974
972
972
975
976
978
975
975
976
978
979
979
980
979
980
981
982
980
979
978
978
979
979
980
978
977
980
981
982
982
980
978
978
979
981
980
978
975
976
975
978
977
975
973
973
977
978
975
972
970
970
971
970
972
970
966
969
970
967
