965
965
963
962
963
969
974
975
979
980
980
979
980
979
981
983
988
994
1003
1005
1006
1005
1004
1008
1008
1007
1005
1002
996
998
1000
999
990
977
968
958
958
957
955
951
951
951
954
955
953
953
953
958
959
956
955
958
959
959
963
961
962
960
960
963
963
967
965
961
955
958
963
972
989
1015
1046
1084
1123
1159
1198
1229
1251
1269
1270
1254
1223
1196
1175
1159
1137
1108
1079
1061
1048
1038
1024
1008
994
975
965
952
945
939
934
931
927
926
926
929
929
925
923
924
927
929
929
929
928
928
931
932
932
931
931
931
930
933
933
930
928
929
930
930
932
930
926
931
931
933
934
932
931
931
932
931
929
929
930
931
931
933
931
933
931
932
936
937
937
939
937
940
945
948
951
951
952
955
958
959
963
967
967
974
980
984
984
984
985
987
993
995
995
995
992
992
993
991
991
984
984
983
982
982
980
979
977
977
978
977
976
973
970
970
972
971
971
968
966
967
968
972
971
968
966
966
968
968
969
967
966
967
967
969
968
966
965
964
967
968
967
966
964
966
968
969
968
966
965
967
967
968
968
966
964
964
966
965
964
965
966
967
970
970
967
967
966
966
966
967
968
966
965
969
971
971
968
967
967
970
974
978
981
986
987
990
988
988
989
992
995
999
1004
1005
1006
1007
1005
1009
1010
1008
1006
1005
1000
994
988
979
968
958
955
952
955
954
955
951
950
951
954
955
954
954
955
957
957
958
957
957
958
960
962
962
959
958
958
957
954
953
952
958
973
997
1027
1057
1093
1133
1172
1213
1244
1265
1279
1268
1241
1216
1193
1171
1151
1120
1090
1069
1058
1048
1030
1011
995
982
972
959
944
934
927
928
924
921
918
917
915
917
918
917
916
916
915
917
918
922
921
921
917
920
922
924
922
922
919
920
922
924
923
921
919
920
919
922
920
920
918
921
921
921
916
920
915
918
922
925
924
924
920
922
926
929
932
932
931
931
936
936
938
940
941
945
950
955
958
959
959
965
969
973
974
975
975
979
985
987
988
988
988
990
990
989
986
985
981
983
984
984
982
979
977
977
975
976
971
968
967
967
967
970
966
966
964
965
966
967
965
964
962
962
965
964
964
962
959
960
964
965
961
962
961
964
966
966
963
961
961
961
961
961
961
959
956
960
964
963
962
962
959
961
962
964
963
960
960
964
965
967
965
964
962
964
967
967
966
963
961
965
966
966
966
963
963
966
969
968
965
969
972
977
984
987
988
982
978
982
989
992
996
994
997
1000
1007
1010
1008
1006
1000
998
1002
1003
1001
994
983
974
965
958
953
951
949
950
954
952
952
952
950
953
956
954
954
952
954
955
958
958
958
957
955
957
959
962
959
954
951
953
959
969
985
1010
1043
1085
1126
1165
1200
1228
1252
1264
1263
1242
1211
1186
1161
1136
1105
1082
1064
1053
1037
1021
1003
988
975
959
946
939
934
930
924
919
918
917
919
919
917
919
916
918
920
921
921
920
920
923
925
925
926
921
920
921
923
925
924
922
919
923
924
925
926
923
924
925
928
925
924
923
922
924
928
930
929
928
926
926
926
931
932
933
930
932
934
937
942
940
942
948
952
956
955
955
957
960
966
973
974
976
977
980
985
989
990
990
987
991
993
994
995
991
989
987
990
987
985
985
981
981
979
975
974
974
971
972
973
972
977
972
970
969
969
969
967
967
963
966
968
967
966
962
961
963
965
966
965
964
962
965
964
964
963
963
961
962
964
963
961
962
959
960
961
962
961
960
960
963
966
966
966
963
960
963
965
965
963
960
960
963
964
965
961
963
964
965
969
968
965
961
960
963
967
968
966
968
967
974
980
984
986
986
981
980
982
986
993
995
997
1003
1007
1010
1010
1008
1002
1000
1001
1002
998
989
977
968
959
960
957
958
954
953
954
954
955
953
953
955
956
957
958
958
957
961
962
962
961
962
959
961
963
961
959
957
965
979
1006
1038
1073
1109
1151
1194
1230
1258
1274
1275
1253
1226
1196
1173
1142
1106
1074
1059
1050
1035
1013
996
981
971
960
948
943
934
930
925
924
923
921
920
920
923
925
924
924
924
921
923
925
927
928
931
926
930
932
932
930
927
928
929
932
931
932
929
929
931
931
931
930
930
925
926
928
931
931
932
929
931
934
934
933
932
934
936
940
941
944
944
946
947
952
956
957
961
962
967
972
975
976
977
977
984
990
992
993
993
993
995
999
999
999
997
991
993
995
993
989
988
985
987
987
988
984
980
976
976
978
978
975
976
973
976
976
976
972
971
972
973
975
975
972
973
969
971
972
972
972
969
966
967
971
969
972
969
967
969
972
972
973
968
969
970
971
974
973
969
971
972
973
972
972
970
969
969
969
969
968
967
967
971
971
971
971
970
969
968
969
972
970
968
969
971
972
972
974
970
973
973
977
980
983
982
986
989
993
988
986
987
990
998
1003
1005
1009
1008
1009
1013
1017
1017
1012
1010
1005
1005
1005
1005
998
987
978
967
962
963
960
956
955
959
959
963
960
961
955
958
961
962
963
959
958
964
964
968
967
966
964
967
968
971
968
964
959
961
971
988
1017
1047
1085
1129
1172
1213
1242
1263
1273
1268
1251
1219
1191
1166
1139
1112
1084
1062
1048
1028
1010
992
981
971
962
950
942
939
935
934
927
929
928
927
930
930
929
930
927
930
933
933
931
933
931
934
933
935
933
932
930
932
934
936
933
932
932
932
932
933
932
931
929
930
934
935
934
933
930
931
932
935
936
935
935
936
939
941
941
942
941
944
949
951
952
952
951
957
963
967
970
970
970
976
982
985
987
988
990
994
998
1002
1000
998
997
999
1002
1001
997
994
993
992
992
991
991
988
985
984
985
985
981
980
977
978
979
980
979
979
977
979
980
979
976
974
974
974
975
975
971
969
969
971
971
973
968
968
966
971
972
974
972
969
967
968
972
972
970
965
964
967
966
966
966
964
964
965
968
967
966
965
965
967
968
968
964
965
965
965
966
966
967
968
964
965
968
968
969
967
967
965
966
967
966
967
966
969
973
976
983
984
985
986
987
986
988
989
993
996
1002
1005
1007
1008
1009
1010
1009
1007
1003
1001
1000
1000
997
992
982
971
961
958
957
957
956
953
951
955
956
958
958
954
953
955
956
958
957
957
956
958
960
966
966
964
960
965
966
966
963
960
959
965
976
998
1027
1060
1100
1142
1187
1225
1253
1272
1281
1280
1263
1237
1212
1191
1169
1142
1110
1080
1061
1046
1028
1009
994
982
969
958
947
941
940
936
932
925
923
924
926
926
923
922
921
927
930
930
928
927
927
928
931
935
931
933
930
932
929
933
932
931
930
932
932
934
933
933
930
931
933
934
934
932
932
934
935
935
935
932
932
934
936
938
938
937
938
939
944
947
946
948
948
950
953
958
959
961
961
966
971
975
978
980
981
986
992
997
997
997
997
996
998
998
999
999
999
1002
1001
999
995
993
991
991
992
992
987
984
981
982
985
983
982
980
977
977
978
979
979
978
977
977
978
979
979
975
972
971
973
976
976
975
974
975
975
976
976
974
972
973
976
976
975
974
971
974
976
976
975
971
972
973
978
977
976
971
971
975
977
976
976
975
974
974
976
978
975
975
973
973
976
976
975
975
973
975
977
976
980
978
976
980
983
986
990
993
997
999
998
997
995
997
1000
1006
1009
1013
1014
1014
1014
1016
1019
1019
1015
1013
1009
1009
1011
999
988
975
966
965
966
967
965
963
963
965
965
967
966
964
965
965
969
968
968
966
965
968
970
972
974
969
969
970
975
975
973
969
967
971
981
999
1025
1056
1091
1130
1171
1203
1233
1254
1273
1287
1285
1266
1235
1210
1182
1158
1127
1097
1077
1062
1044
1027
1010
997
984
972
961
951
948
946
941
935
931
928
925
927
928
926
925
929
931
930
931
932
931
934
934
934
934
931
931
934
937
937
935
934
933
935
937
937
938
935
934
935
934
933
936
934
933
933
937
938
937
936
936
937
936
939
936
937
934
938
943
942
941
940
942
947
952
954
954
957
957
960
966
969
971
973
977
980
984
985
988
992
993
995
1000
1000
1002
1000
999
1003
1003
1003
1002
1000
996
996
997
996
995
991
988
988
989
988
986
985
985
983
985
983
982
980
979
981
981
982
980
978
976
979
979
980
978
975
974
974
974
973
974
972
970
973
973
975
972
971
970
970
972
972
971
971
967
971
973
972
973
971
974
972
973
971
974
970
969
973
974
973
972
972
969
972
974
974
974
972
972
974
972
975
973
972
970
972
974
974
975
974
974
975
976
977
978
982
985
993
995
998
995
992
991
996
1002
1006
1007
1007
1006
1009
1017
1019
1018
1015
1012
1011
1011
1009
1004
996
987
976
970
964
958
960
954
959
959
960
959
958
958
962
962
964
964
960
959
961
964
967
966
965
964
966
969
968
969
966
961
965
967
971
981
998
1027
1066
1109
1154
1193
1228
1253
1276
1286
1277
1253
1225
1202
1183
1163
1134
1102
1076
1063
1052
1033
1015
999
984
970
959
950
943
937
933
931
926
929
928
925
921
922
924
927
929
923
925
925
929
931
932
931
929
928
926
929
932
931
929
928
927
932
935
933
931
929
929
932
929
931
931
928
929
933
932
932
930
929
932
933
935
933
931
932
936
938
938
940
942
945
948
952
953
954
956
957
962
966
969
973
971
974
978
983
985
988
986
987
994
996
1002
1001
1003
1001
1002
1003
1001
1000
995
995
993
994
991
991
987
989
985
983
984
982
981
982
982
983
978
975
974
973
974
977
977
973
973
969
972
973
971
967
969
966
966
968
968
966
963
962
964
963
968
967
966
965
967
965
964
964
963
964
966
968
968
966
966
966
968
966
967
964
966
963
964
965
969
970
968
965
965
966
967
967
965
961
967
969
970
969
966
964
966
968
972
970
971
972
970
972
973
974
976
981
987
987
991
991
985
983
984
987
996
998
1000
1004
1005
1011
1012
1011
1010
1005
1002
1002
1005
1003
1000
992
987
977
969
959
954
950
958
961
958
957
958
957
959
961
962
959
959
957
960
962
962
962
962
960
963
964
965
967
967
966
966
966
965
963
964
969
986
1012
1043
1079
1115
1154
1194
1230
1254
1272
1281
1277
1262
1236
1213
1188
1165
1136
1104
1075
1057
1044
1029
1011
994
983
970
957
947
938
936
937
933
930
928
924
925
925
924
924
923
922
927
930
930
930
927
929
931
934
936
932
931
928
929
931
932
933
932
930
931
932
931
933
931
932
932
934
932
931
930
930
931
933
933
934
930
931
931
932
935
937
937
936
938
943
944
945
946
947
950
956
956
956
954
957
960
962
967
970
974
975
980
978
983
984
988
989
993
996
998
995
995
992
993
993
993
994
992
985
984
984
982
980
977
978
977
977
977
974
975
970
969
973
973
973
971
968
973
974
974
973
974
971
975
979
978
978
974
968
974
978
976
977
975
976
977
977
980
984
982
979
981
983
984
983
985
983
981
984
987
985
984
985
987
985
987
983
988
985
986
989
991
990
987
986
989
992
989
989
988
987
986
986
987
987
988
986
986
988
987
985
988
987
988
991
990
990
989
990
994
999
1005
1004
1010
1010
1010
1011
1012
1014
1017
1019
1024
1026
1030
1033
1034
1034
1033
1034
1033
1031
1029
1026
1025
1023
1017
1008
998
986
980
979
981
979
977
976
975
976
979
976
976
973
979
979
982
977
978
977
979
979
981
980
978
978
981
987
989
985
981
978
980
982
985
993
1013
1041
1081
1119
1161
1199
1231
1256
1275
1292
1302
1291
1264
1231
1204
1185
1160
1129
1097
1078
1063
1048
1028
1010
996
985
976
966
956
949
948
945
943
941
940
938
937
937
937
941
942
940
939
940
940
944
945
941
943
941
941
943
943
943
942
939
941
944
944
942
941
939
940
942
940
936
934
934
937
940
938
938
936
936
939
939
941
938
934
937
940
945
946
944
944
945
951
954
961
959
957
959
963
967
970
972
973
974
976
981
983
986
990
991
995
998
1000
1002
1001
998
1000
998
997
995
993
993
996
995
994
992
987
982
981
982
983
979
974
973
977
980
980
977
974
971
972
975
974
975
974
970
972
972
971
969
966
965
968
968
970
969
969
967
969
971
968
965
966
963
966
967
966
968
968
969
969
971
972
972
971
969
970
971
970
969
968
965
965
969
971
972
971
970
970
970
971
969
970
970
971
971
970
972
972
970
975
976
980
981
985
991
994
993
993
990
989
991
999
1005
1008
1010
1005
1008
1008
1008
1006
1008
1007
1005
1004
1003
996
984
974
962
957
957
957
957
956
954
959
959
960
960
958
960
962
964
963
962
961
960
964
966
966
966
964
965
968
965
961
958
956
965
983
1014
1043
1076
1111
1151
1194
1227
1255
1269
1274
1257
1230
1203
1178
1150
1117
1087
1070
1057
1047
1028
1009
994
981
972
957
944
938
931
931
926
922
920
917
917
917
918
919
920
916
917
919
921
921
921
921
921
921
923
924
922
921
920
921
924
928
926
926
926
926
927
928
926
922
922
924
924
925
922
922
922
926
929
930
928
927
924
929
933
933
932
931
931
936
939
943
944
946
947
950
955
956
959
958
961
966
968
974
979
980
986
991
991
991
991
990
990
989
989
989
988
985
983
981
979
978
977
973
970
972
973
971
972
967
964
965
966
963
962
962
960
962
965
965
963
960
957
960
960
960
958
956
954
955
958
957
956
955
953
955
954
955
956
954
951
953
955
959
954
954
952
955
957
959
959
955
954
956
958
957
956
956
955
959
956
955
951
951
953
958
960
960
956
955
954
956
960
961
960
959
960
963
966
965
966
969
971
977
979
978
975
972
976
982
993
991
994
996
999
1001
1000
999
997
994
993
993
991
985
978
970
962
954
948
949
946
942
940
939
943
942
941
942
939
940
942
942
940
940
943
948
949
949
950
948
948
951
952
951
951
947
958
984
1020
1060
1096
1134
1173
1207
1234
1250
1257
1248
1217
1185
1161
1140
1108
1075
1051
1040
1028
1006
990
976
963
953
945
939
933
928
926
925
926
926
925
923
924
926
929
928
923
924
925
927
931
934
930
926
923
922
922
926
923
919
920
927
930
927
927
921
925
926
929
927
924
920
916
919
924
925
925
920
921
923
927
929
928
930
931
936
940
943
944
944
944
946
951
957
960
962
962
967
969
973
976
977
979
982
986
990
993
992
990
989
991
989
986
984
981
981
982
981
979
978
977
978
978
974
973
968
966
968
970
974
972
972
969
969
972
971
971
969
967
970
970
971
972
969
970
969
968
971
972
970
969
972
973
974
972
970
969
970
971
969
970
968
970
974
979
980
976
973
970
970
972
970
969
967
963
967
968
973
973
970
968
968
966
969
966
966
966
969
970
969
970
968
967
968
971
975
978
981
984
989
992
995
993
989
988
995
1005
1009
1009
1010
1013
1016
1018
1014
1014
1009
1006
1006
1004
1001
992
978
963
960
958
955
952
949
946
948
949
950
947
947
948
948
949
949
950
947
944
949
952
950
952
952
951
951
953
954
951
948
954
968
995
1029
1067
1110
1156
1199
1230
1255
1270
1272
1252
1226
1200
1180
1150
1120
1086
1066
1052
1033
1012
995
978
967
954
941
935
931
925
922
922
921
919
919
919
920
925
925
922
922
922
927
925
925
926
926
924
925
927
926
925
926
924
925
925
926
923
922
921
925
927
928
926
923
921
922
923
922
921
920
920
923
928
927
925
927
930
931
934
935
937
940
939
942
947
949
951
953
953
958
962
964
966
969
971
978
981
983
982
982
984
988
991
992
989
985
984
983
987
990
984
976
976
978
982
982
978
972
966
965
967
968
962
960
955
958
960
956
952
947
947
950
951
951
952
950
946
948
955
961
966
969
978
994
1013
1031
1051
1074
1102
1139
1168
1189
1211
1235
1270
1308
1345
1375
1391
1391
1360
1305
1245
1190
1140
1087
1035
993
960
935
915
903
896
892
891
894
895
894
894
896
897
899
897
892
895
894
895
886
878
870
866
866
867
869
871
875
876
877
875
875
876
876
876
882
890
894
897
899
899
899
901
899
896
891
892
895
897
897
896
895
897
898
897
897
895
894
894
897
898
898
896
896
896
898
901
899
901
901
903
910
915
919
920
920
922
927
932
935
937
940
940
947
952
956
958
960
963
964
968
969
970
967
968
969
968
971
970
971
970
968
971
973
970
971
968
971
972
972
970
971
970
971
972
972
970
968
965
964
965
967
966
964
962
963
962
963
962
962
960
962
962
962
959
957
956
954
954
955
955
954
951
954
956
956
953
953
949
951
953
952
952
951
949
949
952
952
950
948
949
948
949
950
950
949
946
947
950
948
947
945
947
948
950
949
946
949
950
950
949
951
952
949
952
952
956
952
952
950
948
951
953
950
949
950
950
950
954
955
955
952
950
952
956
955
952
951
949
949
948
950
949
950
949
953
958
957
956
952
952
951
955
957
957
956
951
952
953
957
956
955
954
953
956
955
957
953
954
955
955
957
957
955
955
957
960
962
960
957
954
956
960
960
960
957
955
957
962
962
961
958
953
957
960
959
958
957
955
959
962
964
963
962
963
966
