980
984
982
982
988
996
998
999
997
997
1000
1001
1001
1002
999
997
998
996
995
991
991
988
989
988
985
985
981
982
980
982
982
979
977
976
978
982
982
980
977
975
978
979
977
977
970
971
974
975
976
975
972
973
974
976
976
973
972
971
974
977
977
975
974
972
971
972
973
973
972
970
971
974
975
974
971
970
972
972
972
974
972
972
972
975
974
973
971
973
973
976
975
975
975
973
975
976
976
977
976
979
983
990
991
993
996
994
995
997
1002
1004
1007
1006
1011
1013
1017
1015
1015
1015
1016
1015
1015
1011
1006
998
991
980
973
967
965
960
961
963
961
962
960
960
962
963
963
963
963
965
965
966
965
967
964
966
969
972
973
974
969
965
963
965
965
970
980
997
1029
1064
1100
1145
1184
1221
1250
1267
1268
1249
1219
1192
1175
1158
1132
1103
1080
1068
1060
1045
1025
1005
988
974
963
955
946
937
932
932
931
930
929
927
921
925
927
930
930
926
927
925
929
931
933
930
929
929
930
933
931
933
931
931
932
934
934
933
930
930
929
933
931
930
929
928
928
930
929
929
930
927
929
931
929
931
931
932
933
936
937
938
941
942
947
952
953
953
953
952
959
964
967
968
966
970
974
981
983
984
985
986
987
991
992
991
988
988
989
990
993
988
987
984
984
982
981
980
976
978
979
977
975
971
969
970
973
972
970
968
963
962
963
967
970
965
964
961
963
963
964
962
963
960
961
962
962
960
959
958
960
961
960
959
956
958
960
961
960
959
959
960
963
964
964
963
962
958
962
962
964
961
959
958
961
962
963
961
962
958
958
960
962
963
960
956
959
961
964
964
962
961
964
964
961
966
965
967
976
980
982
978
975
975
984
989
991
994
994
995
1000
1006
1007
1005
998
995
995
995
995
990
985
976
968
959
954
953
951
949
948
949
950
951
950
948
953
954
957
953
952
952
954
956
958
957
956
956
959
958
961
963
961
956
956
957
960
967
976
998
1033
1064
1094
1124
1157
1190
1220
1244
1256
1251
1233
1202
1177
1156
1127
1097
1066
1050
1042
1027
1009
989
975
966
960
952
946
937
933
931
930
930
929
928
925
923
926
928
930
930
930
928
932
931
933
929
930
929
933
936
936
932
931
932
934
933
935
934
934
934
932
937
934
934
932
931
934
935
934
933
932
932
935
935
936
934
930
931
934
941
942
942
941
942
942
946
949
948
952
953
955
960
964
964
968
969
975
978
979
983
984
985
989
993
995
996
993
993
995
999
996
996
990
986
992
992
988
986
982
980
983
982
984
981
982
981
981
983
978
977
977
978
978
980
977
976
976
976
978
977
979
975
976
973
976
978
976
977
972
971
977
975
976
974
974
973
977
980
978
975
973
972
975
977
975
974
972
972
975
977
975
975
974
973
974
975
975
975
974
972
974
976
974
974
974
973
976
976
975
973
975
976
978
981
982
981
986
990
997
1000
994
991
988
994
1003
1008
1009
1008
1010
1012
1016
1017
1016
1015
1010
1007
1009
1005
1000
993
980
970
963
964
964
963
961
962
966
963
963
964
963
962
965
966
967
968
967
966
969
970
968
967
967
969
971
973
973
968
965
964
969
983
1000
1027
1057
1087
1127
1166
1203
1230
1251
1267
1277
1267
1241
1214
1191
1172
1151
1123
1096
1076
1063
1053
1038
1022
1004
991
976
963
954
948
942
938
933
927
927
928
927
928
926
923
926
931
928
929
928
928
930
931
934
933
932
930
932
931
934
931
933
932
935
937
934
933
930
930
933
935
933
933
931
932
936
935
935
932
930
929
931
935
937
935
934
935
938
939
941
942
942
941
945
947
951
951
953
953
960
960
963
963
964
970
974
982
983
984
985
986
989
995
995
997
999
999
1002
1003
1005
1002
998
995
995
995
995
992
989
989
987
988
987
987
985
980
982
985
983
981
977
978
982
980
979
977
977
977
975
976
977
974
973
970
971
976
972
972
970
967
969
970
971
970
969
966
969
971
972
972
973
969
971
973
973
972
972
973
971
972
972
972
973
972
974
973
973
972
971
971
975
975
974
974
970
972
975
975
973
972
970
971
976
977
976
977
973
974
976
977
982
986
989
992
996
995
992
992
994
994
1003
1004
1009
1010
1010
1011
1015
1019
1018
1015
1010
1009
1006
1005
1002
989
978
969
967
967
965
965
960
959
959
962
964
963
961
959
962
966
966
965
964
964
967
967
969
968
968
969
970
973
972
969
966
963
969
976
991
1012
1039
1071
1110
1150
1188
1222
1243
1261
1267
1256
1231
1202
1179
1157
1134
1105
1080
1064
1051
1031
1012
1002
988
976
962
953
945
944
938
934
929
927
929
928
932
930
928
926
928
931
933
933
934
933
933
935
936
937
936
935
937
939
936
939
937
938
940
940
940
938
935
937
939
938
940
937
933
931
936
937
939
940
936
936
937
939
943
940
940
940
943
946
949
948
951
953
956
956
957
961
963
965
967
974
975
979
979
983
988
992
994
993
994
997
1001
1006
1005
1006
1000
999
1003
1004
1003
999
997
994
994
993
993
991
989
988
988
990
987
983
981
983
985
987
986
983
979
976
979
982
981
979
979
976
977
979
976
975
974
971
972
975
975
972
973
973
977
975
974
974
972
968
971
975
977
976
974
974
976
975
975
974
972
969
977
974
977
977
974
972
973
978
976
974
971
973
975
976
978
978
977
975
976
978
977
978
978
975
977
976
978
977
975
976
982
984
986
987
985
991
996
1000
998
996
994
999
1003
1010
1013
1013
1014
1015
1018
1020
1019
1018
1017
1013
1015
1016
1011
1004
994
986
977
972
969
966
964
965
968
967
964
965
964
964
967
968
968
967
967
964
966
968
969
970
970
971
971
975
974
974
974
970
972
972
974
978
988
1010
1041
1075
1110
1149
1188
1221
1251
1273
1282
1274
1251
1224
1203
1185
1160
1126
1094
1071
1060
1049
1031
1010
995
981
974
964
956
949
942
938
937
935
933
928
928
929
932
932
935
932
932
930
934
937
936
937
933
932
933
939
941
942
940
938
938
937
938
938
939
938
939
937
942
942
939
940
938
939
939
938
938
936
937
939
939
940
938
937
941
942
943
940
942
944
948
950
951
954
953
954
959
963
966
967
969
967
973
976
978
981
983
985
990
994
997
1003
1002
999
999
1001
1004
1002
1000
997
997
997
996
995
992
991
992
990
988
988
985
984
983
983
982
981
978
977
977
979
979
975
974
973
975
977
976
972
970
969
972
977
973
972
974
972
972
971
973
973
973
973
974
976
974
973
974
973
974
977
976
972
974
974
977
978
976
975
975
976
977
978
979
976
976
973
979
981
978
977
974
973
975
978
979
979
978
975
978
981
980
980
979
979
981
982
982
980
980
983
986
990
996
994
994
995
997
999
1000
1001
1003
1006
1009
1014
1017
1017
1020
1021
1023
1024
1021
1018
1017
1014
1015
1016
1013
1007
995
984
977
973
974
973
971
968
969
970
970
973
968
969
971
975
974
976
974
973
976
978
979
978
976
977
978
981
981
980
978
976
977
977
976
979
986
998
1023
1052
1084
1119
1158
1195
1229
1254
1269
1275
1266
1243
1216
1200
1181
1161
1137
1108
1087
1072
1059
1044
1022
1008
998
985
976
965
953
946
945
943
942
940
935
933
935
936
936
936
935
935
936
938
937
939
938
938
939
942
940
940
940
938
942
941
943
942
942
942
940
943
943
942
939
936
937
941
940
941
937
936
936
939
939
939
940
938
938
943
945
946
944
944
945
949
952
955
955
956
962
965
967
970
971
974
979
984
987
989
990
993
998
1001
1005
1001
999
999
1002
1007
1007
1003
999
996
998
1000
999
997
993
990
991
991
989
988
985
984
983
984
984
981
982
981
984
982
979
980
977
976
980
983
981
979
978
976
977
978
976
976
974
975
973
977
978
975
974
970
971
975
975
977
977
975
977
977
979
978
975
976
977
979
979
975
978
977
979
979
978
978
977
976
979
982
980
978
978
978
981
982
982
982
978
979
981
984
983
985
984
980
985
988
991
997
999
999
1001
1001
1003
1001
1002
1005
1011
1015
1016
1018
1020
1021
1024
1023
1022
1019
1018
1015
1017
1016
1010
1002
990
978
973
971
971
970
966
966
969
969
971
970
968
966
968
970
970
970
968
969
973
971
974
974
974
973
978
978
977
977
974
970
970
971
976
983
995
1017
1048
1079
1109
1141
1178
1210
1239
1263
1276
1275
1253
1223
1200
1180
1160
1134
1104
1084
1077
1067
1055
1037
1017
999
991
982
968
956
949
944
944
944
937
931
931
929
931
935
933
932
930
932
930
934
933
935
932
934
936
937
937
939
932
935
936
935
935
934
935
935
937
937
936
934
931
932
936
936
937
934
931
930
933
936
936
937
933
935
938
941
941
940
939
940
943
945
949
952
954
955
958
959
963
963
965
967
972
975
978
981
981
984
989
995
996
998
1000
1002
1003
1005
1007
1006
1003
1003
1000
1002
1001
997
995
993
992
991
990
987
986
985
985
986
983
979
976
976
979
981
980
978
977
975
976
980
979
977
973
969
971
973
975
975
972
971
970
975
974
974
971
971
973
977
976
974
973
970
972
973
974
973
973
977
975
979
979
976
976
977
977
980
977
976
975
975
977
977
979
979
978
978
981
981
982
982
979
976
979
982
985
984
983
979
982
986
991
997
998
998
1003
1001
1000
1000
1003
1004
1011
1015
1015
1016
1017
1017
1020
1019
1014
1014
1011
1011
1011
1008
999
988
974
967
966
966
967
965
962
960
963
966
968
968
967
965
967
967
968
966
968
969
969
972
971
972
972
971
971
973
972
970
968
968
972
985
1005
1032
1066
1106
1145
1180
1209
1234
1256
1269
1274
1264
1234
1210
1187
1163
1137
1108
1085
1067
1053
1033
1019
1005
990
976
966
955
948
946
942
935
934
930
930
931
933
929
932
931
931
937
935
936
935
931
937
934
938
935
935
936
938
938
938
938
937
935
938
939
940
937
934
935
935
938
940
937
935
935
937
938
940
937
935
937
939
942
943
944
942
941
949
949
952
951
953
954
956
959
961
965
967
970
974
979
981
984
986
988
993
995
1000
1001
1002
1002
1004
1005
1003
1001
1001
1004
1002
1003
1002
997
995
992
992
992
991
991
987
985
984
988
986
985
982
982
979
983
979
978
979
977
979
980
978
975
973
971
975
974
974
973
970
969
972
975
973
973
971
972
974
976
976
974
970
970
972
975
974
971
970
972
974
974
973
974
974
974
978
978
978
975
975
975
977
979
978
977
975
975
978
979
980
977
978
976
980
984
982
979
976
978
985
989
991
992
992
993
997
999
998
998
1001
1004
1011
1013
1015
1016
1019
1017
1018
1018
1015
1013
1013
1009
1005
1000
987
977
968
963
963
962
960
961
962
962
963
965
964
965
962
962
965
968
966
966
966
965
967
969
970
970
969
969
967
967
967
969
981
1004
1038
1073
1113
1155
1195
1229
1255
1268
1261
1236
1208
1185
1169
1145
1113
1079
1062
1047
1033
1016
1000
986
970
958
949
945
943
936
930
925
928
929
929
929
927
926
929
931
930
932
929
928
929
933
933
934
932
933
933
934
934
934
930
929
931
934
934
935
932
931
932
933
932
933
932
932
933
935
935
934
931
932
937
938
942
940
938
939
946
950
950
949
951
952
953
959
962
967
968
970
974
979
978
982
987
990
994
998
995
999
996
997
997
1000
998
993
993
990
992
991
993
987
984
982
980
982
981
978
976
974
975
977
978
975
974
973
971
969
970
970
970
968
969
970
970
972
969
966
966
968
969
968
966
967
969
970
967
965
963
966
967
969
967
966
962
962
966
967
969
968
967
967
967
967
968
968
965
963
968
969
970
967
965
964
966
967
970
970
967
967
968
972
968
968
966
967
968
971
971
971
970
974
977
982
985
987
987
986
987
991
999
1002
1002
1001
1007
1007
1012
1010
1011
1010
1009
1010
1007
1004
998
989
984
978
969
962
956
955
955
956
958
957
955
955
958
961
961
959
957
960
961
964
962
962
959
961
964
967
965
964
962
960
960
962
962
962
970
992
1023
1057
1094
1130
1167
1200
1231
1252
1258
1250
1224
1198
1178
1160
1137
1105
1072
1049
1039
1025
1005
986
970
960
953
942
937
935
930
930
927
928
924
923
922
923
925
927
929
927
926
926
929
933
932
929
928
928
930
935
932
931
929
927
929
934
931
929
926
926
927
932
930
931
926
924
926
929
931
934
930
930
932
934
935
936
936
935
935
942
944
948
948
949
951
957
960
960
961
965
968
971
974
979
981
983
987
986
991
990
992
991
991
992
989
986
985
982
981
982
984
978
977
975
978
977
974
968
969
968
969
973
969
967
964
966
967
970
968
968
963
963
964
967
967
965
961
960
964
964
965
963
961
962
962
966
966
965
965
960
965
966
966
962
960
962
962
964
967
965
964
962
961
964
962
964
965
962
963
965
965
965
962
962
966
965
964
963
960
962
963
969
968
964
961
958
962
967
969
967
967
970
976
980
981
978
977
979
985
991
994
995
995
994
999
1006
1008
1003
996
992
993
992
991
988
975
966
957
954
950
948
948
946
947
946
947
946
946
946
947
949
945
943
944
946
949
952
951
950
949
948
950
955
954
952
949
948
951
957
970
992
1022
1058
1099
1141
1174
1202
1225
1238
1243
1233
1206
1173
1144
1120
1092
1059
1029
1013
1004
987
972
958
950
944
935
929
927
926
921
919
917
914
914
915
915
913
910
910
912
916
919
918
916
916
916
919
917
918
917
915
918
921
920
921
917
917
916
918
917
918
915
913
914
917
915
915
913
915
918
919
917
917
914
913
915
918
922
921
921
919
922
927
929
929
928
928
933
935
938
939
941
945
949
951
952
957
957
962
967
969
970
972
973
977
981
983
981
977
976
976
976
978
976
976
973
970
969
972
968
967
962
961
962
964
965
963
962
959
961
963
964
963
962
960
962
961
963
961
960
959
961
964
963
959
959
960
961
963
965
960
956
956
960
965
963
962
961
959
959
962
962
963
960
958
961
961
960
960
960
959
960
963
963
962
964
962
963
964
962
962
960
962
963
966
965
967
961
962
962
962
966
965
961
961
964
966
967
968
965
965
965
969
970
976
979
981
984
981
982
982
985
990
996
999
1000
1002
1001
1004
1008
1008
1007
1006
1002
999
1000
1000
995
990
980
971
962
960
961
960
956
955
956
959
959
958
957
957
960
962
960
959
960
961
962
966
964
962
961
962
964
967
968
966
964
963
962
965
971
980
995
1019
1052
1085
1121
1157
1191
1220
1241
1258
1269
1272
1256
1228
1201
1182
1158
1130
1096
1066
1053
1040
1021
1003
990
980
972
965
954
947
940
935
932
929
929
924
925
927
929
930
931
930
929
930
930
934
935
934
933
930
932
938
938
938
935
934
936
937
937
936
934
933
932
936
938
938
936
933
936
936
935
933
933
930
934
936
939
934
933
932
937
939
943
941
938
940
940
944
942
942
941
942
949
952
952
953
956
958
963
964
967
969
970
975
977
982
983
986
988
992
998
1002
999
998
999
999
1005
1005
1003
1002
999
997
998
999
1002
1001
997
992
994
989
989
986
984
986
988
989
985
988
988
984
983
984
984
986
980
978
980
982
976
976
971
969
972
973
975
973
972
967
966
970
974
976
980
980
990
1002
1015
1027
1038
1058
1084
1111
1143
1168
1189
1209
1227
1255
1286
1318
1345
1363
1381
1383
1358
1305
1240
1188
1149
1106
1055
1007
973
951
939
935
933
927
922
912
908
909
908
901
896
892
886
889
893
900
905
906
902
895
886
883
882
879
878
875
876
885
898
903
907
906
902
898
901
903
901
900
899
903
907
913
912
907
900
900
898
903
905
908
911
911
910
909
911
916
913
913
912
911
917
917
919
919
917
920
923
928
930
924
920
919
921
928
931
937
948
960
969
970
975
979
984
989
993
993
995
999
999
1001
1005
1006
1003
1000
999
1000
1002
1003
1004
1008
1007
1005
1006
1014
1018
1020
1020
1020
1024
1026
1022
1023
1024
1022
1023
1023
1027
1028
1026
1027
1027
1029
1029
1027
1027
1027
1030
1029
1026
1021
1012
997
993
996
1003
1013
1019
1025
1033
1041
1043
1044
1046
1046
1045
1038
1031
1028
1028
1031
1033
1032
1028
1029
1028
1025
1027
1028
1026
1020
1018
1019
1019
1021
1018
1016
1013
1011
1013
1012
1014
1011
1013
1011
1012
1008
1007
1007
1004
1006
1005
1008
1006
1008
1006
1005
1009
1009
1009
1011
1010
1011
1012
1011
1012
1013
1011
1009
1005
1004
1002
1000
1001
1003
1002
1007
1015
1024
1032
1032
1032
1031
1030
1026
1026
1026
1024
1022
1018
1019
1016
1013
1012
1014
1014
1013
1010
1009
1008
1009
1011
1011
1010
1008
1008
1009
1008
1007
1007
1005
1006
1008
1007
1006
1003
1000
1002
1005
1003
1000
996
995
996
999
1003
1005
1002
1000
1004
1007
1008
1007
1008
1013
1013
1012
1010
1009
1007
1006
1009
1008
1009
1005
1001
1001
1007
1011
1009
1008
1006
1005
1006
1002
1005
1005
1004
1002
1004
1008
1006
1007
1007
1008
1015
1018
1019
1017
1015
1016
1019
1026
1026
1028
1026
1026
1029
1032
1036
1035
1030
1026
1025
1024
1022
1015
1013
1011
1006
1002
996
997
999
1000
1002
1003
1002
995
989
988
989
990
986
985
985
980
980
982
982
982
978
982
984
985
986
986
982
984
982
984
990
997
1016
1043
1080
1115
1150
1185
1217
1239
1263
1281
1286
1263
1232
1204
1185
1168
1147
1119
1096
1082
1072
1058
1037
1021
1010
1005
998
991
982
980
973
969
964
964
