979
978
975
976
974
974
979
978
979
978
977
981
986
984
980
976
974
979
982
980
978
977
975
975
974
975
976
979
981
983
986
985
982
976
977
983
988
994
991
983
971
967
966
968
974
975
974
968
965
966
971
976
979
983
991
997
1001
1003
1000
998
1002
1009
1011
1009
1011
1017
1019
1020
1023
1024
1021
1020
1020
1022
1016
1012
1008
1006
997
985
972
963
956
956
958
958
954
952
950
952
956
956
956
953
951
952
954
950
953
954
953
956
953
952
955
956
955
959
955
952
952
956
970
995
1032
1075
1119
1163
1208
1242
1265
1277
1277
1257
1224
1201
1179
1154
1124
1092
1070
1054
1041
1023
1001
985
972
962
949
942
938
937
935
935
936
931
924
920
916
917
918
919
922
920
921
925
927
923
923
922
923
927
928
926
923
924
924
925
927
925
925
926
928
928
933
930
928
927
925
927
929
931
932
932
930
930
933
933
932
931
929
933
936
940
943
944
946
950
950
953
956
954
956
962
965
970
973
974
975
982
984
988
990
991
992
994
994
997
996
997
997
1000
999
993
990
990
990
990
989
985
983
980
978
976
979
976
975
976
972
974
972
974
972
969
968
968
972
971
971
966
964
965
965
967
964
961
959
963
968
968
967
969
968
968
967
968
963
962
960
959
961
959
956
953
954
961
966
963
958
956
952
952
953
951
951
953
952
954
955
957
955
956
954
958
962
964
965
962
963
967
969
965
964
967
971
979
985
990
991
993
987
981
986
991
995
994
991
998
1005
1007
1007
1007
1007
1006
1008
1005
1001
995
988
982
973
968
960
953
947
947
951
952
952
947
946
951
951
953
950
948
951
952
954
955
956
957
956
959
961
964
964
961
954
954
953
949
953
963
985
1017
1055
1095
1140
1176
1208
1237
1258
1265
1252
1226
1199
1178
1156
1128
1095
1072
1056
1044
1031
1015
995
975
961
949
942
938
934
928
922
922
922
922
917
913
913
916
918
919
919
917
917
920
921
928
927
925
920
919
925
927
927
927
922
923
925
924
926
928
924
924
928
929
929
930
930
930
926
929
928
929
924
925
929
930
928
928
927
929
935
936
937
941
941
945
951
954
953
950
954
960
967
970
973
972
974
978
982
985
989
986
986
989
993
994
993
989
988
986
985
982
980
977
976
976
979
978
974
969
971
972
973
972
969
964
966
970
974
974
970
963
961
962
967
968
967
965
964
966
971
969
965
959
959
968
970
969
967
965
970
971
969
967
966
964
964
969
975
975
974
973
975
971
970
970
966
964
964
967
972
972
970
966
966
968
970
971
968
967
968
971
971
970
972
970
969
970
977
983
989
992
987
990
986
986
992
1001
1003
1007
1010
1010
1009
1013
1016
1019
1017
1014
1009
1008
1003
995
986
974
965
958
954
955
954
957
955
953
950
954
954
956
953
953
953
959
963
966
968
966
963
965
969
970
968
964
962
960
961
964
967
970
987
1020
1059
1103
1147
1186
1220
1250
1270
1270
1251
1226
1203
1185
1165
1142
1112
1088
1072
1063
1052
1035
1015
999
983
966
955
947
943
936
928
929
926
928
924
922
921
922
925
927
928
926
926
927
933
935
936
932
928
929
930
931
931
931
930
930
930
932
936
936
936
937
938
938
938
938
942
943
942
942
940
936
934
937
941
944
943
943
942
940
944
948
947
947
947
950
956
960
962
961
958
965
966
968
968
970
973
977
982
983
986
987
987
992
994
994
990
989
988
988
987
988
980
978
976
978
977
975
968
969
970
969
969
970
968
963
963
965
965
962
958
959
960
962
967
966
963
959
957
961
962
967
965
960
961
961
965
964
962
959
955
953
953
954
959
958
956
954
954
955
956
956
954
952
953
956
955
955
951
954
956
958
960
960
958
956
958
961
961
961
960
961
962
963
967
968
972
977
984
990
992
990
983
980
984
988
993
1000
1001
1002
1004
1008
1009
1010
1007
1006
1002
1000
996
991
979
972
965
959
956
957
951
950
949
948
948
951
954
955
958
957
957
953
952
955
960
957
958
958
956
958
960
958
955
950
955
973
999
1034
1073
1110
1142
1180
1214
1242
1264
1270
1255
1223
1191
1167
1145
1117
1083
1059
1048
1039
1022
1003
986
973
963
955
945
935
928
927
926
925
925
925
923
921
919
916
918
918
920
923
928
924
926
925
924
926
927
929
928
926
924
924
924
928
929
930
927
926
928
932
933
930
928
930
933
932
930
928
925
929
932
935
933
928
928
933
937
937
935
934
935
941
945
948
949
946
945
948
953
956
957
961
963
967
972
973
978
980
984
987
989
989
986
988
988
992
993
991
990
989
987
987
987
986
984
982
980
978
981
981
978
976
972
973
976
978
979
977
975
974
973
974
975
973
970
972
972
970
971
970
970
970
973
974
970
971
968
970
973
972
969
969
968
971
974
972
968
965
965
963
968
971
964
965
963
967
970
969
969
966
964
965
966
969
969
966
964
966
971
972
972
971
966
961
963
964
965
964
963
966
971
974
974
976
976
981
988
990
990
987
985
989
998
1005
1008
1011
1010
1014
1014
1015
1013
1009
1007
1006
1006
1001
994
983
971
965
962
958
956
956
958
962
962
961
960
954
950
947
947
952
953
954
949
954
958
960
962
960
959
959
957
955
951
951
963
982
1011
1044
1074
1106
1140
1182
1216
1243
1254
1248
1219
1188
1165
1148
1131
1106
1078
1059
1049
1039
1020
999
983
973
964
952
941
932
928
927
924
926
923
921
921
919
919
922
922
921
920
921
920
922
921
920
922
923
925
927
926
923
923
922
926
926
926
923
923
925
926
924
924
922
919
919
921
923
924
922
921
920
921
923
922
925
925
929
930
932
932
929
927
931
934
938
938
939
938
942
946
951
954
957
959
963
968
969
968
972
975
980
986
987
986
987
990
993
992
991
988
985
984
984
986
982
982
979
975
976
977
978
976
975
972
973
972
971
969
968
969
969
972
971
970
969
965
964
967
967
967
966
963
963
964
965
964
964
963
965
969
969
964
962
959
963
965
965
962
963
961
963
966
966
963
963
963
965
968
966
967
967
965
967
969
969
967
963
962
966
969
967
965
962
962
964
967
967
962
963
963
966
971
974
974
976
976
980
984
989
985
984
984
989
995
994
996
996
997
1001
1007
1010
1006
1003
1006
1006
1008
1004
996
988
976
969
959
955
949
945
943
944
947
949
950
947
947
945
948
950
953
955
952
955
957
957
958
955
956
957
957
958
954
951
950
953
962
980
1002
1028
1061
1103
1147
1190
1226
1248
1262
1261
1241
1212
1184
1162
1138
1109
1082
1066
1055
1039
1016
996
982
965
954
942
935
930
930
927
921
919
914
918
917
917
917
917
919
921
923
923
921
920
920
921
921
922
919
916
916
921
927
927
927
927
925
924
926
927
923
919
918
924
926
924
922
922
920
924
929
931
927
925
923
923
926
933
934
936
933
936
941
945
945
948
948
953
955
958
962
967
966
973
975
979
981
983
986
988
989
993
990
991
991
991
993
995
992
989
986
986
988
987
982
980
976
975
976
978
978
974
973
975
977
977
974
975
971
968
970
969
970
967
967
970
974
972
967
965
962
961
963
965
961
962
958
963
966
966
963
960
958
961
965
966
965
961
960
961
963
966
963
962
960
962
960
963
963
962
960
962
965
965
965
964
961
963
964
964
963
961
964
969
972
968
967
966
969
973
976
985
986
988
983
984
984
989
992
997
998
1001
1004
1006
1009
1009
1008
1002
1005
1003
1003
996
992
985
976
965
956
951
949
948
951
952
952
953
951
953
955
957
957
952
952
952
955
956
955
954
953
958
962
963
962
960
959
957
955
957
958
966
979
1007
1043
1083
1122
1163
1197
1232
1255
1268
1262
1239
1212
1192
1177
1154
1127
1093
1070
1057
1051
1040
1022
1005
989
977
966
954
943
936
928
925
923
924
922
918
916
917
915
920
921
918
921
923
925
927
924
923
920
922
926
925
926
927
925
927
925
927
927
927
923
925
928
930
927
926
923
926
925
927
929
928
924
926
929
928
926
926
925
928
932
932
933
931
931
936
937
941
942
943
943
944
948
955
957
960
961
964
967
971
972
973
976
984
986
990
992
991
993
997
1001
1000
996
992
992
993
993
994
991
989
986
986
989
985
983
980
976
976
976
977
977
976
974
971
972
973
972
971
968
970
967
970
969
968
965
966
969
965
964
961
958
962
964
965
962
961
960
961
962
964
960
961
960
963
965
967
966
964
964
964
965
964
966
963
960
961
963
964
965
963
963
965
966
963
963
962
960
965
967
967
967
966
966
966
969
968
967
966
967
973
977
981
986
983
979
981
981
984
987
991
994
1000
1002
1007
1011
1008
1006
1005
1004
1003
1002
1000
998
995
991
987
979
965
954
955
953
953
951
948
947
949
954
954
953
951
949
955
958
960
959
954
951
953
957
960
962
960
960
957
958
955
955
957
968
992
1019
1054
1082
1115
1150
1186
1220
1244
1261
1267
1253
1228
1202
1178
1155
1126
1092
1064
1052
1043
1027
1007
988
977
965
957
944
935
931
930
928
924
921
920
916
918
922
920
919
917
920
922
925
925
924
922
921
921
925
926
924
923
921
924
929
930
925
926
922
926
928
926
927
927
926
926
926
926
923
923
920
922
924
927
927
926
926
926
930
927
930
932
930
932
936
937
937
938
938
944
946
949
950
951
952
957
962
965
970
970
973
978
984
984
985
986
985
990
993
993
992
989
987
990
989
988
989
985
982
985
986
983
983
978
975
976
977
975
974
974
974
975
976
975
974
973
970
971
969
970
969
966
965
967
972
970
970
967
964
962
965
966
964
963
962
961
962
966
967
967
965
965
967
966
965
964
963
966
969
969
968
967
966
964
967
966
967
967
965
967
970
970
967
963
964
965
966
970
967
970
967
967
967
969
969
969
968
970
971
975
971
976
978
983
987
990
989
986
984
986
993
996
1001
1002
1002
1004
1008
1012
1011
1011
1008
1007
1011
1009
1008
1004
993
987
982
975
966
961
956
957
958
959
959
956
955
961
961
960
960
960
962
962
962
962
961
962
963
966
966
965
967
965
961
963
963
959
959
963
975
995
1025
1057
1086
1124
1163
1202
1235
1258
1270
1269
1252
1224
1199
1178
1158
1132
1096
1069
1054
1049
1032
1012
993
982
976
966
956
945
934
931
930
929
926
922
920
919
921
921
921
920
921
923
927
927
926
921
919
921
925
927
925
929
930
929
929
927
926
925
923
926
927
927
928
927
925
928
930
929
928
924
924
926
925
928
924
926
927
930
931
931
930
930
929
930
933
934
934
932
936
941
943
947
948
946
948
953
956
959
963
964
965
971
978
979
979
980
981
984
992
992
991
992
991
993
995
995
991
988
987
987
989
988
981
982
979
980
979
978
978
978
973
972
973
972
974
972
969
970
969
971
970
969
967
967
971
970
969
968
965
966
968
968
967
963
962
963
966
965
964
962
962
963
964
962
962
962
959
959
960
962
963
960
959
963
967
964
964
961
961
962
964
965
963
965
960
963
967
967
965
960
959
962
967
967
962
961
963
965
968
966
967
962
963
965
971
978
979
982
981
987
989
988
985
984
988
993
997
1001
999
1001
1004
1013
1013
1010
1005
1004
1002
1003
1004
1004
998
992
985
976
968
961
956
952
951
950
953
952
950
950
951
950
953
954
954
954
953
957
958
958
957
957
952
956
956
959
958
957
954
956
957
956
959
967
984
1012
1041
1068
1106
1144
1181
1216
1244
1260
1267
1251
1225
1198
1175
1154
1130
1101
1074
1061
1050
1039
1018
996
984
973
965
954
943
932
925
927
923
923
918
913
914
913
913
915
916
916
915
917
921
921
922
919
917
916
919
919
920
919
917
919
923
923
922
920
915
917
920
923
920
919
917
919
922
924
922
920
919
919
923
925
927
924
923
924
925
927
926
927
927
931
934
937
934
935
935
940
945
947
952
953
954
959
965
968
970
971
972
978
983
986
988
990
988
988
992
992
991
986
986
984
983
983
980
976
978
976
976
974
971
968
967
968
970
968
968
965
966
968
966
965
964
960
959
961
961
961
956
957
959
961
963
964
968
974
986
1001
1021
1042
1068
1101
1131
1160
1183
1204
1227
1258
1290
1324
1353
1378
1385
1365
1311
1242
1182
1125
1068
1017
971
940
915
904
899
895
894
894
895
895
896
893
891
894
895
895
893
892
890
892
892
888
887
881
871
870
875
881
888
889
887
888
889
891
895
896
894
896
898
900
897
897
892
891
893
893
891
892
893
893
893
892
891
889
891
891
893
895
894
895
895
898
899
904
902
905
904
908
911
914
916
918
918
923
927
932
936
940
944
947
952
956
956
959
958
961
965
967
968
967
968
971
975
974
974
973
971
973
974
976
976
972
972
973
974
977
974
974
970
974
976
975
976
975
972
973
976
976
975
974
970
974
973
972
973
971
969
968
970
971
971
972
969
970
971
971
969
969
966
964
968
969
967
966
965
968
968
968
966
962
961
964
967
966
965
962
959
960
963
964
965
962
962
960
962
963
963
962
961
962
963
963
964
962
964
964
966
965
961
962
961
963
966
965
965
961
959
961
966
967
965
962
963
964
966
967
964
962
961
963
965
968
964
963
962
963
964
965
964
964
963
963
964
965
963
966
966
966
967
966
964
965
963
966
966
967
963
964
965
967
971
973
970
968
967
967
969
968
965
967
967
970
973
971
970
968
968
969
970
970
970
969
968
967
971
973
973
971
970
971
973
970
974
973
971
972
975
976
979
978
981
986
989
994
990
990
991
997
1001
1005
1007
1004
1003
1005
1013
1014
1012
1009
1006
1004
1005
1003
993
982
969
962
962
961
962
961
958
960
963
963
964
961
958
961
966
968
968
967
965
966
964
966
963
961
961
970
988
1013
1041
1072
1105
1148
1193
1231
1257
1278
1277
1258
1228
1196
1168
1136
1102
1079
1070
1057
1038
1016
997
985
973
961
948
937
934
934
933
931
924
921
920
923
924
923
926
929
928
930
931
929
930
930
928
931
932
935
932
931
932
933
934
937
936
937
933
932
935
936
937
937
936
939
940
940
940
939
940
941
944
946
947
946
945
948
950
953
954
955
957
965
967
967
970
973
976
982
986
990
992
992
992
999
1005
1011
1013
1013
1013
1019
1021
1021
1021
1023
1021
1022
1025
1024
1024
1021
1019
1015
1018
1016
1017
1013
1008
1004
1004
1000
996
991
987
987
985
986
987
984
984
980
981
980
979
976
972
975
972
970
970
970
970
969
966
968
967
963
962
964
965
967
963
959
959
959
960
960
960
960
960
960
965
962
963
961
961
965
967
966
962
961
959
961
962
967
965
964
964
965
968
969
967
967
964
964
967
971
969
970
972
979
981
985
987
984
981
984
989
997
1000
1002
1005
1008
1013
1013
1012
1008
1006
1006
1009
1008
1002
994
982
973
966
963
960
957
955
956
958
959
960
957
956
960
962
965
965
964
964
963
964
965
968
968
965
965
963
960
961
965
974
995
1025
1056
1086
1120
1160
1204
1241
1263
1271
1257
1226
1197
1175
1155
1128
1095
1069
1056
1047
1030
1008
991
979
967
956
948
942
937
933
930
931
930
929
929
930
932
934
934
933
934
932
934
937
937
941
938
934
936
939
935
935
935
936
940
942
942
938
937
937
939
941
937
935
935
932
935
939
938
938
938
936
937
937
940
938
938
940
943
944
947
949
950
950
952
955
960
964
965
968
972
977
977
983
985
984
986
991
996
998
999
1000
1003
1003
1005
998
999
998
997
995
994
995
992
991
986
990
989
986
985
984
984
985
983
984
982
981
984
983
981
981
982
981
981
983
983
979
978
976
978
979
978
975
974
976
980
979
980
979
976
972
975
977
978
978
979
976
979
980
981
982
980
979
977
980
978
979
978
972
975
980
980
980
977
977
979
980
982
979
977
976
978
977
981
980
980
979
981
987
990
996
997
1002
1004
1005
1003
1002
1000
1002
1010
1015
1016
1018
1018
1021
1025
1025
1023
1021
1018
1014
1012
1013
1009
1001
989
978
971
969
965
966
965
965
965
969
969
968
968
964
966
967
968
969
970
971
972
975
975
973
974
975
973
973
970
969
970
972
984
1004
1029
1056
1086
1121
1159
1201
1233
1259
1276
1277
1261
1230
1202
1176
1149
1119
1091
1075
1066
1049
1031
1012
998
991
979
967
956
944
943
939
940
935
932
930
932
932
935
937
935
934
934
938
939
938
935
935
935
939
942
940
938
936
938
940
942
939
938
937
942
941
941
938
936
933
936
942
942
942
938
937
937
940
944
944
942
943
944
947
950
948
949
952
954
958
963
967
967
968
971
978
981
984
986
989
993
999
1001
1003
1003
1004
1007
1009
1008
1009
1008
1005
1005
1005
1003
1001
996
991
994
994
997
993
987
985
984
986
985
984
980
980
981
986
984
983
979
978
980
982
984
981
979
976
977
978
976
976
974
974
974
974
974
972
972
972
975
977
975
974
972
970
972
975
973
971
972
972
974
974
976
973
972
972
972
972
974
973
973
973
974
972
973
973
972
972
974
974
977
975
972
968
971
972
978
984
988
990
996
997
998
997
991
988
995
1001
1007
1009
1008
1008
1009
1016
1017
1016
1011
1006
1006
1010
1011
1008
1000
991
981
