953
954
955
955
956
956
953
955
958
959
958
957
954
957
960
959
959
958
957
959
960
964
963
963
964
971
976
979
979
973
973
978
984
991
995
994
993
994
996
1000
1001
997
993
991
991
989
985
984
974
966
956
951
946
945
940
938
942
945
946
947
943
942
943
945
945
945
946
946
948
950
950
952
953
956
956
957
958
958
952
952
949
950
957
971
995
1028
1062
1098
1137
1175
1207
1232
1253
1266
1264
1248
1226
1207
1190
1168
1134
1097
1072
1059
1048
1028
1005
986
969
962
948
937
929
922
918
915
912
911
910
910
906
909
912
911
912
912
912
915
917
918
918
916
910
914
920
920
918
917
914
916
917
921
922
919
914
914
917
918
915
916
914
916
916
918
918
917
911
916
917
919
918
917
916
917
920
922
925
926
923
927
934
933
936
938
935
937
939
946
948
947
951
955
958
963
966
967
968
970
974
980
982
982
981
982
982
983
984
982
980
980
982
981
977
977
973
975
977
977
975
971
967
969
970
972
969
966
964
963
963
965
964
965
963
964
966
964
964
961
960
959
959
961
961
960
958
957
959
962
964
962
960
959
960
961
960
961
957
960
962
962
964
961
958
960
960
963
961
959
960
959
962
963
964
961
959
960
960
958
959
961
961
961
960
961
959
961
958
958
960
962
962
963
961
965
963
964
962
963
962
965
970
974
975
979
981
985
988
990
985
983
982
990
997
1001
1002
1002
1000
1003
1009
1011
1008
1001
998
995
998
999
995
989
982
973
965
958
954
952
948
947
948
947
946
944
945
948
948
948
947
943
944
945
947
948
949
952
949
951
953
955
956
953
951
950
951
952
952
954
963
981
1010
1040
1072
1104
1140
1182
1216
1244
1259
1262
1247
1226
1203
1184
1162
1137
1103
1077
1064
1057
1042
1022
1003
991
982
974
963
950
939
936
935
933
931
926
922
923
919
923
923
924
924
927
930
929
930
928
930
931
931
934
933
930
928
928
930
934
932
933
927
929
931
932
930
929
927
929
928
929
929
928
925
926
928
929
930
925
924
927
929
931
930
927
929
932
933
937
937
936
935
937
943
946
949
952
950
953
956
962
962
961
964
969
972
980
980
982
982
984
986
987
987
986
987
988
991
992
990
988
985
983
983
983
982
979
976
976
974
975
974
972
971
972
971
971
968
968
966
967
967
967
964
963
962
962
963
966
965
963
958
960
960
962
964
962
961
959
959
961
963
962
962
962
963
962
964
965
962
966
965
965
964
964
963
965
966
967
967
965
963
965
968
968
968
965
964
966
967
972
970
969
968
969
969
974
971
971
969
967
971
968
970
968
968
970
973
973
972
974
975
979
983
988
989
989
987
983
985
988
992
995
998
1003
1006
1004
1005
1009
1009
1010
1008
1009
1007
1003
1002
1002
996
991
983
973
961
957
956
958
959
957
954
956
958
958
958
961
960
958
958
960
962
961
960
962
963
965
966
964
963
967
965
966
965
962
959
960
961
965
974
988
1011
1045
1087
1125
1165
1197
1222
1243
1262
1279
1282
1272
1245
1222
1202
1179
1147
1115
1091
1076
1061
1043
1020
1003
987
974
960
948
938
930
926
922
922
920
919
918
914
914
919
920
918
918
916
918
919
922
924
923
922
922
922
925
925
922
920
922
923
927
925
923
921
919
922
924
924
923
922
924
925
926
924
924
923
923
926
926
926
924
927
929
930
931
932
932
933
936
939
943
945
944
947
952
955
959
959
958
959
966
969
974
977
979
979
985
989
994
994
994
993
995
994
996
995
993
991
988
986
986
985
982
980
979
979
978
978
975
973
973
975
976
972
970
969
967
971
969
970
968
965
966
968
967
968
967
963
964
963
967
963
962
961
958
960
964
963
960
956
957
959
960
960
961
961
959
960
965
962
960
960
961
961
962
961
960
959
962
964
963
966
963
964
965
965
965
964
964
962
961
964
963
963
960
959
963
966
967
971
970
970
974
979
982
986
989
986
987
987
989
995
999
1002
1004
1005
1006
1007
1006
1007
1008
1008
1008
1002
1000
996
989
986
976
968
959
957
955
954
954
955
955
951
951
954
956
957
957
955
955
956
956
957
955
955
959
961
960
964
960
959
961
962
960
957
954
955
965
987
1016
1051
1088
1126
1169
1207
1232
1257
1274
1281
1276
1258
1236
1215
1195
1170
1142
1111
1091
1075
1057
1037
1017
1002
988
973
958
943
936
933
930
927
920
917
916
916
916
917
916
915
916
920
920
919
918
916
921
922
924
920
919
919
920
923
925
923
922
920
919
922
924
923
922
920
919
919
920
921
919
918
916
920
921
923
921
921
923
923
925
925
923
924
925
929
933
932
933
932
934
941
944
948
948
949
951
956
958
962
965
966
969
974
976
982
984
986
989
990
991
992
993
992
994
993
992
991
986
983
986
986
986
979
976
974
974
975
976
973
968
966
967
970
971
970
969
966
965
967
968
967
965
960
960
968
966
965
964
959
961
961
963
963
960
960
960
960
958
958
957
959
963
963
963
961
961
958
959
963
964
963
960
958
958
962
966
967
965
962
964
966
969
968
964
962
958
965
968
967
967
964
965
967
967
967
967
966
965
965
971
973
978
979
982
983
984
981
985
991
995
1001
1003
1003
1006
1006
1011
1010
1009
1004
1000
997
999
999
995
990
975
960
955
958
959
959
955
949
953
954
960
959
956
954
957
956
957
959
958
957
958
959
961
962
962
961
960
964
964
962
958
956
965
981
1005
1039
1075
1112
1156
1198
1234
1259
1274
1274
1258
1239
1217
1198
1181
1150
1117
1087
1068
1054
1037
1011
996
979
971
960
946
937
935
932
931
926
922
920
920
920
919
923
922
919
922
924
925
927
927
924
925
925
927
927
926
924
923
926
929
925
926
924
923
925
923
922
920
919
921
926
926
926
923
921
924
926
928
928
925
925
925
929
930
933
934
932
936
940
943
944
945
947
948
953
957
958
960
964
970
973
975
977
982
983
987
990
993
993
991
990
990
994
996
995
993
986
986
985
985
984
983
978
978
979
978
978
976
973
974
974
976
974
973
970
970
974
972
970
971
969
967
970
964
964
960
960
961
965
969
969
970
966
968
979
990
1007
1023
1041
1070
1106
1143
1174
1196
1217
1246
1281
1315
1345
1369
1386
1393
1376
1330
1267
1205
1147
1087
1029
984
946
923
910
906
905
901
903
900
900
903
904
907
905
903
902
905
906
905
901
898
896
894
895
891
888
880
878
884
891
897
899
899
898
899
906
909
910
905
900
901
905
908
904
901
901
900
898
901
903
900
899
900
901
901
901
898
898
899
903
902
903
905
906
906
910
912
915
915
914
918
923
926
928
928
930
935
939
942
949
951
951
955
962
968
970
969
969
973
976
979
979
980
979
979
980
982
984
984
982
982
981
984
985
984
981
981
980
982
985
982
980
980
983
982
980
983
982
982
983
982
979
981
979
982
983
983
980
978
979
980
982
982
982
980
976
979
979
978
978
977
974
975
976
978
974
974
973
972
972
974
973
971
969
971
972
976
975
972
970
969
972
973
971
969
970
972
972
973
972
969
969
969
973
973
974
971
971
971
973
972
974
971
971
972
973
975
974
971
970
969
973
975
975
972
969
970
973
972
975
973
969
971
971
971
972
973
971
971
973
974
974
971
971
973
975
974
972
971
971
972
973
974
975
973
970
971
974
976
976
974
972
973
975
975
974
972
971
970
974
976
975
974
973
972
974
976
977
975
973
974
976
977
977
976
975
975
975
977
977
974
973
976
976
981
979
975
974
974
977
979
980
976
975
978
982
985
985
987
987
992
998
1002
997
994
995
1000
1007
1014
1015
1018
1014
1015
1017
1021
1021
1014
1012
1012
1013
1013
1008
1002
991
981
973
972
970
966
966
967
968
967
967
966
966
969
971
973
970
972
970
972
972
976
975
974
973
976
978
981
978
974
973
983
996
1017
1047
1080
1118
1160
1199
1228
1253
1272
1284
1292
1283
1256
1225
1198
1171
1141
1112
1095
1078
1056
1033
1014
1001
990
978
964
953
947
945
947
940
933
933
931
934
935
933
933
932
934
935
934
935
937
937
938
940
942
944
942
939
941
943
942
943
938
938
940
942
944
943
942
945
944
947
948
948
949
947
951
950
951
950
951
951
950
954
958
958
958
955
958
965
968
970
972
977
982
983
984
985
985
987
992
994
998
998
1001
1004
1007
1011
1013
1015
1019
1018
1022
1024
1024
1025
1023
1021
1018
1021
1020
1019
1016
1008
1007
1005
1002
999
994
991
990
989
991
988
981
976
974
972
970
970
972
969
967
969
969
964
962
960
964
968
967
965
965
966
969
967
967
965
964
962
964
965
963
965
963
960
963
966
967
968
964
961
959
962
961
960
962
963
962
961
962
962
964
962
963
964
964
959
956
956
956
958
961
962
961
961
963
965
970
975
978
975
978
977
978
979
980
986
992
998
1003
1004
1003
1000
1004
1005
1005
1003
1001
997
996
998
993
986
973
964
959
960
962
960
959
958
959
959
961
962
961
960
961
964
967
967
967
966
968
971
977
976
978
976
976
976
976
971
970
969
978
995
1020
1051
1088
1124
1167
1209
1240
1267
1278
1274
1258
1233
1214
1199
1176
1144
1110
1083
1071
1061
1045
1022
1005
994
983
972
956
947
947
949
948
946
945
939
940
941
939
939
939
933
939
938
939
942
945
940
941
943
946
945
943
940
944
947
947
946
944
940
941
941
943
942
942
939
938
939
942
941
940
938
937
940
944
943
944
944
945
945
948
944
947
946
949
949
951
950
955
957
960
963
963
967
964
966
972
974
979
983
983
982
987
987
992
996
997
999
1001
1006
1007
1004
1006
1003
1003
1005
1005
1003
1000
1000
1001
1000
999
998
996
994
998
999
997
992
993
991
995
995
994
995
990
990
989
991
997
999
995
989
986
989
994
993
992
990
992
993
992
991
989
985
984
988
989
990
988
984
985
988
987
982
984
985
987
987
989
990
988
986
985
986
988
986
983
981
980
984
990
992
987
980
982
986
988
990
989
980
981
983
987
990
988
988
991
994
997
999
999
999
998
1002
1010
1014
1015
1021
1020
1020
1021
1023
1022
1021
1018
1016
1016
1014
1009
998
993
984
978
973
971
966
962
962
967
968
968
963
964
964
966
968
970
971
975
976
978
977
979
980
979
979
976
979
977
978
976
979
991
1010
1039
1079
1123
1168
1210
1243
1267
1276
1283
1277
1251
1220
1186
1166
1141
1112
1079
1052
1039
1024
1009
995
985
978
971
962
960
960
963
962
957
953
954
959
963
964
966
970
975
983
986
988
992
994
999
1003
1005
1003
1001
1000
1008
1008
1012
1010
1006
1001
1001
998
993
991
987
985
985
984
980
977
970
969
964
963
964
962
956
952
951
950
955
956
958
952
952
955
960
961
962
963
962
963
966
973
971
969
972
977
981
986
988
990
993
999
1003
1002
1004
1007
1015
1021
1019
1018
1018
1018
1020
1022
1019
1019
1016
1015
1015
1014
1013
1009
1010
1007
1010
1010
1008
1007
1006
1001
1004
1005
1002
997
994
992
997
1001
1005
1006
1001
993
992
993
995
995
996
995
995
996
994
992
990
988
989
991
992
990
990
986
988
990
991
989
985
985
989
993
997
994
991
988
993
994
996
996
995
992
996
995
992
991
995
994
994
989
987
990
988
989
988
987
982
979
978
977
980
979
981
983
982
983
987
992
992
990
985
982
987
994
1002
1005
1005
1006
1007
1014
1020
1019
1017
1012
1012
1016
1016
1015
1011
1003
997
990
984
977
975
971
969
972
977
975
975
974
974
976
983
981
979
976
978
979
979
979
980
981
978
981
981
984
986
980
979
979
986
993
1005
1029
1065
1106
1142
1178
1213
1241
1263
1277
1283
1284
1268
1240
1214
1198
1183
1156
1125
1093
1072
1058
1040
1021
999
983
975
966
954
948
943
938
936
935
937
935
934
933
932
935
937
936
936
933
932
936
940
942
940
938
939
940
941
941
941
939
936
939
940
939
935
934
933
935
937
937
939
934
937
938
937
935
935
933
934
936
936
933
935
934
936
938
937
937
940
940
943
947
950
949
950
953
955
957
961
964
966
967
973
976
983
983
985
983
986
991
999
1001
1000
999
997
1000
1000
1000
1001
999
998
999
997
996
990
994
993
993
991
989
983
981
984
984
986
982
981
979
980
982
984
981
977
976
979
981
982
979
977
975
977
979
980
978
975
973
975
979
982
982
978
975
980
983
983
980
978
975
975
979
983
980
979
975
978
981
983
987
984
982
982
981
983
982
983
982
983
983
980
981
980
978
982
982
984
983
979
979
979
983
986
984
983
981
983
985
987
991
991
995
1003
1008
1013
1012
1009
1006
1005
1011
1015
1020
1019
1017
1018
1022
1028
1030
1029
1026
1024
1023
1025
1025
1022
1016
1009
1006
996
984
976
970
970
970
972
972
971
965
970
975
975
974
969
969
970
970
969
970
973
972
971
975
976
973
973
972
973
973
971
969
968
965
969
978
993
1018
1048
1087
1131
1171
1207
1231
1244
1261
1280
1286
1268
1236
1204
1176
1154
1125
1099
1080
1064
1045
1024
1007
994
980
966
951
942
938
940
938
933
931
930
931
934
933
932
931
937
940
941
938
936
934
933
938
940
937
934
934
935
936
937
937
933
930
929
930
928
931
929
925
928
929
929
927
925
922
924
926
930
931
931
926
927
927
927
929
930
930
933
934
937
938
940
943
948
950
952
954
955
957
960
964
969
971
970
971
976
981
986
988
988
989
992
996
999
999
999
998
999
999
999
998
996
993
992
993
991
990
985
980
979
980
984
984
980
980
980
980
981
979
973
970
976
980
979
979
977
972
974
973
977
974
971
969
967
968
972
969
969
972
972
976
976
977
973
971
973
973
976
977
974
973
974
978
978
976
971
972
977
978
979
974
971
972
974
974
975
974
977
976
979
978
978
977
977
976
977
978
979
980
981
980
981
986
989
993
996
999
1002
1007
1006
1005
1002
1002
1009
1013
1014
1014
1013
1012
1014
1014
1017
1013
1010
1006
1004
1004
1000
995
982
970
962
956
956
956
954
951
953
954
955
953
951
951
955
957
958
957
953
953
956
958
959
958
956
956
960
962
962
964
959
957
956
954
956
962
968
980
1002
1033
1064
1100
1141
1177
1213
1242
1265
1280
1276
1255
1225
1197
1176
1148
1116
1085
1067
1055
1040
1021
1002
989
983
973
964
951
935
925
919
920
919
915
909
905
907
911
909
913
914
912
910
913
915
918
918
915
915
914
917
917
920
915
915
914
916
916
915
913
913
915
917
916
911
912
913
916
916
916
913
910
909
913
912
911
907
907
909
913
915
912
910
905
908
910
913
915
915
915
916
923
925
927
929
930
935
938
940
939
940
942
948
955
959
959
960
962
966
967
971
972
972
972
974
975
975
973
969
965
965
965
962
963
960
957
958
957
955
955
958
955
956
954
956
954
955
951
952
951
951
952
950
948
949
949
950
950
948
945
946
948
949
949
948
948
949
953
951
948
945
942
942
945
949
948
951
947
947
948
952
952
952
951
952
951
955
953
954
953
954
953
954
952
951
949
949
953
953
953
953
950
953
955
955
953
954
954
957
959
962
964
965
964
970
977
979
976
972
971
979
984
989
993
993
990
993
996
998
999
995
992
991
994
995
987
982
971
963
956
950
947
944
942
942
944
945
946
944
943
947
950
953
952
949
946
945
950
954
956
956
952
954
954
959
957
954
949
949
952
960
976
1003
1032
1068
1100
1130
1160
1187
1214
1242
1262
1266
1253
1230
1205
1179
1152
1117
1086
1065
1049
1033
1013
995
978
966
954
946
938
932
928
921
917
914
915
915
915
914
913
915
918
918
919
916
915
917
919
923
922
921
920
920
920
918
919
919
916
917
920
921
920
919
918
919
918
921
921
919
916
916
918
920
919
916
911
913
918
919
923
921
921
923
923
924
928
929
930
934
938
939
944
945
944
944
949
951
955
953
955
960
966
971
973
975
972
979
984
987
987
984
982
984
987
985
983
985
982
983
982
981
980
976
973
972
971
970
970
969
968
968
971
971
972
970
968
970
970
972
968
968
966
967
965
964
966
964
962
964
965
967
967
964
961
962
964
966
964
962
960
959
960
959
961
960
960
959
962
962
965
963
963
963
966
965
967
967
963
963
966
967
966
968
967
968
969
969
966
967
965
968
967
972
971
968
965
965
970
975
980
980
979
980
982
982
982
983
990
995
1002
1007
1011
1011
1013
1016
1016
1016
1011
1005
1002
1002
1000
1001
992
981
965
958
958
958
952
952
949
951
953
956
955
956
954
952
951
951
950
947
947
954
957
960
959
959
954
956
957
955
951
951
961
986
1019
1054
1087
1122
1156
1192
1225
1250
1261
1248
1220
1193
1169
1147
1115
1081
1058
1046
1035
1015
998
986
978
968
958
951
945
941
937
938
937
939
934
934
935
936
943
947
944
942
941
941
945
943
942
943
942
943
946
946
947
944
941
941
942
943
943
940
937
938
938
939
938
936
935
934
934
934
932
934
934
937
941
943
946
944
936
938
944
947
950
952
951
954
957
962
963
967
968
971
973
974
976
977
981
985
988
992
998
998
999
998
1003
1006
1004
1001
998
1000
1003
1003
1001
999
995
995
991
993
995
992
993
993
992
993
994
994
992
993
994
989
989
989
