973
972
970
969
970
968
972
971
969
968
973
974
976
975
969
967
970
973
975
973
973
970
974
976
979
976
972
973
976
981
977
978
977
974
977
979
982
986
988
992
995
998
999
995
995
995
1000
1003
1007
1013
1012
1012
1016
1020
1016
1014
1010
1007
1009
1009
1007
1000
987
978
970
966
968
965
964
960
961
964
964
963
962
963
965
967
968
967
966
968
968
971
970
971
969
970
974
976
975
974
971
968
968
970
980
995
1017
1045
1083
1117
1154
1190
1216
1236
1255
1271
1277
1260
1229
1197
1174
1153
1126
1096
1075
1061
1047
1031
1014
999
985
974
965
958
951
944
941
935
934
932
932
933
931
932
932
932
934
936
933
934
937
939
941
941
939
936
936
939
939
939
939
940
940
940
941
940
937
938
938
940
941
939
940
938
942
942
944
941
939
937
939
941
941
944
942
939
943
944
949
946
947
947
951
956
958
959
960
962
965
968
973
973
972
978
983
985
987
990
994
995
999
1004
1004
1004
1003
1002
1006
1008
1009
1007
1005
1001
1003
1003
1005
1004
999
995
995
995
993
992
989
988
987
990
989
989
986
984
984
987
986
983
980
979
982
983
981
982
979
977
978
979
979
976
978
975
976
978
977
973
972
970
970
972
974
972
970
970
972
974
975
974
973
970
972
974
975
976
975
972
973
976
978
976
972
971
974
976
976
977
975
976
981
982
981
979
974
972
974
977
979
976
974
975
975
980
987
988
991
990
993
994
994
996
1000
1003
1006
1010
1012
1015
1016
1019
1020
1020
1019
1013
1008
1006
1007
1002
996
986
974
966
964
966
966
963
963
961
961
964
965
964
966
965
968
968
969
967
967
967
972
974
974
972
972
973
974
975
976
972
972
974
988
1015
1045
1077
1111
1152
1193
1229
1253
1268
1278
1272
1253
1229
1203
1176
1149
1113
1082
1063
1050
1036
1019
1000
989
979
969
957
950
943
943
941
940
937
934
932
934
934
935
933
935
934
936
935
935
935
935
938
939
938
939
938
939
934
937
936
939
939
938
937
937
939
941
939
938
933
936
940
939
942
939
938
937
937
941
942
942
939
939
941
942
943
945
947
951
950
950
951
953
954
956
960
964
964
966
968
973
979
981
984
984
984
989
995
1000
1000
999
997
1000
1003
1006
1003
1001
998
998
1001
1000
999
998
992
992
992
988
987
985
983
984
986
987
986
982
978
978
982
978
979
976
975
977
978
979
975
974
973
973
977
979
974
973
970
970
973
975
974
972
969
968
971
972
973
973
970
972
973
977
973
971
971
971
975
975
975
973
974
975
979
979
976
974
974
975
977
977
977
975
975
978
980
980
982
978
978
977
978
978
979
979
978
980
985
987
991
993
994
996
998
997
997
996
1000
1007
1012
1013
1017
1019
1020
1023
1022
1023
1019
1017
1013
1014
1016
1010
998
987
978
975
976
976
972
971
970
974
976
977
976
975
974
976
978
979
979
979
980
980
985
987
986
986
982
984
986
986
989
997
1022
1055
1095
1136
1179
1216
1247
1273
1286
1287
1270
1239
1206
1182
1166
1139
1107
1077
1058
1044
1026
1009
993
981
971
966
963
959
956
954
948
947
946
947
947
948
946
948
948
948
951
950
948
951
949
948
948
948
947
950
950
950
946
948
946
949
949
947
951
950
947
949
950
949
949
948
948
950
952
950
948
947
947
949
951
954
955
952
953
953
958
960
961
963
965
968
972
975
975
978
979
985
989
993
994
998
998
1003
1007
1011
1011
1011
1005
1008
1011
1010
1009
1005
1002
1001
1002
1001
1002
997
996
995
995
993
993
991
988
989
989
989
987
988
987
985
988
990
986
984
985
985
985
987
985
983
984
985
987
987
985
984
982
983
981
985
985
981
982
982
984
986
981
980
981
984
983
985
985
984
980
983
983
984
983
982
983
985
988
986
984
982
982
983
984
985
989
988
986
989
991
991
988
990
986
988
988
990
993
992
997
999
1005
1007
1007
1006
1002
1007
1013
1016
1020
1018
1018
1022
1026
1028
1029
1026
1024
1023
1022
1020
1016
1008
1003
993
986
979
975
973
970
973
975
979
974
973
971
974
976
980
979
975
973
975
977
980
978
979
979
979
982
982
982
982
980
978
982
987
1003
1024
1054
1088
1128
1168
1205
1236
1259
1282
1292
1286
1257
1225
1204
1181
1160
1129
1097
1076
1058
1041
1021
1005
990
974
963
957
952
950
945
941
936
939
940
942
939
938
936
940
942
942
939
939
937
941
943
945
947
946
943
944
944
943
944
945
942
942
946
944
944
944
942
942
944
945
946
946
944
944
944
945
945
944
945
947
950
951
952
950
952
954
956
961
962
965
967
970
977
979
980
980
981
986
991
994
997
1001
1003
1007
1010
1013
1011
1010
1007
1010
1011
1014
1012
1008
1006
1006
1007
1005
1006
1003
999
997
997
997
993
994
991
991
992
992
988
986
984
987
990
991
987
987
983
988
990
988
987
985
983
987
987
987
987
986
986
986
987
986
985
984
984
987
987
988
987
986
985
987
989
989
990
986
985
985
988
989
986
984
983
985
987
988
988
988
987
987
989
988
989
989
987
991
992
992
988
988
988
990
991
992
992
990
990
994
1002
1008
1012
1012
1008
1009
1008
1011
1015
1018
1020
1023
1026
1028
1027
1029
1031
1032
1030
1029
1027
1023
1021
1016
1010
1000
988
982
979
979
980
978
975
974
974
979
978
978
977
976
975
977
980
982
981
981
981
984
989
987
986
987
986
989
988
986
987
988
988
998
1018
1045
1080
1117
1158
1200
1238
1266
1287
1296
1287
1266
1242
1219
1198
1182
1156
1126
1099
1081
1068
1050
1029
1014
1001
992
979
966
955
954
951
948
947
944
941
942
940
941
942
943
942
946
946
944
943
940
943
944
949
948
945
944
944
949
951
952
951
946
944
945
946
946
945
943
943
944
945
950
948
944
946
945
944
948
948
946
944
946
949
950
947
947
948
951
954
955
957
957
960
965
967
971
973
974
977
980
986
991
990
992
995
1001
1003
1008
1011
1011
1011
1013
1016
1019
1017
1016
1015
1016
1015
1013
1010
1008
1007
1005
1006
1006
1004
999
999
999
1000
996
995
994
992
991
995
991
990
990
990
991
992
993
990
988
989
987
989
990
992
991
987
987
987
988
988
987
986
988
989
988
990
989
989
987
987
988
987
988
987
990
991
991
990
986
988
991
993
994
994
992
990
990
993
994
991
989
988
991
992
995
991
992
990
991
991
994
993
994
994
996
1003
1006
1010
1010
1007
1011
1012
1017
1021
1024
1023
1028
1030
1033
1033
1033
1032
1031
1028
1026
1023
1022
1019
1011
1004
992
984
980
976
981
986
986
985
983
979
983
985
983
982
982
982
983
985
984
986
986
983
988
988
990
991
988
988
989
990
990
988
998
1020
1052
1086
1123
1164
1199
1234
1264
1285
1292
1283
1257
1228
1207
1195
1178
1150
1116
1085
1069
1058
1042
1026
1003
994
984
976
970
963
960
956
954
952
952
950
948
946
949
950
952
951
952
952
954
954
951
952
952
953
954
956
956
955
954
950
956
956
959
955
950
950
951
953
954
952
953
951
955
955
952
951
949
950
951
952
952
952
951
951
954
957
956
959
957
956
959
961
966
969
969
968
972
975
979
979
981
984
988
992
994
995
998
1001
1006
1009
1010
1010
1010
1010
1013
1016
1014
1013
1011
1011
1010
1013
1012
1008
1007
1005
1003
1002
1004
1002
1000
997
997
997
995
993
992
990
990
994
992
990
990
989
991
991
992
992
988
990
989
989
990
991
987
983
984
987
989
989
988
989
990
987
989
989
987
986
988
989
988
989
986
987
988
992
991
988
985
986
986
990
992
993
989
986
987
988
991
990
986
984
987
991
990
991
989
989
991
992
992
990
988
991
992
992
993
994
995
999
1001
1005
1007
1006
1002
1003
1011
1018
1021
1020
1022
1022
1026
1031
1033
1033
1032
1027
1027
1027
1025
1024
1018
1008
999
991
985
982
982
981
980
981
982
980
980
979
980
982
984
984
985
982
984
985
986
985
984
987
986
986
989
987
987
983
984
988
994
1006
1029
1062
1100
1139
1178
1217
1246
1265
1278
1285
1275
1244
1214
1190
1177
1166
1142
1110
1082
1065
1055
1041
1025
1008
996
989
981
974
971
970
968
966
962
961
958
958
958
959
958
960
960
960
958
960
962
964
964
964
961
958
961
963
964
964
962
958
960
964
963
961
961
958
959
962
960
959
956
955
957
960
958
958
959
958
958
955
958
956
956
956
958
961
962
961
963
963
968
971
974
974
972
974
976
984
986
985
987
990
995
1002
1006
1008
1010
1010
1013
1018
1021
1024
1019
1019
1021
1023
1023
1020
1019
1018
1019
1019
1017
1014
1010
1010
1008
1008
1008
1005
1000
998
1003
1006
1007
1002
999
995
993
998
999
998
996
995
998
1002
1001
1001
1001
998
999
997
1002
1000
1001
999
998
998
996
997
995
996
993
994
994
995
996
1000
1003
1006
1006
1008
1014
1021
1035
1053
1070
1086
1105
1130
1161
1192
1217
1240
1267
1302
1339
1372
1399
1414
1417
1407
1371
1315
1259
1213
1171
1128
1084
1041
1001
972
954
950
949
951
951
951
950
947
949
952
957
957
957
954
954
952
950
948
948
942
939
936
935
934
935
937
936
928
923
914
910
908
911
914
913
911
911
907
908
913
911
911
909
909
908
909
910
910
910
906
904
906
903
904
904
906
907
910
911
906
911
910
909
915
916
916
915
914
919
924
928
928
929
931
935
938
943
944
945
946
952
958
963
965
964
966
971
974
981
984
984
982
986
990
992
991
990
987
990
994
993
994
990
990
992
995
995
995
994
991
994
996
995
994
993
995
996
997
998
995
993
992
996
995
995
995
993
992
995
998
999
998
996
996
997
1001
1001
1000
997
993
994
998
1000
996
994
992
998
1000
997
996
994
993
992
993
994
993
992
993
996
998
999
996
994
991
993
994
995
992
992
990
990
994
997
997
995
995
994
995
998
999
998
994
992
997
995
997
991
990
993
997
997
997
994
991
996
997
998
998
995
993
994
999
998
997
998
997
995
994
995
996
995
995
995
999
999
1000
996
995
996
1000
998
996
992
992
993
994
997
995
995
995
997
997
997
997
998
995
996
997
999
999
994
995
999
998
997
998
998
996
997
1000
1000
1000
996
992
993
997
995
996
993
993
997
998
998
998
998
993
997
998
997
997
996
997
999
1001
1001
1006
1008
1009
1016
1022
1023
1023
1019
1017
1020
1027
1031
1030
1031
1029
1032
1036
1041
1042
1039
1036
1037
1037
1038
1032
1026
1022
1016
1010
1002
993
987
984
987
986
987
984
985
982
983
986
986
985
984
985
991
992
992
991
989
987
992
995
994
992
994
992
993
995
994
994
997
1003
1016
1034
1063
1096
1130
1169
1201
1235
1258
1275
1291
1304
1305
1283
1246
1211
1194
1174
1153
1127
1100
1080
1062
1044
1027
1013
1004
991
980
969
962
960
960
958
953
948
948
948
950
948
945
944
947
949
950
949
950
948
952
951
955
954
950
951
954
956
957
955
950
950
952
953
956
954
954
952
953
953
955
955
955
955
956
955
956
954
953
952
955
958
960
958
956
954
957
959
964
963
967
967
969
972
974
975
976
978
981
986
989
988
992
997
1004
1008
1010
1012
1008
1014
1020
1025
1028
1028
1028
1031
1036
1040
1041
1042
1042
1039
1039
1041
1044
1041
1036
1033
1034
1034
1031
1029
1026
1021
1020
1018
1016
1013
1010
1006
1007
1006
1002
996
997
997
997
998
995
992
989
989
992
993
991
991
988
989
987
988
992
993
986
985
986
989
989
988
987
986
987
988
988
987
985
984
982
985
988
986
986
985
990
988
988
988
984
985
986
987
990
992
991
988
989
990
992
993
991
988
991
992
993
993
991
993
994
997
1001
1005
1008
1008
1014
1018
1017
1015
1017
1020
1023
1026
1027
1031
1031
1034
1035
1036
1036
1033
1029
1028
1026
1023
1016
1004
994
988
983
981
979
977
973
969
971
972
975
977
974
974
977
981
979
977
977
974
980
982
986
985
983
982
984
986
985
981
977
977
980
986
1001
1027
1058
1094
1131
1172
1208
1241
1264
1282
1293
1290
1261
1231
1207
1181
1161
1135
1106
1083
1066
1049
1033
1016
1002
985
971
961
956
956
953
950
943
939
942
943
943
944
942
942
944
945
945
944
943
946
948
949
950
946
946
947
949
949
947
947
947
947
948
950
950
949
948
945
947
947
949
949
946
945
949
949
950
949
947
946
947
946
949
952
951
953
953
954
953
956
956
960
963
963
962
960
959
962
970
977
982
983
980
980
988
992
997
999
1000
999
1001
1006
1008
1007
1004
1003
1004
1006
1007
1004
1001
999
998
999
996
996
994
990
989
986
986
987
987
987
987
989
989
987
985
985
987
989
987
988
983
983
985
988
988
987
986
988
989
990
989
987
984
983
987
989
991
989
989
986
987
989
991
990
989
986
987
988
990
987
988
986
990
989
987
987
986
984
987
988
989
987
985
984
985
985
985
985
985
984
985
986
986
985
983
985
989
994
997
999
1003
1006
1011
1011
1011
1007
1009
1011
1016
1023
1030
1027
1028
1028
1027
1026
1025
1020
1017
1012
1011
1006
993
982
971
967
967
968
968
967
965
963
968
970
971
971
970
968
970
972
974
975
971
972
976
981
984
979
977
974
975
971
973
971
975
987
1012
1049
1087
1127
1165
1206
1240
1267
1286
1286
1263
1231
1208
1186
1160
1122
1093
1074
1060
1045
1025
1006
991
975
962
957
957
952
946
937
938
939
937
935
936
933
935
940
939
938
937
937
940
943
941
942
932
934
935
941
940
940
940
940
937
938
937
935
936
938
943
944
944
941
934
936
934
939
939
938
937
934
939
941
942
944
945
945
950
949
953
953
956
961
962
965
970
971
973
976
981
987
989
991
994
996
999
1007
1007
1010
1010
1008
1009
1010
1011
1009
1005
1004
1006
1006
1006
1003
1000
996
995
993
991
990
988
980
983
985
985
984
983
983
983
988
987
983
977
975
978
981
983
983
981
981
984
984
982
982
981
980
982
983
983
979
981
980
981
983
982
979
978
978
979
979
978
978
977
975
973
976
977
980
979
979
976
979
979
977
974
973
975
978
980
978
977
976
978
980
980
979
979
978
977
981
983
988
990
997
1003
1004
1003
999
1001
1004
1010
1016
1014
1013
1017
1021
1026
1026
1022
1016
1014
1013
1014
1011
1006
996
981
972
966
966
964
963
962
959
963
964
966
964
963
963
967
964
965
963
960
963
967
968
967
966
966
966
969
971
966
962
958
959
969
985
1013
1042
1075
1115
1156
1194
1224
1246
1266
1272
1261
1239
1214
1186
1161
1124
1096
1078
1066
1050
1030
1007
992
979
969
960
949
942
939
934
930
929
923
923
922
924
929
932
930
928
930
931
931
932
933
932
933
933
932
936
935
934
935
938
936
932
932
931
936
935
934
934
931
929
930
931
932
930
929
930
930
932
932
930
928
930
933
938
939
939
941
941
943
947
948
950
951
955
961
967
970
971
972
973
975
981
983
985
987
989
992
992
994
993
992
991
992
991
991
988
990
987
988
986
985
982
978
976
979
983
982
978
977
977
977
977
977
974
972
972
974
975
973
969
971
968
972
971
972
970
969
969
969
968
971
973
972
971
968
973
971
970
970
970
970
973
972
971
970
969
970
970
967
967
965
965
966
967
968
966
966
964
968
969
968
968
966
964
966
967
969
966
961
963
962
967
968
968
964
964
967
973
976
980
979
981
981
982
981
983
988
994
998
1002
1002
1005
1007
1006
1007
1008
1006
1000
999
996
995
990
981
970
959
953
954
956
956
954
952
950
953
957
960
959
955
956
960
961
959
956
956
958
959
961
962
964
961
960
961
959
955
950
951
963
985
1015
1048
1080
1116
1157
1195
1230
1254
1265
1259
1241
1214
1194
1174
1147
1115
1086
1068
1060
1049
1033
1012
993
978
969
957
944
937
931
926
925
924
920
918
917
919
921
920
918
920
918
921
924
923
921
923
923
925
927
926
925
923
923
925
928
929
927
926
924
925
928
926
924
924
923
923
925
926
926
923
922
925
930
933
931
930
929
931
931
931
935
937
937
945
950
956
959
963
962
966
968
972
975
979
981
985
989
991
992
991
994
996
998
997
996
996
995
994
994
993
991
985
983
982
984
984
984
982
980
982
983
980
977
975
974
974
975
975
975
975
972
974
975
977
976
977
975
979
980
979
976
975
972
976
977
976
973
973
973
975
979
977
976
976
979
986
988
983
976
970
969
971
975
974
976
974
971
973
973
970
969
971
970
973
974
973
970
968
965
966
969
971
974
971
972
973
977
981
988
991
992
993
993
990
993
996
1003
1013
1017
1021
1028
1035
1035
1035
1031
1026
1024
1019
1015
1015
1011
1008
996
983
973
971
973
974
973
969
966
968
971
970
970
966
967
968
970
971
970
970
969
971
974
973
973
975
976
978
975
970
969
966
969
986
1009
1039
1066
1094
1125
1162
1198
1230
1251
1263
1265
1248
1222
1197
1177
1158
1135
1105
1086
1073
1056
1041
1022
1006
996
982
972
964
954
950
946
942
938
936
933
934
936
934
935
935
936
938
939
938
937
936
936
937
938
937
936
935
933
938
940
945
943
940
937
938
941
943
941
938
938
937
938
941
939
939
937
938
939
939
939
935
933
936
936
934
936
936
935
938
942
941
941
940
939
943
945
950
953
951
951
956
960
963
967
970
972
977
981
981
982
984
988
992
994
993
993
992
993
996
999
1000
995
993
991
992
993
991
987
986
985
988
987
987
987
982
980
981
979
980
978
976
973
973
978
977
975
976
976
976
978
974
975
976
974
976
977
978
975
978
979
984
984
