934
935
938
942
944
943
943
941
943
945
948
948
947
951
954
957
958
961
961
964
970
972
974
974
976
979
981
989
991
991
992
995
997
1002
1003
1005
1003
1003
1005
1007
1007
1005
1002
1002
1003
1001
999
995
993
993
993
993
989
989
986
983
984
985
983
983
980
981
983
984
982
982
982
981
980
982
982
981
981
978
976
981
979
978
977
977
978
983
980
976
975
978
980
982
984
983
979
977
978
981
978
980
978
979
978
979
979
977
976
979
979
981
980
978
975
979
979
981
981
977
977
981
982
984
982
980
976
980
983
984
985
984
981
982
983
987
992
995
999
1004
1007
1010
1005
1001
999
1008
1014
1021
1021
1020
1022
1026
1030
1031
1030
1023
1021
1019
1021
1022
1020
1008
993
982
971
966
964
965
964
964
963
965
965
964
965
966
967
969
970
968
967
968
969
972
971
968
970
972
974
975
971
967
961
959
964
975
990
1009
1037
1071
1115
1158
1199
1234
1258
1278
1283
1269
1240
1213
1188
1163
1136
1106
1086
1077
1060
1046
1026
1012
999
986
969
957
944
943
938
931
925
926
927
930
927
924
924
928
931
932
931
930
927
929
928
931
933
930
930
932
932
934
932
930
930
933
936
937
933
931
932
934
935
935
936
933
930
932
933
934
934
932
932
934
936
940
941
938
939
941
946
948
950
949
949
951
955
959
962
960
963
967
973
976
979
983
982
987
991
994
995
994
997
1000
1006
1008
1005
1005
1002
1003
1004
1008
1007
1003
999
1000
996
997
996
994
989
990
988
992
992
991
989
985
986
985
985
985
982
982
985
984
986
982
978
981
985
985
983
976
977
977
980
980
978
979
977
979
981
979
980
978
975
975
978
981
982
981
977
978
981
980
980
979
975
977
980
983
982
981
979
981
982
983
981
981
979
978
979
982
982
980
978
978
978
982
983
979
978
981
985
984
984
982
979
982
985
992
995
1000
1003
1006
1010
1011
1006
1004
1005
1009
1014
1019
1023
1025
1028
1031
1034
1032
1025
1024
1023
1023
1022
1015
1004
993
979
971
970
972
971
965
964
965
970
971
971
972
969
969
973
974
977
974
971
970
972
975
976
977
974
976
977
971
970
966
963
971
988
1015
1050
1085
1122
1165
1203
1230
1252
1270
1273
1266
1243
1220
1195
1166
1132
1102
1083
1069
1052
1032
1014
1003
987
975
961
950
942
939
940
937
936
933
928
929
931
936
936
935
934
934
938
940
940
938
937
939
940
940
938
936
936
940
940
939
940
937
934
934
938
937
940
938
937
941
939
939
938
936
933
937
939
941
941
940
937
942
944
948
949
947
947
949
953
959
961
963
962
962
970
975
977
980
980
981
985
992
993
995
993
994
999
1003
1003
1004
1001
998
998
995
996
992
989
990
990
989
987
987
983
981
981
978
980
978
976
974
975
977
971
968
969
971
970
971
970
965
964
965
971
972
970
966
963
965
965
971
968
967
964
963
967
967
967
966
965
963
965
966
966
964
962
963
965
966
964
963
962
963
965
965
965
963
959
960
963
965
961
964
964
963
966
965
967
963
963
963
964
965
967
966
968
974
982
987
990
985
979
980
988
995
998
999
996
1002
1005
1012
1012
1006
1004
1001
1002
1003
1000
988
976
963
952
950
949
946
943
945
946
948
949
946
943
945
946
946
946
948
947
948
949
953
951
953
952
955
957
953
950
948
942
945
949
959
984
1013
1051
1092
1136
1178
1215
1240
1257
1265
1255
1235
1214
1190
1168
1138
1104
1075
1060
1045
1025
1007
987
975
960
945
936
931
925
919
915
910
907
907
910
911
910
910
908
909
911
912
915
913
911
912
915
918
916
915
914
916
917
917
916
915
913
913
917
918
916
915
915
912
915
920
920
920
917
918
917
918
921
920
915
916
917
922
923
923
923
925
932
933
935
936
935
941
944
949
949
952
954
960
964
965
969
970
971
973
976
980
980
978
980
982
985
983
983
982
975
974
973
973
971
971
965
964
965
968
964
965
961
959
960
961
962
956
956
955
958
957
958
956
955
955
956
957
955
955
954
954
956
958
959
957
956
958
957
958
956
954
953
953
956
958
960
959
954
952
954
955
958
956
955
952
954
957
956
957
952
952
955
957
955
955
955
954
956
955
959
958
957
958
958
960
960
962
964
967
970
973
977
978
976
974
975
980
986
990
993
997
1001
1004
1006
1007
1005
1001
998
996
994
992
991
985
979
970
957
953
947
947
951
952
953
952
949
949
951
953
954
951
950
949
953
956
954
953
952
955
957
959
960
958
956
954
951
949
952
962
980
1009
1040
1073
1105
1142
1179
1217
1246
1259
1255
1232
1204
1182
1161
1138
1108
1073
1056
1044
1032
1020
1001
985
972
962
953
948
941
933
927
924
928
925
925
922
922
923
924
926
927
926
927
927
926
929
931
930
930
932
936
932
933
931
931
934
933
933
932
930
928
931
932
933
933
932
929
930
933
936
932
931
930
931
932
936
938
938
935
935
936
940
944
945
943
944
946
951
953
956
955
958
962
964
966
969
970
976
981
984
984
986
987
994
997
1001
1001
999
995
996
1000
1001
1000
996
995
998
1000
1001
998
992
985
988
992
993
994
989
990
990
993
992
992
989
985
985
984
984
988
991
995
993
994
992
989
987
984
985
985
986
986
981
976
977
980
986
990
989
986
983
982
985
991
994
994
991
991
990
992
1002
1010
1012
1011
1007
1005
1008
1012
1028
1050
1070
1082
1098
1120
1149
1172
1189
1199
1198
1191
1178
1155
1113
1052
973
886
815
787
785
789
787
793
819
850
873
891
914
931
940
944
952
963
975
991
1000
1002
996
992
989
989
987
985
978
966
959
956
960
963
962
957
955
953
957
961
967
964
964
963
968
979
981
977
978
977
978
982
988
997
998
996
996
999
1006
1010
1003
1004
1004
1013
1018
1019
1021
1022
1023
1024
1026
1030
1030
1030
1035
1035
1041
1044
1048
1043
1042
1039
1047
1060
1067
1065
1058
1055
1057
1054
1050
1049
1052
1051
1048
1039
1035
1030
1029
1029
1024
1020
1017
1015
1013
1015
1016
1014
1009
1004
999
997
1001
1002
1001
999
999
1002
1002
1000
996
995
997
997
997
994
994
994
991
994
995
997
993
990
992
994
996
995
994
991
991
991
990
990
987
984
985
989
993
991
990
988
990
993
992
991
987
985
982
984
985
985
987
986
990
989
991
987
986
984
987
989
989
988
985
983
982
986
986
988
986
981
985
988
987
987
985
983
986
990
992
992
990
986
987
986
988
987
988
986
985
988
986
990
988
987
990
993
993
990
990
986
985
987
990
989
993
993
992
992
992
990
991
990
991
990
993
993
989
984
987
989
991
991
990
989
987
989
991
992
989
986
986
988
989
989
987
988
991
991
991
990
989
986
990
993
995
995
995
994
994
995
995
993
995
995
999
1005
1011
1016
1018
1015
1014
1010
1017
1022
1024
1025
1024
1027
1031
1031
1034
1033
1034
1035
1035
1031
1027
1022
1017
1008
997
986
980
978
980
980
982
980
979
977
978
978
979
979
978
975
979
980
985
986
983
981
981
984
986
988
986
985
984
985
989
996
1011
1036
1069
1112
1154
1193
1226
1253
1276
1289
1280
1249
1214
1187
1173
1157
1136
1104
1082
1069
1061
1048
1034
1016
1003
988
976
965
959
953
948
943
939
938
938
939
939
934
936
939
940
939
938
937
941
943
945
944
941
939
944
945
947
948
944
939
940
946
948
950
947
943
941
938
945
946
948
945
946
947
947
947
947
946
949
951
951
951
950
950
953
958
959
959
961
962
966
974
975
978
981
980
984
989
995
996
997
996
1000
1006
1011
1012
1015
1016
1020
1024
1026
1029
1030
1031
1031
1033
1033
1034
1036
1033
1032
1033
1031
1029
1024
1022
1020
1021
1022
1018
1012
1007
1004
1002
1001
1002
997
993
991
990
990
990
987
984
982
985
984
982
979
979
978
980
983
980
976
971
972
972
972
972
968
965
963
965
967
966
969
968
968
968
967
965
961
959
960
964
966
967
965
964
965
965
968
964
963
961
961
964
966
967
966
963
965
964
967
966
967
966
965
965
969
968
967
964
967
971
971
969
967
964
970
976
980
986
985
985
984
987
986
990
990
994
998
1002
1004
1007
1007
1007
1011
1012
1011
1009
1005
1002
1001
1001
999
991
982
968
959
955
955
954
950
950
952
952
956
955
954
951
950
954
956
959
956
954
955
953
958
958
962
958
959
962
964
960
957
950
951
956
963
972
994
1021
1053
1086
1127
1162
1196
1224
1249
1270
1272
1252
1220
1194
1171
1151
1124
1092
1067
1052
1040
1028
1011
997
986
973
958
951
943
935
928
921
918
916
916
918
913
913
919
920
921
920
917
915
916
918
923
921
920
919
920
922
924
924
922
919
919
921
925
925
919
918
921
922
925
924
920
919
919
920
921
920
921
918
919
922
923
922
923
920
924
926
928
928
929
931
935
938
940
942
940
941
944
950
954
958
955
958
961
967
971
975
971
969
974
978
984
983
984
983
984
985
986
984
983
980
979
980
980
979
977
971
970
970
976
975
970
965
965
965
967
967
966
966
964
964
965
966
961
959
963
963
965
963
961
960
960
962
963
961
960
959
960
961
961
961
959
957
959
960
963
961
963
958
959
961
959
958
958
956
957
960
964
966
961
961
960
961
961
961
958
956
960
963
963
961
961
957
962
963
964
962
958
958
960
961
965
964
965
964
969
970
973
978
978
977
975
977
980
985
989
991
995
998
1002
1002
1005
1004
1004
1003
998
993
993
994
992
990
983
974
960
951
946
950
950
950
950
948
948
946
950
951
950
949
951
950
951
951
951
950
952
953
958
953
952
952
953
957
959
957
953
948
950
957
970
994
1018
1047
1080
1112
1147
1181
1214
1237
1255
1264
1258
1232
1199
1175
1157
1142
1121
1090
1064
1048
1038
1024
1008
990
976
966
955
944
936
932
924
918
914
915
915
913
912
907
912
914
917
914
914
913
914
919
917
919
916
918
919
918
922
923
920
917
918
921
924
924
921
916
917
922
921
923
920
917
916
916
917
919
917
916
919
923
923
921
921
920
924
925
927
927
925
926
931
931
935
936
936
937
941
944
947
948
951
951
956
960
964
966
965
968
973
977
981
979
979
983
987
988
994
991
991
986
988
988
989
986
983
978
979
979
979
978
976
973
970
973
975
974
972
970
968
970
970
967
969
966
966
967
967
967
964
963
963
967
968
966
965
963
963
966
964
962
958
959
963
966
962
967
965
963
964
962
965
963
962
961
960
965
965
965
964
960
960
964
966
967
968
964
960
962
962
964
961
959
960
962
962
963
962
962
961
962
965
966
965
962
963
964
969
970
969
970
975
977
982
983
985
983
986
990
996
1000
1001
1002
999
1003
1008
1011
1010
1010
1007
1005
1003
1002
999
994
982
974
966
956
954
951
952
957
957
956
951
950
953
953
955
957
957
954
953
958
961
961
959
958
960
961
961
963
963
960
959
958
960
965
978
999
1028
1063
1102
1135
1171
1201
1229
1251
1267
1263
1237
1209
1182
1163
1142
1110
1079
1060
1049
1036
1019
1004
990
978
970
958
949
940
931
924
920
918
922
921
922
921
917
919
923
926
925
924
924
928
927
928
926
924
924
930
928
928
927
925
925
928
931
931
930
926
926
927
927
925
924
919
921
924
926
925
925
925
925
927
931
931
930
927
930
933
935
937
939
939
940
944
950
953
953
953
957
960
967
971
971
973
979
981
986
989
990
989
988
993
994
994
993
992
992
992
994
990
991
985
983
981
983
981
981
977
978
978
980
978
974
972
972
973
977
973
970
969
968
968
969
970
965
964
964
965
967
964
966
962
959
962
961
963
962
961
961
962
961
961
959
956
958
961
963
962
961
957
958
960
962
965
963
958
963
964
965
963
963
960
960
963
963
967
964
960
962
963
963
962
961
962
962
966
966
964
961
960
961
964
964
967
968
968
975
978
983
986
983
977
980
985
993
997
1000
998
1002
1010
1012
1013
1009
1001
998
1000
1002
1003
1001
994
986
976
968
966
962
961
961
962
962
961
958
960
962
963
965
963
962
962
962
963
966
967
968
966
969
969
970
971
974
966
967
967
969
976
993
1022
1058
1100
1139
1179
1216
1247
1271
1288
1282
1258
1229
1204
1185
1172
1153
1119
1089
1068
1057
1044
1027
1009
994
979
969
957
952
946
943
938
935
934
935
937
933
931
933
933
937
938
935
936
937
940
942
942
940
936
938
942
944
947
944
943
941
947
946
946
942
940
942
943
944
942
942
938
940
941
945
944
944
943
944
945
944
943
942
942
945
950
952
952
950
952
954
960
963
963
963
965
967
973
978
979
981
981
986
993
997
996
996
999
1002
1005
1007
1008
1009
1006
1006
1009
1008
1006
1001
1000
1000
1003
1001
1000
995
993
994
994
995
995
995
991
991
990
990
992
989
987
987
990
991
991
990
984
985
987
983
983
983
979
980
981
981
985
984
980
980
978
981
979
976
975
977
977
978
977
977
974
975
976
975
977
978
978
975
979
983
984
983
980
981
983
986
987
984
982
984
984
989
986
986
987
987
992
989
990
988
988
989
991
993
995
992
992
994
996
1004
1007
1010
1012
1013
1012
1015
1015
1021
1021
1026
1029
1032
1034
1035
1035
1037
1041
1040
1035
1031
1029
1030
1030
1025
1013
1003
988
982
982
984
982
981
979
979
981
982
984
985
983
983
984
987
983
980
977
980
984
984
984
984
980
982
987
990
986
980
976
981
990
1007
1029
1063
1095
1133
1175
1214
1244
1264
1277
1279
1264
1234
1207
1183
1159
1133
1104
1085
1075
1067
1051
1035
1019
1005
992
977
962
953
951
948
943
940
938
940
940
941
944
942
940
942
944
948
947
944
945
945
951
949
951
945
947
946
949
952
950
947
948
947
949
950
949
950
947
946
949
948
948
948
945
946
947
949
950
949
948
949
952
956
956
956
955
960
963
967
965
968
969
977
980
985
985
986
987
993
997
1000
1002
1002
1004
1007
1009
1013
1009
1014
1011
1011
1012
1013
1011
1005
1003
1001
1003
1001
996
995
993
994
993
992
993
992
991
988
989
990
989
986
982
982
985
988
985
984
980
979
983
986
984
982
980
980
980
982
979
979
971
972
974
976
977
975
973
973
974
977
977
974
972
973
972
976
975
974
975
976
979
978
980
977
975
976
978
981
980
979
975
977
978
978
977
975
976
978
978
978
981
979
980
982
989
995
1000
998
995
994
994
998
1003
1007
1007
1008
1012
1016
1017
1019
1019
1017
1015
1012
1010
1008
1002
996
989
978
968
960
959
961
960
962
961
957
955
956
959
959
960
962
959
961
962
963
965
963
963
964
966
968
968
966
964
961
962
963
963
974
991
1024
1062
1100
1143
1184
1215
1244
1267
1278
1267
1237
1205
1182
1165
1139
1104
1075
1058
1049
1032
1015
998
982
966
954
943
939
935
931
923
921
923
925
925
923
921
921
926
928
928
925
921
922
924
927
928
930
925
926
931
932
931
927
929
929
932
932
932
928
929
931
931
932
931
929
928
928
931
933
933
930
927
930
929
933
933
932
931
935
937
942
942
940
942
947
948
953
956
957
956
961
964
968
970
972
973
977
982
986
989
989
989
990
990
992
991
992
988
987
987
991
988
985
979
980
982
981
978
978
975
974
976
976
974
971
970
969
969
972
969
970
966
967
970
967
966
964
964
966
966
967
964
964
963
961
962
963
965
961
962
961
963
965
964
962
959
959
962
963
963
960
961
961
963
964
962
960
957
959
961
963
962
960
958
959
962
963
963
963
959
961
961
962
960
956
958
960
963
965
965
963
963
965
968
974
980
984
982
980
980
982
989
993
994
996
1002
1005
1003
1003
999
998
995
997
997
992
983
972
959
950
947
943
940
941
943
946
945
944
943
941
942
946
950
947
947
948
950
953
952
949
947
947
948
949
943
939
937
945
962
986
1017
1052
1089
1136
1178
1212
1240
1254
1243
1222
1194
1168
1146
1114
1080
1059
1048
1039
1024
1007
994
979
969
952
938
928
923
918
918
922
917
916
914
915
920
923
921
919
917
920
922
922
921
920
918
921
924
925
924
923
920
922
925
927
928
927
925
924
927
925
926
922
919
922
923
922
924
922
923
924
927
930
928
927
925
931
934
937
938
937
936
939
944
946
951
954
954
958
960
962
967
971
971
977
981
984
984
983
984
988
989
992
987
988
984
983
985
986
985
984
980
979
978
978
975
972
971
971
970
969
967
964
964
966
968
966
963
962
959
960
961
962
962
959
959
958
958
961
958
961
959
961
961
960
960
961
957
960
961
962
959
960
959
959
960
961
962
959
959
960
965
963
962
960
958
961
960
961
964
963
960
960
963
962
960
957
956
961
963
964
960
957
955
957
963
961
960
958
954
956
967
973
979
977
978
978
977
979
983
987
988
992
996
996
1003
1003
1001
998
993
991
986
987
984
977
965
953
945
939
938
941
941
942
940
936
939
940
944
944
943
941
940
941
945
945
947
946
941
941
945
949
946
945
937
937
937
937
943
956
976
1009
1048
1095
1137
1172
1201
1231
1250
1248
1219
1188
1159
1134
1103
1074
1054
1044
1034
1021
1006
988
976
958
939
926
919
913
910
904
899
898
900
900
901
901
901
903
907
909
908
903
908
911
912
911
909
906
903
907
910
913
913
910
908
909
911
911
917
917
915
914
915
914
914
914
908
908
909
911
913
912
