1024
1030
1033
1033
1032
1032
1035
1043
1055
1074
1095
1124
1155
1181
1205
1218
1221
1219
1210
1193
1162
1120
1074
1039
1023
1022
1026
1021
1017
1010
1010
1012
1012
1010
1006
1002
999
1001
1001
1001
1000
998
995
997
1000
998
998
996
993
993
999
998
996
996
994
993
997
997
994
994
992
998
1001
1001
995
993
990
995
1001
1002
997
995
998
1002
1006
1009
1004
1005
1006
1010
1015
1016
1016
1014
1018
1018
1026
1027
1026
1025
1031
1035
1039
1043
1042
1042
1045
1052
1055
1059
1061
1060
1064
1067
1074
1075
1073
1076
1078
1082
1087
1090
1087
1086
1088
1089
1095
1094
1090
1086
1084
1085
1084
1081
1079
1076
1071
1074
1073
1071
1066
1061
1058
1057
1057
1054
1050
1043
1042
1037
1042
1040
1035
1032
1031
1029
1033
1028
1022
1022
1019
1023
1025
1024
1023
1018
1018
1023
1026
1024
1020
1019
1019
1024
1024
1024
1023
1025
1025
1027
1030
1032
1031
1030
1034
1041
1044
1046
1049
1048
1054
1062
1069
1077
1081
1090
1104
1117
1129
1141
1149
1157
1172
1184
1196
1213
1222
1228
1231
1230
1228
1219
1200
1175
1149
1119
1085
1057
1034
1021
1017
1015
1014
1006
1000
990
986
983
982
980
974
963
961
958
960
957
952
948
946
946
944
942
936
933
931
931
936
935
933
931
930
933
935
933
930
932
933
934
935
936
933
932
934
936
937
934
932
928
928
927
931
930
930
926
927
929
928
926
925
925
925
930
933
934
933
933
936
941
945
948
947
949
952
958
964
967
967
965
972
975
981
984
982
984
986
990
993
993
987
990
992
994
995
995
993
990
989
991
991
994
995
988
990
993
996
995
989
986
988
993
996
995
993
991
990
994
995
995
991
989
992
996
996
997
994
994
995
1000
1005
1003
1003
1003
1002
1007
1012
1013
1008
1010
1013
1014
1020
1023
1022
1023
1026
1029
1037
1040
1045
1050
1058
1068
1080
1090
1097
1108
1117
1130
1145
1156
1165
1174
1185
1199
1211
1217
1219
1220
1224
1227
1232
1232
1225
1216
1209
1209
1207
1204
1192
1180
1166
1150
1131
1104
1074
1046
1027
1012
998
984
971
961
951
944
938
932
925
914
906
906
900
897
894
888
884
883
882
880
873
867
869
871
874
871
868
866
865
867
870
868
864
860
861
862
862
861
858
852
851
851
852
852
848
844
839
842
842
838
833
831
828
833
837
833
830
828
826
830
832
835
833
832
833
836
840
842
839
842
845
849
853
856
858
859
860
867
874
876
877
878
880
887
892
895
896
895
898
904
907
908
908
907
912
915
920
922
922
916
921
926
930
933
929
929
928
933
938
938
937
936
939
941
945
944
944
943
944
946
949
950
950
949
951
955
959
957
955
953
954
957
959
960
959
953
955
956
963
962
957
956
956
958
960
960
958
958
954
956
962
960
956
953
954
955
956
955
951
947
948
953
955
955
951
947
945
949
949
949
944
942
942
946
947
946
944
938
938
940
940
944
941
938
939
942
946
945
941
940
938
942
944
945
943
940
942
942
947
945
941
938
938
942
943
942
939
936
939
943
946
945
941
943
942
942
946
946
943
942
942
941
946
947
946
944
942
945
946
946
942
940
940
942
946
945
944
939
937
941
943
941
939
936
936
940
944
945
942
940
940
939
941
941
941
941
941
942
945
944
942
941
941
943
947
947
945
940
941
943
943
946
943
941
942
944
948
945
945
939
941
944
945
944
942
939
939
941
945
943
941
937
938
940
944
941
939
933
937
938
941
941
938
936
935
935
940
938
935
930
930
937
938
936
935
932
935
936
940
937
936
933
935
935
937
940
939
937
936
940
942
943
940
938
940
942
946
945
944
941
944
949
955
956
953
951
956
961
965
970
970
970
972
974
983
986
987
991
994
995
1000
1001
998
997
1000
998
999
998
994
988
984
984
983
982
978
976
974
977
983
982
981
979
981
985
988
987
987
990
997
1014
1037
1064
1096
1129
1155
1175
1186
1182
1174
1151
1118
1075
1027
987
969
968
970
969
972
968
965
963
961
963
965
962
957
955
955
957
959
959
956
953
953
952
957
960
957
952
952
954
956
955
952
950
952
955
958
958
956
957
957
960
965
965
963
962
962
966
971
973
970
973
973
975
980
981
980
980
982
986
989
992
992
993
994
999
1005
1002
1004
1005
1008
1012
1017
1019
1018
1016
1019
1025
1030
1032
1027
1026
1027
1031
1033
1033
1027
1025
1027
1029
1035
1032
1027
1024
1022
1022
1023
1018
1015
1016
1013
1012
1011
1010
1007
1005
1001
1002
1005
1003
999
997
995
999
1000
997
994
993
991
993
996
994
994
994
988
994
996
996
994
992
996
999
1005
1006
1006
1006
1004
1011
1017
1021
1020
1022
1026
1031
1040
1046
1049
1057
1063
1072
1084
1094
1101
1105
1100
1090
1075
1051
1026
998
972
945
919
896
884
884
894
912
928
939
942
943
944
951
955
960
960
960
960
960
965
964
967
964
961
965
966
963
961
957
956
959
961
959
958
953
956
961
965
965
964
962
963
966
972
974
975
978
982
982
984
985
983
985
988
997
1002
1003
1006
1010
1013
1017
1025
1031
1034
1039
1044
1053
1061
1070
1069
1072
1077
1081
1090
1093
1097
1094
1102
1104
1109
1108
1107
1107
1105
1106
1107
1106
1103
1096
1095
1096
1095
1089
1082
1075
1071
1072
1071
1065
1057
1051
1047
1047
1045
1043
1038
1035
1032
1031
1033
1034
1030
1026
1026
1027
1027
1027
1024
1025
1026
1029
1032
1030
1030
1025
1022
1028
1028
1029
1024
1022
1021
1021
1022
1025
1022
1020
1019
1019
1021
1018
1016
1016
1015
1022
1023
1021
1016
1007
1005
1006
1008
1009
1006
1004
1005
1003
1004
1003
1000
995
995
997
1000
998
993
989
992
991
994
993
987
984
984
985
985
985
982
980
980
977
980
982
974
975
972
973
978
976
973
970
971
974
977
975
972
971
968
972
975
974
972
971
970
971
972
972
967
962
963
963
968
967
963
963
963
963
969
968
965
960
962
963
968
964
962
959
959
960
963
963
962
961
960
960
963
960
959
959
959
962
962
963
959
958
960
964
966
963
960
957
956
957
961
961
957
956
954
958
961
961
958
955
956
960
963
964
961
959
959
958
963
961
956
950
954
956
959
958
956
957
955
959
960
958
956
954
954
957
957
957
956
958
956
958
960
961
959
959
958
957
958
957
958
957
956
959
963
960
958
957
957
960
965
962
963
959
963
964
964
967
963
959
961
963
963
964
964
963
963
968
971
972
970
972
974
976
982
983
986
988
990
997
1003
1008
1010
1009
1008
1013
1016
1017
1012
1009
1006
1006
1004
999
993
989
985
986
985
982
980
976
973
976
981
978
976
976
977
981
981
984
984
987
995
1011
1037
1068
1098
1127
1153
1171
1180
1180
1166
1141
1101
1054
1013
984
974
974
973
971
968
965
962
958
954
957
958
957
950
948
948
949
951
950
944
942
943
946
948
946
943
943
942
944
948
947
943
942
941
944
947
949
947
945
944
947
952
952
952
952
952
956
957
960
958
959
961
962
966
967
964
965
969
970
974
977
977
977
979
984
986
987
988
990
992
995
1000
1003
1003
1000
1003
1007
1014
1013
1014
1012
1015
1016
1021
1021
1018
1018
1019
1021
1023
1022
1019
1016
1015
1015
1014
1014
1009
1005
1002
1004
1003
1002
998
994
990
993
994
991
988
982
977
978
978
980
973
970
969
971
973
971
971
966
966
970
970
970
965
966
967
971
974
973
972
971
967
972
976
978
981
978
979
987
990
994
996
997
1001
1004
1014
1019
1021
1034
1040
1055
1065
1077
1082
1092
1106
1119
1133
1143
1153
1160
1172
1185
1199
1210
1212
1208
1197
1185
1167
1138
1106
1074
1045
1024
1008
993
979
967
962
953
949
946
936
931
922
919
918
913
909
902
898
898
899
894
887
886
881
883
884
881
879
876
874
877
879
880
879
874
874
875
876
873
875
871
870
869
871
868
862
858
853
855
858
856
851
845
843
844
844
843
840
835
836
837
839
836
835
832
834
837
840
841
840
840
841
845
849
855
855
852
854
859
864
867
866
866
874
876
888
887
885
886
886
890
895
895
894
893
897
896
908
909
908
905
907
910
916
916
916
913
916
920
926
925
922
920
922
930
932
931
928
925
925
929
931
935
935
933
935
938
939
935
932
931
934
938
942
944
944
940
939
942
946
945
943
941
944
945
950
950
949
946
948
949
952
953
954
951
950
952
954
952
950
944
946
946
951
946
948
944
944
945
947
949
944
942
943
948
953
952
954
951
951
950
951
943
940
940
937
940
941
943
938
933
934
938
942
942
937
935
940
942
946
942
940
937
932
933
937
936
935
931
932
935
937
937
936
934
933
935
942
940
938
937
939
940
943
944
943
942
939
942
946
948
945
945
945
945
944
941
938
931
932
936
937
935
934
934
934
940
943
941
939
935
935
937
942
940
937
935
937
938
937
940
936
932
934
939
945
944
938
936
933
940
943
940
937
933
932
935
940
939
938
934
933
938
941
939
936
940
938
943
944
945
945
939
941
942
949
944
944
944
944
946
950
950
949
946
948
950
954
952
949
947
947
945
951
947
944
942
944
949
953
953
951
949
949
952
957
959
957
958
961
967
972
973
972
967
967
970
975
976
980
983
989
995
997
997
993
991
991
994
994
989
986
985
981
980
980
976
973
971
971
972
973
971
968
967
967
973
977
975
974
973
974
977
978
982
985
999
1019
1050
1085
1114
1140
1160
1173
1183
1187
1175
1152
1124
1086
1044
1009
982
968
970
969
969
967
964
960
957
958
961
962
962
963
955
958
961
961
960
959
953
955
956
957
958
951
949
949
954
960
962
955
952
950
951
955
956
956
954
957
957
955
950
953
949
953
953
959
962
959
957
960
964
970
974
973
970
971
971
976
979
979
981
985
984
985
982
981
982
984
988
992
996
999
999
1000
1008
1014
1012
1018
1019
1021
1028
1035
1035
1031
1031
1035
1040
1045
1049
1050
1051
1047
1048
1046
1044
1041
1042
1041
1045
1047
1046
1045
1039
1037
1036
1036
1036
1033
1029
1025
1018
1018
1017
1015
1013
1014
1016
1016
1010
1007
1008
1005
1003
1001
1002
1001
999
999
999
1003
999
998
996
996
997
997
990
981
979
978
977
982
986
990
992
998
1004
1003
994
977
969
965
973
984
989
991
990
993
996
1006
1006
1003
998
998
1005
1011
1017
1023
1026
1032
1033
1031
1027
1028
1034
1040
1048
1053
1058
1052
1042
1023
998
969
934
909
883
862
843
824
808
796
793
795
801
812
819
823
822
819
825
835
843
848
856
866
871
877
883
894
904
913
927
938
942
943
940
944
952
963
967
964
964
964
970
980
984
985
987
992
1001
1010
1012
1012
1008
1005
1008
1014
1020
1020
1022
1022
1022
1033
1037
1043
1046
1048
1058
1064
1071
1077
1078
1083
1088
1089
1092
1096
1104
1113
1121
1132
1142
1146
1148
1150
1155
1157
1163
1169
1171
1180
1183
1189
1189
1188
1187
1186
1188
1188
1184
1177
1172
1166
1164
1166
1162
1155
1152
1148
1145
1137
1132
1126
1117
1113
1110
1106
1100
1096
1091
1089
1090
1087
1079
1067
1058
1055
1055
1059
1055
1051
1044
1038
1040
1039
1036
1026
1022
1021
1023
1023
1020
1018
1012
1015
1018
1021
1022
1017
1010
1010
1010
1011
1008
999
991
991
996
1001
1006
1001
997
994
998
998
997
990
985
984
985
991
989
984
979
976
973
973
974
973
975
977
976
975
969
968
968
971
967
961
956
954
951
950
951
953
956
955
948
939
946
950
948
935
929
934
943
945
939
930
926
927
931
939
940
940
937
940
943
944
943
940
945
947
946
941
936
925
917
924
932
942
941
933
929
929
929
931
927
922
920
925
927
927
925
917
911
918
931
935
931
925
920
923
923
929
930
937
939
937
931
934
927
918
915
918
925
927
921
911
907
915
921
927
927
931
926
926
923
932
934
937
935
924
921
926
930
934
927
924
922
925
929
931
926
931
930
934
936
932
928
928
931
934
940
935
930
927
929
934
938
936
929
929
934
938
938
938
939
940
945
947
950
949
943
941
947
954
958
948
935
935
941
947
948
947
950
947
948
952
962
970
973
972
972
976
979
983
990
991
995
999
1002
992
979
973
975
988
991
990
984
978
972
969
971
967
962
960
960
962
965
969
967
970
974
976
980
981
980
989
1003
1025
1051
1074
1108
1138
1158
1169
1167
1150
1120
1079
1038
1000
962
941
944
957
969
963
953
948
952
956
957
954
953
953
952
952
957
963
960
952
950
955
956
957
957
958
963
965
961
954
957
957
956
955
960
963
965
959
954
958
965
972
967
965
966
968
971
974
974
974
976
985
993
995
988
978
978
984
989
995
999
1000
1001
1001
1004
1005
1011
1017
1023
1021
1023
1031
1037
1039
1039
1046
1049
1049
1039
1036
1037
1042
1049
1053
1053
1054
1055
1050
1050
1054
1053
1056
1054
1050
1053
1055
1048
1037
1029
1032
1040
1042
1033
1026
1023
1023
1020
1019
1023
1023
1019
1018
1019
1022
1020
1013
1003
999
999
1002
1000
993
999
1002
1002
1006
1008
1014
1014
1011
1010
1010
1010
1009
1011
1014
1015
1015
1017
1020
1022
1017
1013
1017
1017
1013
1006
1012
1025
1028
1025
1025
1023
1022
1026
1027
1026
1025
1028
1029
1028
1028
1024
1022
1021
1018
1011
1008
1005
999
986
973
958
942
928
914
903
894
888
882
867
860
859
872
885
892
901
912
920
936
954
971
983
985
986
985
984
991
991
989
985
985
992
992
987
982
986
993
997
997
993
991
984
986
990
992
983
974
968
965
968
982
990
989
982
983
986
984
980
976
980
986
992
995
991
990
987
991
1006
1014
1015
1012
1007
1013
1021
1029
1038
1042
1041
1047
1058
1070
1075
1074
1070
1078
1083
1094
1096
1102
1103
1101
1107
1111
1112
1110
1107
1108
1116
1118
1116
1115
1111
1108
1105
1106
1102
1099
1096
1093
1092
1090
1089
1084
1076
1066
1055
1049
1044
1037
1032
1034
1032
1032
1030
1024
1017
1021
1020
1015
1010
1003
997
1000
1005
1010
1012
1013
1013
1014
1011
1010
1008
1002
1002
1000
999
1002
1000
995
990
987
991
987
989
985
982
982
984
988
986
987
986
982
980
979
977
974
969
967
968
968
968
963
962
962
963
963
964
961
959
953
957
956
955
951
947
942
948
950
950
949
942
942
943
948
948
946
943
945
942
946
943
942
937
937
938
942
941
939
936
934
935
939
939
939
935
932
934
933
933
934
931
934
938
941
936
933
932
934
933
936
936
934
929
927
928
931
931
930
928
928
931
935
933
928
925
923
927
932
932
934
934
934
933
937
935
932
927
924
925
934
933
934
933
934
934
937
937
939
932
932
936
938
936
934
932
934
934
937
937
936
935
934
935
942
945
944
941
937
941
944
942
942
939
939
940
953
960
955
951
952
957
961
964
961
961
967
975
985
990
990
987
989
989
995
996
992
990
991
988
983
982
976
970
969
971
972
971
970
966
967
967
969
969
971
969
969
977
979
980
979
978
982
994
1018
1042
1070
1096
1129
1150
1164
1166
1160
1144
1117
1086
1041
1001
966
954
960
964
961
957
952
949
956
959
963
957
951
949
948
950
952
950
947
943
940
943
947
954
953
950
950
951
955
949
946
943
944
946
948
950
951
948
954
960
961
960
951
944
945
950
954
956
960
960
962
966
969
972
973
971
974
981
986
988
991
989
991
995
1000
1000
1003
1003
1004
1010
1016
1019
1018
1024
1027
1033
1040
1041
1044
1040
1042
1046
1052
1057
1056
1053
1053
1055
1055
1055
1051
1043
1043
1042
1042
1039
1034
1030
1025
1023
1021
1016
1012
1011
1012
1009
1011
1005
1002
995
991
990
991
989
983
977
977
981
983
978
973
975
975
975
973
973
971
969
969
974
978
976
975
972
973
982
986
984
983
982
989
993
999
1001
1007
1013
1016
1020
1028
1040
1051
1062
1074
1091
1108
1124
1132
1145
1157
1175
1194
1211
1223
1232
1232
1229
1226
1214
1198
1173
1139
1103
1065
1032
1004
974
961
954
954
955
954
944
935
932
932
929
923
915
914
910
910
910
909
908
907
906
905
902
905
902
902
903
910
907
901
891
890
891
890
887
884
881
878
874
876
874
865
858
860
859
857
855
851
850
841
846
849
846
839
836
833
838
839
837
836
833
837
841
841
844
843
848
848
852
855
864
869
871
869
877
885
887
886
884
888
893
901
903
904
902
905
910
915
917
918
916
918
920
923
923
922
922
927
928
932
932
934
928
930
934
935
936
938
937
938
938
942
943
942
940
941
945
950
952
950
950
952
952
954
956
957
956
960
960
963
964
963
961
961
963
965
965
966
963
963
967
968
971
970
966
968
970
974
973
971
965
967
964
968
969
970
967
964
965
969
969
968
963
962
964
965
965
964
963
966
966
964
962
964
965
963
958
961
960
961
958
959
963
964
960
954
953
952
954
959
957
954
955
954
957
956
956
956
950
952
954
953
951
952
952
951
947
956
956
951
948
945
951
954
955
955
951
952
954
953
951
946
947
948
951
952
950
949
943
940
943
948
952
950
948
947
947
948
950
950
948
951
951
950
952
951
948
949
950
954
950
947
943
948
955
958
956
955
952
951
953
958
953
952
952
952
953
952
953
954
953
950
953
958
959
959
955
952
957
959
961
964
962
959
962
964
959
961
959
959
960
964
966
964
963
964
966
971
974
976
977
982
987
993
1002
1001
1004
1005
1009
1009
1008
1006
1004
1005
1007
1007
1004
998
991
986
980
985
983
989
980
979
979
982
986
980
979
980
981
987
988
992
990
993
1001
1009
1024
1042
1069
1103
1137
1159
1173
1174
1165
1148
1121
1084
1035
990
963
957
962
968
969
966
960
959
961
963
963
960
956
955
957
961
961
960
958
956
957
960
960
958
956
955
955
956
958
954
955
953
955
959
961
960
957
957
960
964
964
963
959
