874
880
875
873
880
889
904
909
906
904
900
899
905
909
923
932
927
917
906
898
891
892
898
908
918
923
919
915
912
913
916
914
914
917
919
926
934
934
933
934
940
939
936
925
918
916
919
923
925
928
927
930
934
938
942
945
938
936
940
942
949
949
946
947
942
948
959
965
960
957
955
957
963
965
960
954
948
945
948
945
943
947
950
944
943
944
946
949
953
955
956
955
949
950
947
948
949
949
949
949
950
955
955
958
957
954
955
955
955
956
946
943
941
945
953
951
948
941
944
947
950
947
947
948
948
953
959
958
955
950
949
948
955
955
954
952
952
955
956
957
955
953
953
953
958
958
956
954
953
958
960
958
952
953
949
955
956
957
957
952
955
960
959
955
952
955
959
958
958
957
955
956
957
959
959
957
955
948
948
950
957
957
954
952
954
955
959
955
952
950
954
957
963
968
965
965
965
969
973
978
980
989
999
1010
1015
1012
1010
1010
1008
1010
1010
1007
997
993
984
981
981
978
968
962
955
957
958
954
951
947
950
952
957
956
948
947
945
944
948
952
962
988
1040
1118
1198
1260
1295
1314
1318
1310
1278
1215
1115
1007
909
862
873
902
918
916
917
922
933
939
940
940
940
944
944
943
940
939
941
945
946
948
947
943
943
948
951
949
945
943
941
938
944
947
946
947
947
950
955
957
955
955
959
965
965
963
968
967
966
966
973
976
976
974
971
976
983
984
981
982
985
993
998
1000
999
1001
1003
1009
1013
1019
1021
1018
1023
1030
1036
1041
1043
1044
1048
1049
1052
1053
1050
1048
1049
1053
1053
1051
1051
1063
1073
1074
1066
1060
1054
1050
1047
1047
1048
1046
1037
1023
1013
1012
1020
1026
1022
1014
1006
1001
995
1005
1010
1010
1008
1006
1003
1002
999
995
992
990
988
986
986
986
987
997
999
999
996
996
997
1002
1005
1007
1005
1001
1000
1003
1014
1023
1026
1028
1030
1034
1038
1045
1057
1073
1090
1114
1131
1147
1159
1174
1191
1209
1232
1253
1277
1304
1342
1387
1427
1447
1446
1427
1393
1328
1239
1134
1056
1018
1023
1039
1048
1043
1036
1035
1033
1030
1026
1022
1015
1006
994
987
985
978
964
952
943
945
941
934
924
916
918
925
924
920
914
909
909
908
907
893
891
897
909
919
918
905
899
898
895
893
891
887
882
880
876
874
879
876
867
863
861
860
862
858
853
851
852
852
858
853
852
847
846
852
860
860
861
866
872
876
888
898
907
908
905
905
916
919
919
915
920
927
928
932
933
933
935
940
945
947
946
943
943
946
953
954
951
949
951
959
962
961
958
959
962
965
969
972
970
971
975
979
979
978
978
974
978
988
994
993
991
989
990
995
1001
999
996
994
995
993
996
999
1001
1000
1000
1003
1007
1008
1007
1004
1004
1005
1012
1008
1005
1004
1003
1002
1008
1009
1006
999
996
997
999
995
993
991
991
989
993
990
989
985
986
988
988
989
989
986
985
984
988
985
983
981
979
983
987
988
984
977
979
981
984
980
977
976
977
980
984
981
980
980
979
981
980
981
977
974
976
978
980
979
981
978
975
976
979
980
979
975
972
976
980
979
969
967
968
972
974
973
973
974
974
973
975
973
973
973
970
973
974
973
974
974
973
975
974
975
976
970
971
976
977
977
975
974
970
970
976
975
973
971
972
976
978
980
985
985
988
990
996
1001
1003
996
1001
1016
1025
1031
1033
1031
1032
1033
1034
1033
1033
1030
1023
1019
1017
1012
1007
997
992
988
988
988
985
981
981
983
986
988
984
982
981
981
975
969
967
975
1002
1052
1126
1211
1279
1314
1329
1336
1327
1284
1208
1104
991
905
883
908
935
942
943
947
957
963
967
965
970
969
974
971
972
969
970
970
971
974
971
968
969
969
972
974
971
970
967
966
969
973
971
971
968
973
974
974
971
968
971
973
978
978
979
980
978
982
989
991
992
987
991
993
1001
1004
1002
1004
1008
1013
1023
1027
1027
1023
1028
1036
1041
1046
1051
1055
1056
1057
1059
1061
1064
1068
1068
1076
1081
1083
1089
1091
1091
1097
1099
1097
1093
1088
1089
1092
1095
1092
1086
1079
1077
1077
1074
1067
1062
1058
1050
1046
1044
1040
1035
1028
1025
1023
1026
1025
1022
1014
1005
1005
1006
1004
997
998
998
996
998
996
992
987
987
992
997
993
989
982
982
985
990
988
987
986
989
995
999
1000
1000
1002
1008
1016
1027
1037
1053
1078
1103
1131
1154
1177
1203
1232
1263
1298
1330
1359
1382
1402
1407
1400
1383
1356
1316
1254
1162
1054
962
915
908
932
961
975
978
979
978
980
982
991
1000
1006
1004
1003
1000
999
1003
1003
999
995
992
992
990
981
969
959
957
949
943
933
926
921
920
919
919
915
904
893
891
898
909
914
910
902
896
895
894
891
887
877
868
871
876
875
875
872
865
864
864
864
865
873
882
888
893
890
887
894
913
924
923
925
930
936
942
946
951
953
956
954
954
953
957
961
957
951
950
954
957
959
957
951
955
954
959
958
967
969
970
970
967
964
960
961
958
961
962
967
971
967
970
966
974
975
980
980
981
982
981
978
980
981
986
988
990
992
992
992
991
995
998
999
998
994
993
994
997
996
996
992
989
990
994
995
993
994
995
997
995
996
990
988
987
987
990
988
985
983
983
989
990
988
985
982
977
979
979
978
977
974
974
976
976
973
973
970
971
971
968
972
970
966
966
971
967
969
970
967
966
967
971
972
970
966
965
969
971
974
967
964
963
967
969
969
965
961
960
962
967
967
966
964
960
961
964
967
966
961
960
961
963
964
962
960
961
965
966
965
964
962
962
966
966
961
962
960
962
965
965
963
962
958
961
963
964
963
962
957
959
960
964
959
964
961
960
961
959
958
951
954
957
959
960
961
963
960
958
960
963
965
966
962
966
970
974
977
979
979
983
993
1009
1016
1017
1015
1010
1010
1011
1011
1009
1010
1005
995
989
982
972
967
965
960
960
956
952
947
945
949
953
950
946
944
945
943
943
939
933
935
950
987
1051
1132
1210
1265
1296
1313
1318
1297
1247
1171
1061
954
881
859
881
910
920
918
923
925
924
924
927
934
934
932
931
928
928
934
938
942
936
930
930
936
944
938
928
927
934
942
942
941
936
936
935
936
940
945
947
941
940
943
946
948
946
946
948
954
958
959
959
959
963
967
971
971
973
969
974
974
984
986
987
988
991
998
1004
1007
1009
1007
1013
1020
1028
1033
1034
1036
1040
1043
1051
1051
1054
1055
1055
1059
1064
1067
1066
1061
1062
1063
1065
1060
1056
1052
1048
1046
1042
1038
1035
1026
1022
1018
1015
1014
1008
1001
1001
998
997
993
984
976
976
975
977
973
967
963
966
967
971
969
965
958
959
961
964
961
960
957
957
958
963
964
965
969
968
975
981
984
984
986
988
996
1008
1020
1034
1053
1074
1099
1120
1140
1163
1185
1210
1243
1279
1314
1348
1379
1402
1419
1416
1395
1358
1286
1190
1084
995
940
923
938
953
963
963
957
954
952
952
954
957
959
958
963
970
976
979
973
965
960
961
963
963
960
957
950
943
937
934
927
920
910
904
900
899
894
886
879
874
874
879
877
870
862
859
858
854
852
847
841
838
838
838
834
830
824
818
819
823
823
823
817
820
824
829
831
831
832
838
846
856
862
861
864
870
879
887
893
896
899
903
910
916
919
922
918
923
927
930
932
933
935
935
939
941
940
945
944
946
946
950
953
953
948
948
950
956
959
959
962
963
965
967
970
968
968
967
974
978
978
974
974
976
977
987
990
985
979
981
981
987
990
991
988
989
988
994
995
990
987
988
992
997
997
994
990
990
994
996
993
989
984
987
994
992
986
985
988
989
989
991
989
985
984
982
986
985
983
978
975
972
977
982
983
981
978
975
978
979
975
976
973
973
975
978
978
976
975
973
973
977
976
974
969
969
970
973
969
967
964
969
973
980
980
974
970
968
970
975
973
972
966
964
965
969
967
966
964
963
965
967
968
963
961
961
961
964
965
964
959
960
962
965
962
960
959
959
960
963
964
961
961
960
963
966
965
965
963
965
966
964
965
965
961
965
964
966
969
967
968
965
968
971
970
967
965
964
969
974
975
972
970
969
974
977
976
974
970
967
968
971
977
973
970
970
972
975
975
974
972
973
970
976
979
977
977
980
981
985
986
988
988
990
996
1001
1006
1011
1022
1034
1042
1044
1043
1039
1033
1031
1031
1034
1034
1027
1018
1011
1004
1003
998
992
983
979
978
979
977
973
969
971
971
974
971
967
963
964
962
959
949
934
926
934
963
1019
1100
1192
1271
1333
1376
1405
1409
1399
1371
1313
1221
1106
980
904
902
933
953
952
946
947
949
952
953
955
954
951
948
948
948
953
953
951
947
945
948
952
952
947
945
945
951
952
953
954
949
949
953
955
956
954
953
953
953
958
957
959
953
958
961
964
966
964
963
966
969
973
973
971
971
974
977
982
985
986
985
987
992
995
1000
1001
1000
1002
1006
1010
1015
1014
1016
1016
1023
1031
1034
1036
1036
1039
1045
1046
1050
1047
1045
1048
1050
1054
1054
1053
1052
1051
1053
1054
1049
1044
1040
1034
1032
1035
1031
1025
1024
1021
1019
1019
1015
1010
1009
1004
1004
1004
999
998
994
990
990
990
989
986
981
981
983
985
982
978
975
976
977
976
980
977
977
977
983
985
985
986
985
984
991
995
998
997
998
999
1003
1008
1011
1017
1023
1035
1054
1071
1088
1101
1116
1138
1164
1188
1216
1242
1265
1291
1314
1328
1321
1298
1268
1238
1220
1198
1166
1121
1061
983
917
872
852
852
865
889
917
935
942
938
940
940
942
940
938
936
934
937
936
936
931
931
923
923
926
927
927
925
925
928
934
938
939
939
940
947
950
955
952
951
947
946
949
953
952
950
945
943
942
944
940
939
938
937
940
941
938
938
935
937
942
947
947
948
949
952
959
964
969
973
974
979
986
994
996
997
999
1002
1008
1013
1017
1017
1017
1018
1022
1024
1024
1023
1020
1020
1020
1018
1016
1012
1008
1005
1004
1007
1002
1001
995
992
991
993
990
985
979
982
983
984
984
982
979
976
980
985
982
983
979
979
980
984
985
984
981
984
989
993
990
988
988
987
988
994
994
994
992
989
995
995
995
998
993
995
995
997
997
995
990
994
996
997
999
994
993
992
993
992
990
988
988
987
983
987
986
982
980
979
978
980
981
973
972
975
975
973
969
969
966
967
972
974
970
966
962
959
964
966
962
961
957
958
954
962
960
958
952
955
954
957
960
955
952
952
955
955
957
953
950
948
949
953
952
952
953
949
953
955
952
949
949
950
951
952
954
952
947
944
946
949
949
951
947
947
950
952
952
947
945
948
947
949
947
946
944
943
944
947
943
943
942
943
943
948
949
949
945
945
946
947
944
942
939
942
942
948
946
945
946
944
947
949
950
946
944
943
942
944
945
943
941
943
942
947
948
947
944
941
945
947
947
945
941
943
945
947
947
944
940
940
944
947
946
945
941
942
947
948
950
949
948
947
949
948
946
943
942
941
948
954
957
958
961
963
967
972
974
978
980
990
1002
1013
1012
1012
1006
1007
1009
1010
1013
1007
994
987
983
979
973
968
960
957
953
953
949
948
944
946
947
947
948
945
938
938
931
924
917
915
929
965
1029
1111
1199
1268
1315
1348
1369
1372
1347
1298
1211
1096
973
888
869
895
913
921
919
924
926
927
927
928
927
929
929
928
924
923
924
930
929
926
923
920
923
928
925
927
924
920
925
928
924
925
922
925
927
930
933
932
930
928
931
935
937
936
932
934
937
942
943
944
941
944
944
950
951
956
954
956
956
963
968
967
969
967
974
981
982
984
985
986
989
993
1000
1003
1004
1006
1010
1013
1017
1014
1014
1019
1024
1025
1026
1024
1022
1024
1025
1027
1026
1023
1021
1021
1020
1023
1020
1018
1012
1009
1010
1010
1011
1008
1003
999
1003
1004
1004
1003
998
998
1002
995
987
972
962
957
957
954
950
945
941
941
945
951
954
954
953
951
957
961
962
960
959
960
964
969
972
970
967
966
969
973
973
970
970
973
980
985
995
998
1001
1011
1032
1065
1090
1096
1081
1062
1052
1062
1082
1103
1122
1145
1168
1186
1183
1158
1123
1084
1046
1001
937
856
774
700
662
667
696
738
784
823
856
874
891
903
910
921
932
939
940
939
937
936
938
938
937
935
935
937
939
943
942
948
951
949
952
955
964
970
974
974
975
975
975
976
975
974
971
973
971
971
967
962
962
967
971
976
974
976
981
988
986
988
989
995
1000
1011
1019
1026
1032
1037
1045
1057
1061
1070
1072
1080
1088
1101
1107
1110
1108
1112
1117
1125
1122
1118
1113
1114
1116
1115
1107
1097
1091
1090
1087
1081
1075
1066
1056
1050
1045
1036
1026
1018
1012
1010
1010
1009
1007
999
994
989
988
990
993
991
986
982
980
983
987
986
982
984
988
991
989
983
980
980
983
985
983
984
982
983
983
982
984
982
979
976
982
986
991
993
986
979
976
974
975
977
972
972
970
972
970
968
967
967
968
968
966
962
958
956
959
954
948
948
945
946
947
945
943
943
945
943
950
952
952
951
946
947
948
949
945
941
940
939
937
936
935
929
925
924
930
934
936
932
924
925
928
935
933
930
930
932
936
938
936
933
930
930
935
939
937
935
933
937
939
937
934
936
932
925
916
910
906
909
910
916
921
924
926
923
918
917
920
926
928
929
927
923
926
926
926
924
921
921
923
928
924
925
921
923
925
932
935
934
932
926
921
919
918
920
919
916
918
925
924
924
920
923
925
927
930
927
924
925
926
931
931
931
928
928
932
936
934
932
931
934
942
948
953
954
955
960
967
978
987
993
993
994
992
995
992
990
986
985
979
968
959
952
941
937
934
931
929
927
922
922
924
926
930
928
926
928
926
919
906
894
893
918
975
1062
1161
1250
1305
1341
1359
1351
1313
1231
1116
988
890
864
885
907
905
898
898
905
912
910
908
906
909
911
912
910
907
909
915
914
917
915
910
908
911
914
914
911
909
908
913
912
911
910
910
915
919
920
922
920
923
923
926
930
933
927
921
919
920
925
932
934
931
931
934
936
938
937
940
941
947
951
958
960
960
961
966
970
972
974
978
978
983
987
990
991
995
996
999
1002
1003
1004
1002
1002
1005
1005
1004
1004
1001
1000
1003
1002
1000
998
995
994
993
992
989
984
981
978
975
977
978
977
968
968
968
970
970
963
960
959
960
960
960
957
955
955
958
962
963
961
959
961
963
967
969
968
966
966
969
975
978
977
976
973
975
977
981
982
984
983
982
985
988
987
990
993
999
1006
1013
1024
1036
1049
1060
1074
1083
1095
1107
1111
1105
1073
1022
956
890
833
792
757
703
655
625
621
653
683
713
729
735
737
741
751
766
773
776
785
801
820
833
850
868
887
904
916
924
931
939
946
951
959
966
969
971
967
971
969
968
965
960
960
960
962
967
972
970
971
974
982
985
984
986
988
997
1007
1018
1022
1022
1023
1029
1037
1038
1045
1050
1063
1075
1084
1095
1101
1107
1113
1122
1133
1139
1146
1147
1152
1157
1166
1171
1169
1167
1165
1169
1170
1165
1164
1157
1157
1155
1148
1137
1129
1117
1107
1101
1095
1092
1090
1081
1071
1058
1047
1040
1031
1026
1018
1014
1015
1011
1005
999
1001
999
1002
1000
997
991
992
992
994
992
987
982
980
981
986
982
979
977
980
978
981
985
981
978
977
976
977
975
974
969
967
969
969
970
966
960
961
959
962
962
957
952
949
951
952
952
949
944
941
943
945
945
942
935
932
938
940
939
936
934
927
929
929
925
927
926
925
925
929
928
926
923
923
924
924
918
917
917
916
920
923
922
923
919
921
923
921
919
912
909
908
915
922
918
916
915
913
914
918
920
920
916
914
917
920
921
919
915
916
916
917
917
914
914
912
914
916
921
920
918
917
921
924
923
917
914
908
909
912
915
917
917
916
920
921
922
924
922
923
922
922
918
912
914
916
917
919
921
923
923
923
921
923
924
920
924
929
933
935
934
935
932
928
926
923
919
918
923
930
934
938
940
942
945
947
952
957
969
979
988
995
994
994
993
995
999
1001
999
1000
989
979
969
960
953
948
948
944
939
936
938
938
940
938
936
936
939
938
935
926
911
910
930
966
1027
1112
1201
1282
1334
1361
1366
1347
1291
1196
1077
955
870
854
881
907
914
914
917
921
922
926
926
926
927
924
918
923
923
930
930
931
927
924
922
923
923
929
924
920
925
927
929
927
927
927
934
937
935
934
933
934
938
941
944
942
941
945
950
954
949
941
936
940
952
962
963
957
956
956
960
967
971
973
974
974
978
985
990
992
994
995
998
1007
1011
1009
1002
1003
1011
1018
1019
1018
1015
1012
1011
1013
1018
1018
1013
1011
1012
1018
1018
1018
1014
1012
1012
1011
1003
996
987
984
984
983
983
981
977
975
976
981
984
983
980
972
967
964
968
972
974
969
968
971
972
972
971
970
976
979
978
978
973
974
979
984
989
983
981
985
987
991
992
990
988
989
995
997
1000
1000
998
1000
1002
1005
1004
1003
1003
1005
1009
1013
1012
1013
1018
1018
1015
1006
1010
1009
1008
1015
1014
1012
996
970
940
914
906
909
917
914
899
891
888
887
888
893
906
925
951
983
1014
1046
1072
1096
1102
1099
1082
1062
1038
1018
998
984
979
977
976
988
992
988
979
976
971
971
971
971
968
961
952
948
946
945
938
931
932
934
938
943
943
943
942
942
944
950
949
953
955
959
956
964
965
963
965
972
979
989
990
995
996
998
1001
