968
967
965
966
968
970
973
972
971
969
973
976
975
970
966
962
966
963
967
966
965
963
964
968
969
972
971
969
974
982
980
976
972
969
974
975
974
973
973
969
974
975
975
974
971
972
978
978
975
971
969
969
972
976
979
977
975
976
979
983
986
984
981
982
987
992
995
987
986
985
991
1000
1007
1006
1005
1003
1008
1019
1026
1028
1026
1022
1025
1029
1032
1030
1024
1020
1018
1018
1014
1010
1005
1001
1000
1001
999
994
995
994
998
998
1000
999
996
998
999
996
992
991
998
1020
1053
1099
1150
1199
1237
1261
1278
1283
1272
1243
1195
1138
1074
1025
999
997
996
995
992
990
991
991
984
979
978
979
977
974
971
967
969
971
972
969
965
964
963
967
970
970
967
968
967
965
966
965
965
967
967
969
969
971
970
971
972
976
975
977
981
984
987
989
984
977
971
971
974
979
983
984
983
984
990
995
999
1002
1001
1007
1008
1017
1017
1018
1016
1017
1020
1024
1028
1031
1031
1033
1036
1039
1045
1050
1052
1055
1059
1064
1067
1070
1070
1072
1079
1084
1088
1084
1079
1079
1079
1085
1087
1087
1083
1078
1076
1075
1071
1071
1064
1065
1066
1065
1065
1060
1055
1049
1044
1045
1042
1040
1035
1034
1033
1032
1034
1027
1018
1013
1017
1016
1016
1012
1010
1009
1006
1012
1012
1008
1005
1002
1006
1008
1008
1008
1003
1005
1006
1011
1011
1010
1008
1010
1012
1016
1015
1013
1011
1014
1020
1024
1026
1027
1030
1036
1047
1057
1059
1060
1064
1069
1077
1087
1094
1100
1106
1111
1112
1112
1100
1083
1054
1028
1001
976
949
925
897
876
857
847
844
843
844
844
842
845
843
838
834
832
840
852
864
875
885
896
910
924
930
934
933
935
943
946
950
953
954
958
963
967
966
967
966
967
974
979
984
985
985
988
992
995
998
1002
1003
1005
1008
1013
1009
1008
1008
1004
1005
1010
1013
1015
1015
1019
1025
1038
1044
1046
1048
1050
1061
1065
1074
1077
1081
1087
1096
1105
1113
1112
1114
1119
1125
1133
1140
1142
1141
1139
1141
1143
1146
1146
1142
1140
1142
1143
1141
1136
1126
1121
1118
1121
1115
1106
1099
1092
1091
1087
1085
1078
1068
1063
1064
1062
1059
1053
1044
1046
1042
1042
1036
1029
1026
1021
1022
1026
1024
1020
1014
1013
1015
1015
1015
1011
1009
1009
1010
1014
1018
1020
1016
1009
1001
999
997
997
996
995
998
1005
1005
1002
1001
1000
999
1001
1000
998
994
992
991
991
994
991
990
985
987
988
989
985
982
978
979
979
980
978
975
974
977
975
972
968
965
966
966
970
967
964
964
965
965
967
964
963
960
961
955
959
956
957
950
951
950
953
952
952
949
950
952
954
959
956
955
952
950
947
947
945
943
939
939
943
942
940
940
940
943
945
947
948
944
943
944
947
948
947
942
944
946
949
950
946
943
940
942
945
945
941
937
935
941
946
947
945
943
945
947
948
947
945
942
943
945
945
946
945
939
935
935
941
942
940
938
936
939
944
946
946
945
943
949
953
952
946
940
936
938
943
943
938
938
940
941
946
946
944
940
942
945
946
945
946
946
942
949
950
954
951
950
949
949
953
952
951
953
951
952
954
950
948
946
946
947
953
954
951
950
948
952
954
955
955
950
952
954
956
955
956
953
952
954
959
960
958
954
958
965
968
970
962
956
951
950
953
956
955
951
953
955
954
955
954
953
954
956
957
960
960
958
961
965
967
964
959
954
955
956
959
959
958
954
955
961
963
963
959
956
962
964
966
967
962
957
958
965
970
972
972
969
972
972
976
978
977
976
978
981
992
997
996
998
1006
1015
1022
1025
1022
1014
1009
1003
1004
1005
1002
997
995
989
994
994
993
989
982
980
980
979
980
977
976
978
981
982
985
983
984
987
989
995
1008
1029
1063
1110
1161
1210
1242
1258
1264
1263
1245
1211
1157
1087
1027
988
985
987
985
975
970
970
970
970
967
965
964
965
971
967
967
966
963
965
965
966
962
964
964
966
966
965
960
955
956
957
960
965
966
963
962
966
967
969
968
967
967
967
971
972
975
977
979
981
987
989
988
984
983
984
986
985
980
978
980
986
994
998
997
996
997
1002
1004
1006
1009
1012
1014
1020
1022
1028
1028
1026
1031
1035
1039
1041
1041
1044
1044
1051
1056
1061
1063
1060
1063
1065
1069
1069
1067
1067
1067
1068
1073
1072
1071
1068
1066
1067
1065
1063
1059
1053
1053
1054
1052
1050
1047
1041
1037
1038
1038
1037
1029
1030
1025
1024
1024
1026
1021
1015
1014
1015
1016
1022
1019
1013
1011
1012
1013
1012
1009
1002
1002
1005
1009
1009
1008
1004
1004
1005
1011
1012
1010
1010
1010
1015
1016
1019
1017
1015
1016
1018
1022
1026
1026
1024
1024
1029
1033
1036
1037
1038
1044
1053
1056
1063
1064
1066
1068
1081
1089
1092
1089
1077
1060
1036
1010
981
958
920
891
862
832
808
790
781
787
795
808
817
824
823
824
828
833
836
841
849
860
872
884
893
899
906
914
923
930
936
941
942
947
952
957
962
964
963
968
976
981
985
988
989
992
994
999
1001
1002
1002
1005
1008
1014
1018
1022
1017
1013
1023
1029
1031
1035
1034
1037
1040
1045
1048
1049
1050
1048
1054
1059
1068
1073
1074
1078
1085
1095
1102
1110
1114
1120
1128
1139
1149
1156
1160
1166
1170
1178
1179
1181
1183
1190
1192
1197
1198
1196
1196
1198
1198
1201
1201
1196
1193
1187
1183
1180
1181
1176
1169
1161
1157
1148
1143
1134
1129
1125
1122
1117
1113
1106
1095
1092
1089
1086
1082
1073
1067
1064
1062
1061
1061
1055
1049
1043
1040
1035
1031
1030
1022
1022
1020
1021
1021
1020
1017
1014
1018
1023
1022
1021
1018
1016
1017
1019
1022
1019
1017
1015
1016
1019
1017
1017
1013
1015
1017
1019
1021
1015
1010
1006
1005
1007
1009
1005
1001
1001
1001
1002
1000
997
991
992
994
995
996
994
987
985
989
990
992
989
982
982
982
985
987
983
979
975
981
979
982
980
976
972
973
972
976
973
972
970
971
976
975
972
966
964
965
968
966
966
961
958
961
964
964
961
959
954
957
962
958
958
955
954
951
954
957
958
954
953
952
956
955
956
954
952
952
954
955
955
952
952
949
954
955
956
951
953
952
954
958
957
955
952
952
954
958
956
949
946
948
952
955
954
952
948
950
953
951
953
952
950
952
953
953
950
948
948
949
950
957
952
953
952
953
955
955
954
948
950
951
952
953
950
950
948
951
952
956
954
954
952
951
956
958
955
952
953
954
958
957
956
951
951
953
957
957
955
947
948
950
953
954
955
951
951
949
953
957
957
956
953
955
957
953
954
954
954
957
959
958
958
955
955
954
957
960
962
959
954
958
961
961
962
959
957
959
959
960
961
959
958
960
959
963
962
960
963
964
966
970
970
966
963
962
960
959
957
957
958
957
960
962
960
955
952
957
962
964
962
961
958
961
965
971
969
967
966
966
967
971
969
970
969
972
974
978
977
981
983
988
993
997
1002
1004
1010
1014
1021
1026
1023
1022
1022
1021
1023
1021
1021
1014
1006
1005
1002
1000
998
992
987
985
984
984
982
980
976
977
974
975
976
975
975
978
978
977
971
967
971
984
1005
1039
1079
1124
1170
1213
1247
1270
1278
1272
1253
1221
1173
1117
1048
996
973
975
980
982
977
971
968
968
971
969
964
960
956
954
959
961
957
956
952
952
949
950
946
943
944
946
951
951
947
945
943
946
951
952
951
947
947
950
951
955
957
956
953
952
956
956
953
948
947
951
954
957
958
956
956
958
960
966
966
966
966
966
970
975
974
974
976
979
982
988
990
988
993
994
996
1004
1006
1008
1010
1011
1020
1021
1025
1024
1023
1029
1036
1038
1038
1043
1040
1047
1049
1051
1050
1053
1056
1061
1063
1062
1059
1057
1058
1059
1059
1060
1057
1055
1054
1054
1054
1050
1047
1044
1041
1043
1041
1038
1036
1025
1022
1022
1019
1022
1016
1014
1009
1012
1011
1010
1000
998
993
991
990
988
987
982
982
981
986
987
985
982
980
980
984
988
986
982
981
980
985
987
988
986
983
987
988
991
990
989
990
993
996
999
999
998
998
1001
1007
1010
1013
1017
1025
1035
1045
1055
1064
1074
1083
1097
1111
1122
1128
1129
1118
1098
1075
1044
1014
990
968
950
925
899
874
852
841
836
832
829
819
814
807
806
809
815
822
832
848
863
876
886
893
897
898
901
904
910
910
909
909
912
917
920
923
924
927
935
939
941
939
943
939
944
947
953
954
949
947
953
957
960
960
957
958
962
967
969
968
970
971
972
976
983
984
984
986
990
994
999
1000
1002
1002
1008
1011
1020
1021
1024
1027
1034
1044
1051
1053
1054
1059
1064
1071
1073
1079
1079
1080
1083
1087
1090
1091
1088
1084
1083
1088
1084
1082
1078
1073
1069
1069
1067
1062
1054
1048
1045
1043
1042
1037
1029
1026
1022
1021
1023
1018
1009
1008
1002
1002
1001
997
991
989
986
983
981
977
973
973
972
973
973
977
971
964
959
956
960
961
957
957
957
958
962
962
958
960
960
965
966
963
963
963
963
966
967
962
960
961
962
966
966
967
963
960
958
959
959
957
954
954
953
954
958
956
954
948
946
949
950
950
945
940
942
945
947
942
942
939
940
941
940
939
935
934
932
936
938
933
935
931
930
932
931
931
928
929
931
933
934
930
927
924
925
932
935
936
932
933
931
933
936
935
932
929
931
933
936
933
929
927
929
930
932
932
930
927
926
928
931
930
926
924
923
927
927
930
928
927
928
929
929
929
923
923
921
925
929
928
924
923
926
929
932
932
930
929
932
934
932
925
924
925
924
926
926
927
928
927
926
928
931
929
927
927
931
934
937
935
931
933
934
936
936
933
930
928
928
933
938
936
932
932
932
936
938
934
936
934
933
936
936
936
935
934
936
940
944
943
944
941
943
942
947
946
938
938
941
945
945
946
947
945
945
946
945
941
943
940
946
949
953
952
946
941
939
945
947
946
945
945
945
950
952
950
951
948
948
953
955
954
951
952
952
953
960
960
956
953
954
956
960
960
958
955
957
960
962
965
961
960
965
973
975
980
977
982
984
988
992
997
1002
1008
1010
1017
1020
1018
1017
1016
1015
1014
1007
1001
992
987
985
984
983
977
973
973
974
974
978
977
978
977
978
981
983
982
979
989
1009
1042
1091
1154
1210
1249
1277
1290
1288
1264
1224
1161
1086
1017
977
964
967
970
965
966
969
967
964
963
963
963
962
961
957
958
956
958
960
959
956
952
953
955
962
956
953
954
954
957
961
960
958
956
958
961
962
961
958
960
961
965
968
967
964
966
965
967
970
974
971
971
974
977
982
979
981
980
985
989
992
992
994
995
999
1002
1004
1007
1006
1011
1017
1019
1026
1026
1028
1029
1033
1038
1044
1045
1046
1047
1049
1056
1060
1060
1058
1058
1062
1065
1070
1067
1065
1063
1065
1066
1066
1063
1058
1054
1057
1057
1057
1055
1045
1043
1042
1043
1040
1036
1031
1027
1024
1023
1024
1021
1015
1010
1009
1008
1010
1004
1001
998
1000
999
1000
998
997
996
996
1000
1001
995
995
996
996
999
1003
1002
1000
996
997
1004
1006
1009
1006
1007
1010
1013
1019
1020
1016
1017
1019
1023
1028
1032
1033
1036
1044
1055
1065
1076
1088
1096
1117
1138
1159
1179
1196
1214
1229
1235
1233
1224
1208
1196
1187
1172
1150
1116
1069
1024
990
970
955
943
928
915
914
915
919
925
923
924
927
933
934
934
930
924
924
923
924
922
919
915
917
920
919
919
914
915
920
924
929
931
930
932
935
939
942
943
942
938
937
932
930
926
924
926
927
929
934
932
928
925
928
931
934
934
934
936
939
944
946
945
944
947
951
956
964
965
964
971
974
983
990
993
993
995
1000
1006
1011
1013
1011
1011
1012
1016
1020
1021
1018
1015
1013
1017
1017
1014
1010
1003
1001
1002
1001
1000
995
993
992
992
990
983
976
970
969
975
977
968
961
959
961
967
967
964
958
957
959
963
963
961
963
963
963
966
966
966
964
963
964
968
969
971
967
965
971
974
975
973
969
964
967
969
972
972
970
967
970
975
975
976
970
965
962
962
962
962
958
961
960
962
963
960
956
957
959
960
963
962
959
957
958
959
960
956
954
948
951
951
951
950
947
949
951
950
950
949
948
948
948
949
953
950
946
948
946
947
949
953
948
948
946
947
948
947
943
941
942
945
944
945
943
943
942
945
948
949
941
937
942
944
945
946
943
942
945
948
947
944
940
938
939
944
946
941
940
942
944
942
947
946
943
941
942
944
947
947
944
941
944
947
947
948
944
943
944
945
947
944
945
944
948
947
949
947
946
944
945
947
948
948
948
945
948
951
952
950
948
945
944
950
953
951
949
948
950
951
953
951
948
948
948
950
953
953
952
947
946
950
954
952
951
945
950
954
957
955
952
951
951
951
955
956
953
952
953
956
956
955
953
953
954
956
959
958
955
954
956
957
960
961
959
955
957
961
966
962
959
956
956
957
959
959
956
954
954
957
960
961
958
958
958
961
963
961
959
959
961
966
964
965
963
961
962
970
975
975
975
976
982
987
995
1000
1004
1012
1018
1024
1025
1026
1021
1021
1022
1020
1018
1008
998
995
993
988
990
985
976
973
973
975
977
975
974
973
973
976
977
971
966
965
970
986
1016
1060
1115
1179
1240
1286
1318
1326
1316
1284
1227
1153
1065
990
958
964
970
974
969
964
961
962
960
960
959
954
954
950
953
957
958
954
953
953
950
952
956
954
951
950
949
954
955
954
955
951
950
953
956
956
954
953
954
957
959
960
959
957
958
961
966
966
962
962
968
972
972
967
971
967
973
978
983
984
982
983
986
991
997
998
998
999
1003
1007
1014
1016
1014
1015
1017
1022
1029
1033
1033
1035
1036
1044
1047
1048
1049
1050
1055
1063
1064
1061
1059
1060
1061
1065
1067
1067
1063
1060
1059
1060
1063
1058
1052
1047
1047
1046
1046
1043
1037
1030
1026
1025
1022
1018
1013
1011
1009
1011
1008
1007
1002
1000
999
999
1000
999
995
995
992
997
1000
995
992
992
992
994
996
991
988
985
992
994
995
992
989
991
992
995
997
995
992
993
997
1000
1004
1005
1008
1011
1015
1020
1027
1034
1034
1041
1048
1056
1066
1075
1083
1093
1105
1115
1112
1103
1070
1036
998
959
922
884
846
814
783
761
747
740
744
755
765
775
785
787
785
789
798
811
820
832
838
846
855
874
892
903
911
912
916
924
932
933
936
937
944
948
953
952
948
951
959
968
977
978
981
983
988
992
994
996
995
997
1002
1006
1014
1012
1012
1016
1021
1026
1032
1029
1028
1031
1036
1045
1048
1049
1050
1051
1056
1063
1068
1074
1077
1085
1097
1106
1120
1127
1133
1138
1147
1156
1167
1172
1178
1178
1185
1194
1201
1203
1203
1204
1206
1212
1215
1213
1208
1205
1204
1208
1209
1201
1191
1184
1181
1174
1173
1169
1157
1150
1139
1137
1134
1122
1112
1102
1100
1097
1092
1085
1076
1070
1064
1058
1054
1051
1040
1033
1032
1033
1029
1025
1020
1016
1015
1013
1016
1012
1004
1003
1003
1005
1008
1006
1001
996
997
997
1000
996
989
982
983
988
990
991
986
980
979
985
986
985
988
985
982
982
986
982
977
974
970
971
975
973
967
960
964
966
970
969
968
966
965
964
964
956
953
948
949
953
957
956
953
948
949
945
950
947
940
939
941
941
945
943
938
937
939
940
940
941
939
935
934
939
941
941
936
934
936
939
940
937
936
934
935
935
935
935
933
931
933
937
942
939
937
935
937
943
942
935
928
924
922
928
931
929
924
920
923
927
933
931
930
925
927
928
929
929
930
927
927
930
931
928
924
921
924
930
930
927
927
928
930
935
938
934
931
931
932
933
936
936
935
935
938
938
942
939
934
932
933
935
932
929
928
927
929
932
935
931
928
931
933
934
936
934
931
930
931
934
937
937
936
937
937
935
940
937
934
935
935
941
943
940
936
933
934
938
940
938
936
934
936
940
945
941
938
934
930
933
938
935
939
939
941
942
945
943
941
937
934
938
943
942
939
939
939
942
943
942
940
940
940
943
945
947
942
941
941
944
948
945
944
943
945
947
950
950
947
946
947
950
948
948
946
945
946
950
954
954
952
952
951
957
957
956
955
954
961
966
972
975
972
973
975
987
1004
1015
1015
1014
1010
1008
1008
1008
1008
1003
1000
999
998
992
985
979
977
974
974
966
964
960
961
965
969
966
964
958
958
962
959
958
950
948
940
946
959
982
1020
1073
1149
1222
1280
1315
1338
1347
1335
1309
1258
1179
1086
995
940
929
943
949
945
938
940
944
949
951
946
941
938
940
939
938
938
935
934
940
941
941
938
935
936
941
941
939
942
938
942
942
945
944
943
944
942
946
948
947
943
942
942
943
949
950
948
948
946
950
956
953
951
951
953
956
964
964
963
961
964
966
969
971
970
968
970
973
979
979
979
979
981
986
989
987
986
989
993
1000
1003
1009
1008
1006
1012
1014
1021
1022
1023
1026
1029
1034
1041
1036
1036
1036
1038
1047
1051
1052
1048
1046
1046
1049
1055
1054
1053
1049
1049
1050
1053
1049
1043
1039
1039
1039
1043
1040
1034
1028
1023
1022
1021
1017
1007
999
997
997
1000
998
997
995
992
996
996
995
990
988
989
990
993
992
991
990
994
995
997
996
991
985
985
989
989
988
989
987
993
996
1001
1004
1000
994
994
994
999
1002
1001
998
999
1003
1005
1003
1003
1002
1006
1006
1010
1006
1004
1001
1000
1003
1005
1006
1004
1001
1000
1004
1002
995
988
986
988
990
994
995
990
985
982
983
986
991
987
981
973
971
974
978
980
979
984
982
979
975
968
965
961
963
967
969
966
962
963
964
969
970
967
964
963
965
968
970
970
966
963
959
968
971
970
967
964
963
957
959
959
958
958
963
966
966
964
963
965
964
967
967
967
975
978
975
968
963
960
961
959
957
959
960
964
964
965
966
973
975
974
976
982
988
997
1001
1008
1014
1023
1028
1032
1032
1028
1025
1023
1025
