954
958
957
956
955
954
957
961
960
959
953
954
958
960
961
960
959
958
960
962
967
966
965
967
972
975
978
972
967
968
970
973
982
987
982
979
983
991
995
995
996
993
995
999
1003
1001
1005
1006
1011
1016
1019
1022
1021
1028
1031
1037
1041
1043
1043
1046
1051
1053
1058
1058
1061
1061
1065
1070
1073
1071
1069
1068
1069
1072
1074
1072
1070
1069
1072
1069
1066
1061
1058
1059
1060
1060
1055
1052
1042
1037
1033
1032
1031
1026
1019
1015
1019
1019
1022
1020
1013
1011
1008
1011
1012
1006
1003
1004
1004
1004
1003
1002
1000
1003
1007
1011
1011
1008
1011
1013
1017
1020
1017
1018
1015
1013
1017
1023
1027
1026
1023
1023
1029
1032
1037
1038
1039
1042
1049
1059
1065
1076
1090
1109
1126
1145
1160
1172
1184
1201
1217
1240
1264
1285
1313
1340
1371
1397
1417
1434
1442
1453
1462
1475
1471
1454
1430
1390
1343
1277
1179
1073
1005
984
988
991
988
980
965
954
945
941
933
926
916
912
909
909
913
906
899
899
900
906
906
899
891
884
876
876
877
879
880
884
889
893
894
892
889
887
892
896
898
898
897
895
894
891
884
878
869
871
871
873
865
865
863
864
855
855
854
848
846
845
851
851
850
847
842
842
845
850
853
855
859
864
869
874
878
881
882
884
890
895
902
906
906
908
914
920
923
925
927
930
931
937
942
940
938
935
937
942
947
944
944
940
943
950
954
954
952
951
953
956
956
958
957
957
958
960
962
954
953
956
964
966
970
966
966
968
971
975
971
971
968
969
976
983
984
982
982
986
990
992
989
990
988
987
988
991
994
991
988
991
994
994
996
992
991
988
989
992
988
989
985
983
986
988
992
992
990
987
986
990
988
985
985
983
985
985
985
983
979
976
979
979
980
978
975
971
975
976
974
972
969
967
972
978
981
979
971
969
969
970
971
969
972
974
977
978
979
975
975
972
973
974
974
973
972
973
974
973
974
974
973
974
974
977
980
982
980
977
975
975
975
966
960
961
965
967
968
969
968
969
973
975
975
976
973
974
972
975
977
975
971
972
973
974
977
976
973
974
979
981
979
977
975
974
983
986
990
985
979
974
976
981
982
985
982
983
983
983
984
987
984
987
989
991
988
983
980
981
984
986
988
986
979
980
982
985
987
989
989
993
996
998
996
991
989
988
988
994
993
990
984
984
998
1016
1026
1021
1009
989
979
978
985
991
994
995
1002
1008
1015
1019
1015
1005
992
982
983
987
990
992
993
992
995
1002
1007
1013
1022
1028
1023
1009
998
991
993
1001
1008
1010
1007
1005
1014
1021
1021
1016
1004
996
995
999
1004
1007
1004
1005
1002
1005
1008
1010
1010
1011
1017
1021
1025
1025
1029
1032
1038
1044
1048
1054
1059
1069
1079
1084
1085
1084
1084
1085
1087
1087
1079
1066
1055
1046
1043
1040
1038
1034
1027
1018
1014
1014
1018
1019
1016
1012
1008
1002
1000
1000
1000
993
995
993
1002
1021
1057
1126
1213
1290
1350
1382
1402
1408
1400
1368
1295
1185
1057
945
909
936
970
980
976
971
978
985
990
989
985
986
986
990
992
992
991
988
987
990
989
992
991
990
989
990
987
988
988
986
984
984
981
983
986
987
993
997
1001
998
995
993
991
994
997
1000
1007
1010
1014
1014
1009
1007
1007
1012
1020
1027
1024
1021
1012
1006
1011
1022
1023
1025
1025
1031
1040
1048
1056
1058
1061
1064
1071
1076
1079
1079
1073
1073
1078
1086
1091
1093
1095
1098
1105
1109
1108
1109
1104
1101
1100
1106
1111
1115
1117
1113
1105
1101
1097
1091
1084
1075
1070
1071
1072
1065
1060
1058
1053
1049
1048
1041
1037
1032
1032
1033
1030
1025
1019
1014
1016
1016
1017
1012
1009
1005
1007
1009
1009
1007
999
998
1004
1008
1009
1006
1004
1003
1004
1009
1011
1009
1008
1010
1015
1015
1008
1005
1000
1001
1005
1011
1015
1016
1014
1014
1021
1027
1035
1041
1051
1064
1082
1104
1119
1131
1143
1156
1171
1189
1202
1215
1228
1244
1267
1293
1321
1352
1372
1388
1402
1417
1431
1444
1449
1449
1454
1450
1430
1403
1351
1260
1142
1044
999
987
981
965
946
932
925
920
910
899
891
891
889
892
885
872
864
855
849
846
847
849
851
857
855
852
848
848
852
856
860
858
858
856
856
864
867
867
866
865
867
868
859
848
838
831
833
832
833
832
828
823
821
819
820
815
815
810
810
814
813
810
808
802
800
801
802
804
803
810
816
817
814
806
810
815
827
838
844
842
843
849
856
866
876
884
885
889
894
902
912
919
917
906
897
897
904
916
925
931
930
930
929
925
925
931
937
942
933
916
905
908
923
934
931
927
918
917
922
932
941
947
952
951
952
955
961
966
962
948
940
938
944
950
957
961
968
970
972
970
971
973
970
967
965
963
965
969
976
981
980
968
965
967
974
976
979
973
970
969
974
977
976
973
968
969
970
974
976
977
975
973
972
969
972
975
978
979
972
963
958
955
950
948
949
955
958
955
960
960
964
963
966
965
960
959
961
965
970
970
969
970
972
973
972
960
953
946
948
954
958
958
955
956
955
957
953
952
953
953
959
959
964
962
961
958
961
963
964
962
960
961
969
969
968
970
969
968
971
972
973
973
973
972
973
974
977
974
971
975
975
978
980
980
979
972
976
978
979
975
971
969
974
977
979
980
979
980
980
978
979
978
978
975
975
973
979
978
975
974
976
978
981
978
976
976
979
980
980
976
974
971
972
977
977
976
973
979
983
988
984
980
972
965
962
967
971
971
971
970
973
974
974
975
972
971
978
985
987
989
987
983
981
977
977
977
976
975
974
974
972
970
968
969
973
978
987
988
988
991
998
1003
1005
1010
1013
1023
1037
1048
1052
1051
1049
1047
1046
1053
1056
1053
1046
1036
1030
1024
1022
1011
1007
1003
996
996
989
991
986
986
986
987
990
989
986
986
984
981
977
981
995
1036
1101
1183
1270
1338
1378
1404
1414
1407
1374
1299
1192
1064
940
887
901
942
959
962
962
967
974
974
966
962
964
965
963
966
963
961
963
964
966
967
962
959
962
965
971
968
968
970
974
976
975
973
973
977
977
978
980
978
977
979
984
986
984
982
980
981
992
995
996
993
988
988
992
1002
1007
1011
1015
1015
1015
1020
1027
1032
1029
1028
1034
1041
1050
1053
1056
1056
1061
1066
1070
1072
1075
1080
1087
1094
1097
1096
1094
1094
1098
1099
1100
1101
1095
1090
1090
1091
1088
1088
1079
1075
1076
1072
1065
1061
1056
1051
1047
1044
1046
1042
1034
1029
1025
1026
1021
1019
1015
1014
1013
1014
1012
1007
1003
999
999
1000
1001
994
991
990
992
991
992
991
989
988
990
992
997
998
993
987
979
980
987
993
993
993
998
1003
1005
1004
1005
1006
1006
1004
1008
1006
1001
999
1003
1008
1010
1008
1004
1007
1014
1024
1034
1035
1032
1031
1029
1028
1030
1032
1025
1014
994
965
928
889
863
845
833
815
793
779
764
759
765
781
804
832
859
892
929
962
998
1021
1029
1019
1001
979
961
945
934
928
932
936
936
933
926
930
932
936
937
935
932
936
939
950
953
953
948
947
952
953
958
958
955
949
952
959
966
965
966
968
968
972
976
977
971
974
983
989
994
992
993
995
1003
1008
1019
1020
1022
1023
1031
1039
1042
1043
1052
1067
1085
1100
1107
1107
1107
1109
1114
1118
1121
1124
1125
1126
1134
1146
1158
1161
1154
1139
1121
1109
1101
1098
1098
1098
1096
1100
1095
1087
1079
1073
1068
1064
1064
1064
1058
1049
1039
1025
1013
1006
1005
1003
999
997
994
989
980
983
989
993
989
974
962
959
962
967
968
969
967
968
970
977
983
985
979
977
980
982
986
987
980
965
953
955
960
964
962
963
969
974
982
990
996
994
975
947
918
906
914
939
958
970
964
948
932
930
942
957
957
937
919
908
909
919
917
904
883
870
868
882
896
902
903
897
898
894
894
892
891
894
897
900
899
899
900
897
899
895
896
892
890
891
894
901
903
900
896
895
893
893
892
894
890
886
888
892
896
893
890
888
891
895
894
889
881
880
886
893
897
897
893
886
884
888
893
892
884
886
885
889
888
888
890
888
885
892
897
900
894
892
892
894
896
899
898
895
892
896
898
893
884
883
890
898
901
899
897
900
896
894
902
905
902
898
892
894
898
902
900
901
902
905
903
903
908
903
903
904
906
903
899
897
899
900
903
905
900
900
905
915
920
921
917
912
911
908
908
905
901
902
906
911
913
911
909
909
911
921
930
932
934
930
930
934
947
956
956
963
966
970
968
962
957
953
959
964
968
966
956
944
935
930
930
929
925
913
911
913
915
916
914
911
911
914
916
913
907
904
896
892
897
916
955
1026
1123
1212
1284
1334
1368
1379
1360
1317
1233
1112
984
873
840
867
897
907
900
894
900
909
915
915
907
904
904
905
909
911
911
903
898
896
897
893
891
891
893
897
901
902
903
897
897
899
903
903
905
907
911
909
903
897
895
898
903
907
911
911
913
911
915
924
927
922
913
916
920
929
932
932
929
929
936
943
947
950
950
950
953
957
958
958
958
964
973
985
990
989
984
987
1000
1010
1020
1020
1019
1018
1027
1033
1037
1029
1021
1017
1020
1024
1030
1029
1024
1021
1019
1020
1016
1013
999
986
986
986
983
978
979
979
981
972
969
967
960
955
952
950
951
949
945
942
944
948
948
948
939
935
938
944
949
946
939
932
936
935
936
935
941
948
951
952
954
944
934
929
935
941
942
940
943
951
959
965
968
970
968
969
972
978
990
1003
1022
1045
1074
1095
1121
1149
1177
1210
1239
1271
1312
1347
1376
1387
1384
1376
1357
1330
1279
1209
1124
1035
957
914
903
910
913
916
917
917
914
906
903
903
902
898
890
883
882
883
882
879
878
871
869
871
872
872
869
870
870
877
875
875
876
883
890
902
903
892
878
877
878
881
883
883
882
881
882
879
875
865
860
867
875
876
875
871
864
860
857
859
861
862
861
854
857
863
870
874
874
879
885
890
898
897
907
909
911
912
917
919
920
920
925
932
937
940
944
941
934
937
943
944
935
931
936
944
947
942
939
938
943
944
941
934
931
931
933
937
943
942
941
940
939
939
938
938
937
939
941
943
951
953
956
951
947
947
954
957
957
950
955
962
968
969
969
965
970
972
972
970
962
960
964
968
973
975
972
966
963
966
972
978
976
975
972
973
973
968
964
961
960
960
963
968
966
958
953
949
955
959
960
960
960
959
955
952
949
949
953
953
950
950
943
937
940
952
956
954
949
948
954
957
956
954
951
946
945
945
944
946
941
939
940
943
949
951
948
943
944
946
950
956
953
946
941
942
939
938
935
938
943
948
952
948
944
944
949
952
950
946
939
939
941
940
945
956
960
962
960
957
961
963
955
939
928
931
943
948
947
951
963
964
952
939
934
933
931
935
936
940
942
944
947
948
949
945
942
946
949
951
957
962
965
965
964
961
956
954
949
946
948
957
962
959
952
951
956
962
962
959
952
948
948
950
955
957
952
950
955
961
962
960
959
963
964
962
962
961
959
956
956
954
962
963
959
955
961
970
980
983
973
963
956
957
961
963
961
963
965
962
963
965
967
968
971
974
973
968
963
960
962
968
972
973
967
965
970
974
977
976
976
977
982
988
995
999
995
994
999
1009
1021
1028
1031
1031
1035
1040
1042
1040
1040
1036
1030
1019
1005
998
1000
1003
997
992
987
984
981
979
982
986
986
986
979
972
970
972
976
967
955
939
932
944
974
1025
1097
1187
1284
1356
1402
1426
1431
1417
1373
1283
1159
1031
925
904
926
949
950
946
944
950
956
959
962
961
957
955
957
957
960
958
949
946
943
946
955
954
953
952
953
956
962
960
958
953
954
953
954
954
952
952
960
963
968
974
976
973
965
965
968
973
971
964
968
973
978
975
974
976
980
984
982
985
989
991
997
998
1002
1002
1001
997
998
1005
1015
1019
1022
1026
1027
1034
1037
1042
1044
1046
1057
1067
1071
1069
1063
1057
1057
1064
1071
1076
1075
1076
1075
1072
1073
1075
1073
1077
1074
1073
1077
1076
1071
1063
1057
1060
1057
1051
1048
1043
1042
1041
1039
1037
1033
1025
1018
1014
1014
1010
1006
1004
1011
1015
1012
998
987
985
989
991
991
988
981
986
991
996
990
985
984
987
987
993
996
994
993
993
996
1002
1005
1005
1003
1005
1006
1002
1000
999
1001
1005
1013
1021
1036
1054
1066
1081
1099
1119
1137
1154
1166
1183
1203
1225
1251
1277
1299
1325
1355
1391
1424
1451
1461
1460
1452
1436
1409
1365
1303
1236
1172
1113
1046
992
958
948
945
940
939
935
930
930
928
929
924
917
908
901
902
903
902
897
890
888
886
885
885
880
877
874
876
873
874
881
880
877
878
883
883
880
874
876
878
881
881
879
874
869
865
867
873
871
862
854
852
854
858
849
838
834
830
832
834
829
828
828
829
830
825
824
824
824
832
835
835
838
840
849
857
860
864
866
866
866
867
880
887
886
891
892
898
905
915
917
916
915
917
927
931
928
926
926
932
938
944
945
943
942
943
943
946
946
946
948
950
956
957
954
955
953
956
959
963
965
964
964
966
967
967
969
967
967
970
974
978
981
978
974
974
979
985
986
986
988
989
991
988
987
979
979
982
986
994
992
989
991
992
1001
1006
1003
996
993
994
994
993
991
984
984
982
981
985
985
988
987
989
992
991
989
986
985
985
985
988
984
981
980
981
984
986
985
981
977
972
972
977
980
981
979
975
977
976
970
963
959
967
973
973
972
971
971
973
976
975
974
970
965
967
972
968
968
966
969
968
969
972
974
975
971
971
968
970
965
967
972
971
972
967
962
959
964
969
972
970
968
960
962
966
970
972
970
972
969
969
972
972
970
970
968
970
969
967
966
965
969
969
970
967
965
965
963
966
969
972
973
968
962
966
967
970
971
969
966
967
966
973
974
972
968
963
962
965
970
969
965
966
972
975
974
974
972
973
975
973
973
972
973
974
975
976
975
967
961
963
967
972
974
971
969
967
970
975
973
970
966
964
968
969
971
967
967
968
974
981
981
974
971
967
964
970
972
970
969
967
974
970
968
965
960
963
967
974
971
970
972
971
976
979
981
977
974
968
969
975
982
980
978
979
981
985
985
988
987
986
986
988
994
999
998
997
1004
1013
1025
1025
1022
1022
1026
1028
1027
1025
1024
1025
1023
1020
1014
1005
996
993
993
994
989
984
981
980
978
977
973
972
974
975
976
977
976
970
968
972
987
1021
1069
1133
1204
1268
1313
1340
1357
1360
1346
1308
1246
1159
1063
981
944
949
962
970
963
957
956
960
960
961
956
952
950
948
948
945
947
944
945
949
955
957
954
946
947
949
952
951
948
943
942
945
949
952
954
951
945
940
944
949
950
948
948
949
953
956
956
955
955
960
963
959
958
958
961
967
968
969
969
967
964
971
975
978
982
983
982
985
991
993
997
993
995
998
1006
1015
1021
1020
1020
1023
1030
1036
1037
1038
1039
1043
1046
1052
1052
1056
1058
1062
1067
1068
1068
1065
1061
1062
1062
1064
1061
1055
1053
1050
1054
1052
1046
1044
1041
1035
1034
1034
1028
1023
1018
1015
1016
1017
1014
1008
1005
1005
1005
1007
1003
998
992
994
993
997
998
994
987
989
988
987
984
984
983
988
986
987
984
984
984
987
991
991
992
990
988
991
995
999
998
999
1001
1008
1011
1012
1011
1010
1014
1018
1027
1037
1047
1054
1065
1084
1107
1124
1140
1151
1165
1186
1203
1223
1248
1267
1291
1318
1348
1377
1399
1409
1416
1423
1421
1412
1392
1366
1335
1293
1251
1202
1149
1087
1027
989
975
972
964
952
944
936
939
934
934
931
929
926
924
922
917
911
904
902
902
900
895
890
887
887
888
890
891
893
890
892
895
899
897
897
897
895
895
898
896
892
891
889
890
889
885
880
878
879
877
876
871
865
862
860
860
855
853
849
845
847
848
845
843
839
837
843
846
853
848
850
853
858
866
874
876
880
880
885
894
901
902
906
913
919
925
931
933
935
940
948
950
954
958
957
958
958
965
967
967
963
967
970
976
974
974
972
973
975
977
980
976
975
975
976
981
983
982
981
981
982
984
985
985
984
986
988
990
985
987
986
984
985
989
995
995
994
991
987
992
992
993
992
994
993
993
998
997
998
996
996
996
1000
1000
994
992
990
993
992
989
984
983
985
984
990
988
984
982
979
980
984
980
979
971
974
977
976
975
973
968
969
972
971
970
970
965
965
964
961
961
960
957
958
963
962
957
955
955
956
954
960
960
955
952
952
953
956
954
951
950
954
955
957
952
949
945
945
947
951
953
949
945
946
949
951
951
950
946
946
947
948
945
943
941
942
944
947
944
939
944
942
946
949
950
948
943
940
942
944
945
945
944
945
943
942
942
942
939
942
945
944
943
943
941
938
941
943
943
939
936
938
943
945
944
939
938
941
942
943
941
940
940
942
944
946
945
940
937
943
944
948
947
945
940
941
941
943
939
937
936
938
937
941
943
939
937
935
940
942
942
937
935
939
941
944
942
940
941
943
945
949
949
946
941
941
940
942
943
937
937
939
943
942
948
944
941
944
947
949
945
943
943
943
950
950
949
947
943
943
948
950
951
949
952
954
959
964
966
968
968
970
975
981
987
993
998
1001
1003
1004
1003
1000
997
996
994
985
980
975
971
963
964
962
959
956
951
953
955
959
958
959
958
958
963
968
973
984
1009
1055
1112
1173
1218
1244
1261
1261
1255
1229
1181
1107
1024
951
917
919
931
935
928
927
928
934
933
932
928
930
932
934
938
934
933
935
937
937
931
934
932
