986
986
988
991
991
989
987
980
976
973
977
982
984
983
982
982
987
989
993
990
984
979
987
996
999
998
991
992
996
1001
998
995
990
985
982
983
982
981
978
978
979
980
981
982
976
974
973
975
978
975
972
968
970
973
974
972
967
964
965
967
969
967
966
962
963
965
970
971
964
961
961
962
963
964
961
963
962
965
966
963
964
966
969
967
961
956
952
950
954
960
960
961
954
955
960
960
963
961
958
953
957
961
964
961
956
956
958
962
962
960
956
955
960
961
963
964
961
962
968
971
972
968
966
960
960
965
968
967
961
962
967
973
976
969
959
953
956
960
959
953
945
942
949
955
957
957
954
957
959
964
965
963
960
954
955
958
961
962
959
957
961
961
965
965
964
961
963
966
969
964
965
968
975
978
977
974
969
976
988
990
981
968
960
961
971
982
988
993
998
1010
1025
1035
1034
1032
1030
1031
1037
1043
1037
1029
1016
1004
998
997
995
992
984
986
986
984
977
963
955
955
958
966
970
968
961
950
941
934
937
964
1017
1108
1218
1314
1380
1420
1435
1434
1411
1351
1244
1116
988
884
893
926
947
942
936
938
946
954
955
950
948
945
947
949
949
948
944
943
943
947
947
947
943
942
943
944
946
947
944
946
947
952
950
947
944
941
942
951
955
957
950
949
952
957
962
964
962
963
966
969
970
968
965
965
967
973
974
978
979
977
983
989
996
992
990
993
997
1005
1006
1014
1012
1013
1018
1025
1025
1025
1027
1030
1032
1034
1037
1034
1033
1030
1034
1039
1038
1037
1026
1022
1022
1026
1029
1027
1022
1017
1014
1013
1013
1006
999
998
997
992
991
989
985
983
984
984
984
977
970
966
966
972
973
971
969
968
971
973
975
975
973
974
976
979
983
984
984
984
984
991
997
998
1005
1017
1036
1065
1088
1111
1137
1162
1194
1229
1264
1292
1327
1362
1391
1399
1384
1350
1315
1281
1242
1192
1121
1039
971
933
917
905
895
885
879
878
882
890
897
903
910
908
905
900
897
896
893
889
894
894
894
889
885
884
886
890
890
889
889
893
898
902
904
903
898
898
900
902
898
892
890
887
886
886
885
884
879
879
878
883
883
883
881
882
887
892
896
896
897
898
905
911
916
921
921
924
924
934
938
938
940
942
947
953
955
957
952
949
946
947
948
948
944
943
941
943
946
947
946
941
945
945
946
943
940
939
941
943
944
947
946
945
942
944
943
941
942
940
942
948
947
950
945
946
947
949
952
949
951
951
952
954
957
956
954
955
956
958
962
960
959
957
960
963
967
963
958
955
959
961
963
958
957
953
954
957
958
958
955
953
952
953
955
954
952
949
951
953
954
950
947
945
945
948
950
949
945
943
945
946
949
945
941
940
941
946
949
944
942
941
945
946
945
942
943
940
944
944
947
947
942
937
931
934
934
937
936
938
942
942
945
944
940
937
938
941
944
944
941
937
937
941
944
945
942
938
939
938
938
940
940
940
941
941
941
941
935
935
936
939
940
941
941
939
940
943
945
944
944
943
943
948
947
946
944
943
941
946
948
943
939
938
939
947
949
950
948
945
950
950
952
954
952
955
954
960
962
960
958
957
960
964
965
961
953
951
951
954
958
955
957
954
954
955
959
960
958
953
955
960
966
966
966
965
973
979
985
986
984
986
991
1005
1018
1026
1027
1027
1029
1030
1033
1030
1025
1023
1022
1018
1012
999
991
983
982
977
971
967
962
956
959
962
965
963
958
957
962
961
961
955
945
935
935
962
1008
1081
1170
1265
1340
1389
1418
1423
1403
1353
1269
1150
1022
910
873
899
932
941
937
937
939
939
943
945
943
940
936
936
937
938
941
939
936
934
936
939
941
941
940
937
939
939
940
938
939
940
938
941
946
947
942
946
947
951
954
954
954
952
955
957
959
958
957
953
959
962
962
966
963
965
970
976
983
983
982
983
984
992
996
997
995
1000
1003
1013
1016
1020
1019
1021
1024
1030
1037
1037
1037
1036
1039
1041
1044
1046
1043
1046
1047
1051
1050
1047
1045
1044
1045
1044
1043
1041
1036
1030
1032
1030
1026
1024
1020
1014
1011
1013
1011
1008
1005
1000
994
997
995
990
986
984
985
987
990
985
981
980
978
981
981
979
978
978
981
984
988
989
987
985
987
991
996
999
993
995
1002
1006
1013
1016
1018
1024
1032
1051
1072
1089
1117
1142
1166
1188
1211
1233
1253
1278
1310
1340
1373
1406
1427
1438
1437
1421
1396
1368
1336
1297
1243
1180
1110
1046
1002
974
955
939
925
910
904
900
903
910
919
924
926
926
925
926
923
920
913
911
911
915
912
907
901
897
896
896
900
899
898
896
895
903
906
905
907
907
911
914
919
917
914
911
910
911
914
912
910
908
908
907
910
910
907
903
905
909
908
912
910
909
911
916
920
919
920
919
926
932
938
941
940
943
947
952
957
958
959
962
970
973
977
981
979
980
977
983
988
988
985
989
991
993
994
992
984
982
982
984
987
989
987
983
982
983
983
977
975
970
974
979
983
983
984
982
981
984
985
984
982
981
984
990
992
988
985
982
985
987
986
990
986
986
987
990
992
988
989
985
988
991
995
994
992
991
992
995
996
994
991
988
989
991
992
993
990
989
988
991
989
985
983
975
973
980
980
976
972
970
971
975
974
972
971
968
970
971
971
973
970
967
965
965
969
963
958
957
958
961
962
960
957
957
958
960
961
956
954
950
951
951
957
956
952
950
951
951
953
950
944
942
947
948
947
945
944
941
941
943
942
941
940
942
941
938
939
939
934
935
936
937
940
941
936
931
928
934
934
934
933
932
931
936
936
932
932
929
930
933
936
931
928
926
927
927
928
927
924
925
924
923
927
925
927
925
924
927
927
926
924
921
921
921
924
924
918
918
918
922
928
926
926
923
923
923
923
924
923
920
921
923
925
923
921
919
921
926
929
927
925
922
921
922
925
924
919
916
919
922
923
925
924
921
924
928
932
933
931
930
935
941
948
950
951
954
966
980
988
989
985
982
984
988
991
989
986
977
974
968
963
953
948
942
938
934
931
926
922
920
921
924
927
925
922
920
918
917
918
913
905
900
908
939
991
1068
1153
1234
1302
1351
1381
1390
1379
1336
1264
1160
1042
926
861
853
875
896
896
891
892
896
899
899
906
908
905
899
897
900
902
899
895
893
899
904
908
908
902
900
899
901
907
908
905
903
905
907
911
910
909
903
903
906
911
913
912
911
914
917
921
921
922
919
920
923
929
932
923
922
923
927
931
933
933
935
940
943
948
946
954
957
969
972
976
975
968
975
986
999
1008
1006
992
977
973
984
995
998
1000
999
999
997
1004
1008
1014
1015
1024
1029
1031
1024
1015
1013
1012
1010
1009
1003
1001
997
997
1000
998
992
987
986
987
990
991
982
971
965
965
968
966
956
951
946
947
951
955
951
949
944
948
951
952
949
948
950
953
953
960
959
957
946
947
953
964
968
970
968
970
975
974
970
971
974
984
989
996
1009
1027
1044
1066
1094
1120
1148
1165
1181
1197
1222
1254
1289
1320
1354
1395
1433
1457
1456
1440
1418
1396
1373
1336
1283
1222
1149
1072
1011
977
953
928
908
898
901
906
907
911
916
921
925
924
920
912
911
910
907
906
907
907
906
908
908
911
913
913
907
905
911
924
926
925
922
924
927
929
925
921
917
911
911
910
907
906
900
899
900
900
894
891
881
880
879
881
883
885
881
876
875
877
869
859
851
860
885
911
922
924
920
920
918
919
921
920
926
934
940
945
951
950
945
946
947
947
949
950
952
952
955
956
953
952
952
954
954
956
956
960
956
954
958
963
963
963
960
963
964
965
966
963
965
966
969
973
973
965
966
973
978
980
979
973
970
971
975
977
976
973
967
967
975
985
982
980
973
973
975
977
976
978
973
981
983
985
982
982
979
977
976
976
974
975
971
972
974
978
982
979
974
970
968
970
970
968
965
967
970
970
970
962
958
957
962
964
963
960
957
958
955
956
954
948
946
951
954
956
951
951
949
952
950
947
947
947
947
944
950
950
947
945
945
945
948
949
945
945
941
939
943
942
944
940
936
936
939
945
945
944
942
943
944
947
943
943
939
940
944
947
949
946
946
947
952
955
951
943
936
935
942
943
944
942
941
938
944
946
945
943
941
942
946
949
952
946
944
944
949
946
942
945
945
947
949
953
948
941
934
935
937
945
951
950
939
929
926
931
943
943
939
933
932
933
929
928
929
937
941
946
945
947
954
965
972
973
969
971
975
982
989
1005
1013
1017
1020
1025
1030
1030
1027
1026
1019
1008
999
996
994
990
985
975
971
964
960
953
948
953
958
957
952
954
954
956
957
955
942
928
927
942
976
1039
1130
1229
1313
1378
1421
1441
1435
1400
1323
1212
1084
956
889
894
926
941
945
944
943
942
944
944
943
946
946
946
942
944
941
940
936
937
938
936
939
943
945
936
930
931
936
945
950
944
938
937
944
949
946
944
944
937
937
940
952
959
961
951
949
954
960
962
958
961
967
971
970
970
963
963
968
980
985
985
980
978
981
989
1003
1006
997
995
1008
1017
1014
1011
1007
1019
1030
1033
1033
1030
1033
1036
1039
1039
1034
1037
1039
1041
1037
1038
1036
1037
1044
1045
1038
1034
1027
1020
1017
1019
1023
1019
1012
1006
1003
994
988
992
999
988
978
974
978
984
984
976
968
967
975
980
973
963
959
958
959
968
975
977
969
966
968
971
967
968
977
986
991
989
984
984
986
996
1007
1022
1036
1054
1081
1118
1151
1179
1203
1221
1247
1273
1306
1345
1386
1420
1448
1460
1455
1437
1402
1358
1301
1234
1164
1082
1010
955
920
900
894
892
895
896
900
908
913
912
903
898
899
898
903
903
901
899
902
904
903
902
901
908
915
912
904
903
903
898
897
897
901
898
895
882
869
861
867
877
875
867
862
861
858
856
850
847
842
842
844
847
848
842
841
841
840
847
850
849
853
864
872
877
874
872
874
876
888
903
911
913
909
907
909
915
919
918
916
917
920
925
925
925
925
922
923
927
930
927
928
928
932
935
932
924
929
939
941
938
935
937
939
943
946
945
940
938
937
936
939
944
951
953
950
951
951
955
953
952
951
951
955
960
961
958
959
959
963
965
963
965
962
962
962
960
960
957
956
955
959
972
974
965
958
956
960
960
955
956
949
943
944
950
955
957
955
954
952
950
946
942
942
940
943
945
952
948
947
944
945
951
953
946
941
937
941
943
946
948
945
942
948
950
948
942
938
939
941
943
940
936
931
934
943
949
947
942
938
943
946
951
950
943
935
936
941
941
936
928
929
931
942
948
944
943
940
941
943
947
950
947
941
937
940
946
947
944
941
938
944
945
947
942
941
940
941
947
946
940
938
941
944
949
949
946
945
947
943
946
944
944
942
943
946
948
948
948
950
955
960
962
962
959
957
959
962
970
973
970
979
986
996
1011
1019
1017
1009
1010
1013
1016
1013
1009
1001
998
991
988
979
973
964
959
957
959
957
952
950
950
955
958
957
949
943
942
940
947
961
993
1057
1152
1250
1329
1375
1397
1398
1375
1319
1224
1102
978
888
872
904
933
939
935
930
936
943
950
948
943
939
940
941
949
951
945
939
941
944
947
945
942
940
938
942
948
949
941
940
939
940
945
953
949
943
942
953
963
960
958
952
951
956
962
962
962
961
959
963
968
969
969
966
969
969
972
971
972
974
985
999
1009
1004
1004
999
1003
1007
1011
1021
1022
1023
1024
1023
1026
1029
1031
1038
1048
1055
1060
1057
1050
1046
1044
1039
1041
1047
1050
1048
1050
1044
1043
1041
1035
1032
1031
1028
1031
1028
1024
1013
1011
1003
1001
999
1001
999
993
989
988
988
986
980
976
973
976
977
978
970
965
965
975
978
969
965
976
984
978
973
973
981
988
993
990
988
983
988
992
1000
1009
1016
1020
1026
1038
1058
1088
1116
1143
1162
1181
1199
1222
1244
1270
1296
1335
1384
1431
1463
1484
1486
1479
1458
1424
1381
1329
1259
1157
1056
981
928
898
895
909
918
921
920
915
906
913
921
923
915
902
895
897
908
920
917
907
904
915
925
923
918
914
912
909
911
909
904
895
886
880
877
882
878
874
868
859
854
857
861
858
850
850
847
844
840
839
837
838
840
838
831
826
823
825
830
837
840
841
833
833
832
842
850
850
846
844
850
864
875
876
879
881
883
888
891
896
891
890
892
901
902
899
900
903
910
918
917
915
906
903
906
920
925
919
914
912
921
931
931
928
922
923
928
933
930
926
927
933
938
943
943
936
937
936
944
949
949
942
940
948
958
958
955
955
959
958
958
963
970
970
962
960
965
972
971
967
966
963
968
968
968
967
967
970
973
968
971
973
968
963
960
965
968
965
963
959
962
965
963
961
956
956
955
957
962
960
951
953
955
963
963
957
952
957
961
959
958
955
953
958
957
956
953
949
948
951
957
957
950
945
947
948
957
963
960
951
947
952
952
956
955
951
946
947
954
957
952
946
946
950
953
953
956
951
948
950
947
952
953
949
946
946
948
954
956
952
948
951
954
956
956
954
949
949
950
949
950
948
946
951
958
960
956
951
952
952
949
951
952
950
954
960
963
963
961
957
952
949
957
960
960
957
954
950
952
957
966
975
976
972
974
982
985
989
998
1011
1017
1020
1017
1015
1009
1013
1023
1027
1018
1006
994
982
979
974
967
964
960
957
954
956
960
955
948
944
946
952
951
947
941
935
925
919
929
964
1026
1118
1226
1322
1392
1428
1435
1417
1375
1288
1160
1032
904
871
903
931
935
929
920
925
931
935
940
944
941
935
930
927
928
930
934
939
937
934
934
932
929
929
929
935
937
940
934
932
934
940
940
937
936
937
941
940
941
944
947
940
938
938
937
945
952
954
952
955
963
967
967
963
961
968
978
985
977
971
971
978
986
987
984
984
993
999
1001
1001
1008
1015
1019
1019
1017
1018
1017
1015
1024
1036
1037
1038
1035
1032
1030
1033
1035
1038
1033
1031
1032
1038
1034
1024
1017
1016
1021
1023
1021
1013
1006
996
995
1000
1003
996
990
987
989
986
979
968
963
970
984
989
982
970
965
961
960
962
964
961
963
965
970
966
961
962
973
986
992
989
982
979
975
977
983
986
985
984
985
991
1000
1005
1006
1010
1017
1031
1051
1073
1099
1127
1151
1172
1187
1202
1220
1236
1260
1290
1328
1365
1401
1430
1454
1470
1472
1463
1443
1407
1368
1323
1273
1214
1144
1078
1013
952
918
909
911
913
914
928
946
966
970
962
952
953
957
957
957
962
973
983
975
950
926
905
886
881
886
892
888
891
891
891
890
891
889
888
890
890
890
888
888
895
898
894
887
874
871
865
854
848
850
857
863
860
854
850
852
853
846
843
843
847
853
857
859
859
861
863
860
865
877
884
887
883
888
898
904
905
904
912
919
927
933
933
931
929
935
943
950
951
942
937
941
947
940
938
938
945
945
944
940
944
944
946
957
971
977
973
970
977
983
982
981
975
977
977
987
981
974
973
979
986
986
989
992
991
991
985
983
987
997
991
987
990
1004
1015
1017
1016
1006
1004
1010
1021
1029
1032
1035
1039
1042
1046
1054
1055
1051
1045
1036
1027
1011
997
990
986
990
1001
1009
1006
1002
999
1004
1015
1021
1018
1014
1012
1013
1013
1015
1023
1025
1027
1025
1026
1025
1014
1003
1000
1007
1010
1015
1021
1025
1029
1027
1025
1021
1019
1026
1028
1026
1023
1018
1017
1020
1022
1021
1022
1016
1016
1019
1023
1029
1033
1034
1028
1022
1024
1026
1033
1032
1023
1016
1009
1009
1012
1015
1022
1028
1029
1028
1031
1030
1025
1033
1055
1088
1110
1120
1117
1095
1056
1017
1003
1010
1019
1020
1020
1012
1000
991
993
1014
1050
1075
1070
1037
1002
981
976
972
968
962
961
967
980
996
1006
1007
1010
1015
1014
1009
1007
1010
1015
1022
1037
1052
1070
1060
1039
1010
998
999
1009
1014
1018
1025
1035
1046
1061
1070
1072
1071
1068
1075
1089
1095
1086
1070
1053
1045
1040
1035
1028
1024
1026
1044
1070
1082
1069
1033
993
963
955
959
969
977
987
996
996
981
963
953
969
1010
1071
1153
1239
1317
1379
1418
1439
1444
1434
1407
1347
1251
1126
998
914
916
951
972
969
964
973
987
990
981
962
951
946
952
966
978
987
981
975
967
967
967
972
976
974
969
964
964
975
982
977
965
952
948
960
967
967
963
958
961
966
969
970
967
963
964
964
967
967
965
968
973
979
977
977
982
985
988
991
995
998
995
997
1001
1004
1009
1011
1017
1027
1029
1022
1012
1003
1002
1007
1015
1024
1030
1033
1037
1040
1045
1049
1048
1050
1051
1053
1057
1066
1070
1074
1078
1078
1077
1075
1070
1064
1053
1044
1040
1042
1045
1044
1041
1040
1045
1043
1040
1039
1033
1029
1024
1024
1023
1024
1023
1021
1024
1023
1015
998
986
980
986
990
987
982
981
985
991
990
987
985
986
985
989
993
991
989
989
988
992
994
1000
1000
1000
1002
1007
1013
1017
1020
1021
1026
1035
1052
1067
1089
1114
1141
1164
1185
1204
1222
1246
1273
1307
1341
1374
1404
1427
1442
1447
1437
1404
1356
1308
1270
1226
1175
1114
1059
1003
956
930
928
921
918
916
919
931
939
939
934
931
937
952
964
966
960
952
950
950
950
943
931
919
914
912
911
901
880
866
860
863
869
868
861
851
849
854
857
855
850
846
850
854
858
857
852
838
824
820
822
819
815
819
822
826
818
806
796
794
794
805
816
816
808
804
804
808
816
827
834
837
834
832
827
829
841
846
853
867
