972
973
968
968
970
976
981
978
977
976
979
981
986
981
977
977
979
981
985
985
981
979
978
980
983
981
979
972
975
978
978
979
976
973
971
975
976
974
971
968
965
970
969
967
966
964
963
965
966
967
964
961
962
963
962
959
957
955
957
958
960
959
958
955
957
960
960
959
957
951
954
955
956
954
952
954
954
956
956
953
951
950
948
951
957
954
950
950
950
953
955
956
952
950
954
954
956
952
951
950
952
953
955
952
952
952
950
953
954
956
952
948
949
949
955
954
954
953
954
955
954
957
956
952
952
955
957
955
952
953
954
958
959
958
955
954
954
956
961
961
957
957
957
959
964
960
958
958
960
961
963
964
961
957
958
963
965
965
961
961
963
967
968
968
964
965
964
968
971
970
969
965
969
970
974
973
965
966
969
973
974
976
973
970
971
974
979
976
975
975
971
974
977
975
976
976
974
979
978
975
977
975
977
974
979
979
974
973
974
973
979
977
974
972
974
975
978
977
976
974
978
978
981
980
979
977
978
980
979
980
977
978
978
981
980
979
973
976
977
978
980
979
979
978
979
981
982
979
976
978
977
977
979
978
978
976
980
980
982
981
978
978
980
982
984
982
981
978
980
978
982
981
979
979
980
984
989
989
987
990
991
992
995
998
996
999
1002
1008
1013
1022
1033
1044
1052
1059
1056
1046
1039
1028
1027
1026
1031
1028
1022
1009
1004
1001
998
992
987
980
979
977
979
976
974
974
974
978
980
979
975
972
976
974
973
962
959
967
998
1050
1136
1232
1318
1379
1423
1452
1460
1439
1386
1298
1183
1056
941
882
889
924
946
947
946
948
952
951
952
954
953
952
948
945
943
949
949
949
949
949
948
950
954
952
952
948
948
951
953
953
950
949
950
955
956
957
955
954
954
959
961
961
959
958
961
964
967
967
968
969
971
973
979
979
978
974
977
982
988
990
990
990
993
998
1005
1006
1007
1007
1013
1018
1025
1027
1029
1034
1040
1047
1054
1060
1061
1064
1070
1079
1085
1090
1093
1098
1107
1116
1121
1123
1128
1129
1138
1140
1144
1146
1148
1145
1148
1148
1155
1153
1145
1143
1139
1140
1136
1130
1126
1118
1114
1110
1106
1097
1089
1082
1074
1072
1071
1065
1056
1048
1044
1042
1039
1030
1027
1021
1019
1018
1015
1013
1007
1004
1003
1002
1003
999
995
993
993
996
994
996
992
990
989
995
996
998
995
996
997
1001
1003
1004
1004
1002
1007
1012
1017
1017
1021
1023
1027
1038
1053
1074
1093
1115
1137
1163
1182
1198
1212
1228
1245
1268
1297
1327
1366
1415
1462
1507
1529
1538
1538
1529
1521
1508
1485
1438
1366
1262
1148
1047
966
913
896
899
905
903
904
903
903
900
904
903
899
895
887
880
880
880
879
877
872
864
863
864
863
857
853
851
851
855
859
854
849
848
853
859
867
871
869
867
866
867
867
866
863
859
861
862
862
859
852
850
849
849
852
849
843
838
837
836
840
833
830
829
825
825
823
823
819
817
817
821
823
821
820
815
823
826
829
833
833
838
843
850
856
860
864
867
873
882
886
889
890
894
897
906
913
915
915
919
921
927
931
929
929
929
930
935
940
942
939
939
941
947
951
949
948
944
948
953
955
957
952
949
955
956
957
959
958
957
958
963
963
965
962
963
965
967
969
966
965
964
965
968
971
971
969
967
970
972
978
976
974
974
974
981
981
982
978
979
977
982
984
983
977
978
978
984
984
982
979
975
977
982
982
980
978
976
976
980
977
978
975
973
974
974
975
975
971
969
970
973
975
972
972
968
969
971
971
968
965
961
962
966
968
965
962
960
959
964
965
964
961
958
958
960
963
960
959
956
958
960
962
959
956
957
961
962
960
960
957
955
955
959
960
959
956
953
951
957
960
958
955
950
953
956
958
959
954
953
953
957
958
955
953
952
952
958
959
955
953
952
954
959
962
957
953
954
955
957
958
958
958
952
956
959
961
960
955
952
952
952
957
957
953
952
955
955
960
959
956
951
953
955
957
956
956
954
955
953
959
956
955
954
957
960
963
959
953
952
953
957
960
959
958
956
960
963
963
959
959
956
957
961
961
957
958
955
955
960
962
962
959
957
960
960
966
965
962
959
962
963
966
963
961
961
963
965
968
967
963
963
964
964
968
965
964
962
960
964
966
964
962
960
966
969
968
968
966
962
965
970
972
969
967
966
967
970
972
972
968
967
970
970
973
971
969
964
970
970
972
971
969
968
968
967
971
972
967
964
966
969
974
972
967
968
970
972
977
974
978
976
983
987
991
993
993
995
1004
1016
1028
1030
1030
1028
1028
1032
1033
1033
1022
1009
1001
998
996
993
984
979
975
974
976
972
967
966
967
970
971
971
965
965
964
963
957
950
950
972
1013
1085
1182
1280
1350
1402
1433
1440
1417
1365
1274
1155
1028
924
881
898
928
940
938
940
942
942
941
939
942
941
936
937
932
934
935
936
936
935
929
930
933
935
938
934
934
932
934
932
934
934
932
931
930
933
935
933
933
932
933
936
939
938
937
936
938
943
945
944
944
943
948
952
957
955
952
952
956
962
967
967
968
970
974
980
988
982
990
992
997
1004
1009
1013
1014
1018
1022
1031
1040
1044
1048
1050
1060
1068
1075
1079
1082
1087
1097
1105
1111
1112
1114
1116
1119
1121
1125
1122
1120
1115
1115
1113
1114
1109
1104
1095
1092
1088
1082
1079
1071
1067
1058
1057
1051
1047
1039
1031
1032
1027
1024
1021
1015
1007
1005
1006
1004
1000
996
995
994
995
996
996
992
988
990
993
991
991
989
992
994
997
997
995
997
997
999
1001
1007
1010
1007
1006
1007
1013
1020
1024
1026
1032
1045
1059
1072
1080
1085
1099
1125
1158
1193
1227
1266
1316
1380
1439
1484
1507
1506
1502
1492
1475
1439
1367
1264
1141
1038
977
956
944
919
889
874
874
884
895
903
910
922
927
926
925
918
913
911
910
910
909
901
899
898
896
896
895
891
887
886
886
892
893
891
892
897
906
912
915
912
908
907
908
909
908
905
901
902
905
903
901
902
898
899
901
903
902
900
899
898
905
908
909
907
911
916
918
926
930
932
936
944
951
959
965
969
975
981
989
994
995
995
1000
1006
1012
1014
1016
1013
1011
1012
1014
1013
1012
1006
1003
1004
1006
1000
999
994
992
991
990
990
988
982
978
977
977
978
975
970
969
968
972
974
971
964
964
969
974
974
971
967
966
968
974
975
973
971
968
970
974
980
978
980
978
982
986
987
989
984
980
984
986
988
986
983
983
985
987
986
984
984
981
982
985
986
986
980
980
980
981
983
981
979
974
978
976
979
979
971
970
967
970
972
971
966
966
968
967
968
966
963
963
961
962
963
963
960
959
961
963
964
957
954
956
959
960
961
957
956
954
954
958
958
956
954
951
954
959
957
952
952
953
954
956
955
956
953
950
951
952
955
951
948
949
952
954
955
952
949
949
950
953
956
955
951
950
950
952
954
955
949
948
952
955
955
955
952
954
952
954
956
953
949
951
952
956
959
954
953
952
955
955
958
955
954
955
956
957
962
958
954
953
955
958
958
960
957
956
959
962
962
959
956
956
958
961
962
962
956
959
959
963
963
961
956
957
959
962
964
962
957
957
958
961
964
963
959
959
959
962
965
961
960
957
961
964
965
961
962
960
961
962
965
961
959
959
958
962
962
963
962
962
960
964
965
965
962
960
960
962
968
966
965
966
965
967
970
969
966
964
966
968
970
969
966
968
968
972
973
975
973
971
973
977
980
979
978
975
979
986
986
988
988
991
995
998
1001
1004
1002
1008
1020
1030
1039
1038
1036
1036
1037
1040
1040
1028
1017
1009
1007
1005
1000
993
988
983
980
984
984
985
983
982
982
983
986
982
976
970
967
981
1013
1067
1151
1248
1334
1394
1434
1444
1418
1371
1297
1200
1083
967
903
914
951
969
971
966
962
966
969
967
969
966
963
961
964
966
967
966
961
963
962
966
968
967
961
960
961
965
965
965
966
965
967
968
972
970
970
966
969
973
976
974
972
972
975
979
983
982
981
981
986
992
992
993
992
993
997
1001
1006
1007
1010
1010
1014
1021
1026
1026
1026
1032
1037
1046
1051
1055
1059
1062
1068
1076
1085
1089
1094
1099
1103
1110
1118
1123
1123
1127
1131
1136
1140
1141
1138
1137
1138
1137
1140
1138
1134
1129
1127
1125
1126
1118
1111
1101
1099
1099
1094
1085
1077
1072
1068
1066
1060
1055
1048
1039
1039
1039
1039
1034
1028
1024
1022
1021
1018
1013
1010
1010
1011
1012
1010
1009
1008
1003
1007
1010
1010
1007
1005
1007
1008
1012
1013
1014
1011
1014
1014
1017
1018
1019
1017
1018
1021
1023
1024
1022
1023
1025
1032
1038
1044
1051
1052
1059
1067
1080
1088
1091
1104
1124
1157
1202
1254
1308
1345
1362
1357
1334
1302
1260
1207
1131
1034
935
859
815
804
808
818
814
809
799
786
779
782
784
791
801
813
826
840
856
873
886
894
900
906
911
917
920
919
921
925
930
940
949
950
952
955
957
961
960
959
958
963
969
971
970
969
969
971
975
977
978
976
977
979
984
984
989
987
991
993
1001
1005
1008
1010
1015
1022
1028
1035
1043
1052
1059
1070
1080
1095
1103
1111
1118
1131
1138
1147
1156
1161
1166
1173
1181
1180
1180
1177
1180
1179
1181
1180
1172
1172
1165
1161
1159
1153
1146
1138
1131
1123
1119
1112
1103
1094
1085
1080
1076
1072
1066
1055
1051
1044
1042
1036
1031
1024
1020
1016
1016
1016
1014
1010
1004
1004
1009
1007
1004
1002
1001
1001
1002
1002
1000
998
1000
997
1002
1000
998
995
993
995
996
997
996
991
990
989
993
993
990
989
988
987
987
986
986
980
976
975
978
977
974
969
967
969
972
971
965
963
963
961
961
961
959
952
950
951
954
953
952
950
949
949
951
950
944
942
941
941
941
944
942
941
937
940
940
944
941
936
935
936
938
940
939
938
935
938
937
940
938
935
934
934
937
937
935
936
935
935
944
944
940
935
935
938
938
939
937
937
935
935
938
940
938
935
935
937
940
943
940
937
938
942
945
945
945
940
942
939
947
947
946
943
944
947
947
952
950
947
947
948
952
952
952
949
950
954
958
958
955
953
954
956
963
963
960
959
960
960
962
966
964
961
962
965
967
969
966
966
964
967
969
973
968
967
966
969
973
975
973
971
967
971
972
973
974
973
971
974
977
975
977
974
970
975
977
980
979
975
975
973
977
978
979
977
975
979
980
981
978
974
972
976
980
980
979
976
975
977
978
979
977
975
974
978
979
979
976
974
974
974
979
981
979
977
977
978
981
983
979
974
975
979
981
980
983
977
975
975
980
985
981
979
975
982
985
987
987
987
983
987
994
999
1000
999
999
1004
1007
1015
1019
1030
1037
1042
1046
1048
1043
1038
1032
1030
1025
1019
1011
1005
999
993
992
989
985
979
980
978
980
982
980
977
975
977
982
983
978
975
967
964
965
975
997
1036
1113
1214
1309
1379
1424
1442
1440
1412
1358
1264
1145
1024
924
892
919
948
958
953
951
958
965
965
965
957
958
960
962
959
960
960
958
957
962
964
964
963
960
963
966
968
965
963
965
966
970
971
970
969
965
967
970
970
975
972
972
972
975
980
978
977
975
980
985
989
986
986
990
992
994
999
1000
999
1001
1004
1009
1011
1012
1011
1013
1018
1023
1030
1035
1040
1041
1044
1051
1055
1062
1062
1066
1071
1080
1086
1089
1091
1094
1101
1107
1115
1119
1120
1120
1125
1132
1134
1135
1131
1132
1136
1136
1136
1132
1131
1130
1129
1124
1124
1118
1112
1108
1105
1103
1097
1087
1082
1077
1072
1072
1068
1060
1053
1049
1048
1047
1043
1038
1031
1024
1028
1029
1028
1022
1017
1016
1016
1019
1016
1013
1009
1010
1011
1016
1015
1014
1012
1011
1017
1019
1020
1017
1017
1018
1023
1027
1029
1028
1027
1027
1032
1037
1041
1045
1047
1055
1068
1087
1102
1118
1132
1145
1162
1179
1192
1207
1218
1236
1252
1270
1295
1320
1345
1372
1402
1430
1455
1474
1489
1505
1523
1535
1533
1521
1498
1459
1413
1359
1275
1150
1023
951
942
957
967
958
940
931
929
929
924
921
912
907
905
904
902
900
893
888
885
884
880
877
873
875
873
879
880
876
876
878
886
894
897
899
894
892
893
897
895
896
894
891
892
895
895
894
889
885
886
887
888
886
884
880
879
879
881
879
877
875
877
879
878
880
877
873
878
883
885
889
888
889
897
900
907
909
911
913
924
932
936
939
942
948
953
959
964
967
966
969
972
977
981
981
979
979
978
983
985
984
980
976
975
981
979
976
971
968
970
971
969
966
964
960
963
963
964
964
961
963
964
966
965
966
966
967
967
971
972
971
971
972
976
980
982
983
982
980
985
990
993
991
989
990
994
1000
1000
1000
996
997
998
1002
1003
1003
999
1000
1000
1000
1005
1000
995
998
997
1001
1000
998
993
993
993
996
993
993
989
990
991
991
992
990
988
983
986
989
990
984
983
982
982
985
986
983
981
978
981
982
982
980
977
976
976
982
982
978
977
973
975
974
977
974
973
973
973
978
980
979
977
976
976
980
978
971
970
969
972
975
973
970
971
968
972
973
975
972
969
969
972
975
975
978
969
974
974
975
977
974
971
972
975
975
975
976
974
973
969
974
975
975
971
972
972
973
974
974
972
971
976
976
975
974
971
971
975
977
975
970
973
974
973
977
978
976
971
971
974
976
976
973
974
972
975
977
980
978
972
972
977
981
981
982
979
977
976
976
977
976
972
974
974
977
978
976
975
975
977
981
981
980
976
973
975
978
980
979
977
977
976
981
981
980
978
978
975
977
980
979
976
975
978
981
981
981
978
977
978
983
981
980
978
974
979
983
982
980
977
978
979
983
985
984
980
978
979
979
979
980
981
979
983
986
986
986
980
980
982
983
984
984
980
982
983
986
988
987
985
987
989
994
999
1000
997
1000
1003
1005
1011
1016
1022
1033
1044
1047
1049
1049
1046
1044
1048
1052
1049
1042
1030
1019
1016
1013
1006
1001
994
989
987
988
991
989
985
982
985
992
992
992
984
979
974
976
988
1012
1056
1131
1226
1315
1377
1423
1443
1444
1416
1366
1274
1153
1025
921
894
924
960
965
960
961
964
970
973
969
965
964
965
966
965
963
962
963
965
967
969
966
960
960
964
965
968
966
965
962
966
969
970
969
963
963
966
970
972
972
969
970
971
976
978
975
975
977
978
981
985
983
983
985
987
990
992
993
991
992
994
1000
1005
1006
1005
1006
1012
1014
1019
1023
1026
1027
1035
1041
1045
1048
1052
1053
1061
1070
1077
1080
1082
1088
1096
1103
1108
1109
1111
1111
1122
1126
1130
1133
1128
1127
1129
1130
1133
1130
1128
1124
1124
1127
1125
1122
1114
1112
1106
1107
1105
1096
1093
1085
1080
1078
1072
1065
1060
1057
1054
1050
1048
1043
1037
1032
1033
1033
1028
1026
1019
1019
1018
1021
1018
1018
1014
1014
1011
1012
1013
1011
1005
1009
1010
1017
1019
1019
1014
1016
1016
1018
1020
1018
1019
1015
1018
1024
1025
1024
1019
1025
1023
1030
1028
1027
1026
1024
1027
1029
1031
1029
1027
1029
1028
1029
1029
1025
1024
1023
1025
1028
1028
1024
1020
1018
1019
1019
1015
1012
1006
1007
1009
1008
1008
1007
1001
998
999
999
1001
998
993
992
991
991
990
990
987
983
986
989
987
987
984
983
985
987
984
986
980
977
980
981
980
978
974
973
977
977
981
978
970
971
972
973
975
973
972
970
972
973
974
974
971
970
974
974
973
971
968
967
967
970
970
971
967
967
970
970
969
965
967
966
967
973
973
970
967
967
969
973
974
975
968
970
971
973
972
971
970
973
976
978
981
980
979
982
987
993
993
995
993
997
1005
1018
1030
1037
1039
1037
1039
1038
1043
1044
1040
1036
1029
1021
1012
1004
996
989
988
983
981
976
974
971
974
976
975
976
971
969
972
975
978
973
962
960
955
960
978
1014
1073
1163
1269
1353
1407
1436
1446
1426
1389
1316
1209
1081
953
879
886
925
951
954
948
951
955
960
962
958
955
953
953
957
960
959
955
952
955
961
960
957
957
958
959
960
962
960
958
959
959
966
968
966
959
957
959
967
970
968
967
965
966
971
972
973
972
974
979
984
986
983
982
985
987
991
993
993
995
995
1000
1005
1010
1014
1013
1013
1017
1023
1028
1025
1029
1031
1040
1048
1054
1056
1060
1065
1070
1076
1086
1091
1093
1098
1107
1114
1124
1125
1125
1134
1138
1147
1148
1146
1143
1143
1143
1143
1141
1137
1133
1129
1126
1121
1116
1111
1102
1094
1089
1086
1081
1071
1064
1057
1052
1047
1045
1039
1030
1027
1025
1023
1020
1015
1010
1005
1005
1003
1003
997
987
988
988
989
990
987
982
981
977
979
978
978
973
972
976
978
980
979
978
974
975
983
981
980
980
978
981
985
988
989
987
986
987
991
995
992
992
990
993
996
998
993
990
992
997
998
995
992
993
996
996
998
998
995
990
988
990
993
993
989
984
981
984
984
985
984
980
982
984
980
979
980
977
976
979
982
983
981
977
977
978
979
979
977
977
975
974
976
978
978
975
971
973
974
977
974
970
973
970
971
972
971
970
969
970
974
975
973
969
968
972
973
975
972
968
968
971
974
975
973
972
970
973
972
973
971
969
970
971
974
972
974
970
970
970
973
974
976
970
968
973
975
976
975
971
972
970
976
977
977
972
973
975
980
981
979
977
980
983
986
992
992
994
992
998
1003
1011
1017
1029
1042
1051
1054
1050
1043
1035
1030
1031
1029
1023
1009
1000
994
993
990
984
976
974
971
972
976
975
974
970
966
970
974
976
972
960
952
952
969
1007
1075
1171
1282
1375
1435
1464
1464
1444
1388
1289
1161
1033
905
870
904
943
954
953
950
953
954
957
960
960
954
953
953
955
957
