1003
1003
1001
1007
1010
1017
1021
1021
1019
1020
1023
1024
1023
1021
1016
1013
1010
1012
1010
1002
1002
998
998
998
996
997
992
992
995
998
998
998
998
998
1000
1004
1009
1011
1013
1018
1035
1056
1082
1109
1136
1158
1171
1178
1176
1163
1144
1116
1083
1044
1008
978
964
965
974
979
976
971
972
972
974
978
978
976
972
970
970
972
974
974
971
969
968
972
975
971
970
970
972
974
974
971
968
969
971
972
974
974
970
970
974
977
978
978
972
976
978
980
983
983
979
979
983
989
992
988
990
990
990
995
999
999
998
1000
1002
1009
1011
1010
1010
1012
1018
1021
1025
1028
1027
1030
1038
1043
1048
1049
1050
1055
1060
1063
1072
1072
1073
1077
1086
1094
1098
1099
1100
1103
1107
1113
1117
1116
1118
1119
1121
1122
1122
1120
1118
1113
1114
1118
1113
1109
1103
1099
1095
1097
1091
1086
1078
1075
1072
1070
1065
1059
1052
1045
1046
1042
1041
1034
1029
1023
1023
1023
1021
1015
1011
1008
1008
1009
1008
1006
1000
1000
1000
1003
1003
1001
996
996
998
1000
999
998
993
994
995
1001
999
999
997
997
1001
1006
1004
1004
1002
1004
1008
1012
1013
1011
1010
1014
1016
1022
1023
1024
1028
1031
1034
1038
1036
1031
1030
1029
1031
1031
1032
1038
1045
1057
1073
1092
1111
1130
1145
1160
1169
1173
1164
1151
1132
1110
1081
1042
997
948
908
887
878
880
879
872
863
857
850
854
849
849
845
845
850
860
865
867
870
875
883
892
896
900
903
905
914
921
923
925
926
930
935
939
940
941
937
935
939
947
948
946
944
948
950
955
956
957
953
951
954
960
961
956
955
957
957
962
965
962
960
962
964
970
971
971
974
974
976
981
987
986
987
994
999
1007
1011
1012
1014
1022
1027
1036
1041
1044
1049
1054
1058
1064
1072
1074
1073
1074
1077
1088
1088
1087
1090
1090
1093
1098
1099
1097
1094
1092
1093
1094
1091
1089
1085
1083
1082
1084
1080
1075
1070
1067
1064
1062
1058
1054
1048
1043
1042
1041
1037
1031
1026
1024
1020
1021
1019
1015
1009
1006
1005
1007
1003
1001
995
994
994
993
991
993
988
987
988
988
989
988
986
984
985
990
987
988
983
983
984
989
989
986
983
982
985
987
985
986
985
983
986
987
989
983
982
982
982
985
985
982
981
980
981
983
980
978
976
975
976
978
976
974
971
971
970
972
975
971
965
964
966
970
973
972
968
965
963
964
960
959
957
957
957
959
958
955
951
948
951
954
958
956
955
955
950
951
945
943
943
944
945
949
949
943
944
945
944
948
950
947
942
944
945
948
947
946
945
940
943
949
946
946
943
942
945
945
946
945
943
941
944
946
948
945
944
944
946
949
946
947
945
944
947
953
953
952
947
946
946
947
949
947
942
941
942
945
941
940
941
939
940
943
947
945
940
941
942
947
945
944
942
941
942
944
945
944
944
945
947
947
949
947
945
942
945
949
949
946
942
944
946
950
950
950
946
944
949
951
952
952
944
948
948
951
954
951
948
948
949
952
952
952
950
947
949
956
957
954
951
949
953
956
955
953
949
952
953
955
954
954
954
951
955
957
961
957
956
956
958
961
962
961
960
960
964
968
970
970
969
970
973
976
981
982
985
986
991
998
997
996
994
995
999
1000
996
995
991
984
985
987
987
984
978
978
978
979
982
979
977
978
980
986
989
990
990
988
997
1005
1022
1040
1067
1101
1136
1164
1178
1185
1177
1165
1141
1111
1069
1029
992
975
976
979
981
977
972
967
970
972
972
965
960
960
964
965
967
964
962
961
962
964
965
965
963
963
966
967
967
965
962
962
966
968
968
964
963
965
967
970
971
970
969
968
971
977
978
975
969
973
977
981
980
981
979
982
981
989
988
987
987
988
994
998
999
1000
997
1000
1006
1011
1015
1017
1016
1018
1023
1030
1031
1033
1034
1039
1044
1051
1054
1055
1057
1061
1065
1070
1076
1078
1079
1084
1087
1092
1094
1092
1091
1089
1092
1096
1097
1096
1094
1094
1093
1095
1094
1089
1082
1081
1082
1081
1079
1076
1070
1066
1062
1062
1058
1050
1048
1044
1042
1042
1038
1029
1024
1020
1022
1022
1020
1019
1012
1010
1008
1007
1006
1004
998
999
996
996
1001
994
993
991
991
994
994
993
989
989
994
995
994
996
991
991
995
1000
1000
1001
995
999
1003
1005
1007
1005
1004
1006
1012
1014
1016
1017
1016
1017
1022
1026
1029
1028
1034
1035
1040
1046
1049
1053
1057
1066
1084
1101
1121
1141
1157
1167
1172
1167
1158
1143
1120
1091
1053
1009
961
924
903
890
892
892
888
876
870
862
861
861
865
869
869
873
880
890
894
900
902
906
914
917
927
927
929
930
936
944
949
948
948
950
953
956
956
956
955
957
958
964
967
964
963
964
968
970
972
973
972
972
975
979
979
977
977
976
982
986
987
987
987
988
990
999
1002
1003
1003
1007
1017
1022
1029
1032
1037
1038
1049
1058
1062
1067
1072
1077
1084
1092
1098
1098
1103
1105
1109
1112
1115
1114
1116
1115
1119
1121
1120
1117
1111
1110
1110
1108
1105
1100
1096
1093
1090
1089
1083
1077
1071
1067
1062
1061
1057
1052
1045
1041
1042
1040
1035
1028
1025
1019
1019
1019
1015
1014
1008
1010
1009
1010
1007
1004
1000
999
1001
1003
999
998
995
996
996
995
995
995
993
989
991
994
994
995
993
991
992
994
993
991
991
991
991
993
993
991
988
988
988
990
989
986
980
978
980
985
984
981
978
977
980
983
981
981
975
975
978
978
976
974
970
971
972
975
976
973
970
968
969
973
971
970
966
963
967
969
969
967
963
962
963
966
962
961
961
956
960
961
964
961
960
959
960
963
960
959
956
952
955
955
961
961
958
957
959
960
961
959
956
957
957
960
959
958
955
954
957
959
959
955
955
951
955
959
959
957
954
954
956
959
959
957
954
954
958
960
960
958
956
954
956
958
958
957
957
956
958
961
962
958
957
956
958
959
962
961
955
955
960
963
962
957
955
959
960
962
963
962
960
959
960
966
966
965
962
961
962
963
966
962
963
960
962
967
967
966
960
962
967
968
969
967
965
968
968
970
969
973
969
969
970
974
974
972
969
972
976
979
981
979
980
982
985
988
991
991
993
992
1000
1008
1011
1008
1008
1005
1008
1010
1010
1008
1005
1002
1001
997
996
993
989
986
987
987
989
989
986
987
990
993
994
995
995
996
1005
1008
1018
1035
1057
1092
1134
1165
1188
1195
1191
1182
1158
1127
1086
1034
995
973
974
982
984
978
974
971
972
976
973
971
968
968
970
971
971
971
964
966
968
971
968
968
966
967
968
970
970
968
968
968
970
975
975
974
970
971
972
978
979
975
976
975
978
982
984
981
982
981
981
990
992
993
990
992
998
1001
1002
1003
1006
1006
1009
1017
1019
1021
1021
1023
1028
1035
1037
1038
1040
1045
1051
1057
1059
1064
1064
1068
1072
1082
1084
1086
1089
1091
1093
1099
1102
1100
1101
1103
1104
1109
1108
1105
1101
1102
1100
1101
1099
1095
1090
1083
1082
1081
1075
1071
1064
1061
1060
1057
1054
1047
1043
1034
1029
1033
1031
1025
1017
1018
1018
1018
1015
1012
1006
1005
1006
1006
1007
1002
1002
1002
1002
1006
1005
1002
1000
998
1003
1005
1006
1003
1001
1002
1004
1009
1009
1007
1005
1005
1007
1012
1014
1013
1013
1011
1011
1018
1023
1020
1017
1021
1028
1033
1033
1035
1037
1039
1046
1052
1057
1064
1074
1088
1103
1124
1144
1155
1159
1151
1145
1133
1114
1091
1056
1012
965
926
900
881
874
870
872
870
864
853
850
848
852
856
859
863
867
871
877
885
891
896
896
899
906
910
914
917
917
920
927
932
935
934
934
935
939
940
942
944
940
940
943
947
949
946
945
946
948
952
954
953
951
952
956
958
958
959
956
952
958
961
966
967
967
969
973
980
980
984
987
989
994
1006
1008
1013
1017
1021
1028
1039
1046
1047
1052
1057
1063
1071
1076
1078
1079
1082
1089
1089
1091
1091
1091
1086
1086
1087
1088
1086
1081
1077
1077
1074
1073
1065
1059
1055
1053
1051
1046
1041
1034
1031
1029
1028
1022
1022
1014
1010
1009
1010
1007
1002
997
996
992
996
992
992
987
987
988
990
991
988
984
984
988
988
988
989
983
983
985
988
986
985
981
979
983
985
984
979
979
977
979
980
979
980
974
975
976
975
977
974
972
972
972
971
972
969
966
966
962
963
965
966
962
962
966
965
964
962
959
958
963
962
962
961
959
956
954
960
962
958
953
950
955
956
957
955
952
951
954
957
958
956
953
950
953
957
957
957
955
956
961
961
965
962
957
948
947
947
949
950
947
947
950
949
948
949
947
950
952
954
951
952
949
949
951
953
955
952
950
947
952
955
957
953
951
951
952
954
954
955
950
951
954
954
957
952
952
952
956
958
959
956
954
954
957
959
961
955
954
951
955
959
959
957
954
957
956
960
961
959
955
954
958
959
959
961
959
958
959
963
963
960
957
957
960
964
961
961
960
959
963
965
964
961
960
958
961
966
965
963
961
958
960
962
965
965
961
963
961
965
966
965
963
965
967
971
971
966
965
963
965
967
969
967
964
964
967
970
969
969
968
968
968
972
973
971
969
969
972
971
972
970
967
971
970
972
978
974
973
973
973
978
981
980
980
979
982
986
988
992
989
990
992
1000
1005
1007
1008
1011
1013
1016
1017
1012
1010
1008
1006
1007
1004
1001
995
995
996
996
994
989
990
987
992
994
995
993
994
994
995
1002
1007
1011
1010
1023
1037
1064
1097
1132
1157
1179
1194
1198
1187
1164
1130
1083
1036
1001
978
976
978
979
979
979
977
976
972
972
973
975
974
972
967
968
970
973
973
971
969
969
967
972
971
971
967
964
969
973
972
971
970
967
969
975
974
973
972
971
976
979
980
976
976
977
981
984
986
983
984
984
987
992
994
992
993
994
995
1005
1007
1004
1006
1008
1012
1017
1022
1022
1024
1022
1029
1036
1041
1042
1045
1045
1051
1058
1062
1065
1065
1069
1074
1081
1085
1085
1086
1090
1094
1098
1100
1099
1097
1099
1100
1103
1106
1100
1099
1093
1093
1092
1091
1087
1083
1076
1074
1071
1071
1068
1061
1055
1051
1052
1048
1044
1041
1034
1035
1034
1033
1028
1020
1020
1019
1019
1017
1012
1011
1007
1009
1010
1011
1010
1007
1006
1009
1011
1010
1007
1003
1006
1010
1011
1012
1013
1011
1011
1012
1017
1018
1018
1016
1013
1018
1016
1018
1018
1016
1015
1019
1022
1022
1018
1014
1014
1015
1018
1018
1016
1016
1014
1013
1016
1015
1013
1009
1005
1006
1009
1008
1007
1002
999
998
1001
996
998
993
992
995
992
993
991
987
985
986
988
987
985
981
978
982
984
983
979
979
976
974
978
977
975
972
972
973
977
976
974
972
971
970
972
971
972
969
966
968
971
973
968
967
966
967
971
968
969
966
964
969
966
971
970
966
967
967
969
969
968
963
965
965
967
967
965
963
964
965
968
968
969
965
964
968
968
972
972
971
968
973
976
980
981
980
982
985
990
992
993
994
996
1000
1004
1006
1003
1000
1001
1003
1006
1005
1001
995
989
990
989
986
985
980
980
979
980
980
979
977
973
980
980
981
983
979
981
983
990
994
996
999
1009
1024
1048
1075
1104
1130
1151
1172
1186
1190
1182
1162
1135
1097
1056
1017
980
964
969
973
975
974
970
967
968
970
970
968
968
963
964
964
968
967
964
964
962
963
965
966
964
964
960
962
966
968
965
963
963
966
969
970
968
966
965
968
971
973
970
966
970
973
975
978
974
974
975
977
983
987
985
982
986
989
993
996
996
996
998
1001
1005
1008
1011
1008
1013
1016
1021
1026
1028
1028
1033
1038
1045
1050
1052
1054
1060
1067
1071
1079
1080
1080
1085
1091
1096
1098
1098
1098
1099
1102
1107
1107
1104
1102
1101
1101
1101
1100
1098
1092
1089
1086
1082
1079
1071
1067
1061
1061
1060
1052
1047
1040
1036
1033
1030
1028
1025
1019
1015
1014
1015
1009
1006
1002
999
998
994
993
991
986
984
986
986
986
986
979
980
980
981
981
980
977
976
976
980
982
979
974
978
980
980
983
983
981
982
982
988
988
989
986
988
990
994
994
995
995
994
1000
1004
1010
1011
1010
1015
1017
1029
1035
1036
1038
1043
1054
1064
1082
1094
1110
1130
1145
1152
1152
1140
1125
1110
1088
1061
1019
967
925
896
881
875
871
862
856
845
840
839
839
838
835
839
847
857
863
863
868
873
884
894
902
905
908
909
919
922
926
927
926
926
929
933
936
938
936
933
939
943
944
940
942
942
944
949
953
948
946
946
948
952
956
956
952
955
955
961
958
958
957
961
963
970
972
972
971
974
978
986
988
990
992
998
1002
1010
1016
1019
1022
1028
1035
1040
1048
1049
1053
1056
1064
1067
1072
1076
1076
1079
1082
1086
1089
1088
1088
1084
1086
1089
1088
1082
1079
1075
1073
1074
1070
1067
1055
1054
1052
1052
1046
1042
1036
1029
1030
1028
1022
1018
1012
1010
1009
1008
1006
1002
996
995
992
994
993
987
982
982
982
983
983
978
977
974
969
977
977
972
969
969
969
969
970
967
964
967
965
972
969
968
962
964
966
967
967
963
961
959
962
964
964
960
957
959
960
960
960
956
954
955
955
957
958
953
949
949
949
953
951
951
947
944
944
946
947
946
940
937
938
941
941
939
936
934
937
938
938
939
936
934
935
938
939
937
932
930
932
934
936
936
933
930
930
933
932
928
927
929
931
931
931
931
928
926
929
931
931
929
926
927
928
931
934
933
930
930
930
936
935
932
930
933
932
935
933
932
930
929
928
933
935
931
930
930
931
937
935
936
930
931
933
934
937
936
934
933
935
937
937
939
935
936
936
937
937
935
933
931
935
938
939
937
933
934
936
939
939
938
934
935
937
940
938
937
936
936
938
942
942
939
939
937
937
943
943
940
935
936
939
941
941
939
938
936
939
942
943
941
937
938
939
941
943
942
939
938
940
942
942
942
940
941
943
947
948
948
946
944
946
946
950
949
946
945
949
950
951
949
947
947
949
949
951
951
947
947
947
952
951
949
947
949
952
954
954
954
949
950
951
954
953
949
950
951
951
952
953
953
953
954
954
958
955
954
955
954
957
960
958
958
960
961
961
967
968
967
963
966
965
971
975
974
969
975
980
985
987
989
990
992
997
1000
997
992
990
989
992
991
989
986
981
979
976
979
982
977
972
972
974
974
979
977
976
974
978
983
986
986
986
990
995
1003
1010
1022
1034
1062
1098
1132
1159
1177
1181
1178
1173
1157
1134
1091
1050
1009
977
967
968
970
967
961
964
964
965
962
961
961
961
962
963
959
957
956
960
963
965
962
956
957
958
962
963
962
959
958
956
962
964
962
958
958
958
960
964
964
961
961
964
965
966
964
964
964
970
973
975
974
970
970
971
973
976
979
979
983
985
989
989
990
989
992
996
1000
1003
1005
1004
1006
1013
1017
1020
1023
1020
1023
1028
1033
1038
1041
1042
1046
1052
1058
1062
1064
1067
1069
1075
1077
1081
1084
1081
1085
1088
1093
1096
1094
1093
1092
1093
1097
1097
1092
1089
1086
1085
1085
1082
1076
1073
1068
1064
1065
1062
1056
1051
1045
1042
1043
1041
1035
1029
1023
1022
1020
1018
1014
1010
1006
1006
1007
1003
999
993
994
994
996
996
991
989
989
988
990
992
987
987
986
989
992
990
992
990
991
993
994
998
995
996
996
997
1003
1005
1003
1000
1001
1004
1006
1009
1005
1005
1006
1005
1010
1011
1012
1011
1011
1015
1016
1021
1019
1016
1020
1023
1027
1034
1033
1032
1035
1043
1055
1072
1085
1102
1130
1154
1173
1183
1180
1173
1158
1144
1127
1095
1053
998
944
904
885
874
866
864
858
851
847
841
834
832
833
837
840
849
858
861
866
873
882
885
888
888
896
904
910
913
909
913
913
921
927
930
932
927
929
933
935
939
939
938
939
942
946
949
946
944
943
947
949
952
950
949
948
951
954
957
956
954
954
955
961
964
963
962
963
964
970
970
973
975
977
979
984
990
993
994
1001
1006
1010
1020
1024
1029
1034
1040
1048
1058
1058
1062
1064
1073
1079
1084
1088
1086
1088
1091
1093
1094
1091
1090
1087
1090
1090
1089
1086
1080
1077
1074
1073
1068
1063
1054
1052
1048
1046
1043
1038
1031
1024
1022
1019
1017
1011
1005
1001
999
1000
997
991
986
984
986
986
986
981
977
978
976
978
980
976
973
970
972
975
974
974
972
967
971
972
971
970
967
966
972
969
971
970
964
964
966
972
969
968
964
966
967
969
970
967
963
963
963
966
965
960
959
958
958
958
957
959
954
950
952
955
953
952
948
946
947
948
948
947
944
944
945
947
946
941
940
940
941
943
945
942
940
937
938
939
942
940
934
935
936
939
940
933
929
929
931
937
938
936
931
928
929
934
934
934
931
928
931
933
933
930
932
930
930
934
934
934
932
932
932
936
938
937
934
934
932
936
939
937
934
931
936
937
935
937
934
933
937
937
935
932
931
932
933
936
939
936
935
935
938
939
938
937
933
933
935
939
939
935
934
933
933
935
938
935
932
933
936
939
938
936
931
933
934
937
938
938
934
932
936
939
940
935
934
934
935
937
939
939
931
931
933
939
939
936
933
932
937
938
938
935
932
935
936
934
934
937
933
931
936
939
941
935
935
935
935
937
938
938
935
933
934
938
938
935
935
934
935
940
937
937
935
934
937
938
941
938
934
934
935
938
937
938
932
935
937
938
940
937
939
938
938
942
944
940
939
938
941
942
945
943
942
938
942
944
946
945
941
940
945
949
951
949
949
949
951
953
952
953
950
954
955
959
962
961
962
965
970
977
984
986
987
987
985
982
979
979
976
974
974
972
969
967
962
961
957
960
961
959
958
955
959
963
963
964
963
966
968
974
977
983
992
1013
1048
1090
1133
1169
1185
1194
1193
1178
1153
1104
1044
987
945
938
949
955
953
944
946
953
952
950
944
946
947
948
950
946
945
941
944
947
948
947
942
942
944
949
949
949
946
945
947
949
