897
899
899
898
899
899
898
895
893
898
897
899
895
891
892
893
893
897
900
898
893
894
897
903
905
902
907
904
915
920
919
917
920
929
935
940
939
942
944
949
957
964
967
968
972
972
980
985
984
984
983
985
990
991
990
986
987
989
992
991
989
981
980
977
975
982
979
974
970
969
973
975
972
967
965
963
966
967
963
962
962
963
965
968
967
967
966
968
970
976
982
984
984
984
988
992
987
986
985
982
983
979
977
977
977
981
984
986
988
989
987
990
996
998
1001
1000
1000
1002
1004
1004
1000
990
985
991
1001
1004
998
988
977
975
978
981
983
985
982
983
987
993
988
985
981
979
985
992
989
987
985
984
987
987
983
980
980
980
984
985
984
981
979
983
984
988
987
985
979
979
982
986
986
984
985
985
986
988
991
990
988
990
988
989
985
980
978
974
976
984
989
986
985
980
984
991
994
993
988
989
993
1001
1008
1017
1022
1020
1008
991
970
957
957
963
967
971
973
977
979
982
983
992
989
990
986
987
989
992
990
986
984
985
991
995
995
989
989
988
992
999
1002
1009
1012
1013
1021
1025
1028
1029
1030
1033
1035
1042
1047
1052
1054
1055
1058
1056
1048
1039
1032
1031
1036
1037
1036
1026
1020
1014
1011
1008
1005
1002
996
996
994
994
994
989
986
986
990
996
992
989
986
984
985
994
1003
1027
1072
1133
1205
1270
1318
1353
1368
1369
1352
1317
1257
1177
1088
1003
955
960
979
985
983
981
984
989
993
993
992
985
976
972
963
957
960
962
967
968
968
969
966
970
975
979
978
975
975
979
985
992
995
995
993
992
983
986
984
988
991
993
986
976
967
962
963
972
981
989
1000
1007
1023
1042
1063
1068
1052
1026
997
978
973
971
970
968
973
983
992
1004
1009
1013
1017
1019
1026
1034
1042
1045
1048
1052
1057
1062
1065
1066
1066
1070
1073
1084
1086
1091
1090
1094
1094
1096
1093
1086
1079
1077
1079
1080
1079
1079
1078
1076
1070
1075
1079
1074
1067
1061
1060
1062
1060
1055
1049
1045
1044
1044
1043
1040
1037
1036
1038
1039
1034
1023
1018
1019
1020
1024
1023
1022
1019
1016
1020
1020
1019
1018
1019
1027
1034
1037
1036
1038
1040
1046
1054
1066
1071
1074
1079
1080
1086
1097
1110
1127
1144
1165
1191
1218
1245
1272
1306
1344
1377
1401
1406
1394
1375
1354
1332
1304
1264
1206
1140
1079
1032
1006
984
967
955
955
955
952
944
941
935
939
952
963
971
974
978
981
985
989
986
992
993
1002
1010
1018
1018
1013
1008
1008
1008
1008
1007
1002
999
994
992
990
982
976
968
967
966
968
962
956
955
956
963
965
961
959
957
959
962
967
965
961
955
948
953
957
961
963
960
965
970
976
981
992
998
1002
1004
1008
1017
1024
1023
1026
1032
1040
1042
1044
1038
1039
1047
1055
1052
1048
1043
1034
1036
1039
1041
1039
1033
1025
1024
1024
1020
1019
1019
1015
1016
1017
1011
1011
1004
1003
999
1000
997
990
988
990
993
996
999
998
994
984
988
992
992
987
983
986
986
986
986
982
982
981
983
990
990
988
983
983
988
996
996
994
995
999
1001
994
976
958
951
957
966
972
971
968
970
970
971
976
977
972
971
966
965
968
969
966
964
963
965
969
969
972
966
964
965
968
966
957
950
952
961
971
967
960
954
957
958
960
957
953
955
959
960
959
955
955
954
956
954
954
952
951
956
957
960
960
962
957
953
945
942
959
965
956
941
938
946
960
965
963
953
946
956
968
970
966
958
960
960
959
956
954
951
949
960
967
962
955
953
961
974
977
974
972
968
963
965
972
969
967
969
972
971
966
964
962
962
968
973
980
976
971
974
969
966
967
974
983
985
981
980
980
984
984
981
986
1001
1013
1013
1006
999
996
1007
1031
1050
1050
1041
1039
1048
1058
1057
1048
1042
1042
1041
1042
1039
1034
1023
1015
1005
995
981
988
1005
1015
1017
1010
1002
1000
994
992
993
999
1001
996
989
979
973
976
987
1015
1071
1149
1233
1298
1343
1360
1371
1364
1345
1301
1225
1133
1039
965
945
959
969
967
967
971
979
987
986
983
979
973
974
981
985
982
981
978
979
983
981
977
974
975
978
981
978
978
979
977
981
981
983
980
978
979
982
988
983
984
983
985
987
991
988
989
992
996
996
989
987
998
1007
1004
1004
1006
1000
997
1003
1013
1015
1015
1019
1024
1028
1025
1024
1030
1028
1029
1031
1030
1037
1041
1040
1037
1036
1040
1045
1045
1041
1040
1042
1047
1047
1049
1055
1058
1053
1051
1055
1058
1060
1052
1048
1045
1045
1049
1047
1037
1037
1039
1041
1037
1033
1026
1030
1028
1027
1025
1025
1025
1023
1023
1022
1020
1008
997
987
984
989
989
987
984
985
985
992
995
992
984
987
991
996
1001
1005
1008
1005
1000
998
1010
1021
1023
1026
1036
1050
1059
1073
1080
1088
1105
1128
1149
1171
1193
1217
1240
1260
1262
1245
1211
1164
1109
1049
993
945
889
843
820
825
836
840
837
831
829
834
836
829
823
832
849
870
893
913
927
934
936
945
961
971
971
969
965
971
983
990
996
996
1003
1008
1008
1005
1001
999
996
992
993
988
981
978
979
983
985
987
988
991
990
989
991
997
1006
1009
1011
1013
1021
1026
1029
1033
1040
1052
1061
1069
1072
1075
1082
1090
1100
1106
1112
1113
1118
1118
1117
1117
1118
1115
1116
1120
1129
1129
1124
1122
1117
1116
1108
1102
1098
1099
1100
1098
1090
1083
1074
1066
1061
1062
1063
1058
1048
1038
1034
1037
1034
1024
1016
1007
1002
1006
1011
1012
1005
986
974
971
983
999
1000
994
994
996
994
991
983
977
977
979
985
984
976
968
975
979
982
977
974
974
972
971
972
966
964
968
969
974
977
973
965
962
963
964
969
972
974
968
966
960
962
960
956
951
954
960
968
965
960
954
953
960
963
957
952
951
958
962
968
966
963
956
953
957
965
963
957
954
952
954
952
949
949
958
965
961
959
952
950
946
949
955
963
959
955
947
949
952
956
954
952
951
949
953
956
954
948
944
947
954
955
958
958
956
954
953
955
955
950
949
954
960
960
960
957
952
955
954
956
954
951
946
948
954
960
962
961
959
958
958
960
959
956
955
958
962
964
962
959
960
966
969
968
963
956
958
959
964
968
975
976
979
982
985
992
993
988
993
1000
1007
1021
1024
1021
1019
1018
1024
1026
1027
1024
1015
1003
991
993
993
990
985
988
984
981
974
960
945
939
935
944
947
949
944
940
942
942
937
937
948
979
1038
1119
1201
1274
1325
1358
1371
1369
1334
1262
1160
1036
937
898
909
930
932
931
933
935
941
944
937
934
939
948
954
949
942
942
946
947
945
937
934
932
937
941
941
935
934
935
939
943
943
945
946
946
947
949
945
944
947
952
954
952
951
951
952
949
954
954
957
959
960
960
965
970
966
966
970
977
983
987
990
991
996
1000
1007
1012
1009
998
990
995
1001
1007
1012
1013
1013
1016
1021
1022
1025
1025
1024
1020
1023
1026
1025
1018
1016
1013
1012
1014
1013
1009
1006
1005
1006
1006
998
994
986
988
989
989
987
982
975
968
968
972
978
978
977
969
970
979
992
997
987
972
963
957
964
966
968
969
974
979
981
983
983
989
999
1014
1030
1053
1073
1095
1122
1150
1179
1206
1237
1272
1310
1343
1375
1394
1399
1388
1364
1337
1298
1245
1182
1112
1042
988
952
930
914
897
885
887
884
887
893
901
911
927
930
932
930
930
928
934
940
943
949
955
960
958
956
945
941
939
936
934
927
922
913
903
891
887
888
890
895
892
894
894
890
885
877
873
874
880
878
875
873
870
869
873
875
878
877
884
890
900
904
910
909
912
913
915
913
917
924
928
932
934
933
941
950
957
962
960
960
965
965
963
963
966
966
965
961
957
959
962
962
960
954
950
952
955
958
953
949
946
950
957
958
956
952
947
949
953
956
955
957
958
962
962
966
966
969
965
954
940
932
933
943
950
955
954
951
950
950
949
954
959
960
963
967
970
972
971
971
967
969
974
977
978
972
961
951
949
952
955
958
962
961
954
954
958
965
967
961
955
955
951
947
956
963
965
959
954
956
954
953
954
956
958
958
957
953
952
952
956
957
954
951
950
953
956
953
951
949
951
953
954
953
952
952
950
949
947
952
955
954
951
950
956
960
962
955
957
957
954
953
956
954
955
956
963
966
964
965
968
965
959
952
945
943
943
949
953
955
952
948
946
953
953
955
952
953
954
953
956
960
960
956
954
958
962
961
956
953
955
961
963
964
961
960
958
961
965
967
971
973
973
978
984
989
994
997
1003
1014
1026
1039
1037
1032
1033
1031
1026
1018
1015
1014
1009
999
989
983
985
978
974
971
970
970
970
967
968
973
975
978
982
984
989
991
989
973
952
945
970
1027
1109
1198
1270
1324
1360
1380
1383
1358
1302
1211
1095
972
895
880
905
928
935
935
939
944
948
951
954
952
955
958
957
953
946
941
946
952
954
948
948
950
952
952
948
947
950
952
953
955
957
957
952
953
960
962
963
960
959
963
967
969
966
966
964
967
974
978
979
980
980
981
982
986
992
997
1002
1009
1014
1011
1011
1005
1009
1015
1022
1026
1023
1024
1032
1037
1037
1031
1028
1024
1026
1029
1034
1038
1042
1046
1048
1055
1060
1057
1054
1054
1062
1070
1074
1076
1072
1063
1059
1060
1067
1058
1043
1035
1036
1038
1039
1038
1032
1027
1028
1027
1022
1017
1019
1023
1014
1002
994
994
990
985
982
985
986
990
987
985
986
989
994
991
990
992
999
1003
1006
1008
1016
1022
1025
1028
1033
1027
1034
1046
1054
1068
1079
1085
1095
1123
1160
1204
1242
1275
1300
1330
1364
1396
1420
1415
1383
1345
1308
1271
1238
1187
1117
1040
983
950
935
917
905
898
893
898
912
930
942
944
948
953
963
966
967
967
969
972
979
983
988
993
997
1000
1000
997
994
987
986
987
988
984
975
966
957
953
952
946
941
940
936
937
937
939
941
938
939
942
945
944
942
937
927
922
932
949
963
970
978
983
984
972
960
952
958
969
979
990
998
1003
1009
1012
1022
1026
1026
1030
1030
1031
1038
1039
1034
1029
1024
1027
1032
1031
1028
1023
1019
1018
1020
1015
1010
1003
998
996
997
995
987
982
981
981
985
985
980
980
976
974
978
985
988
982
978
976
978
982
990
989
986
992
992
990
992
990
989
990
992
993
1000
1000
994
986
981
979
977
974
968
970
980
993
999
998
997
999
1004
1006
1006
1009
1011
1016
1020
1013
994
967
953
953
960
962
958
959
964
965
967
967
970
968
969
969
970
970
968
965
962
962
964
966
965
961
962
961
964
964
963
963
960
963
964
965
959
954
957
963
966
965
962
959
958
959
958
959
959
960
959
961
962
964
964
959
957
959
960
960
960
955
958
959
962
965
964
957
954
958
967
973
968
963
961
965
970
969
963
960
957
956
961
958
957
952
954
956
956
957
956
950
951
954
956
957
959
956
958
965
973
970
956
951
947
948
948
952
955
958
960
967
970
970
970
969
970
976
983
991
988
986
986
996
1007
1017
1027
1028
1033
1033
1036
1032
1032
1031
1029
1023
1014
1006
997
989
984
983
980
973
966
959
959
959
962
964
963
960
956
950
953
960
960
953
943
947
965
999
1049
1117
1203
1283
1344
1380
1399
1399
1377
1324
1237
1120
995
907
880
902
927
934
928
926
930
936
941
943
940
935
932
930
938
941
936
927
930
937
948
952
948
935
928
939
948
948
941
934
936
942
946
951
949
942
935
932
935
945
960
961
953
938
939
943
947
946
941
945
949
953
956
954
954
955
961
968
971
967
969
972
975
981
981
978
980
986
993
999
997
998
1001
1000
1006
1012
1017
1017
1021
1022
1022
1023
1026
1027
1026
1031
1042
1049
1055
1056
1056
1054
1050
1045
1046
1048
1049
1044
1044
1045
1042
1036
1032
1031
1028
1029
1023
1016
1010
1009
1009
1004
1002
995
993
994
999
997
995
988
985
979
979
976
971
971
977
983
985
983
978
973
973
982
983
986
987
983
988
989
992
998
1002
1013
1025
1040
1055
1067
1077
1093
1116
1144
1170
1200
1232
1267
1309
1348
1374
1371
1349
1323
1300
1281
1241
1177
1092
999
935
910
916
921
913
897
884
883
886
893
903
912
921
930
937
942
946
949
948
955
965
974
976
976
978
987
991
997
1001
999
1002
1006
1013
1017
1016
1016
1014
1014
1015
1010
1001
995
989
984
977
973
968
962
961
963
966
967
965
968
966
973
977
981
984
985
990
998
1002
1003
1008
1015
1020
1025
1036
1041
1041
1043
1050
1055
1056
1056
1060
1057
1061
1065
1068
1068
1068
1068
1065
1063
1063
1062
1059
1048
1044
1042
1050
1049
1043
1034
1029
1033
1037
1040
1040
1034
1027
1019
1004
993
984
979
978
978
979
979
975
972
974
981
994
995
999
992
990
991
989
993
991
991
990
987
990
991
990
988
990
994
999
1001
1000
998
1005
1014
1019
1015
1008
998
988
981
975
969
964
966
979
986
984
975
977
978
979
979
983
984
982
978
973
975
977
977
977
976
976
974
973
973
975
972
970
968
969
971
965
964
963
965
968
972
970
968
966
967
971
969
968
968
967
963
958
958
961
967
960
961
960
957
959
960
967
976
980
981
977
969
964
966
970
969
970
964
963
967
971
971
967
966
964
963
965
967
963
963
964
968
968
969
965
963
963
963
967
964
964
965
961
963
966
964
963
964
967
967
969
967
964
963
966
972
975
973
973
970
969
969
968
962
959
958
960
964
965
965
964
960
961
960
962
965
962
959
959
961
962
971
969
967
971
975
979
986
982
967
964
970
977
987
996
1005
1014
1019
1015
1005
998
1000
1013
1028
1041
1051
1046
1043
1037
1037
1038
1039
1036
1024
1015
1002
992
986
979
974
966
965
965
964
961
959
963
966
968
968
966
966
962
957
952
944
940
951
980
1031
1108
1199
1283
1344
1383
1407
1416
1397
1350
1264
1157
1036
936
892
901
925
937
938
939
942
945
942
941
944
949
949
949
942
941
940
942
942
944
944
942
943
945
947
946
945
946
950
962
971
971
961
945
934
935
937
940
940
938
936
938
942
941
944
947
947
954
958
956
957
955
959
960
963
965
967
970
974
978
976
978
982
979
981
985
992
993
996
994
999
1003
1007
1011
1013
1017
1018
1026
1027
1028
1026
1029
1035
1039
1041
1040
1039
1042
1047
1049
1047
1044
1042
1043
1045
1049
1047
1048
1044
1040
1040
1037
1035
1030
1023
1021
1022
1023
1021
1017
1011
1009
1008
1009
1004
1002
999
993
989
994
994
993
991
989
988
987
990
988
984
984
984
986
987
986
987
984
988
990
991
989
988
996
1004
1014
1024
1017
1009
999
996
1006
1031
1047
1059
1074
1090
1109
1128
1152
1181
1213
1254
1299
1336
1368
1379
1371
1337
1302
1266
1231
1194
1153
1097
1039
982
941
912
890
875
871
872
875
869
873
884
897
911
922
926
926
926
922
921
916
916
921
923
929
929
928
932
934
935
938
939
940
940
943
947
954
950
948
945
946
949
952
948
943
938
932
928
929
927
928
926
921
925
932
935
931
930
931
934
941
945
947
948
947
951
959
966
970
972
977
981
988
993
994
999
1003
1009
1011
1014
1012
1013
1011
1015
1020
1022
1019
1017
1016
1017
1020
1019
1011
1008
1005
1004
1006
1003
998
997
996
995
994
991
991
988
979
979
979
982
976
970
966
970
973
972
970
968
968
972
971
972
972
970
973
976
980
984
987
987
983
979
975
973
969
970
967
966
963
963
964
967
969
969
971
970
965
962
961
963
964
965
961
961
959
956
960
960
958
957
957
957
959
960
958
956
953
952
956
956
955
951
948
945
948
948
944
944
943
945
950
948
945
942
940
939
943
942
942
940
939
942
943
944
940
937
937
937
937
936
935
930
929
932
936
935
936
933
932
933
935
935
933
927
928
934
938
939
937
928
931
936
936
939
936
935
934
936
940
938
940
931
930
932
939
945
950
953
950
952
955
963
963
951
938
930
930
941
946
936
918
901
898
901
912
916
918
920
924
929
930
927
925
929
934
934
934
934
929
931
933
931
931
928
929
935
939
940
940
936
938
941
943
945
944
944
941
941
945
944
945
942
941
942
948
954
956
948
937
938
942
948
953
950
953
956
959
971
974
973
972
974
980
991
1000
1012
1018
1022
1021
1019
1013
1014
1017
1023
1022
1020
1011
998
988
985
982
984
979
968
961
956
953
955
955
953
952
954
958
959
959
955
950
944
936
937
952
992
1066
1162
1260
1336
1382
1402
1404
1378
1318
1217
1099
971
886
873
905
932
934
930
934
938
946
952
950
945
942
945
944
947
946
944
946
947
949
952
947
945
946
945
947
950
946
949
948
951
951
956
955
952
948
951
953
959
957
955
958
960
965
970
968
966
967
971
978
979
974
975
974
979
986
988
991
987
991
993
995
1000
999
1002
1004
1008
1013
1020
1023
1021
1024
1026
1031
1035
1037
1037
1039
1039
1044
1047
1048
1045
1042
1048
1051
1045
1044
1038
1039
1041
1040
1040
1038
1033
1032
1028
1026
1023
1021
1020
1020
1016
1013
1013
1011
1010
1012
1022
1031
1029
1008
989
975
974
972
971
966
958
961
962
972
974
974
975
973
979
984
985
986
986
992
994
1001
1006
1008
1012
1017
1022
1031
1048
1071
1098
1127
1152
1173
1189
1205
1221
1249
1291
1335
1370
1390
1397
1388
1369
1333
1293
1251
1214
1183
1131
1063
988
929
890
867
852
848
857
871
892
910
930
938
937
931
929
926
928
931
934
928
921
919
923
931
931
928
928
927
926
933
935
934
932
930
935
942
947
945
949
948
952
958
956
954
945
934
931
931
931
929
928
930
935
938
942
944
944
943
948
958
963
967
967
972
977
985
994
996
998
1005
1006
1017
1021
1021
1021
1024
1031
1037
1038
1035
1032
1029
1029
1028
1030
1027
1023
1018
1019
1020
1015
1007
1005
1005
1005
1008
1007
1002
995
994
990
992
992
989
990
986
984
985
