1003
1002
1005
1010
1014
1019
1020
1020
1021
1023
1028
1036
1040
1040
1039
1044
1048
1053
1056
1056
1055
1057
1061
1064
1061
1060
1057
1059
1061
1059
1057
1053
1053
1053
1054
1054
1051
1043
1039
1038
1042
1041
1036
1032
1025
1025
1025
1028
1026
1022
1019
1020
1021
1019
1016
1013
1010
1009
1010
1013
1010
1005
1004
1003
1006
1007
1007
1008
1005
1010
1013
1013
1015
1019
1022
1027
1033
1044
1045
1050
1055
1067
1080
1096
1113
1127
1139
1151
1171
1181
1192
1199
1212
1228
1249
1267
1286
1302
1312
1320
1325
1327
1319
1311
1294
1279
1257
1224
1188
1153
1123
1095
1068
1044
1023
1007
993
987
988
991
992
989
984
975
972
967
961
956
951
953
948
946
935
926
914
910
906
901
894
884
874
870
867
863
857
852
846
843
839
840
835
830
823
821
819
816
809
800
796
795
795
792
789
783
775
776
775
775
770
765
764
764
765
764
764
763
760
763
770
775
777
775
778
781
792
796
799
803
807
816
825
834
838
841
844
849
856
864
869
870
875
877
882
886
890
893
892
899
901
908
908
908
909
912
915
921
923
920
921
924
929
934
933
932
934
938
942
945
947
943
946
949
954
956
955
951
955
957
960
964
963
962
963
967
967
972
968
968
969
971
972
975
972
969
965
969
973
975
967
967
966
965
967
970
967
964
964
966
967
966
963
963
961
961
965
968
967
965
960
960
961
963
962
959
957
958
959
962
960
957
955
954
957
959
960
953
954
954
956
956
955
951
951
951
951
954
952
949
948
950
950
953
949
948
944
945
948
946
949
947
945
946
950
950
950
947
945
945
949
946
948
944
946
946
948
951
950
947
944
947
946
946
947
942
941
941
946
946
947
943
944
945
946
948
942
942
942
941
942
944
945
945
944
946
948
951
950
949
949
947
947
954
956
957
958
961
966
970
976
977
978
981
987
991
995
995
994
995
997
998
995
990
985
980
980
977
970
967
958
956
956
956
953
946
946
945
949
953
952
951
950
955
960
966
967
973
986
1004
1029
1062
1096
1126
1147
1163
1167
1165
1152
1122
1082
1032
980
938
907
903
911
919
921
922
922
918
923
923
926
925
925
922
920
922
922
924
925
924
920
918
921
922
923
921
918
918
920
924
924
919
920
921
922
926
925
924
920
922
925
926
929
928
930
930
934
939
939
936
936
938
942
946
946
949
946
951
953
958
961
959
960
963
965
974
974
971
976
979
988
991
993
997
994
998
1004
1008
1012
1013
1012
1018
1019
1028
1026
1027
1028
1029
1033
1037
1035
1033
1027
1030
1033
1031
1029
1023
1020
1017
1017
1013
1009
1006
1003
1000
997
993
988
986
981
979
980
982
977
973
968
965
969
969
968
966
963
965
966
969
966
966
965
965
966
968
968
969
968
973
977
983
986
991
1000
1014
1031
1051
1066
1082
1099
1120
1139
1161
1181
1201
1222
1248
1276
1299
1313
1314
1310
1303
1290
1269
1240
1196
1141
1084
1047
1026
1011
992
978
964
959
954
948
940
941
947
953
956
954
947
939
942
940
941
938
930
928
925
924
918
911
902
895
892
890
883
878
870
863
862
857
860
855
849
842
843
843
844
842
835
832
833
835
837
834
828
831
830
828
834
832
830
831
831
832
831
832
829
834
840
846
854
856
856
860
866
874
879
883
883
888
894
899
906
903
904
909
912
919
919
915
909
905
903
907
912
911
904
901
902
905
906
907
903
906
907
910
913
911
909
909
912
917
920
919
917
915
916
918
919
920
920
921
920
924
926
926
926
927
930
930
936
942
941
944
947
948
952
954
951
951
949
954
954
949
946
946
944
946
951
952
947
947
949
949
954
951
948
946
945
949
951
947
943
942
946
946
948
951
951
950
950
949
951
950
948
949
949
956
959
957
953
945
940
936
935
935
927
922
924
930
935
939
938
939
938
940
941
940
933
936
938
943
947
947
941
936
934
936
938
937
934
935
942
945
946
942
937
933
929
930
931
934
937
937
941
941
941
939
934
933
936
940
944
947
945
944
943
944
946
947
946
943
947
950
952
949
946
943
944
944
942
938
933
937
937
944
948
952
953
949
948
951
955
961
964
968
975
980
985
988
993
997
1005
1013
1018
1021
1023
1023
1019
1014
1008
998
992
987
984
986
981
975
961
959
958
957
960
963
962
961
958
961
959
957
952
957
958
958
968
984
1012
1059
1116
1172
1216
1245
1260
1264
1257
1233
1185
1117
1039
980
962
974
984
980
968
954
946
945
954
954
958
953
949
940
936
936
939
942
942
941
950
949
954
955
957
961
964
973
981
986
981
969
957
945
935
941
952
956
954
947
949
953
969
991
1006
995
966
932
920
927
946
955
958
958
963
970
974
976
973
975
981
988
994
998
998
1004
1013
1021
1030
1039
1035
1021
1006
1013
1030
1046
1049
1044
1034
1029
1023
1016
1016
1020
1023
1026
1032
1033
1034
1037
1047
1059
1054
1039
1025
1019
1024
1031
1037
1040
1043
1043
1031
1018
1009
1005
994
986
982
987
993
993
990
987
989
989
992
992
989
992
1003
1011
1014
1009
1000
994
990
989
994
1006
1016
1013
999
986
980
989
1007
1027
1030
1031
1042
1063
1081
1086
1092
1103
1116
1122
1135
1161
1189
1207
1205
1187
1147
1106
1068
1032
998
957
917
879
863
861
869
874
880
900
926
927
898
875
888
927
949
950
937
926
928
938
953
972
980
962
929
927
953
981
985
964
945
948
962
979
986
988
986
987
988
974
960
959
965
969
975
979
981
984
983
985
989
992
997
1000
1000
1003
1009
1019
1025
1029
1033
1039
1050
1055
1048
1044
1046
1053
1061
1069
1069
1075
1078
1078
1074
1072
1065
1066
1065
1058
1046
1044
1049
1052
1051
1050
1052
1047
1042
1034
1035
1031
1027
1027
1027
1028
1023
1008
1000
1002
1007
1011
1009
1010
1008
1005
996
987
974
966
966
971
975
971
968
967
969
971
972
972
972
972
973
973
975
975
972
968
959
955
958
965
970
967
964
963
963
958
955
953
947
940
940
945
947
944
943
944
946
941
939
937
939
940
943
940
937
940
940
937
939
940
942
943
938
935
938
942
947
944
945
945
954
948
929
923
927
932
936
929
927
927
929
933
931
933
929
932
933
937
942
942
941
938
940
941
939
940
941
944
948
943
937
935
951
965
963
939
913
904
913
919
922
930
938
940
938
939
936
934
930
931
945
960
961
955
946
935
918
911
913
922
934
945
950
946
938
929
932
939
945
947
948
955
956
956
939
927
932
939
938
930
923
931
941
936
927
930
946
958
961
968
970
962
945
937
946
955
954
946
949
951
948
941
945
953
952
950
955
968
981
979
961
958
969
986
1003
1007
1008
1015
1030
1031
1012
995
991
996
995
997
999
995
987
975
958
945
949
956
961
957
958
968
982
995
991
969
941
924
920
919
920
938
965
999
1044
1094
1142
1173
1191
1208
1224
1228
1210
1172
1124
1055
978
926
919
929
935
931
924
924
928
930
930
932
930
926
932
935
933
926
925
921
920
916
919
924
927
924
919
914
915
913
911
910
912
915
915
919
922
918
917
917
915
917
919
923
919
917
919
925
927
929
922
924
921
928
929
931
931
934
933
936
940
941
941
942
940
949
952
957
957
955
959
965
971
974
972
965
965
971
980
983
980
975
978
985
991
991
988
982
984
984
988
989
990
989
990
994
994
995
989
976
972
974
981
986
984
976
963
954
948
943
942
939
945
944
950
947
946
944
943
943
947
946
943
942
944
949
952
953
954
953
960
967
977
982
984
984
993
1008
1017
1017
1015
1018
1032
1061
1093
1115
1130
1140
1150
1165
1182
1199
1208
1206
1196
1180
1165
1143
1121
1091
1054
1023
985
955
929
912
906
904
901
898
897
896
902
906
911
915
924
933
932
918
904
893
897
911
925
935
936
925
918
924
945
963
981
987
980
967
961
951
938
924
923
932
946
955
967
974
971
957
951
952
956
950
940
937
951
974
994
1001
997
967
927
912
930
950
959
966
976
988
1003
1009
1001
1003
1017
1022
1016
1020
1039
1061
1060
1027
990
976
990
1016
1031
1039
1029
1024
1029
1030
1011
993
1000
1018
1025
1007
983
982
999
1013
1016
1012
1012
1011
1005
995
988
980
982
984
988
972
959
960
977
982
972
961
967
967
962
957
951
947
947
952
953
951
947
954
956
958
957
958
963
970
977
977
976
965
953
944
939
936
935
940
947
947
944
943
945
949
952
943
944
940
943
947
952
953
955
957
963
971
967
952
942
956
981
984
965
941
928
928
942
961
964
946
926
920
924
926
936
944
957
961
959
954
944
944
948
952
955
945
949
958
964
954
947
945
951
946
938
938
945
949
951
947
945
950
962
968
954
929
912
910
926
941
944
937
929
935
942
941
932
931
932
931
932
933
936
935
938
939
944
949
953
953
956
966
976
982
969
939
929
930
933
934
943
962
964
941
916
916
928
933
932
932
938
945
950
948
943
932
934
937
944
949
947
943
944
944
952
951
953
950
947
947
945
945
942
940
944
953
958
953
950
945
947
947
947
953
956
960
963
967
975
975
975
976
982
994
1003
1011
1012
1008
1009
1012
1014
1013
1004
990
984
989
996
994
983
972
966
970
968
969
971
969
968
971
972
968
961
960
961
964
966
964
957
951
957
978
1005
1048
1095
1149
1200
1241
1266
1276
1275
1257
1227
1183
1127
1055
990
954
949
955
957
952
947
948
949
953
955
953
954
947
942
942
947
951
950
945
942
950
955
955
948
942
943
945
942
944
942
945
944
945
949
947
946
949
949
943
940
939
946
949
949
950
954
956
954
950
948
950
955
961
962
960
958
960
963
964
963
967
970
974
978
975
975
972
977
984
989
990
991
990
995
1001
1005
1003
1001
1000
1004
1011
1017
1013
1011
1009
1014
1017
1019
1018
1017
1015
1014
1018
1019
1017
1015
1010
1006
1011
1015
1014
1013
1011
1007
1011
1011
1007
998
994
1002
1007
1008
1002
996
991
990
990
989
988
986
984
986
984
985
983
984
979
980
982
982
982
982
981
981
985
987
987
992
993
996
995
998
999
1001
1003
1011
1019
1023
1028
1030
1031
1046
1058
1066
1072
1075
1083
1097
1112
1122
1132
1141
1147
1148
1138
1116
1081
1042
1002
967
925
880
841
808
782
773
773
781
786
786
788
796
803
811
815
819
822
831
844
860
875
883
893
903
920
939
949
956
956
960
970
980
988
986
985
986
989
989
991
990
987
987
990
987
988
982
978
980
981
983
981
983
983
987
993
997
1001
1005
1004
1004
1000
1009
1021
1027
1027
1033
1048
1058
1066
1070
1073
1079
1088
1093
1100
1104
1108
1116
1124
1133
1135
1136
1137
1143
1146
1147
1149
1145
1143
1141
1147
1146
1143
1137
1138
1135
1138
1135
1128
1120
1113
1109
1105
1102
1098
1087
1081
1073
1073
1073
1068
1063
1050
1047
1046
1045
1039
1031
1026
1022
1017
1019
1014
1006
996
997
993
995
994
999
995
993
989
989
986
982
979
974
975
980
980
975
971
970
969
970
969
965
967
971
976
976
972
959
945
937
937
935
937
935
934
934
937
938
935
931
933
930
935
940
937
934
926
928
932
935
934
933
930
927
931
933
928
926
923
930
932
932
930
931
923
922
924
927
925
925
920
924
928
934
931
927
923
924
928
929
929
925
923
924
928
929
929
927
927
928
929
926
926
924
922
927
930
927
923
927
927
927
925
925
928
931
927
926
927
932
932
926
926
929
928
930
932
926
924
924
923
930
935
932
927
928
930
932
929
929
930
929
933
934
933
929
928
929
934
940
942
938
936
937
938
942
940
934
933
937
942
950
951
955
950
945
944
944
942
939
941
947
952
959
963
962
962
967
978
984
988
987
985
986
986
992
988
987
984
979
976
976
972
966
961
958
958
960
956
956
951
952
956
959
957
952
950
955
963
970
972
972
976
993
1020
1058
1103
1146
1188
1219
1243
1250
1240
1214
1171
1114
1050
988
945
930
935
939
940
938
940
940
935
936
940
944
944
940
938
937
939
944
944
944
939
937
937
942
944
942
940
938
940
941
940
936
935
938
937
937
940
940
936
936
936
941
940
938
935
937
942
944
947
946
944
943
943
946
949
954
957
959
959
960
962
961
964
969
972
975
974
970
968
973
978
986
985
985
990
992
995
1001
1003
1002
1005
1006
1009
1011
1011
1010
1012
1014
1015
1017
1022
1020
1017
1017
1017
1021
1020
1015
1012
1013
1018
1019
1011
1007
1003
1005
1011
1010
1004
993
986
981
982
987
987
982
979
981
985
985
988
987
982
980
982
982
986
986
985
984
986
990
988
987
988
990
999
1003
1008
1007
1008
1012
1016
1022
1027
1027
1033
1039
1050
1063
1078
1091
1106
1122
1143
1162
1181
1199
1213
1239
1267
1298
1332
1356
1371
1381
1383
1374
1356
1326
1286
1232
1165
1092
1024
976
957
955
962
971
972
970
967
965
963
963
961
957
952
950
950
954
954
954
954
954
954
954
950
947
941
942
946
944
941
936
926
921
920
920
916
909
905
904
902
902
899
897
893
893
892
892
889
885
880
880
877
877
876
873
871
870
869
874
873
873
875
873
882
885
889
888
887
890
895
903
908
908
907
912
917
923
924
922
924
929
934
943
944
940
940
944
945
951
953
953
953
956
959
964
964
965
963
969
973
981
977
970
963
956
954
954
953
957
958
965
971
974
972
968
968
975
977
979
981
978
977
980
981
984
991
991
992
991
990
992
991
988
991
996
1000
1002
1005
1000
999
998
1002
1005
1006
1001
1000
1002
1004
1005
1003
999
998
1000
1001
1002
1000
1000
996
995
995
998
998
998
998
996
999
999
1002
1003
1003
1001
1009
1011
1004
997
988
989
991
992
988
983
982
987
992
995
997
1003
1011
1015
1019
1016
1007
998
996
999
1000
996
989
979
971
970
972
978
979
981
981
983
990
994
996
992
991
991
996
998
998
997
993
994
998
999
997
993
992
995
1000
1004
1002
997
993
997
998
998
998
995
995
993
1000
1000
1003
999
994
995
996
1003
1004
1006
1006
1010
1017
1019
1021
1015
1018
1026
1040
1047
1039
1026
1009
1004
1014
1029
1042
1045
1046
1049
1051
1055
1056
1056
1054
1051
1050
1046
1042
1030
1015
1004
1002
1002
999
998
995
999
1000
1005
1006
1007
1004
1005
1011
1017
1019
1024
1032
1056
1086
1129
1187
1241
1282
1311
1335
1335
1315
1271
1206
1129
1056
995
973
978
986
989
988
990
991
990
987
987
987
990
995
1000
1004
1007
1010
1010
1005
997
986
971
959
952
956
958
966
969
969
970
972
971
973
976
979
986
988
988
985
986
994
1001
1002
997
995
994
996
1001
1000
1000
996
998
999
1002
1001
998
996
1001
1008
1017
1019
1019
1021
1025
1032
1039
1045
1043
1047
1049
1052
1060
1060
1061
1063
1067
1070
1076
1077
1075
1074
1076
1079
1081
1082
1079
1075
1075
1076
1077
1078
1075
1070
1069
1071
1070
1067
1060
1054
1052
1057
1057
1053
1045
1040
1040
1044
1046
1044
1036
1027
1017
1008
1006
1006
1006
1008
1012
1010
1017
1018
1018
1018
1018
1023
1030
1035
1035
1034
1037
1043
1049
1050
1053
1061
1070
1090
1110
1130
1150
1168
1192
1219
1242
1264
1287
1310
1335
1360
1383
1392
1385
1369
1346
1318
1282
1233
1174
1111
1060
1025
1002
979
964
950
945
948
956
961
962
963
964
970
972
973
967
965
968
973
981
981
977
973
971
970
974
982
979
966
946
933
923
914
910
907
907
905
904
902
901
899
897
895
899
898
897
894
892
894
902
904
899
895
891
890
894
894
894
896
901
904
912
916
919
921
927
934
937
941
937
937
945
951
956
956
957
955
956
959
965
968
967
965
969
974
976
974
966
960
957
958
963
964
959
952
944
940
943
939
941
942
946
948
952
955
952
952
952
954
954
957
957
957
955
958
962
962
963
963
965
973
979
988
986
984
980
972
967
961
967
971
974
964
957
949
946
951
954
958
958
956
957
957
957
960
962
961
959
958
959
963
967
965
961
958
960
963
964
963
958
958
956
958
957
958
954
955
953
955
958
959
957
952
953
957
957
954
951
949
953
957
959
958
956
955
954
959
963
957
950
950
950
954
955
957
959
956
957
958
957
957
959
955
957
959
963
961
957
954
957
959
960
955
954
954
952
955
959
958
956
956
955
959
961
960
959
956
954
957
959
960
959
956
957
959
961
962
959
958
961
963
965
963
960
958
963
965
970
969
973
975
975
979
983
988
989
992
993
1003
1011
1009
1016
1026
1033
1033
1033
1032
1025
1018
1011
1010
1004
1001
996
985
978
976
973
972
968
966
965
970
972
977
973
971
973
974
976
976
975
979
992
1018
1053
1098
1153
1208
1253
1281
1294
1287
1266
1226
1163
1094
1024
963
936
938
949
951
949
950
948
952
953
959
960
958
955
956
952
954
950
950
951
950
949
950
954
954
951
951
952
957
959
959
958
952
952
956
960
960
960
962
965
965
965
956
952
949
949
957
965
966
963
962
966
968
970
971
972
974
978
987
993
992
996
995
996
1000
1007
1007
1006
1005
1009
1009
1010
1008
1004
1000
1000
1006
1014
1018
1021
1019
1020
1023
1030
1034
1036
1030
1029
1030
1032
1032
1029
1027
1024
1028
1028
1027
1023
1023
1024
1026
1026
1025
1018
1011
1010
1016
1015
1012
1004
998
994
993
998
996
993
990
988
992
992
991
993
993
990
988
992
996
994
991
990
996
1003
1002
1001
1002
1003
1005
1012
1011
1015
1019
1023
1030
1034
1034
1035
1041
1053
1066
1080
1090
1094
1104
1123
1143
1170
1196
1222
1257
1292
1325
1353
1368
1371
1361
1350
1335
1315
1284
1239
1183
1111
1039
971
920
891
885
897
918
930
928
922
919
927
937
945
944
946
944
952
959
969
975
981
981
979
980
982
985
984
985
977
966
946
929
916
904
897
894
896
