1008
1016
1021
1027
1032
1037
1043
1047
1052
1058
1065
1074
1081
1082
1081
1083
1088
1096
1100
1103
1099
1095
1096
1099
1103
1101
1096
1090
1083
1080
1083
1080
1077
1069
1064
1062
1060
1057
1047
1043
1039
1033
1030
1026
1017
1010
1004
1001
1001
1000
995
990
989
989
987
987
986
981
978
978
979
983
983
979
978
978
978
976
972
971
971
978
980
981
976
971
967
970
974
972
972
968
966
966
970
971
964
955
951
954
959
963
959
955
953
952
953
955
955
950
946
947
950
949
948
947
948
947
948
943
944
944
943
943
947
944
943
938
938
942
943
941
936
932
934
935
938
939
936
930
931
933
938
938
936
934
933
933
937
935
933
931
932
931
935
934
935
928
931
933
935
936
937
935
935
938
940
941
940
936
935
933
935
932
931
926
927
928
931
932
933
931
930
933
932
931
927
925
923
927
932
933
932
929
929
932
932
931
932
929
932
935
937
940
938
938
941
944
948
945
940
932
934
936
936
932
928
925
926
932
934
935
935
934
942
949
956
958
960
960
969
981
997
1008
1013
1011
1010
1008
1007
1003
1001
999
996
987
981
973
967
955
950
945
941
938
935
936
942
943
945
939
933
929
930
941
939
935
924
912
908
912
930
966
1024
1105
1193
1273
1323
1355
1370
1365
1339
1286
1200
1086
965
874
852
877
908
917
912
910
918
920
922
925
926
922
918
922
924
922
921
920
919
921
926
923
924
918
918
920
925
925
922
918
918
919
925
924
924
923
922
926
929
928
927
924
922
925
933
933
935
932
930
930
933
932
930
930
934
940
944
947
948
950
949
954
957
960
960
958
960
967
970
977
979
977
971
972
980
987
987
985
985
988
998
1003
999
999
1000
1009
1014
1016
1015
1012
1011
1011
1012
1014
1015
1015
1013
1014
1013
1013
1010
1010
1010
1012
1013
1010
1006
993
987
979
981
987
990
983
977
974
973
972
970
970
966
966
968
965
965
963
966
967
968
972
968
965
962
965
969
969
967
967
968
971
974
975
974
972
972
975
977
980
979
978
981
983
988
987
986
984
981
985
989
992
996
996
998
1003
1015
1027
1034
1041
1053
1067
1081
1094
1103
1110
1118
1131
1147
1160
1177
1193
1213
1244
1270
1294
1314
1329
1348
1363
1380
1398
1411
1414
1416
1416
1409
1394
1358
1297
1210
1123
1058
1021
1001
983
964
948
933
919
911
901
898
897
899
902
905
907
903
903
899
894
893
882
880
879
873
869
864
859
855
854
857
859
855
848
845
843
842
840
836
837
832
831
837
828
824
820
817
820
819
817
815
808
806
803
805
803
797
791
791
791
792
794
790
788
788
786
786
788
791
787
786
790
800
808
807
803
808
817
825
832
837
838
843
849
858
866
870
865
863
864
872
879
878
873
875
883
888
889
891
886
883
882
887
893
894
893
890
896
900
904
902
895
897
897
900
901
905
904
903
908
913
913
912
911
914
916
920
919
925
927
926
930
935
937
941
940
941
941
948
948
949
951
950
954
957
952
947
946
947
946
954
953
951
946
943
947
950
951
955
952
949
952
952
950
946
945
947
957
954
951
940
933
934
941
948
951
951
943
944
942
937
937
941
945
944
938
934
943
946
945
941
944
943
940
939
944
946
946
942
939
942
943
943
944
941
936
938
940
942
940
941
940
938
933
932
936
941
943
940
940
942
945
947
944
942
938
946
948
950
946
937
932
931
941
946
949
946
945
945
947
949
953
947
944
940
942
944
943
942
938
941
944
949
946
940
941
942
948
947
948
953
953
955
955
954
948
938
934
935
941
947
950
951
949
952
958
962
965
964
961
958
963
968
971
969
970
977
991
1006
1005
1003
1007
1015
1013
1010
1003
1008
1013
1017
1015
1007
988
968
961
961
968
967
967
959
953
945
943
947
953
951
949
953
959
965
961
951
937
929
944
973
1014
1076
1155
1229
1287
1325
1351
1357
1335
1280
1195
1093
980
894
871
898
922
930
929
928
930
931
939
944
941
934
930
930
940
940
942
942
943
937
932
928
928
932
937
938
936
937
939
938
934
934
937
945
948
944
940
945
947
947
938
932
935
948
953
955
954
956
953
955
963
966
965
960
959
959
965
971
981
984
978
975
975
984
992
988
991
992
1002
1008
1014
1017
1022
1027
1033
1030
1020
1013
1019
1034
1042
1049
1047
1050
1048
1051
1053
1060
1057
1055
1050
1051
1054
1054
1055
1053
1046
1043
1043
1043
1041
1036
1031
1028
1025
1024
1022
1020
1015
1019
1021
1019
1008
992
984
986
992
995
995
989
983
981
984
988
989
984
981
986
991
992
984
980
984
988
992
989
991
991
990
988
994
1001
1005
1002
1000
1003
1005
1010
1016
1016
1015
1019
1031
1051
1069
1085
1099
1112
1130
1152
1170
1185
1205
1224
1247
1278
1313
1347
1381
1403
1418
1420
1398
1365
1329
1300
1264
1208
1135
1061
995
946
927
930
935
931
924
915
910
905
909
917
920
918
915
914
902
895
896
900
906
910
911
906
906
910
918
921
919
913
905
905
907
914
916
909
893
878
877
881
883
879
874
873
870
866
865
863
861
856
856
860
852
849
845
839
836
835
838
838
836
835
837
835
836
841
846
845
847
846
851
859
861
867
871
883
891
886
881
887
895
904
911
909
915
915
918
926
926
922
921
925
927
926
927
934
934
933
930
930
931
935
932
933
935
943
947
940
932
931
942
955
962
956
947
939
940
948
956
956
952
954
960
963
962
962
957
960
965
970
969
967
962
964
973
982
986
985
980
975
969
969
974
978
976
978
980
980
978
976
973
972
975
977
976
974
969
968
972
973
969
963
957
954
958
966
968
967
959
955
954
962
968
966
963
960
959
958
959
958
958
958
963
963
957
948
947
950
952
944
944
947
949
951
951
952
955
954
950
949
950
952
951
950
949
945
940
944
949
949
945
943
945
948
946
939
934
940
943
951
951
945
945
943
948
954
957
946
933
929
932
939
943
940
939
936
940
947
948
944
934
936
938
943
943
941
936
933
937
938
937
932
928
930
940
946
947
942
935
935
937
945
948
948
941
939
937
939
940
942
931
929
935
942
943
936
932
932
936
937
940
939
935
936
940
946
945
940
936
942
946
952
955
958
955
958
962
968
976
979
986
995
1003
1005
1004
1003
1002
1005
1013
1013
1005
991
980
971
968
967
964
957
951
947
942
939
939
940
942
944
942
941
942
944
942
935
933
939
957
995
1058
1147
1228
1289
1330
1352
1350
1326
1276
1197
1087
971
881
860
889
915
920
919
919
922
927
931
929
924
924
921
923
925
929
927
925
922
924
925
928
927
924
924
929
934
931
928
924
923
924
927
928
928
930
931
933
934
935
932
932
932
938
943
943
945
940
941
941
948
952
950
951
951
959
962
967
969
970
971
975
979
984
988
986
987
995
1003
1007
1008
1011
1016
1023
1032
1034
1031
1028
1030
1036
1042
1047
1050
1049
1047
1045
1040
1035
1034
1033
1036
1038
1040
1039
1034
1028
1027
1027
1027
1025
1016
1008
1003
1003
1006
1003
997
993
987
986
992
989
987
981
979
973
981
980
978
974
972
975
979
980
977
974
971
976
981
980
979
978
979
982
986
990
990
988
992
997
1000
1007
1012
1018
1027
1043
1069
1092
1113
1130
1150
1180
1210
1239
1266
1285
1322
1365
1399
1414
1409
1392
1370
1342
1305
1238
1144
1053
995
960
943
930
911
901
899
909
917
930
932
929
927
923
925
928
922
919
912
912
907
908
904
901
896
896
899
901
901
898
897
901
906
910
911
911
910
914
920
923
921
914
910
903
907
909
903
899
894
895
899
903
902
902
901
901
906
907
908
910
911
917
921
924
929
929
935
939
941
950
950
952
955
960
966
970
976
973
974
978
980
982
980
977
977
975
978
980
975
969
967
970
975
978
976
978
977
976
979
977
976
971
970
966
969
970
971
968
968
970
970
974
973
970
971
975
978
981
981
980
979
981
983
986
985
983
985
988
988
993
993
988
989
993
996
995
996
995
990
994
1003
1010
1010
1001
994
988
988
985
980
977
978
982
983
982
986
982
983
984
983
984
980
978
978
980
982
984
982
981
978
975
976
978
975
976
981
984
984
984
979
974
965
963
967
968
970
967
970
970
975
974
972
966
963
961
966
968
971
965
966
969
969
972
969
968
965
967
972
969
971
969
966
971
974
971
971
966
967
969
971
972
968
969
969
971
971
970
967
965
965
965
968
972
973
970
966
968
969
970
969
972
972
972
975
978
975
970
959
955
957
961
960
956
953
956
960
962
958
960
959
961
966
968
966
964
964
966
969
974
974
967
962
958
960
962
963
961
961
963
966
970
967
963
966
970
969
968
966
965
962
965
969
973
973
974
975
982
987
992
994
991
989
993
999
1008
1020
1025
1028
1033
1037
1036
1035
1033
1031
1025
1022
1013
1003
993
986
982
979
974
972
966
963
966
971
971
973
970
968
963
960
950
937
931
947
978
1032
1106
1191
1266
1321
1368
1394
1397
1370
1306
1215
1104
989
915
901
924
944
947
949
948
952
948
945
945
947
950
953
952
955
953
955
952
952
946
944
946
950
949
950
945
940
944
947
951
950
949
949
953
958
960
955
951
952
954
956
960
956
954
958
960
963
968
969
966
966
969
972
977
974
977
978
980
986
988
991
992
994
999
1002
1005
1004
1006
1009
1015
1021
1026
1025
1028
1028
1035
1039
1043
1043
1043
1044
1050
1051
1055
1050
1044
1042
1045
1051
1055
1050
1043
1035
1030
1034
1034
1033
1031
1031
1029
1028
1025
1017
1010
1005
1005
1006
1004
1002
997
996
997
1000
998
991
985
978
977
982
985
982
981
982
985
989
990
988
987
986
987
988
992
986
981
981
985
990
994
995
993
991
995
996
1004
1003
1004
1011
1022
1032
1045
1057
1067
1081
1103
1128
1157
1186
1209
1237
1267
1292
1294
1279
1241
1202
1175
1157
1134
1102
1056
1001
958
925
897
881
866
861
863
870
875
883
892
903
919
933
938
939
934
932
933
935
933
933
926
924
922
926
925
923
921
921
924
929
929
933
934
937
945
951
953
951
945
948
955
962
963
958
958
955
963
968
974
975
979
985
988
994
999
1002
1003
1008
1012
1022
1032
1035
1043
1042
1046
1052
1057
1059
1061
1062
1065
1072
1074
1074
1072
1072
1074
1077
1073
1071
1068
1062
1061
1061
1059
1053
1045
1041
1038
1036
1036
1030
1023
1018
1018
1017
1014
1012
1006
1004
1002
1004
1003
999
996
991
991
990
990
990
989
986
986
989
989
986
984
979
982
983
984
982
979
976
978
980
984
982
980
979
977
980
980
978
976
974
974
976
978
975
974
974
974
976
975
974
969
968
967
969
969
965
964
960
961
964
966
964
960
957
956
955
959
957
956
953
954
955
955
953
949
947
946
950
953
950
947
943
948
950
951
950
946
944
945
947
947
945
941
938
940
943
945
944
942
941
943
946
948
947
944
943
943
946
944
942
938
934
936
941
944
945
942
940
941
942
942
942
939
939
943
943
942
939
934
935
937
940
947
946
942
942
940
945
945
943
941
939
941
945
947
943
942
941
941
945
945
944
941
940
940
944
946
945
941
939
942
942
945
943
941
938
943
946
946
944
944
942
943
944
945
943
944
942
943
946
944
942
942
940
944
944
943
945
944
942
943
945
946
944
943
941
944
945
947
944
945
945
946
947
950
948
943
944
943
947
950
945
943
944
947
951
951
949
947
944
947
949
949
951
951
949
952
957
962
963
963
965
971
976
979
979
981
984
994
999
1004
1004
1003
1003
1006
1008
1009
1006
1000
990
984
980
974
968
960
957
953
951
950
948
944
944
943
948
950
948
948
945
944
941
941
943
954
981
1027
1091
1162
1225
1272
1302
1323
1332
1317
1276
1209
1123
1029
950
900
892
903
911
915
915
918
922
924
920
922
925
925
925
921
919
920
922
924
927
925
921
923
922
928
927
922
920
919
924
924
923
921
921
922
926
927
929
927
927
930
934
936
933
936
936
938
939
945
943
940
941
944
943
946
945
945
948
946
951
957
962
961
961
966
974
977
980
980
983
987
993
995
997
1000
1001
1005
1009
1015
1013
1015
1017
1019
1025
1027
1027
1023
1023
1023
1027
1028
1025
1023
1017
1021
1021
1021
1017
1014
1011
1013
1014
1011
1005
1002
999
997
997
997
992
990
986
986
985
986
981
975
974
972
974
976
974
971
967
964
967
970
968
965
967
968
971
974
975
974
975
979
982
982
986
985
983
986
991
995
994
997
997
1003
1008
1013
1019
1018
1027
1042
1063
1082
1103
1120
1133
1152
1174
1196
1215
1235
1260
1294
1334
1367
1399
1414
1412
1405
1390
1364
1317
1253
1176
1077
986
935
919
926
937
949
951
946
940
932
925
923
923
923
921
915
912
908
911
910
906
900
897
895
892
891
890
884
882
883
883
889
889
886
884
888
892
896
897
899
899
898
896
898
896
892
890
886
888
889
887
883
877
878
876
876
875
870
869
869
870
870
867
866
867
865
872
874
873
872
873
876
880
890
894
894
896
902
908
917
920
918
920
923
929
931
935
934
936
941
943
946
944
943
941
942
943
948
948
946
942
944
948
948
946
948
945
946
949
948
949
948
947
949
952
954
954
952
953
953
959
961
961
960
960
960
962
964
964
964
964
965
966
971
971
969
964
969
971
974
976
974
973
976
979
981
977
975
973
973
977
981
984
985
984
985
989
989
988
986
986
986
987
986
983
977
974
974
981
986
983
977
978
976
979
983
977
973
972
970
971
970
969
967
966
968
972
975
971
971
969
970
969
971
967
966
963
968
965
963
961
963
963
965
964
965
963
961
962
965
966
966
963
961
957
956
959
964
964
959
954
959
957
964
960
960
961
960
961
961
960
958
960
961
965
967
964
962
961
961
964
966
964
961
956
957
961
963
964
963
960
963
966
968
966
961
961
957
959
966
967
962
963
963
964
966
962
959
957
959
964
966
966
961
962
960
963
966
965
966
965
965
966
965
964
965
964
964
965
968
970
967
963
964
969
974
972
969
964
966
967
969
966
964
963
966
968
970
969
964
960
962
967
969
969
967
966
968
973
972
971
965
963
966
967
970
971
969
963
963
967
967
970
970
968
970
971
973
969
964
964
968
971
975
974
968
966
966
972
975
978
977
974
976
981
983
982
982
985
994
1000
1008
1009
1009
1013
1022
1032
1043
1040
1036
1035
1038
1041
1046
1044
1035
1025
1018
1010
1005
995
987
981
982
976
976
973
971
972
974
981
982
987
987
986
983
970
956
942
931
943
974
1027
1100
1184
1260
1319
1364
1392
1397
1381
1327
1237
1115
994
907
888
912
935
940
939
944
953
959
962
962
957
950
943
935
938
944
945
946
947
943
942
946
951
952
949
942
940
942
945
951
951
946
937
938
937
944
944
945
945
944
945
950
947
948
949
950
955
958
958
957
955
958
959
962
964
962
962
965
970
974
972
976
976
979
984
989
989
990
991
993
1000
1005
1007
1011
1013
1014
1019
1025
1024
1025
1023
1030
1038
1043
1041
1042
1038
1040
1043
1045
1045
1040
1044
1042
1043
1045
1047
1045
1041
1034
1033
1027
1025
1019
1014
1013
1015
1017
1017
1014
1012
1008
1007
1001
993
983
982
983
986
981
975
969
964
961
964
966
963
960
958
961
967
969
971
971
973
978
983
982
981
980
977
979
977
972
969
969
969
971
975
979
983
982
988
1000
1016
1038
1059
1085
1114
1141
1163
1179
1197
1217
1239
1268
1301
1340
1376
1409
1429
1435
1431
1410
1381
1348
1306
1259
1200
1132
1061
999
954
924
910
906
902
894
894
901
905
906
905
899
891
892
893
890
888
882
880
878
879
877
870
862
859
856
855
857
853
853
853
854
856
862
860
857
860
864
871
873
870
869
866
869
872
870
871
866
863
861
861
861
856
851
848
853
854
857
858
854
853
860
867
874
877
882
888
894
892
893
896
894
896
898
901
909
913
918
922
929
935
938
940
942
942
947
954
962
970
966
963
960
964
973
974
965
949
939
937
940
940
934
931
933
936
941
945
944
947
953
957
961
959
959
962
969
981
991
991
986
972
955
944
934
930
931
936
944
949
954
957
956
956
961
962
971
976
976
974
975
974
981
979
975
974
974
976
980
976
974
974
980
980
982
979
973
969
970
975
980
982
983
981
983
983
976
959
947
946
955
956
961
958
956
958
963
961
967
966
964
963
965
968
969
971
964
965
967
968
970
975
970
969
970
971
970
973
968
965
970
973
979
978
973
970
972
977
981
979
977
974
976
978
981
981
980
981
978
980
982
980
979
979
979
981
986
985
987
983
984
982
984
985
982
980
981
983
986
988
986
984
983
987
991
992
990
988
987
991
991
992
989
985
983
986
985
983
979
977
979
981
982
981
979
980
981
978
982
982
979
977
977
981
978
978
978
973
975
979
981
980
975
973
977
981
980
980
978
977
976
980
980
979
977
974
972
977
980
979
977
975
975
978
982
982
980
979
979
979
983
981
981
980
981
980
981
982
981
978
980
982
987
986
982
982
985
985
984
986
982
984
984
986
987
987
983
980
980
984
986
983
985
983
988
991
993
993
994
995
1001
1003
1009
1009
1011
1011
1012
1030
1043
1053
1052
1049
1048
1050
1051
1052
1049
1042
1033
1025
1018
1009
1002
998
999
996
994
990
986
985
984
987
985
987
983
979
977
973
965
961
966
992
1044
1126
1220
1304
1355
1385
1402
1402
1374
1308
1200
1072
944
