952
950
947
947
949
949
955
954
951
948
951
951
951
949
947
949
950
953
952
956
952
949
952
953
953
952
947
949
952
956
954
954
951
952
956
961
960
954
949
941
945
952
957
957
957
955
957
961
959
954
947
949
953
954
958
956
950
952
955
960
958
956
953
954
956
958
958
954
952
954
955
957
956
956
958
956
955
955
958
957
957
957
958
960
957
952
952
951
953
954
961
961
957
957
960
965
961
961
956
951
952
958
962
961
959
956
956
957
957
959
959
956
960
963
964
961
958
960
961
964
965
962
958
961
968
968
968
962
964
962
970
976
974
975
972
975
984
992
1005
1017
1021
1029
1029
1027
1021
1015
1010
1005
1005
1007
1003
995
987
978
975
970
970
965
966
960
960
962
963
965
960
958
962
965
965
960
953
950
955
971
1005
1062
1146
1233
1305
1352
1378
1389
1377
1346
1287
1191
1072
957
878
875
911
936
938
934
934
936
941
943
945
940
938
938
942
943
942
941
938
938
941
946
946
943
934
935
936
941
943
939
936
935
938
940
940
943
941
940
944
945
946
943
945
947
952
958
957
958
952
950
952
959
959
960
956
954
960
968
972
972
967
966
970
980
984
984
981
985
991
998
1003
1005
1002
1006
1014
1019
1024
1029
1029
1030
1035
1041
1047
1050
1054
1057
1062
1070
1077
1082
1085
1088
1090
1094
1099
1099
1099
1093
1099
1103
1105
1104
1103
1102
1103
1104
1101
1095
1087
1085
1085
1084
1080
1072
1061
1058
1056
1055
1051
1046
1043
1036
1032
1026
1019
1012
1005
1000
1003
1003
1003
999
996
991
987
985
980
980
978
979
979
979
980
975
975
973
980
981
983
978
971
971
975
980
984
982
983
984
988
993
997
1000
999
1001
1008
1017
1028
1038
1051
1070
1094
1115
1138
1152
1166
1183
1199
1214
1227
1243
1265
1296
1340
1387
1429
1455
1464
1463
1462
1455
1441
1409
1354
1268
1157
1044
951
890
877
879
888
891
893
899
905
904
904
902
899
892
880
876
878
878
878
869
865
864
860
859
861
853
848
846
845
850
852
850
845
845
846
847
853
855
856
860
861
862
861
856
854
855
856
854
854
851
842
837
837
839
837
835
827
827
827
830
827
823
817
814
812
813
808
808
805
802
805
808
810
813
814
813
818
823
823
825
828
831
839
846
851
853
857
862
873
883
888
887
886
887
894
898
903
903
903
907
913
918
925
926
921
919
921
929
934
933
930
929
933
939
941
943
942
943
947
948
947
944
941
942
946
951
955
954
951
952
955
958
959
956
952
952
954
955
952
953
954
954
960
964
969
971
968
970
967
967
968
971
970
968
970
974
975
972
973
973
977
982
983
982
978
977
981
984
983
978
969
966
966
969
975
973
974
975
976
978
975
968
967
961
963
966
968
966
964
965
967
971
971
968
962
960
962
964
967
966
963
959
958
958
957
957
955
957
964
969
967
959
951
949
952
954
955
954
953
951
958
961
959
957
958
953
957
960
960
955
952
950
954
956
960
958
957
959
960
962
958
955
951
946
952
953
955
957
954
952
956
958
959
960
958
958
961
962
959
955
949
951
955
957
955
953
950
950
954
959
961
959
954
953
956
958
956
954
952
951
953
956
957
956
954
958
965
965
964
958
953
949
951
953
958
958
955
956
959
963
967
962
959
956
955
960
962
959
957
955
957
958
962
962
957
959
960
962
967
964
961
959
958
962
961
958
957
954
959
961
964
962
963
963
962
967
966
966
965
968
971
971
967
963
959
960
963
967
968
971
974
975
977
976
973
966
963
963
966
969
971
968
964
964
968
970
967
968
968
969
972
971
971
970
968
968
970
973
973
975
971
969
971
975
977
977
974
973
974
972
974
970
966
968
970
975
975
975
972
974
979
981
979
974
970
969
975
976
977
976
974
975
977
983
984
979
978
974
975
980
982
986
990
995
1000
1004
1005
1007
1010
1019
1027
1033
1035
1036
1035
1038
1038
1041
1040
1031
1020
1012
1009
1005
999
993
986
977
979
981
984
979
978
980
983
983
983
979
974
968
963
962
970
989
1031
1111
1207
1294
1352
1387
1406
1404
1376
1327
1236
1119
991
903
895
935
961
964
958
960
964
968
968
965
958
952
954
954
957
956
957
957
958
962
964
960
958
957
955
959
958
957
954
957
957
960
962
961
960
958
963
967
966
968
963
962
963
966
969
966
965
970
975
979
981
981
978
976
977
982
986
987
985
988
993
1000
1004
1007
1010
1006
1010
1018
1025
1030
1030
1028
1036
1047
1057
1061
1065
1066
1071
1077
1080
1084
1084
1093
1101
1110
1111
1116
1113
1112
1114
1121
1124
1125
1124
1120
1120
1120
1120
1120
1116
1114
1110
1108
1103
1097
1089
1083
1082
1078
1073
1067
1061
1052
1048
1045
1041
1034
1029
1026
1025
1026
1025
1022
1016
1008
1004
1009
1008
1008
1006
1004
1004
1004
1002
998
997
996
997
1001
1000
999
997
993
993
999
1002
1001
1001
999
1000
1002
1004
1007
1006
1007
1010
1014
1016
1023
1023
1025
1033
1039
1048
1058
1071
1093
1117
1138
1157
1171
1183
1199
1221
1255
1298
1343
1391
1429
1452
1460
1454
1446
1425
1397
1349
1279
1180
1075
998
949
919
897
886
882
882
885
894
908
917
926
923
918
913
913
911
909
905
901
898
895
889
884
882
883
882
884
887
882
877
876
882
889
890
890
889
887
890
894
896
895
890
888
888
890
892
891
888
883
882
879
877
875
875
874
877
877
875
872
867
862
861
860
856
855
857
856
859
862
864
868
869
872
880
883
891
896
895
898
906
916
921
925
928
932
938
947
949
953
953
954
960
965
966
962
961
962
968
971
971
967
963
963
966
970
969
967
964
966
970
969
967
966
965
966
970
971
972
971
967
963
965
970
973
972
973
972
975
976
977
971
965
969
973
976
979
980
975
978
982
987
989
990
987
986
989
986
987
987
986
988
993
996
996
990
989
990
989
992
993
987
982
978
982
984
986
984
985
987
988
987
985
980
973
974
976
979
979
979
974
971
970
973
975
973
968
969
969
970
970
969
964
964
968
971
972
967
962
963
965
971
973
968
961
959
962
962
961
958
960
961
964
967
967
965
964
964
963
964
963
961
962
962
963
964
966
965
962
963
961
963
963
961
960
961
961
963
961
962
958
956
959
967
968
966
963
957
956
958
960
960
962
962
965
967
963
961
954
955
955
959
959
959
958
960
962
965
964
962
960
960
964
966
967
965
958
954
954
960
961
961
960
958
960
964
966
964
961
959
960
965
965
962
956
955
960
965
964
964
962
962
961
964
965
962
958
956
959
964
967
965
964
963
965
966
964
962
960
962
966
969
971
966
965
965
970
973
975
973
963
963
963
964
964
962
959
962
967
971
969
965
961
961
966
970
971
972
971
969
969
974
977
976
972
967
966
971
977
975
971
966
968
972
973
968
968
970
976
979
980
976
975
974
976
979
979
979
978
979
981
984
980
977
975
974
978
982
984
984
982
983
990
995
994
994
994
999
1012
1027
1037
1037
1031
1031
1030
1032
1028
1022
1014
1009
1005
1005
999
993
983
980
982
983
982
980
975
979
980
982
982
980
978
969
965
960
966
985
1019
1082
1170
1258
1323
1357
1373
1370
1348
1305
1223
1114
998
908
889
923
951
955
950
952
959
965
964
963
956
953
958
964
962
958
958
956
959
964
962
958
955
954
959
961
960
958
956
957
961
966
966
963
960
961
961
967
969
967
967
966
967
965
970
972
974
974
974
977
979
981
981
983
986
992
995
993
991
993
999
1007
1011
1009
1006
1009
1013
1024
1028
1032
1033
1037
1045
1053
1059
1063
1063
1068
1074
1080
1085
1087
1086
1090
1095
1102
1106
1106
1105
1102
1105
1108
1109
1105
1100
1095
1095
1096
1092
1089
1083
1076
1077
1075
1070
1061
1052
1048
1048
1050
1042
1035
1021
1013
1014
1017
1012
1005
1006
1002
1003
1004
999
994
989
986
989
990
990
992
991
990
989
991
995
992
991
988
993
996
1002
1002
1000
997
999
1007
1011
1013
1014
1020
1029
1039
1048
1057
1070
1085
1111
1128
1142
1156
1174
1191
1208
1226
1246
1275
1314
1358
1400
1432
1451
1452
1447
1440
1426
1410
1368
1299
1198
1083
981
920
891
891
899
901
897
903
909
911
909
907
905
905
900
892
885
881
881
878
877
872
868
863
860
862
863
860
856
854
855
855
860
868
867
869
869
870
872
870
867
867
867
868
861
857
855
851
851
852
849
845
838
837
838
836
834
829
824
819
823
825
821
818
812
809
810
814
817
817
814
816
823
831
835
839
838
839
845
851
857
864
868
871
881
890
894
891
894
895
904
909
914
913
911
913
917
921
923
928
926
928
929
934
935
936
933
930
934
937
938
940
935
936
939
943
946
945
945
947
945
948
949
953
953
953
959
963
961
956
953
951
957
961
959
959
957
959
961
966
966
966
965
970
972
969
972
973
970
969
971
975
979
973
972
972
973
972
966
965
965
962
964
968
968
968
964
960
963
962
963
963
960
958
957
959
962
958
957
959
960
964
965
958
955
954
955
959
954
955
951
952
956
957
952
947
942
946
951
952
951
948
943
942
945
946
947
944
944
942
946
949
947
944
946
943
945
943
944
941
939
937
939
940
942
943
941
940
942
947
945
941
936
937
940
943
945
943
943
941
941
943
942
938
939
940
938
939
940
940
936
934
937
942
943
942
941
937
940
941
941
937
936
938
940
939
939
938
932
934
941
946
946
942
934
935
938
938
939
935
932
932
933
938
938
937
935
933
936
939
940
936
933
936
937
938
940
939
933
936
938
944
945
943
936
930
929
931
930
931
931
932
934
940
938
938
932
934
937
938
939
940
938
939
936
938
938
939
937
937
939
939
939
935
933
934
936
937
937
937
939
940
941
942
938
935
934
936
940
942
942
941
939
940
943
942
943
944
938
937
940
943
944
943
944
940
945
947
949
943
939
941
945
948
947
945
942
947
944
945
948
945
943
943
946
946
949
948
949
950
953
957
954
948
946
950
955
959
964
964
965
969
970
974
977
983
989
1001
1009
1013
1015
1010
1008
1004
1004
998
994
988
980
976
970
969
963
956
950
950
952
956
953
949
945
944
948
953
947
945
933
932
934
951
986
1047
1131
1220
1298
1350
1382
1394
1382
1348
1292
1207
1090
966
875
860
896
927
931
922
917
918
923
929
931
928
925
925
930
931
929
927
923
923
925
926
928
926
922
923
922
928
930
930
925
922
923
929
930
928
924
925
927
929
930
930
929
931
934
938
936
936
937
934
941
944
951
952
945
944
946
951
953
954
952
958
960
966
970
969
970
971
975
981
980
983
986
992
998
1005
1012
1016
1018
1020
1025
1032
1040
1045
1048
1052
1056
1061
1070
1075
1077
1078
1080
1085
1090
1094
1092
1095
1095
1100
1099
1100
1096
1093
1089
1086
1087
1084
1080
1075
1075
1074
1074
1069
1060
1055
1052
1044
1042
1034
1023
1020
1019
1017
1010
1001
998
993
991
993
990
987
982
975
978
976
973
971
969
968
969
972
972
968
968
968
972
972
973
969
971
971
973
976
972
972
972
971
974
976
978
979
977
982
984
982
983
986
990
998
1008
1027
1052
1080
1101
1122
1140
1159
1176
1194
1212
1234
1271
1316
1361
1404
1432
1446
1453
1453
1444
1428
1398
1359
1303
1223
1119
1021
947
893
869
860
863
863
866
871
881
892
894
889
880
873
872
870
866
863
860
859
852
854
849
843
836
838
838
840
840
836
835
838
843
847
847
846
844
844
847
849
850
846
844
842
843
847
848
845
841
835
831
834
832
828
818
816
816
816
813
815
811
810
808
810
803
802
798
800
803
808
812
810
808
814
820
825
831
838
841
846
851
855
858
861
866
872
881
888
892
891
895
898
901
902
908
909
904
908
912
917
915
917
915
919
919
923
922
920
920
921
925
932
929
927
922
924
924
928
927
926
926
926
932
935
937
936
932
932
934
936
936
936
933
933
936
942
946
946
946
942
942
943
945
944
941
944
946
954
954
951
946
947
954
955
955
954
951
953
953
958
956
954
951
948
947
950
948
948
942
942
943
947
945
944
937
936
943
946
945
943
939
938
940
945
945
945
944
943
944
943
945
943
941
940
938
937
937
934
936
933
935
938
939
937
930
933
932
937
935
933
933
932
935
938
938
935
936
937
938
936
937
935
934
936
939
940
944
937
930
928
932
936
940
935
936
934
937
938
939
936
935
934
940
942
941
942
939
940
938
940
941
939
936
935
938
937
938
938
939
932
941
943
941
942
939
939
938
938
939
940
937
939
940
941
942
943
940
939
939
941
943
942
937
940
945
948
949
948
944
943
942
944
946
946
943
940
946
946
947
946
943
942
943
946
945
946
944
943
944
948
950
949
942
940
942
946
947
947
945
945
948
952
954
952
950
949
951
953
951
947
946
947
951
954
952
947
947
949
952
955
957
956
950
946
949
953
953
957
955
954
950
953
953
952
950
950
951
954
954
954
952
953
955
955
960
956
954
955
957
961
961
958
957
958
960
963
965
963
962
959
958
960
961
962
961
963
968
968
968
965
962
956
961
967
969
967
963
962
966
969
972
971
974
976
981
988
994
991
990
989
997
1011
1021
1023
1021
1020
1023
1029
1032
1031
1022
1014
1006
1003
1000
994
989
985
982
978
979
975
972
974
976
977
980
977
973
971
972
974
971
964
961
973
1003
1055
1136
1228
1304
1357
1386
1399
1387
1354
1286
1186
1069
961
899
901
930
951
951
949
949
954
955
956
961
964
962
956
952
953
955
957
959
958
953
955
962
966
966
965
962
959
963
965
968
959
956
953
957
961
965
963
962
964
966
969
970
975
972
972
974
975
976
974
973
974
978
985
986
989
989
985
989
995
998
994
991
994
996
1003
1008
1008
1008
1011
1018
1027
1031
1034
1034
1035
1040
1045
1050
1053
1055
1058
1066
1074
1079
1083
1086
1091
1098
1104
1106
1105
1105
1106
1111
1114
1115
1115
1115
1113
1113
1115
1114
1113
1108
1103
1100
1097
1092
1090
1081
1075
1071
1072
1067
1059
1053
1047
1041
1043
1042
1037
1033
1027
1023
1023
1020
1012
1005
1005
1007
1009
1005
1001
990
992
995
995
999
995
991
990
990
994
994
994
990
991
997
998
1001
999
1000
1001
1006
1008
1011
1014
1013
1014
1019
1027
1029
1031
1031
1031
1039
1049
1064
1079
1097
1113
1132
1152
1173
1181
1198
1211
1224
1246
1267
1300
1336
1377
1418
1454
1476
1481
1477
1472
1462
1451
1421
1366
1285
1179
1072
983
930
902
901
903
905
908
913
917
915
915
914
912
907
906
896
894
892
894
894
890
879
876
874
879
879
872
866
866
866
869
869
865
863
865
871
876
882
880
879
879
879
880
880
879
873
870
870
869
866
865
865
862
859
862
859
851
844
841
841
843
842
839
834
834
830
833
830
829
827
826
825
830
828
828
829
832
841
848
850
849
851
854
865
873
879
881
883
884
891
894
901
903
907
914
921
926
926
930
925
927
930
936
939
942
939
937
939
940
943
947
944
943
948
950
952
952
945
945
949
953
955
955
956
961
964
965
966
961
959
958
963
966
967
968
968
969
972
975
975
970
963
964
972
978
981
979
977
977
978
981
983
983
979
980
981
983
985
986
980
981
981
982
986
980
978
973
975
977
981
977
974
974
976
975
976
973
972
968
967
969
970
971
970
967
968
968
968
967
960
963
966
967
968
964
960
959
964
968
966
956
955
955
958
964
964
958
954
956
957
961
964
961
956
958
959
961
964
962
957
956
952
958
960
960
957
956
957
959
962
960
960
959
958
962
962
963
959
956
958
962
964
961
956
951
952
955
960
959
958
957
958
959
960
958
954
954
956
959
960
958
960
957
958
960
959
956
954
952
955
958
963
960
958
952
956
958
960
962
959
959
962
963
961
962
959
960
961
964
965
964
962
958
958
961
964
963
960
958
957
961
961
963
961
963
965
963
968
964
963
961
963
964
965
963
960
961
963
967
968
969
963
961
963
966
966
960
960
960
966
968
970
971
969
969
968
968
964
962
961
962
966
967
966
966
965
967
967
968
968
965
961
963
962
964
965
965
962
964
967
971
974
974
968
965
964
964
961
960
961
965
967
968
969
967
963
962
965
967
969
968
968
970
971
972
969
970
969
971
971
976
977
974
972
971
972
976
979
983
985
988
992
993
992
995
1002
1014
1027
1035
1038
1034
1033
1027
1027
1021
1020
1017
1009
1003
1001
998
995
987
981
976
970
973
972
974
974
975
975
974
974
973
966
961
960
970
995
1045
1123
1213
1294
1353
1392
1409
1401
1369
1304
1205
1086
966
894
896
934
959
959
952
951
957
959
960
959
956
952
949
946
950
950
951
951
954
957
961
965
962
954
947
949
954
958
958
957
955
956
959
964
962
961
962
962
966
969
967
965
965
964
969
967
972
971
973
975
975
979
980
979
979
985
991
996
994
996
1001
1006
1012
1015
1021
1020
1023
1034
1037
1039
1045
1047
1056
1063
1068
1070
1072
1073
1081
1091
1100
1107
1111
1111
1114
1116
1120
1129
1128
1127
1128
1128
1130
1127
1124
1122
1119
1114
1113
1109
1102
1096
1093
1089
1087
1080
1071
1063
1055
1052
1052
1048
1038
1033
1027
1023
1018
1017
1015
1010
1010
1008
1007
1003
997
994
993
997
996
998
994
991
990
990
995
996
994
987
985
990
993
997
996
993
1000
1000
1001
998
998
996
996
999
1006
1011
1012
1010
1019
1033
1052
