962
965
965
967
966
965
967
965
972
973
973
971
974
976
982
985
985
984
986
990
995
997
997
998
1001
1008
1014
1015
1017
1016
1019
1023
1028
1032
1035
1037
1035
1040
1048
1050
1051
1051
1052
1058
1063
1064
1062
1061
1062
1065
1066
1068
1069
1067
1065
1065
1065
1064
1059
1056
1054
1055
1052
1049
1040
1039
1035
1030
1031
1027
1023
1019
1017
1015
1014
1010
1007
1002
1000
1001
1003
999
996
990
988
989
992
992
988
983
984
984
987
986
986
985
984
983
990
995
997
996
996
998
1000
1001
1002
1002
1005
1007
1007
1008
1005
1008
1014
1025
1033
1039
1045
1050
1057
1066
1079
1092
1102
1113
1128
1148
1167
1182
1196
1200
1198
1198
1195
1187
1179
1163
1142
1118
1090
1054
1020
993
973
960
947
938
930
927
926
929
928
928
927
926
926
929
928
926
927
925
922
924
923
924
921
920
920
920
924
922
920
924
924
929
934
933
935
932
929
931
931
929
928
926
920
919
920
916
919
914
910
908
914
916
915
914
917
916
914
915
913
909
906
908
914
918
918
913
912
917
925
929
930
925
932
940
941
942
944
943
948
952
960
967
968
969
971
972
982
987
985
981
984
990
996
997
995
989
986
990
991
986
980
980
981
981
983
978
973
971
972
975
977
976
970
968
964
965
966
965
962
956
955
959
965
966
965
962
960
962
967
967
964
966
966
965
968
966
967
961
963
970
975
978
974
970
968
971
975
973
969
969
977
978
979
980
976
973
972
971
970
974
969
964
963
962
962
961
958
957
961
960
961
960
960
957
953
956
954
952
948
946
953
952
951
957
959
951
947
950
951
951
947
942
942
941
942
944
941
938
938
935
935
938
937
939
936
937
936
938
937
935
933
937
942
939
935
930
927
930
932
934
935
931
929
930
932
931
929
925
920
924
930
931
929
926
927
929
930
930
932
927
924
924
927
936
935
929
926
929
930
928
926
924
923
927
930
929
929
923
923
925
928
928
926
922
924
921
929
930
927
921
922
924
927
931
930
927
926
927
928
932
930
929
928
928
929
931
927
927
926
925
928
932
931
930
929
925
924
931
938
933
933
933
939
939
936
935
935
937
940
938
936
934
934
936
943
942
941
940
942
946
952
953
954
952
956
961
969
975
975
974
973
977
975
972
971
970
971
972
972
966
965
958
956
952
955
954
950
948
947
949
951
951
951
948
950
954
958
961
958
955
950
957
963
977
994
1016
1048
1082
1114
1135
1153
1155
1154
1145
1126
1093
1053
1005
966
942
936
936
935
931
929
930
929
932
933
927
926
930
927
928
928
929
928
926
928
931
931
927
923
927
929
931
929
925
924
930
931
931
927
925
930
930
932
931
929
930
929
932
936
936
937
937
937
941
946
948
945
945
946
950
951
954
952
948
949
954
960
964
964
965
969
973
977
981
979
980
982
983
988
992
991
989
993
997
1002
1006
1008
1006
1006
1010
1016
1021
1024
1024
1024
1023
1024
1028
1028
1023
1024
1024
1030
1026
1022
1014
1010
1011
1010
1009
1006
998
997
994
994
991
988
985
982
983
982
980
978
973
969
969
971
970
967
960
963
964
966
967
966
963
959
959
957
959
956
955
951
956
961
960
966
966
966
970
972
970
969
971
972
982
988
993
997
998
1004
1014
1024
1033
1037
1042
1050
1064
1081
1095
1111
1126
1141
1158
1170
1170
1164
1153
1140
1128
1117
1099
1081
1051
1015
979
953
937
926
922
925
929
938
940
938
932
929
930
927
926
925
917
921
922
924
925
922
920
920
922
925
928
927
925
926
930
930
931
932
932
932
937
935
935
929
927
926
930
930
927
925
920
919
921
924
924
922
922
920
920
924
922
920
920
916
918
922
927
926
927
928
928
931
929
928
929
933
937
947
949
951
947
949
952
958
963
964
964
966
967
971
974
973
972
967
971
969
968
965
962
958
958
957
957
956
953
951
955
957
955
951
947
944
943
949
949
947
946
944
946
947
949
946
943
944
943
947
949
948
948
946
951
956
959
957
955
956
959
964
964
961
961
962
964
969
970
970
968
968
970
973
974
974
970
970
969
974
971
971
969
967
973
972
974
970
967
966
967
970
970
969
965
962
967
968
969
966
962
961
963
964
966
962
959
958
960
963
964
964
960
959
958
963
964
957
957
956
958
961
963
961
958
954
951
949
950
949
944
946
949
950
951
950
947
948
949
948
951
949
944
946
950
951
950
950
947
948
948
952
953
953
949
947
952
949
950
947
947
946
949
952
952
951
949
948
950
951
949
953
950
949
950
949
950
950
951
949
952
955
954
951
948
947
950
951
954
951
948
947
950
953
954
953
949
948
951
954
954
952
947
949
950
955
956
955
955
952
956
956
960
957
955
956
958
961
960
960
958
955
959
960
963
960
961
960
962
967
969
967
964
965
967
970
969
969
969
967
968
974
980
978
976
977
981
987
990
989
990
990
996
1002
1009
1014
1012
1012
1015
1020
1017
1019
1016
1017
1017
1017
1012
1007
1000
996
996
997
995
992
987
987
988
991
990
990
988
988
991
992
997
993
991
990
992
1000
1007
1022
1041
1072
1113
1149
1179
1195
1205
1206
1202
1186
1156
1112
1062
1018
990
985
990
988
983
979
979
980
981
978
974
970
972
972
972
969
967
964
968
968
969
968
965
960
965
967
968
965
964
964
967
966
968
965
965
964
967
972
972
970
969
970
972
975
978
977
977
974
978
981
983
980
980
981
985
989
994
995
993
994
995
999
1006
1005
1003
1007
1011
1015
1021
1020
1024
1021
1025
1028
1037
1040
1036
1041
1043
1045
1050
1051
1052
1053
1058
1059
1063
1061
1058
1057
1059
1064
1061
1061
1053
1055
1054
1055
1054
1047
1046
1044
1041
1043
1040
1036
1032
1029
1028
1029
1023
1020
1016
1013
1011
1011
1012
1006
1004
1004
1003
1004
1003
999
995
994
997
998
999
997
994
994
994
996
998
999
997
997
997
1003
1005
1008
1004
1005
1008
1012
1010
1013
1013
1017
1020
1029
1035
1040
1043
1053
1063
1073
1085
1095
1107
1118
1133
1146
1161
1171
1178
1180
1183
1176
1163
1147
1132
1117
1107
1090
1069
1039
1008
986
969
961
958
951
944
941
939
944
946
946
946
943
944
949
948
944
941
939
939
938
936
933
927
925
926
929
927
924
924
921
924
926
929
929
926
926
930
936
938
936
933
931
935
942
940
942
940
940
941
947
951
951
947
948
951
955
957
960
955
954
954
954
959
960
961
963
969
975
981
982
981
984
992
997
998
1003
1004
1006
1010
1015
1019
1016
1017
1017
1017
1020
1020
1018
1016
1009
1012
1012
1015
1009
1003
1001
1000
1004
1002
998
994
992
990
991
987
986
984
981
982
982
981
980
980
979
981
982
984
980
977
976
974
978
979
980
981
977
981
984
983
983
982
982
985
987
988
986
985
982
986
987
988
985
981
983
986
988
986
985
980
979
980
981
980
977
971
973
975
975
973
973
968
967
968
970
973
969
964
963
964
965
966
962
959
957
957
959
959
956
955
953
955
958
959
954
952
953
953
955
956
954
950
949
948
949
952
950
948
945
946
949
952
949
943
944
948
948
950
947
944
944
943
950
949
945
942
943
945
946
948
946
943
942
944
946
947
947
941
939
942
946
946
945
941
939
942
944
943
945
940
941
943
946
946
944
941
937
942
944
946
945
941
941
943
945
946
945
941
942
943
947
945
947
941
942
943
947
948
946
943
942
944
946
947
946
944
944
946
949
945
948
947
945
947
949
950
950
944
943
944
949
949
948
945
944
947
950
951
949
946
946
947
950
951
951
948
948
948
952
953
952
949
949
951
952
958
958
955
955
956
958
957
957
956
956
957
960
966
968
968
968
972
976
981
986
985
989
997
1003
1006
1004
1003
1002
1004
1008
1005
1001
994
988
987
986
984
981
972
971
972
971
974
973
971
967
970
975
978
979
977
975
979
988
997
1019
1050
1093
1142
1181
1208
1219
1217
1200
1168
1123
1062
1002
963
955
960
961
955
951
948
947
948
950
951
948
945
944
944
946
946
944
943
942
943
945
946
945
944
943
942
946
947
946
944
944
945
950
950
950
947
948
950
953
956
955
950
949
952
957
960
960
960
958
963
965
969
970
969
969
973
978
980
983
982
983
987
992
998
1000
999
1002
1006
1011
1017
1016
1015
1016
1018
1027
1033
1035
1032
1034
1037
1044
1047
1046
1045
1044
1047
1050
1050
1048
1046
1045
1047
1047
1046
1040
1039
1035
1036
1036
1036
1033
1026
1020
1020
1021
1022
1016
1008
1009
1006
1008
1007
1003
999
997
996
998
998
996
990
989
991
991
994
991
989
987
989
994
995
992
989
991
996
1000
1001
1001
1003
1004
1008
1014
1019
1023
1021
1022
1028
1035
1043
1046
1055
1065
1078
1097
1111
1123
1134
1147
1165
1181
1197
1213
1228
1252
1268
1290
1296
1296
1285
1269
1247
1218
1177
1120
1061
1023
1003
1001
1000
993
986
974
964
963
960
954
947
940
940
939
936
931
928
924
921
922
921
916
912
908
910
907
909
907
903
902
899
902
902
903
899
900
901
905
907
905
902
900
898
900
901
897
894
893
888
892
891
888
886
883
884
886
887
884
883
883
885
891
896
895
894
895
901
905
910
913
913
916
920
927
931
933
932
934
940
940
947
947
946
946
951
952
957
955
954
953
956
955
961
958
956
957
957
960
963
962
961
961
960
966
967
969
966
965
967
972
974
975
971
972
975
979
981
981
979
979
982
986
985
988
985
985
987
992
992
992
993
989
990
995
997
995
997
996
993
995
998
993
994
990
995
997
999
998
995
992
992
992
994
988
988
986
990
994
992
991
986
981
980
983
985
986
980
978
979
986
988
985
979
974
976
983
982
982
979
977
977
978
981
980
975
974
974
977
975
971
970
966
970
972
974
970
971
970
969
971
975
976
972
970
971
971
975
973
969
967
971
972
973
971
968
967
967
970
969
970
967
965
967
970
974
971
967
965
967
972
972
972
970
966
967
972
973
970
969
963
965
969
971
972
966
965
970
973
974
973
969
969
969
969
974
974
970
968
971
972
978
974
969
970
971
973
975
975
973
971
969
967
965
965
963
964
966
967
971
971
966
965
968
971
970
970
969
970
971
974
976
975
973
970
973
975
975
974
976
971
975
978
978
979
977
974
977
979
979
979
977
975
976
979
981
981
978
979
981
984
986
986
983
982
986
991
992
994
995
995
1001
1006
1010
1013
1012
1014
1021
1029
1034
1032
1029
1028
1030
1030
1032
1031
1029
1023
1019
1014
1009
1001
998
994
992
994
992
990
990
988
993
992
995
995
992
993
997
1001
1004
1008
1013
1032
1061
1101
1146
1183
1204
1220
1227
1231
1218
1186
1137
1086
1032
995
982
983
986
983
979
981
981
980
978
976
974
974
975
971
968
968
970
965
971
969
965
965
964
967
968
965
965
964
965
968
970
969
967
967
971
975
976
976
976
974
973
974
977
979
978
976
980
982
984
986
984
986
989
994
999
1000
998
997
1004
1006
1010
1010
1011
1011
1018
1023
1026
1024
1027
1029
1029
1036
1039
1041
1043
1046
1050
1051
1056
1059
1058
1057
1059
1065
1066
1068
1064
1061
1065
1066
1068
1066
1063
1058
1058
1059
1059
1055
1051
1048
1048
1044
1043
1040
1036
1032
1028
1030
1028
1025
1019
1015
1014
1014
1014
1011
1005
1004
1002
1005
1005
1002
996
996
994
996
997
999
994
992
992
998
998
998
998
996
999
1000
1002
1004
999
1000
1006
1009
1011
1013
1011
1014
1016
1021
1027
1030
1030
1038
1043
1058
1073
1085
1098
1107
1121
1136
1147
1158
1166
1177
1194
1214
1232
1245
1252
1254
1251
1244
1234
1213
1192
1166
1138
1110
1071
1036
1006
986
969
961
955
947
937
932
933
934
931
927
920
913
914
913
912
911
905
899
893
886
887
882
877
872
873
874
875
873
870
866
867
866
870
870
870
868
869
871
874
873
868
871
870
871
872
871
870
868
865
868
871
867
864
861
860
860
863
859
860
856
857
860
859
859
858
856
857
862
867
865
864
868
871
875
878
882
884
884
889
896
898
903
904
907
908
912
915
920
922
923
926
928
931
928
931
931
932
933
935
932
933
931
933
935
937
935
928
931
931
935
935
933
933
930
934
936
940
936
931
931
931
934
939
937
936
934
939
939
944
943
941
941
944
943
947
948
942
942
944
949
949
951
948
950
950
953
955
954
952
951
953
957
960
957
953
955
955
956
960
958
957
953
953
957
957
957
956
951
949
952
953
951
950
946
948
951
952
947
946
943
947
949
950
948
944
941
942
944
944
944
939
938
940
940
944
939
936
934
938
938
940
939
936
934
935
940
939
937
934
934
935
937
936
938
935
933
930
936
935
936
931
930
937
938
941
938
937
936
935
939
941
934
933
932
935
939
940
938
937
937
938
938
942
941
938
936
937
939
944
941
938
937
941
941
945
945
942
939
940
942
944
944
942
943
943
945
946
945
941
941
942
944
946
946
944
942
944
945
949
946
945
941
941
951
952
953
950
948
948
952
955
953
951
949
951
953
956
954
953
951
948
955
955
956
955
951
953
956
957
959
955
956
954
956
962
958
955
955
953
957
961
960
958
955
957
960
959
959
960
959
960
962
966
968
965
962
967
969
972
973
971
972
974
979
985
985
985
987
990
999
1007
1007
1007
1009
1012
1014
1014
1012
1011
1011
1009
1011
1008
1003
996
992
989
992
991
986
982
974
978
979
982
980
978
976
976
980
982
982
982
981
984
993
1002
1020
1044
1078
1116
1156
1186
1203
1212
1211
1201
1184
1155
1111
1060
1009
974
960
965
967
963
959
955
960
965
962
958
954
951
957
958
958
953
952
957
955
955
954
951
947
947
949
956
950
947
942
942
941
943
943
941
939
941
945
948
948
944
945
947
953
956
954
952
954
956
960
963
961
962
962
961
965
967
966
962
962
964
968
972
974
974
977
979
984
989
990
989
987
996
999
1005
1004
1004
1007
1010
1015
1018
1021
1016
1016
1017
1024
1029
1027
1027
1026
1030
1035
1032
1033
1031
1031
1032
1035
1036
1033
1028
1026
1022
1023
1023
1020
1015
1009
1006
1008
1007
1005
997
998
998
998
999
996
990
984
985
981
986
983
979
975
975
977
980
979
976
974
974
975
973
973
971
970
969
971
978
979
973
974
976
979
982
981
978
977
981
984
984
986
986
989
991
993
992
991
988
987
991
993
1000
1002
1007
1010
1015
1023
1030
1034
1035
1039
1048
1059
1068
1070
1058
1037
1011
981
945
914
881
851
819
794
771
753
743
746
753
769
780
785
787
791
795
803
810
816
821
830
841
854
867
877
882
891
900
910
920
923
926
929
933
933
945
949
950
948
956
963
966
970
972
973
979
987
992
992
990
991
994
996
999
1003
1006
1004
1010
1015
1022
1026
1028
1031
1035
1042
1047
1053
1055
1061
1067
1074
1080
1088
1092
1099
1107
1116
1124
1130
1133
1136
1145
1153
1161
1163
1169
1173
1173
1184
1187
1190
1186
1182
1182
1183
1185
1183
1178
1175
1173
1173
1169
1162
1155
1148
1143
1140
1135
1130
1120
1115
1109
1103
1100
1093
1085
1078
1073
1069
1066
1061
1056
1050
1044
1046
1046
1041
1036
1029
1027
1029
1027
1022
1016
1015
1015
1015
1015
1015
1012
1008
1006
1010
1011
1010
1008
1004
1003
1005
1005
998
1000
994
994
998
998
993
992
988
988
989
990
987
984
979
981
983
984
982
976
973
975
977
979
976
972
968
965
968
969
967
962
959
959
960
963
959
956
951
954
955
956
956
956
951
952
954
953
951
945
941
941
942
942
939
932
932
932
934
937
934
932
929
930
931
936
932
929
927
926
930
934
931
929
926
929
928
932
933
928
925
928
929
930
928
927
924
923
926
923
922
918
916
919
920
924
921
918
916
920
922
924
926
921
917
920
922
925
923
917
916
918
920
922
918
916
915
918
919
921
918
916
911
911
913
915
915
915
913
912
911
912
913
913
909
911
914
913
911
910
908
909
911
913
912
911
909
911
911
913
914
911
910
909
911
914
914
910
909
907
911
912
910
910
911
911
913
912
913
912
911
911
915
917
911
911
912
911
913
914
914
912
911
911
914
916
916
916
916
918
923
928
931
931
931
931
935
941
946
949
953
961
968
972
969
968
966
968
973
973
966
957
950
948
947
949
943
936
933
928
930
933
932
926
927
930
934
938
942
937
931
930
935
951
973
1005
1054
1111
1158
1190
1208
1215
1208
1185
1144
1087
1017
955
919
914
925
924
920
915
911
912
910
909
909
907
906
905
909
911
906
904
903
906
907
908
908
905
905
904
906
909
908
908
907
908
910
912
911
909
909
911
915
916
914
913
911
911
915
920
920
920
919
921
925
927
930
927
929
931
938
943
943
944
943
947
951
954
956
956
961
965
969
974
978
979
979
981
987
988
993
990
993
996
1002
1005
1005
1004
1006
1008
1013
1015
1017
1014
1009
1007
1009
1014
1013
1009
1005
1004
1006
1006
1001
993
985
983
982
987
982
981
975
973
974
972
969
966
962
963
965
965
966
960
959
960
964
966
964
962
964
965
970
974
975
973
976
978
978
984
983
980
977
981
991
998
999
997
995
997
1000
1008
1015
1018
1024
1036
1054
1068
1080
1092
1100
1115
1131
1144
1158
1171
1186
1210
1230
1260
1279
1293
1308
1320
1331
1336
1334
1324
1306
1284
1249
1210
1163
1119
1072
1034
1007
990
973
957
942
936
931
930
924
915
905
903
899
897
891
885
882
882
884
883
878
874
871
875
879
882
878
876
873
873
875
877
871
866
860
860
860
861
857
849
847
846
844
843
840
834
