890
914
951
965
958
957
965
969
971
970
967
966
968
971
969
967
967
967
968
970
968
968
965
966
965
972
970
968
966
968
972
974
972
973
973
974
975
978
982
980
979
979
981
983
981
983
981
983
989
993
995
993
992
996
1002
1007
1009
1009
1005
1011
1016
1020
1021
1020
1020
1026
1034
1038
1041
1044
1042
1047
1054
1058
1061
1060
1059
1062
1065
1066
1064
1069
1066
1068
1067
1064
1063
1063
1061
1060
1060
1059
1059
1056
1052
1049
1048
1046
1041
1032
1029
1030
1025
1024
1017
1014
1011
1009
1006
1006
1003
1000
996
995
997
999
994
987
982
986
989
991
990
987
988
986
988
990
990
990
988
990
993
996
998
993
995
997
1001
1006
1009
1008
1010
1019
1025
1035
1048
1064
1085
1110
1132
1160
1182
1197
1215
1242
1274
1316
1351
1377
1385
1382
1371
1356
1331
1295
1243
1183
1111
1033
959
913
894
902
918
931
937
936
926
922
923
922
914
908
904
903
901
900
897
888
887
883
884
884
881
878
877
877
877
878
879
880
881
886
890
891
887
883
877
879
883
887
887
883
879
878
879
881
879
874
870
868
867
868
867
863
859
863
866
871
875
878
879
883
888
894
895
897
901
910
916
925
930
931
932
936
944
945
948
948
945
946
950
951
952
950
945
943
944
942
940
935
933
936
933
933
932
927
926
927
930
931
930
927
925
926
924
926
928
924
924
924
927
931
930
930
927
932
934
935
936
934
934
937
942
945
946
942
943
945
948
949
952
953
951
953
952
956
958
956
954
953
956
962
962
956
954
952
956
957
956
955
951
951
952
951
950
950
947
944
946
951
951
949
941
939
942
944
942
941
938
935
938
940
937
931
930
931
936
938
936
933
929
929
932
934
936
931
925
927
931
932
930
927
926
928
927
933
929
928
927
925
928
934
934
929
926
928
930
930
933
930
928
930
929
933
931
929
926
929
929
929
930
930
929
926
925
929
928
928
925
925
926
927
925
926
925
928
930
932
931
927
924
924
925
928
931
931
927
927
925
931
929
930
928
929
932
936
933
931
926
926
926
935
935
935
934
933
936
941
940
941
938
938
939
939
938
933
934
937
943
943
942
938
940
940
941
943
940
939
940
941
944
943
943
941
943
943
944
948
946
945
945
944
948
951
951
947
946
945
945
950
948
946
945
950
955
957
956
954
954
953
954
954
956
956
953
954
957
959
958
955
951
949
955
957
957
955
954
953
957
958
959
957
956
958
961
967
971
972
972
976
984
989
989
993
1003
1014
1015
1022
1017
1014
1013
1016
1018
1016
1009
998
992
985
982
980
976
970
963
961
960
966
967
962
958
962
965
964
959
949
942
942
965
1007
1074
1160
1245
1316
1365
1394
1397
1381
1336
1250
1130
1003
902
873
903
928
939
939
940
941
943
944
944
946
945
942
943
940
941
947
947
945
941
942
946
948
941
941
939
939
943
948
946
944
940
942
945
950
951
950
947
948
956
956
957
953
956
958
959
962
964
964
965
966
971
976
978
978
976
978
986
992
991
993
992
995
1001
1004
1010
1008
1009
1016
1023
1029
1033
1034
1031
1037
1040
1046
1051
1054
1058
1059
1066
1066
1064
1060
1056
1055
1054
1055
1052
1051
1049
1046
1046
1045
1040
1037
1030
1027
1027
1026
1024
1017
1013
1007
1006
1005
1005
999
995
993
992
991
990
985
983
985
983
983
980
977
974
972
977
980
983
977
972
973
977
981
979
975
977
977
980
989
991
988
986
986
990
997
998
999
999
1007
1013
1022
1032
1045
1065
1088
1114
1138
1153
1171
1192
1207
1228
1261
1293
1333
1372
1400
1421
1423
1413
1396
1371
1338
1298
1245
1171
1080
1002
954
925
913
913
921
927
933
936
937
934
930
921
922
922
922
918
914
908
908
909
907
904
897
894
891
892
892
891
888
884
887
890
891
891
893
892
897
901
906
904
899
892
893
897
903
901
896
891
893
896
896
894
888
882
882
884
887
886
884
880
881
883
884
885
883
881
886
893
901
903
905
906
913
921
929
932
935
939
942
949
954
955
956
954
961
964
971
974
967
964
965
969
972
969
968
967
964
965
968
971
963
962
962
965
966
965
962
958
960
966
970
967
964
966
966
964
965
971
970
969
970
972
973
974
976
973
974
977
976
979
978
974
978
980
983
983
986
982
986
986
988
986
984
981
981
986
989
989
989
986
987
993
999
1002
999
991
988
984
990
990
988
985
981
979
977
973
972
972
973
973
976
976
972
967
966
970
975
974
968
966
965
972
973
965
959
957
961
964
964
967
964
960
961
961
963
961
959
958
958
961
965
960
955
957
959
959
960
959
953
952
947
951
955
958
956
954
952
954
959
959
954
952
952
954
955
952
952
948
950
953
955
955
954
951
951
948
953
948
950
947
949
948
952
954
953
949
952
950
953
953
952
949
951
951
951
948
947
948
948
952
953
956
954
952
948
950
948
949
949
942
948
949
954
954
952
949
948
951
956
959
957
954
951
952
956
954
952
947
950
951
956
957
954
950
950
952
955
957
954
951
949
953
956
958
955
949
951
953
958
957
954
951
950
954
958
956
954
952
951
956
956
958
952
950
951
956
958
958
952
952
952
954
959
955
958
954
956
958
960
959
952
950
950
953
956
952
955
953
955
958
962
960
956
954
953
951
953
951
949
948
950
954
958
960
962
958
957
956
959
958
959
955
955
954
955
958
957
958
958
959
960
954
951
951
953
951
954
954
957
957
960
961
965
964
961
956
965
970
980
982
983
981
986
992
1008
1018
1021
1023
1023
1025
1027
1030
1030
1026
1021
1013
1007
999
990
983
981
980
976
970
965
960
960
965
966
968
962
962
961
962
961
952
939
931
935
955
995
1059
1142
1226
1300
1355
1393
1410
1408
1382
1324
1226
1099
971
886
878
914
937
942
937
939
937
938
945
947
945
938
935
933
935
938
939
936
933
935
942
945
941
940
937
937
939
945
945
942
938
937
939
944
941
942
941
942
947
951
951
947
946
946
952
956
954
954
951
954
958
964
963
964
964
967
971
975
975
972
975
977
982
985
988
988
990
993
998
1001
1005
1006
1008
1013
1018
1024
1025
1030
1030
1032
1036
1042
1047
1045
1041
1046
1051
1058
1058
1057
1054
1052
1054
1056
1057
1052
1052
1051
1049
1049
1046
1040
1036
1031
1032
1032
1027
1025
1016
1014
1012
1008
1005
998
993
987
988
988
987
983
983
979
978
979
975
973
970
968
970
973
972
970
966
968
970
974
972
969
971
975
978
983
981
982
983
982
982
989
993
994
993
997
1005
1013
1021
1029
1041
1062
1084
1108
1124
1136
1149
1166
1185
1206
1221
1235
1254
1283
1322
1367
1409
1440
1454
1456
1453
1443
1430
1407
1379
1331
1259
1168
1071
990
938
916
916
923
925
925
923
924
922
920
917
913
908
905
903
901
895
893
892
888
889
890
884
877
876
874
875
875
872
871
871
872
869
875
874
869
867
873
878
879
880
875
866
868
871
870
864
863
859
859
857
857
853
849
841
839
835
835
832
830
828
827
827
832
829
827
827
829
835
839
839
841
841
844
848
856
859
860
863
873
882
891
894
897
901
908
916
923
926
927
926
932
936
942
942
943
939
947
951
955
953
952
953
954
956
961
957
959
957
965
970
975
971
968
966
964
967
968
972
971
974
977
978
981
977
978
978
980
982
986
986
986
981
987
988
994
990
990
988
989
994
996
996
992
993
992
996
998
996
995
999
997
1000
1001
998
998
995
999
999
1003
998
997
995
994
998
1000
996
995
994
996
996
1000
998
990
989
988
991
995
993
989
988
986
990
993
989
988
985
982
982
984
983
979
978
977
981
984
983
982
978
977
980
984
980
978
976
974
974
980
978
978
972
971
971
978
978
975
974
973
978
979
973
972
972
971
977
980
981
978
976
973
976
978
977
975
976
970
974
977
976
973
970
972
969
976
976
976
973
973
974
975
975
970
968
971
975
979
979
975
972
973
975
977
978
976
973
976
978
977
976
974
972
973
973
978
981
981
979
976
979
982
979
975
973
973
975
978
977
976
974
975
979
985
983
980
975
975
977
980
980
978
977
974
977
981
981
978
977
973
979
982
983
979
977
976
980
980
978
978
975
975
978
981
978
980
977
979
982
984
983
981
979
979
980
982
983
982
982
981
980
983
980
979
976
975
982
985
983
983
982
980
984
987
985
984
980
981
984
989
987
984
983
983
987
989
990
987
985
986
992
996
1001
1004
1005
1011
1012
1017
1024
1032
1043
1052
1057
1056
1054
1051
1051
1050
1054
1055
1044
1036
1022
1014
1015
1011
1005
1000
990
990
990
991
987
986
984
983
985
987
983
978
969
957
952
964
984
1030
1099
1192
1280
1348
1390
1416
1426
1418
1392
1331
1223
1095
967
900
904
942
962
962
957
958
965
971
970
966
963
960
961
968
964
960
957
957
961
963
964
964
956
958
963
964
963
964
964
961
966
967
969
966
964
965
966
969
971
970
968
967
971
976
979
975
974
977
981
985
987
986
987
987
990
993
996
997
997
996
1003
1010
1012
1017
1017
1018
1024
1031
1037
1037
1037
1044
1047
1054
1054
1059
1061
1065
1072
1078
1078
1080
1083
1085
1087
1093
1095
1096
1092
1090
1092
1093
1089
1088
1082
1082
1076
1080
1077
1071
1063
1065
1062
1058
1050
1041
1040
1039
1036
1032
1026
1021
1016
1013
1014
1013
1010
1001
1000
998
998
1003
1001
994
991
988
991
995
996
996
992
994
996
999
999
996
995
995
1003
1008
1009
1010
1009
1009
1011
1015
1020
1021
1022
1025
1037
1052
1069
1090
1115
1144
1168
1191
1209
1228
1240
1262
1285
1321
1355
1390
1420
1437
1442
1435
1410
1381
1347
1306
1256
1194
1122
1056
1001
958
939
937
939
936
934
934
940
946
941
934
926
919
917
917
917
911
908
904
899
897
898
892
887
886
888
891
887
884
882
883
887
890
893
895
891
890
892
891
893
889
886
886
887
889
883
879
874
867
869
870
871
864
860
859
860
861
859
858
860
858
863
866
867
871
877
880
885
891
899
900
903
910
919
926
932
933
936
940
945
953
956
956
951
953
958
961
962
962
958
955
959
961
965
960
957
957
958
964
965
963
962
957
962
965
964
963
961
961
966
969
969
969
968
968
971
974
976
973
969
973
976
978
978
974
972
972
976
980
983
978
975
978
980
986
983
980
978
981
979
985
984
985
980
979
981
983
982
979
977
977
978
979
977
971
968
972
973
974
969
968
965
963
964
966
968
964
959
958
961
964
963
961
954
949
952
956
959
955
953
949
951
953
951
947
944
943
944
949
946
945
942
946
949
948
948
942
938
938
941
944
944
941
934
932
936
937
939
935
934
934
939
941
945
942
938
936
938
941
940
938
936
937
937
938
935
934
932
932
935
937
936
934
932
935
934
937
936
931
933
933
936
941
940
938
935
934
938
939
937
933
933
934
939
942
940
937
935
934
936
939
939
936
937
936
937
937
938
936
934
932
936
940
939
938
938
936
941
938
942
941
938
938
939
940
939
942
939
939
940
939
942
941
941
938
940
944
945
941
939
937
941
945
945
941
941
941
941
944
942
942
939
937
938
941
943
941
938
938
939
940
942
944
942
940
942
945
944
944
940
939
940
945
947
947
944
940
940
944
945
944
943
941
944
946
942
939
937
938
942
945
941
938
937
937
939
946
945
942
943
943
947
949
952
950
949
948
953
961
965
966
969
971
976
984
996
1004
1010
1009
1005
1008
1005
1007
1004
1002
997
992
985
976
966
962
961
958
952
948
943
941
942
945
944
945
942
944
946
943
931
929
940
965
1025
1111
1205
1283
1333
1364
1378
1370
1332
1255
1139
1011
905
862
884
914
920
913
916
928
935
934
930
927
929
931
933
929
931
930
932
936
935
931
928
928
931
934
934
930
928
929
933
937
936
935
935
935
938
939
939
939
935
937
941
947
945
943
943
944
946
948
952
955
961
963
968
976
975
975
973
972
978
988
991
987
989
994
999
1006
1006
1009
1011
1016
1022
1029
1029
1029
1031
1036
1041
1044
1043
1043
1042
1045
1049
1052
1051
1048
1043
1042
1045
1046
1045
1038
1036
1034
1033
1033
1028
1024
1018
1015
1013
1011
1009
1005
994
994
994
990
987
983
980
976
976
975
972
972
970
968
968
969
969
966
963
962
962
966
966
967
965
965
966
969
971
970
967
969
972
979
982
985
983
987
993
997
998
997
993
999
1009
1021
1036
1051
1065
1084
1106
1126
1146
1161
1179
1199
1223
1252
1287
1326
1365
1400
1426
1441
1437
1423
1404
1369
1316
1239
1130
1023
953
926
931
943
950
944
932
926
925
922
922
915
909
904
904
903
899
896
891
888
888
888
884
879
874
872
872
878
878
875
871
870
871
874
878
880
882
882
882
884
881
881
873
874
871
876
873
870
866
864
863
862
859
854
845
846
851
852
853
850
847
846
848
851
851
850
854
855
860
866
871
876
877
880
888
897
899
900
904
906
915
920
924
924
924
924
928
929
932
933
933
932
936
942
942
946
940
940
938
943
943
947
943
943
946
951
949
946
944
947
950
953
956
953
949
954
959
960
958
955
960
962
967
971
969
969
967
966
966
967
962
961
964
964
966
970
972
971
969
972
969
970
970
970
967
967
971
971
972
967
962
958
961
964
965
965
961
961
961
963
961
956
950
950
953
954
955
951
947
948
950
952
949
944
941
942
945
945
946
940
940
940
939
939
942
942
939
937
938
941
942
939
935
935
936
937
940
934
934
933
934
936
933
935
931
932
939
941
938
935
932
929
931
931
931
927
929
927
929
931
932
927
926
925
929
931
932
931
928
931
931
936
936
934
930
929
934
936
938
936
931
930
931
935
936
934
932
933
933
936
933
930
926
926
926
932
934
933
929
930
935
939
937
936
936
933
936
939
940
938
937
937
937
940
939
938
935
935
939
943
941
942
934
938
939
941
942
943
942
943
942
945
946
942
939
936
938
942
944
943
944
946
947
949
946
945
945
945
944
945
945
943
944
949
953
952
952
950
946
947
949
952
956
954
951
950
955
957
958
951
944
944
946
952
952
952
951
950
953
953
954
955
950
953
956
957
958
958
954
956
959
960
958
955
954
955
957
960
963
957
956
957
958
962
960
963
955
957
959
963
963
963
961
958
963
966
967
966
965
966
973
980
985
984
985
984
990
1000
1010
1021
1022
1023
1024
1028
1030
1029
1028
1028
1029
1026
1014
1005
993
986
983
980
978
974
966
964
964
970
969
967
963
964
967
969
965
956
943
935
939
960
1000
1070
1162
1257
1336
1384
1409
1417
1404
1363
1281
1163
1035
923
900
927
953
959
951
950
948
952
955
955
953
954
948
949
950
957
955
950
948
948
950
952
946
947
947
948
951
954
953
949
947
948
952
953
952
952
948
950
952
956
954
953
954
951
956
962
962
964
962
961
964
969
969
972
971
967
970
972
976
977
978
977
985
987
992
994
996
999
1002
1010
1012
1015
1016
1020
1025
1031
1035
1036
1038
1040
1046
1050
1052
1055
1053
1055
1058
1060
1060
1061
1058
1058
1059
1063
1064
1059
1053
1050
1050
1054
1051
1041
1035
1033
1032
1032
1029
1023
1013
1011
1011
1012
1008
1001
994
991
992
989
989
983
978
975
976
977
976
974
971
972
973
972
974
972
970
968
970
974
979
975
974
973
975
979
979
978
977
979
984
987
988
989
989
989
992
997
999
1003
1006
1016
1026
1044
1067
1086
1107
1125
1147
1172
1195
1214
1231
1258
1289
1327
1362
1393
1409
1416
1408
1389
1350
1308
1267
1221
1174
1112
1052
998
947
910
897
898
901
895
891
892
897
901
903
895
893
889
890
890
891
885
878
868
871
870
867
861
862
859
862
863
861
858
856
857
860
865
866
865
863
862
865
863
861
863
860
858
860
861
858
855
851
850
851
852
850
844
838
837
835
837
835
833
832
827
831
833
835
831
830
830
835
840
847
846
846
852
860
865
869
873
872
876
885
893
897
898
899
902
907
911
915
916
914
914
917
918
916
919
919
917
921
922
921
919
919
920
922
922
922
922
917
916
921
927
925
923
918
922
924
927
928
928
926
926
928
930
929
930
931
932
934
937
939
939
934
936
937
940
940
937
934
934
937
939
941
941
940
939
943
945
944
942
941
940
943
948
945
947
942
939
943
944
947
943
941
941
941
943
943
938
937
937
939
942
937
934
931
929
934
936
931
929
927
926
928
931
928
925
920
920
926
928
927
923
921
922
926
927
929
926
923
918
918
920
923
919
919
917
917
922
920
917
916
915
918
920
922
922
920
918
919
921
919
917
915
914
917
919
916
914
914
913
916
918
921
920
915
915
920
921
917
919
915
915
919
920
921
918
916
917
922
924
923
919
915
918
918
924
921
921
916
922
921
921
922
921
923
921
924
926
924
920
915
918
923
927
929
927
923
925
926
929
929
927
923
924
925
931
929
928
927
929
930
933
933
931
931
930
928
935
939
932
931
930
934
937
937
937
934
935
938
934
938
938
939
939
938
939
935
936
936
938
938
939
940
938
937
936
938
939
941
940
936
937
946
947
945
943
941
941
942
945
945
946
943
944
944
949
948
944
939
940
939
944
946
948
945
944
944
945
943
942
944
943
950
955
954
951
951
949
954
956
961
964
965
968
971
975
978
978
980
987
