949
951
948
949
952
954
949
950
948
949
955
953
952
950
954
958
960
960
959
958
955
955
959
958
960
961
961
962
961
961
961
961
960
960
961
960
958
955
956
958
960
962
961
962
963
968
973
975
976
978
983
992
1000
1004
1008
1011
1015
1019
1026
1031
1033
1035
1035
1031
1025
1018
1014
1008
1010
1012
1012
1014
1012
1007
1004
1003
1004
998
992
984
981
980
977
971
966
961
957
955
953
952
947
944
942
942
942
939
936
935
933
936
937
937
937
937
941
943
950
951
955
963
986
1037
1119
1232
1328
1366
1346
1312
1290
1278
1267
1249
1228
1211
1196
1180
1164
1145
1127
1109
1089
1064
1036
1010
983
960
931
900
869
840
812
785
762
737
715
696
683
673
669
665
654
644
623
610
599
586
573
558
547
549
564
585
610
633
665
699
726
742
751
759
767
781
791
801
814
817
820
822
826
835
844
855
865
883
895
907
919
931
946
964
981
996
1005
1016
1026
1037
1046
1049
1052
1054
1059
1064
1070
1073
1075
1080
1081
1087
1093
1100
1104
1107
1107
1116
1121
1130
1133
1136
1139
1145
1150
1157
1160
1164
1168
1177
1181
1186
1191
1194
1197
1201
1207
1209
1210
1211
1214
1216
1217
1217
1215
1212
1209
1208
1209
1205
1201
1198
1194
1189
1187
1182
1175
1164
1161
1157
1153
1148
1141
1131
1122
1117
1111
1106
1097
1086
1079
1072
1067
1058
1049
1040
1033
1030
1023
1016
1007
1000
995
993
993
987
983
976
972
969
968
967
961
959
958
958
958
954
953
953
954
954
957
954
953
953
952
954
954
956
952
957
958
964
969
972
977
983
990
1003
1008
1012
1012
1014
1015
1018
1025
1030
1033
1033
1026
1024
1021
1019
1017
1015
1016
1018
1022
1022
1019
1014
1012
1008
1007
1002
996
990
984
982
979
974
967
961
957
954
950
947
942
938
935
935
935
931
928
926
926
927
927
926
924
922
923
925
927
925
919
916
916
920
923
923
923
922
921
922
924
924
920
922
920
921
921
922
921
920
918
920
923
921
922
921
922
922
925
926
927
925
926
929
930
927
924
924
925
927
931
932
931
932
931
935
938
942
943
945
949
958
971
999
1055
1158
1280
1357
1364
1326
1294
1277
1266
1256
1239
1218
1200
1185
1170
1159
1149
1127
1110
1088
1070
1048
1027
1000
966
926
885
848
814
782
748
715
684
661
645
629
620
612
605
598
590
572
555
546
536
527
517
514
520
538
566
597
632
664
694
719
741
758
771
782
794
806
813
828
837
840
845
848
858
873
889
899
913
921
930
945
959
976
992
1005
1016
1031
1044
1054
1061
1068
1071
1076
1080
1082
1084
1087
1088
1093
1097
1099
1104
1107
1112
1117
1122
1125
1129
1132
1137
1143
1150
1152
1158
1161
1167
1176
1181
1190
1192
1197
1200
1208
1215
1217
1219
1223
1226
1233
1237
1239
1238
1238
1238
1243
1246
1244
1240
1235
1232
1232
1231
1227
1221
1215
1211
1207
1205
1199
1192
1182
1177
1173
1171
1167
1161
1158
1155
1155
1156
1154
1150
1146
1142
1141
1133
1126
1120
1117
1111
1101
1091
1079
1069
1061
1054
1052
1049
1048
1043
1039
1030
1029
1025
1020
1013
1005
996
994
990
985
978
968
964
962
958
952
946
943
942
939
939
935
933
926
923
926
929
927
925
924
922
925
926
926
926
924
924
925
926
924
923
922
925
927
932
930
928
925
925
928
931
929
927
922
927
930
930
928
927
925
924
925
926
925
923
924
920
922
924
924
921
919
919
922
925
926
925
924
924
923
924
922
923
922
927
929
930
931
928
924
924
927
931
930
928
926
925
927
931
930
930
930
930
929
933
935
935
932
931
932
936
935
936
938
936
938
937
936
935
941
938
945
948
949
949
949
945
949
950
952
953
959
957
965
974
989
1021
1087
1198
1309
1374
1371
1337
1308
1292
1285
1271
1252
1234
1215
1198
1181
1167
1149
1125
1101
1075
1047
1018
986
955
918
888
854
817
775
736
702
676
653
639
624
611
599
591
588
582
569
553
540
528
523
514
507
504
516
540
574
611
646
677
703
723
744
760
772
782
793
802
814
823
822
826
832
839
854
869
884
894
904
915
928
944
956
972
989
1005
1020
1034
1044
1053
1058
1067
1073
1079
1082
1083
1086
1090
1096
1102
1104
1106
1110
1111
1117
1123
1131
1135
1144
1149
1159
1172
1180
1187
1198
1212
1226
1237
1246
1252
1256
1261
1270
1281
1287
1288
1289
1289
1291
1293
1292
1295
1297
1299
1299
1301
1297
1296
1292
1287
1283
1277
1271
1262
1253
1246
1238
1234
1219
1208
1200
1189
1181
1176
1165
1153
1138
1128
1118
1110
1099
1088
1076
1065
1057
1050
1041
1031
1020
1013
1007
1001
993
986
978
972
969
966
960
953
949
946
945
946
941
937
935
933
932
934
930
928
925
926
926
925
924
923
921
919
921
921
921
920
920
919
919
921
921
921
916
918
919
920
920
921
918
921
924
926
925
925
924
923
925
924
928
928
926
926
926
930
931
931
932
931
934
937
932
934
932
934
935
938
937
937
938
937
936
938
936
937
934
935
937
940
938
938
938
936
939
942
941
942
941
939
940
942
944
944
944
942
945
945
945
944
940
942
944
947
949
947
943
943
948
953
951
950
950
947
950
950
953
955
954
957
957
956
955
955
956
955
960
964
963
965
964
966
970
975
979
985
995
1020
1078
1174
1290
1373
1393
1360
1326
1313
1299
1285
1267
1249
1233
1220
1201
1182
1162
1140
1116
1091
1064
1035
1001
961
922
883
841
796
749
710
680
654
629
615
607
599
599
597
584
571
554
543
538
532
521
514
519
540
572
609
647
686
716
742
770
789
805
821
834
852
871
886
893
902
912
927
946
969
989
1008
1023
1032
1038
1051
1062
1077
1091
1106
1121
1135
1144
1152
1155
1159
1161
1163
1161
1160
1158
1157
1159
1161
1162
1162
1162
1163
1169
1172
1174
1176
1178
1181
1187
1192
1199
1205
1210
1214
1222
1230
1236
1239
1241
1248
1256
1262
1264
1267
1268
1270
1274
1282
1280
1280
1278
1277
1281
1283
1280
1278
1272
1272
1270
1268
1260
1253
1245
1241
1234
1229
1222
1213
1202
1192
1184
1177
1169
1160
1151
1139
1133
1124
1113
1102
1091
1080
1072
1064
1054
1046
1038
1031
1026
1022
1012
1008
1002
999
997
996
991
987
982
982
981
982
980
979
977
975
975
976
974
971
969
969
971
972
971
971
967
967
972
973
973
971
969
968
967
974
970
969
967
968
969
973
973
971
971
974
975
978
979
978
979
977
979
982
981
981
983
979
982
984
982
981
978
981
980
984
986
985
979
978
980
981
979
979
978
981
981
985
984
981
981
979
984
984
985
982
976
979
981
984
986
984
985
983
986
987
986
984
983
981
983
986
985
985
985
980
984
987
985
984
983
983
987
988
988
987
985
989
990
993
988
989
988
991
994
996
996
998
999
1008
1017
1034
1064
1130
1239
1356
1417
1409
1371
1342
1329
1318
1305
1292
1275
1256
1244
1233
1223
1205
1181
1150
1120
1092
1065
1036
999
950
900
853
815
782
751
728
713
694
679
667
651
630
612
591
576
564
547
537
539
556
589
628
660
694
717
741
762
779
791
801
809
818
826
833
836
841
847
859
877
895
907
920
928
936
952
969
984
1000
1014
1024
1037
1050
1062
1072
1078
1080
1082
1087
1089
1090
1091
1095
1101
1106
1109
1111
1115
1118
1124
1132
1134
1136
1141
1143
1150
1159
1161
1165
1170
1178
1186
1192
1197
1202
1206
1209
1217
1225
1228
1233
1234
1237
1245
1249
1249
1250
1248
1250
1253
1256
1257
1253
1251
1250
1250
1248
1244
1241
1235
1229
1226
1221
1216
1210
1202
1193
1188
1180
1173
1165
1156
1146
1138
1131
1122
1112
1103
1093
1087
1082
1071
1062
1051
1045
1040
1036
1032
1025
1022
1018
1013
1014
1007
1004
1003
998
997
998
992
992
990
992
991
989
988
986
984
983
983
986
985
985
981
982
985
984
984
981
982
980
985
985
986
984
983
979
984
987
984
985
984
984
985
986
988
987
986
987
989
993
990
990
988
988
988
990
991
989
989
984
989
989
988
985
983
981
983
986
984
984
982
980
985
985
984
983
981
981
982
981
982
982
981
980
984
985
984
983
981
981
985
989
994
996
997
999
1008
1018
1025
1032
1035
1037
1044
1049
1053
1057
1057
1058
1055
1055
1050
1045
1042
1043
1046
1049
1044
1043
1043
1037
1038
1035
1031
1031
1025
1022
1026
1036
1064
1131
1244
1360
1410
1385
1340
1310
1295
1280
1261
1244
1226
1206
1189
1167
1146
1123
1098
1070
1042
1014
982
953
922
881
839
795
755
723
687
663
646
634
632
634
623
604
581
561
550
541
525
509
505
514
545
581
620
656
694
723
752
769
780
789
801
812
822
829
829
830
838
851
870
884
896
907
915
924
943
962
983
1000
1016
1031
1046
1059
1068
1072
1075
1078
1083
1091
1096
1100
1102
1105
1114
1123
1125
1128
1132
1136
1143
1152
1157
1160
1161
1165
1173
1184
1188
1194
1200
1207
1217
1224
1230
1237
1238
1243
1249
1257
1260
1262
1267
1272
1276
1278
1278
1277
1277
1276
1278
1281
1277
1274
1270
1264
1262
1263
1260
1253
1243
1234
1227
1224
1215
1208
1196
1189
1183
1174
1163
1151
1144
1133
1123
1114
1106
1097
1087
1075
1068
1064
1057
1050
1041
1035
1030
1030
1023
1015
1011
1007
1005
1005
1002
1001
1004
1000
1001
998
996
993
991
986
990
994
995
993
990
988
989
991
990
990
987
986
987
992
991
990
986
986
988
990
991
991
993
990
994
996
998
996
993
997
998
1003
1006
1008
1010
1013
1023
1030
1036
1039
1043
1047
1053
1055
1059
1063
1069
1072
1075
1075
1068
1061
1053
1050
1052
1056
1052
1049
1045
1042
1042
1044
1037
1030
1025
1018
1016
1013
1008
1001
996
990
990
987
984
980
974
971
973
971
966
964
966
964
965
964
964
964
963
962
964
965
962
962
962
960
962
964
965
964
963
960
961
962
958
960
958
959
961
965
963
963
963
966
969
972
974
982
987
1003
1048
1136
1263
1368
1403
1378
1343
1322
1312
1299
1279
1260
1245
1229
1212
1195
1178
1157
1137
1117
1096
1071
1047
1018
990
955
919
883
850
823
797
771
748
730
718
707
697
692
680
665
648
631
619
608
593
576
562
561
572
596
621
643
665
693
721
745
758
768
776
788
798
805
810
820
822
822
825
830
840
854
866
873
888
900
910
917
930
944
960
976
990
1000
1012
1023
1033
1044
1050
1051
1055
1053
1063
1068
1071
1074
1076
1077
1081
1085
1090
1093
1095
1097
1102
1106
1110
1115
1120
1123
1127
1134
1136
1141
1143
1145
1153
1163
1166
1167
1170
1174
1180
1187
1191
1191
1194
1194
1200
1202
1204
1205
1205
1204
1208
1208
1208
1203
1203
1201
1200
1199
1198
1190
1186
1181
1180
1176
1171
1165
1158
1152
1149
1148
1143
1133
1122
1116
1108
1104
1095
1088
1079
1072
1067
1060
1051
1042
1034
1030
1024
1017
1011
1008
1001
997
998
1002
1001
998
1002
1004
1010
1013
1018
1021
1022
1025
1025
1027
1028
1030
1031
1030
1027
1024
1016
1012
1005
1007
1006
1008
1007
1004
1002
1002
999
1001
995
988
983
982
978
978
974
968
961
952
952
948
946
942
933
931
932
934
928
925
920
919
921
925
922
922
921
918
920
920
918
917
914
915
916
916
916
913
913
910
910
913
910
910
910
912
910
915
911
909
910
906
909
911
911
909
907
906
908
909
908
906
903
904
907
907
906
906
903
903
905
906
907
902
902
904
907
906
909
908
905
904
906
908
907
903
904
906
908
911
913
909
907
909
910
913
915
913
914
912
916
917
917
917
919
920
923
925
928
931
932
939
952
977
1034
1136
1257
1336
1348
1316
1284
1267
1258
1244
1229
1217
1201
1187
1173
1164
1153
1139
1122
1102
1084
1065
1044
1023
993
964
933
903
870
840
811
777
748
724
714
707
697
691
685
673
658
644
626
611
597
580
565
558
561
575
594
618
645
683
711
731
744
753
765
775
783
789
796
802
807
809
807
810
814
825
837
853
864
871
878
889
906
920
937
951
964
974
982
995
1004
1009
1013
1015
1020
1025
1030
1032
1034
1035
1040
1047
1048
1051
1052
1055
1060
1065
1069
1071
1072
1078
1083
1090
1094
1096
1098
1103
1108
1111
1116
1120
1124
1128
1134
1142
1148
1151
1158
1160
1167
1174
1181
1189
1192
1201
1206
1214
1215
1216
1216
1219
1222
1225
1229
1226
1222
1214
1206
1201
1195
1192
1186
1180
1176
1174
1167
1158
1148
1138
1132
1122
1111
1099
1085
1073
1063
1053
1040
1024
1014
1003
994
988
980
969
961
953
945
939
936
931
929
923
921
920
918
914
910
909
911
913
910
909
906
904
903
905
905
903
900
897
900
902
900
898
894
893
893
896
896
894
893
893
895
898
895
892
891
891
894
894
891
892
891
891
890
895
894
892
892
892
895
894
894
892
893
893
894
898
897
894
896
895
896
899
899
896
894
896
897
900
897
898
898
899
900
904
903
902
898
902
906
907
909
903
904
902
902
905
905
903
902
904
904
907
906
904
905
910
912
912
912
912
911
911
912
915
914
913
912
913
917
919
919
919
916
913
919
921
924
918
921
924
925
927
926
927
926
926
930
935
934
931
926
924
930
933
935
938
942
947
956
973
1012
1085
1198
1306
1358
1348
1312
1287
1274
1263
1248
1232
1211
1193
1173
1153
1135
1120
1097
1069
1040
1005
974
943
908
868
824
782
748
709
676
645
615
594
584
571
562
551
545
538
529
516
502
491
477
466
457
456
461
482
515
555
599
636
668
694
713
729
744
758
774
782
791
799
807
811
816
827
838
856
878
896
911
926
941
960
981
1006
1028
1048
1067
1085
1104
1116
1124
1131
1135
1142
1149
1152
1155
1149
1148
1149
1154
1160
1161
1165
1167
1171
1176
1180
1181
1181
1183
1184
1186
1190
1195
1197
1198
1198
1203
1206
1209
1213
1214
1219
1226
1232
1235
1233
1232
1232
1240
1246
1247
1247
1244
1244
1243
1245
1243
1238
1236
1230
1229
1226
1222
1211
1202
1195
1189
1185
1176
1166
1156
1148
1139
1130
1121
1108
1095
1086
1079
1070
1061
1050
1037
1030
1022
1015
1009
1000
990
982
977
974
967
959
950
944
940
940
939
933
928
926
926
928
925
922
919
916
918
919
919
917
913
915
917
916
916
913
913
912
916
917
916
916
913
913
916
916
916
913
911
914
917
919
920
921
920
921
925
927
925
923
921
923
924
927
930
929
927
927
929
933
933
930
928
926
930
930
929
928
929
929
930
928
927
925
922
923
925
928
926
925
926
925
926
925
925
923
922
922
926
927
926
924
922
926
925
923
923
923
925
923
925
926
927
926
926
925
928
928
929
928
927
924
929
928
929
927
925
928
930
930
929
931
928
929
930
933
932
934
933
935
935
936
937
937
935
939
941
948
951
958
967
998
1063
1169
1291
1365
1368
1329
1298
1283
1273
1256
1239
1222
1207
1193
1178
1161
1140
1119
1101
1082
1056
1028
996
964
935
903
866
826
788
757
732
711
696
684
676
674
675
675
671
656
644
633
626
618
597
577
563
566
583
616
652
688
720
749
776
793
800
801
802
812
817
824
827
823
817
816
821
829
837
849
854
866
875
882
891
902
908
925
945
959
970
980
989
997
1005
1009
1009
1011
1012
1015
1020
1023
1025
1029
1031
1033
1037
1039
1042
1045
1044
1050
1054
1059
1063
1063
1067
1075
1079
1087
1089
1094
1095
1102
1108
1115
1119
1120
1124
1129
1135
1140
1140
1139
1140
1144
1146
1148
1147
1145
1144
1146
1148
1151
1147
1144
1141
1139
1139
1136
1134
1131
1126
1123
1119
1117
1112
1105
1095
1091
1085
1080
1071
1062
1054
1047
1042
1035
1026
1015
1007
999
994
990
984
978
972
965
961
959
955
952
944
941
939
940
936
932
927
929
930
930
931
926
921
919
921
923
920
918
916
916
917
918
915
913
914
914
914
917
916
914
911
914
916
917
917
914
914
915
917
918
919
920
917
918
922
924
923
924
921
923
926
925
927
926
922
925
927
929
931
929
924
926
924
927
926
925
924
924
928
930
928
927
924
925
927
928
926
925
922
925
926
929
929
928
927
925
927
927
930
926
924
925
929
930
931
931
929
931
932
931
933
930
929
928
932
934
933
930
929
931
935
940
941
942
947
949
955
956
960
967
973
980
990
995
998
999
998
1006
1012
1020
1022
1019
1017
1018
1032
1060
1123
1218
1320
1383
1385
1357
1333
1318
1300
1284
1263
1247
1228
1205
1184
1165
1146
1124
1101
1073
1043
1013
986
960
931
899
868
830
798
772
741
713
686
666
651
639
627
615
603
591
576
563
550
536
516
499
485
486
505
532
565
605
638
670
699
718
732
743
752
763
769
774
774
774
780
789
795
802
812
826
842
855
868
876
884
900
919
939
954
964
975
989
999
1010
1011
1015
1016
1022
1027
1033
1037
1040
1042
1046
1050
1059
1066
1069
1071
1075
1084
1088
1095
1101
1107
1113
1123
1130
1137
1141
1145
1154
1162
1169
1177
1180
1184
1189
1198
1202
1207
1209
1208
1211
1212
1213
1216
1214
1209
1211
1208
1207
1204
1199
1193
1188
1186
1181
1174
1167
1157
1150
1142
1136
1128
1117
1106
1097
1089
1081
1072
1061
1051
1042
1032
1026
1020
1011
1002
998
994
988
982
972
967
964
962
963
957
951
949
946
946
946
946
942
940
939
941
943
946
942
938
935
938
941
939
939
936
938
941
942
942
940
939
940
939
943
943
943
939
938
941
942
943
940
942
944
945
946
948
944
943
944
948
951
950
951
946
947
949
952
951
949
947
951
955
958
960
961
962
969
979
987
991
994
993
997
1003
1011
1016
1018
1015
1010
1006
1004
1000
998
996
995
995
998
993
988
983
983
980
978
974
968
961
955
951
949
944
937
931
928
930
930
927
924
915
917
914
914
913
911
911
911
913
916
914
911
912
912
913
918
917
917
917
922
927
938
946
969
1018
1121
1245
1335
1351
1318
1279
1259
1251
1238
1221
1201
1183
1164
1155
1143
1127
1107
1087
1068
1051
1029
1006
974
944
907
875
845
812
778
742
710
686
670
663
653
649
648
642
630
611
592
579
569
553
535
529
536
554
579
604
632
664
694
717
732
748
762
771
783
789
801
806
812
815
820
828
843
855
867
874
883
894
911
929
945
959
968
979
995
1013
1026
1030
1033
1038
1042
1046
1050
1056
1061
1063
1063
1067
1073
1076
1080
1083
1086
1096
1102
1104
1108
1111
1117
1123
1130
1134
1138
1140
1149
1157
1164
1171
