1178
1184
1192
1198
1205
1206
1212
1212
1220
1225
1228
1232
1238
1244
1248
1249
1251
1255
1260
1261
1260
1262
1261
1261
1260
1260
1259
1258
1255
1254
1253
1245
1239
1230
1225
1222
1221
1221
1211
1196
1186
1183
1176
1168
1159
1149
1140
1132
1128
1120
1111
1102
1091
1082
1077
1071
1061
1052
1044
1040
1037
1032
1020
1010
1003
1002
999
996
993
987
983
980
977
974
971
969
969
967
967
966
966
966
965
966
966
962
958
957
956
957
957
958
959
960
957
961
961
960
957
954
953
956
958
959
957
957
951
953
957
964
973
974
971
972
975
978
979
982
984
991
995
997
1000
998
1006
1013
1024
1026
1023
1017
1014
1016
1019
1018
1015
1014
1014
1021
1022
1023
1017
1012
1010
1011
1010
1005
998
992
986
985
982
979
974
965
956
953
954
951
948
947
946
944
940
933
930
925
924
927
931
931
929
926
924
925
930
933
932
928
921
924
924
928
927
922
921
923
926
930
930
930
923
920
921
924
925
925
924
924
926
927
928
927
926
926
927
929
929
931
935
942
946
955
971
1001
1068
1181
1307
1381
1382
1345
1311
1297
1287
1273
1253
1227
1207
1193
1178
1161
1139
1120
1101
1081
1067
1046
1018
981
944
912
887
858
822
785
749
723
710
708
710
705
689
670
651
635
623
608
596
587
594
612
634
654
674
706
741
763
777
785
793
803
812
821
827
838
845
849
850
851
860
870
879
885
895
900
913
924
935
949
960
973
982
992
1010
1024
1035
1039
1038
1041
1044
1048
1055
1060
1063
1062
1062
1070
1078
1085
1087
1081
1082
1086
1094
1103
1111
1114
1114
1120
1125
1130
1134
1141
1147
1150
1153
1159
1163
1165
1169
1173
1181
1185
1189
1189
1190
1193
1197
1196
1197
1197
1196
1200
1199
1196
1193
1188
1182
1180
1175
1172
1170
1167
1162
1155
1148
1139
1130
1124
1120
1114
1113
1109
1099
1086
1078
1071
1067
1062
1051
1043
1033
1027
1024
1024
1017
1007
995
990
991
992
991
983
979
980
982
985
989
994
997
1003
999
1000
1003
1002
1003
1004
1010
1014
1009
1004
995
992
989
990
990
990
989
987
988
990
992
987
978
971
971
974
969
956
948
941
941
940
939
937
929
924
918
919
916
911
907
908
909
908
905
903
904
907
910
912
909
900
899
906
916
922
915
902
896
895
904
906
903
900
901
904
901
900
899
898
899
899
901
900
898
900
900
901
901
901
901
899
895
897
897
900
902
900
900
898
900
900
898
896
897
901
905
910
908
901
898
898
901
904
906
907
904
905
906
906
906
904
903
906
907
909
909
910
910
912
913
913
917
914
913
914
916
915
917
919
922
925
930
929
931
932
939
954
976
1025
1109
1224
1330
1380
1372
1336
1310
1295
1282
1266
1248
1229
1209
1190
1170
1152
1134
1116
1096
1072
1051
1030
1003
969
932
895
863
834
804
771
731
698
669
653
644
640
634
633
624
616
603
591
578
569
557
552
546
550
565
589
618
650
685
721
746
761
769
777
786
795
804
815
825
835
842
840
840
843
855
874
888
899
908
915
922
934
945
958
969
981
997
1015
1028
1030
1030
1033
1040
1045
1046
1051
1061
1066
1068
1073
1078
1079
1082
1084
1085
1090
1095
1105
1106
1105
1109
1114
1125
1131
1137
1137
1138
1144
1156
1166
1172
1173
1174
1179
1187
1195
1201
1203
1207
1215
1222
1228
1229
1223
1220
1227
1238
1242
1241
1237
1238
1242
1245
1244
1240
1237
1234
1234
1230
1224
1214
1204
1195
1187
1180
1174
1164
1158
1147
1140
1129
1114
1098
1085
1078
1073
1068
1054
1039
1027
1018
1010
1003
993
982
970
961
956
956
944
932
926
922
927
930
930
925
920
919
921
918
918
915
920
918
916
915
909
907
907
906
907
909
908
906
906
907
904
903
901
899
900
902
905
904
907
908
906
904
902
903
900
901
902
904
904
910
910
912
909
906
901
906
906
904
900
902
907
910
911
907
907
906
907
910
911
910
910
910
913
917
916
915
910
910
913
914
912
907
909
912
914
919
916
914
915
916
918
919
916
911
910
909
909
917
922
923
923
920
921
921
920
919
920
920
921
923
923
919
919
922
926
932
933
933
931
926
922
927
929
929
928
926
932
932
930
926
929
931
936
940
940
940
938
940
948
957
961
966
978
1004
1058
1158
1285
1377
1401
1374
1341
1321
1304
1291
1276
1259
1240
1215
1195
1175
1156
1140
1123
1103
1076
1047
1020
987
957
927
892
852
808
763
732
708
685
669
661
658
655
648
632
614
604
595
592
587
576
567
568
582
609
639
669
707
742
768
782
790
795
802
807
814
830
845
858
860
855
853
866
888
903
906
907
905
913
928
945
959
974
985
994
1008
1025
1043
1056
1059
1064
1070
1074
1085
1100
1113
1114
1112
1111
1120
1130
1138
1146
1152
1150
1149
1147
1152
1159
1167
1173
1180
1186
1187
1190
1195
1192
1194
1194
1199
1204
1207
1201
1194
1191
1194
1200
1205
1203
1202
1196
1191
1190
1191
1192
1188
1177
1175
1179
1180
1176
1168
1158
1149
1142
1137
1127
1114
1104
1098
1095
1096
1090
1077
1066
1055
1046
1042
1034
1025
1016
1006
1002
997
987
972
961
956
958
955
948
942
935
932
932
935
932
927
917
909
909
913
913
915
911
905
898
898
903
904
902
896
896
902
906
906
901
898
896
899
900
902
901
901
903
900
893
890
887
888
894
902
902
903
901
903
908
909
906
907
906
906
907
909
913
914
914
906
908
912
913
911
910
908
906
905
904
907
910
909
914
914
905
906
905
905
906
913
917
913
910
907
907
911
910
912
915
915
916
913
908
909
915
919
918
915
912
915
920
919
919
915
910
909
912
917
921
926
929
929
922
910
907
914
920
923
919
915
916
919
918
923
924
928
930
927
920
923
929
934
943
950
956
961
962
971
1009
1103
1230
1357
1394
1370
1340
1324
1311
1293
1269
1249
1235
1220
1202
1182
1161
1144
1130
1109
1081
1045
999
956
922
892
852
811
771
736
708
689
673
657
644
632
630
628
623
615
611
611
610
596
582
579
593
622
668
710
752
799
837
860
863
856
853
862
880
895
905
904
898
900
909
919
932
942
939
940
944
950
958
965
974
982
992
998
1005
1010
1009
1008
1016
1019
1022
1026
1025
1028
1026
1024
1027
1032
1032
1036
1040
1049
1056
1060
1059
1062
1067
1070
1077
1078
1073
1073
1080
1090
1101
1107
1113
1116
1116
1121
1129
1139
1142
1142
1145
1151
1153
1154
1153
1158
1159
1162
1160
1152
1143
1142
1142
1143
1146
1147
1141
1132
1125
1120
1117
1111
1102
1096
1090
1079
1071
1063
1063
1056
1048
1032
1021
1016
1011
1007
999
986
978
975
973
963
959
953
956
951
943
935
933
933
932
930
924
920
915
914
914
921
921
921
915
908
908
911
916
910
906
904
908
909
907
903
901
899
899
898
900
902
901
901
905
907
911
910
908
909
910
911
909
908
904
905
910
918
922
921
916
910
910
912
914
919
919
916
912
913
912
917
914
915
919
917
913
912
913
917
917
914
915
916
919
918
920
916
908
907
910
916
919
921
917
913
913
919
925
924
915
912
914
914
915
917
919
920
918
921
923
920
917
916
918
920
917
915
918
921
926
925
920
919
921
922
922
923
926
928
928
928
925
930
936
943
949
957
971
994
1039
1127
1254
1376
1415
1396
1363
1349
1345
1336
1318
1297
1280
1261
1244
1223
1198
1178
1162
1137
1104
1067
1023
974
922
876
829
786
750
716
689
666
644
633
627
619
608
592
578
569
559
547
539
536
548
572
605
640
674
709
740
759
769
775
782
788
797
809
817
826
829
824
826
835
846
856
866
874
883
890
905
920
935
945
947
952
961
975
996
1009
1012
1008
1003
1006
1015
1025
1033
1030
1029
1028
1033
1037
1041
1044
1051
1059
1066
1074
1077
1084
1091
1103
1111
1118
1119
1120
1132
1143
1157
1167
1171
1173
1174
1178
1189
1201
1205
1200
1199
1202
1212
1214
1216
1211
1205
1204
1203
1205
1205
1199
1195
1189
1181
1178
1172
1160
1143
1134
1130
1130
1123
1111
1099
1088
1079
1074
1063
1054
1048
1044
1039
1028
1016
1006
1000
992
987
985
979
973
969
965
957
951
946
944
941
932
930
932
936
936
934
926
924
931
935
935
932
928
924
920
917
916
915
920
928
931
929
924
920
922
930
935
929
917
913
917
928
928
924
920
927
932
929
924
925
925
928
929
925
925
931
937
938
938
932
925
922
923
930
935
927
921
917
920
923
926
925
929
928
928
933
937
936
933
930
926
926
926
930
933
931
930
926
929
934
935
931
930
935
943
945
945
940
941
952
966
970
969
966
967
971
980
990
1000
1007
1013
1011
1002
993
989
996
1001
1005
1000
995
994
994
994
995
993
990
989
988
984
975
969
965
962
962
959
952
947
951
957
958
959
968
1004
1076
1188
1308
1385
1394
1369
1344
1331
1317
1303
1287
1269
1251
1234
1222
1210
1186
1153
1126
1107
1089
1063
1023
979
938
902
860
817
778
750
725
697
665
637
620
614
617
623
627
612
589
573
568
572
565
551
535
537
552
578
605
630
659
693
730
755
766
771
780
797
813
825
827
829
823
823
831
848
866
878
880
890
903
918
934
943
950
960
974
990
1004
1012
1019
1029
1040
1046
1045
1048
1055
1065
1071
1070
1067
1070
1080
1088
1095
1098
1099
1103
1102
1105
1113
1122
1133
1137
1139
1143
1154
1164
1169
1168
1165
1169
1179
1188
1192
1193
1197
1203
1208
1214
1217
1217
1215
1222
1228
1223
1214
1213
1217
1222
1218
1211
1208
1206
1204
1195
1188
1185
1182
1180
1173
1165
1156
1154
1152
1146
1137
1125
1114
1106
1102
1099
1097
1090
1078
1063
1052
1047
1044
1038
1032
1024
1012
1004
995
992
991
994
992
985
972
966
960
961
956
955
956
958
956
955
952
954
956
954
946
936
935
941
948
952
951
947
943
944
941
936
937
941
940
935
935
935
941
942
939
938
941
945
945
943
943
942
941
944
946
948
952
956
954
953
951
956
967
975
975
970
973
974
977
982
989
1003
1006
1007
1007
1008
1009
1009
1003
999
994
994
993
993
999
1002
1005
1005
998
991
981
975
973
969
965
962
959
956
951
941
935
933
932
930
926
917
913
918
928
935
935
930
920
914
911
912
917
922
922
923
917
918
915
909
907
911
916
920
921
917
915
917
916
914
910
907
914
923
929
932
926
925
922
920
919
926
934
946
954
965
997
1074
1198
1321
1387
1386
1361
1342
1330
1319
1301
1279
1262
1249
1237
1222
1206
1190
1171
1156
1141
1121
1096
1069
1033
999
964
923
884
846
814
794
773
748
726
712
713
717
716
700
679
666
661
658
646
620
601
602
624
649
676
693
710
739
767
790
799
806
802
806
813
824
837
838
834
830
831
844
857
866
873
880
893
903
912
921
932
947
961
979
994
1000
1006
1012
1025
1035
1043
1043
1039
1034
1033
1044
1052
1060
1062
1062
1065
1071
1074
1078
1080
1083
1088
1095
1104
1109
1111
1108
1116
1129
1135
1141
1141
1143
1145
1149
1149
1152
1154
1159
1166
1175
1177
1176
1172
1173
1175
1179
1178
1175
1173
1177
1183
1183
1178
1169
1157
1152
1154
1152
1147
1140
1133
1131
1131
1132
1129
1121
1107
1098
1095
1086
1074
1068
1062
1060
1059
1055
1051
1043
1031
1023
1012
1006
1002
993
985
980
977
976
971
964
957
960
970
978
976
968
956
955
959
968
974
982
985
987
990
992
991
983
982
984
992
999
996
990
986
984
988
988
988
984
981
982
984
985
980
979
976
969
967
961
958
952
949
946
948
950
945
934
922
920
921
920
919
918
915
910
904
904
904
905
903
901
902
906
906
908
908
908
909
907
901
896
893
899
903
906
907
905
903
905
900
897
895
894
899
899
898
900
902
902
903
901
900
899
899
894
895
900
907
907
901
898
897
901
904
906
900
894
892
898
904
905
903
897
891
894
900
903
902
904
906
908
907
905
908
908
907
906
911
915
914
909
904
909
918
925
925
928
927
927
928
930
939
964
1014
1108
1229
1337
1388
1383
1354
1332
1319
1308
1291
1266
1245
1231
1217
1198
1170
1148
1131
1116
1101
1080
1052
1016
970
925
886
853
829
801
771
739
713
694
685
680
680
681
675
665
649
639
631
629
623
617
614
625
642
665
697
730
757
778
787
794
804
822
834
830
824
824
833
838
837
835
837
846
855
864
875
883
889
897
908
921
931
942
953
969
983
996
1006
1010
1014
1015
1016
1018
1021
1024
1027
1032
1036
1039
1042
1041
1045
1057
1067
1071
1065
1057
1055
1070
1084
1096
1094
1090
1091
1100
1109
1116
1119
1121
1123
1126
1130
1139
1143
1146
1145
1150
1154
1157
1158
1159
1156
1162
1164
1166
1164
1164
1165
1170
1174
1174
1171
1171
1172
1172
1168
1164
1160
1157
1158
1157
1148
1140
1126
1116
1105
1099
1099
1097
1089
1079
1066
1055
1047
1043
1031
1021
1013
1002
992
986
975
960
944
941
942
944
938
927
918
914
910
904
899
899
898
895
891
895
896
894
890
892
900
902
896
888
882
881
886
888
890
889
891
888
888
885
886
884
882
884
883
887
888
889
885
883
884
885
886
886
885
889
889
888
885
885
886
886
886
884
881
881
879
881
886
889
887
883
882
882
885
887
890
891
890
890
894
893
892
886
881
885
892
893
892
885
881
886
893
897
898
898
898
894
894
894
893
892
897
901
903
902
899
898
899
901
907
904
902
896
895
901
906
909
903
904
907
910
910
908
905
905
905
908
912
917
917
915
911
910
911
913
916
918
920
926
929
925
924
925
930
941
960
990
1041
1135
1254
1362
1403
1388
1355
1332
1316
1301
1281
1261
1244
1224
1201
1179
1155
1127
1097
1068
1038
1008
976
938
892
837
788
744
709
674
638
607
577
562
556
552
547
544
541
537
532
528
522
511
500
497
498
508
529
555
583
614
648
685
714
737
750
765
776
788
797
808
814
825
834
843
847
861
873
886
900
918
930
937
943
953
972
987
1004
1016
1029
1042
1052
1060
1065
1065
1072
1087
1100
1107
1107
1108
1115
1127
1141
1154
1154
1160
1166
1176
1184
1190
1196
1205
1216
1231
1237
1238
1240
1246
1251
1258
1267
1274
1283
1285
1282
1287
1292
1298
1299
1300
1299
1295
1298
1298
1293
1289
1284
1285
1282
1274
1265
1255
1252
1249
1243
1235
1221
1213
1202
1193
1186
1180
1170
1162
1150
1138
1129
1118
1106
1092
1081
1071
1064
1056
1049
1046
1039
1026
1008
995
990
993
985
977
968
962
955
953
951
947
942
940
938
933
930
929
934
934
928
919
918
923
927
930
925
922
914
915
914
914
916
918
914
914
911
909
912
915
921
924
921
916
910
909
911
913
913
912
914
915
917
916
917
916
916
917
917
918
918
922
919
916
916
919
925
925
926
924
924
925
931
925
921
918
922
930
933
930
928
923
924
925
929
929
928
927
925
927
928
925
918
919
925
932
937
935
928
922
922
922
926
927
932
933
925
923
924
928
935
937
930
926
927
930
934
936
932
931
933
935
934
928
922
925
930
935
937
933
931
927
928
932
939
940
937
933
935
944
948
948
938
936
935
941
942
943
942
950
960
969
976
990
1023
1096
1211
1334
1405
1411
1383
1357
1345
1333
1313
1289
1261
1243
1223
1212
1188
1158
1123
1095
1075
1049
1016
973
925
877
830
791
757
722
686
652
625
607
599
590
586
583
579
562
547
534
532
527
515
504
504
519
544
580
619
661
702
735
752
770
786
806
818
832
844
858
871
885
899
913
924
940
955
967
976
990
1002
1017
1036
1048
1062
1079
1092
1100
1106
1107
1112
1106
1098
1095
1097
1104
1105
1106
1103
1108
1117
1123
1121
1116
1115
1123
1133
1146
1157
1160
1159
1160
1163
1172
1178
1184
1190
1195
1204
1210
1215
1221
1219
1219
1220
1230
1238
1239
1235
1229
1228
1230
1237
1239
1236
1229
1221
1215
1212
1207
1203
1198
1187
1178
1166
1157
1150
1142
1135
1128
1122
1108
1093
1081
1078
1078
1071
1054
1035
1025
1021
1019
1011
1000
985
975
972
971
967
967
962
957
947
943
937
936
933
940
942
937
932
932
930
926
927
923
925
928
925
928
927
926
921
921
916
917
919
924
927
928
921
917
916
917
918
919
926
929
924
920
920
920
918
918
918
920
923
925
925
924
925
923
922
921
917
919
921
922
924
928
930
928
924
925
926
924
925
925
921
919
919
923
923
923
918
921
924
927
927
926
927
929
927
926
923
920
920
925
929
927
926
924
927
929
931
930
929
928
925
927
927
933
933
933
931
930
929
928
927
929
932
937
934
931
927
928
930
931
928
932
935
942
942
938
933
932
933
939
945
944
943
941
944
950
955
963
980
1005
1060
1165
1292
1398
1423
1393
1360
1341
1334
1319
1299
1273
1258
1246
1235
1217
1193
1166
1143
1120
1098
1071
1043
1006
964
920
874
827
782
743
708
679
661
652
651
651
643
630
622
608
599
587
574
561
556
556
567
590
621
658
691
721
743
756
763
770
780
788
796
802
807
809
815
824
835
847
860
871
880
888
898
912
924
939
960
976
987
998
1010
1023
1030
1032
1031
1035
1040
1045
1052
1058
1056
1055
1054
1057
1061
1062
1073
1080
1085
1088
1090
1091
1100
1107
1109
1121
1125
1134
1138
1141
1145
1152
1162
1166
1171
1175
1178
1186
1195
1199
1200
1203
1202
1204
1208
1212
1211
1205
1201
1201
1203
1200
1195
1191
1186
1181
1179
1177
1170
1160
1148
1138
1135
1128
1117
1107
1101
1094
1087
1078
1067
1055
1043
1034
1025
1020
1015
1007
996
988
981
978
973
970
965
960
953
946
943
946
949
951
947
942
935
934
934
934
933
932
931
929
928
933
942
941
933
930
927
927
924
927
925
926
924
926
928
928
927
925
924
928
929
934
932
931
925
929
932
935
935
929
924
925
930
937
939
935
928
930
932
931
931
931
930
936
938
938
936
931
927
929
933
934
935
934
930
933
933
936
937
938
936
936
936
932
929
928
932
934
938
937
933
931
929
929
932
933
934
931
930
927
937
941
942
938
934
940
944
949
950
951
954
961
964
963
963
966
970
979
984
986
991
990
996
997
1007
1010
1009
1003
994
996
1006
1013
1012
1007
1007
1012
1020
1024
1042
1086
1177
1302
1395
1417
1388
1352
1333
1319
1304
