798
798
803
817
850
920
1039
1166
1260
1278
1247
1216
1194
1178
1152
1130
1109
1094
1074
1055
1035
1011
988
962
933
902
874
849
826
801
775
743
708
675
653
631
608
587
567
553
539
529
520
515
513
511
504
489
475
460
444
432
423
415
414
420
427
444
462
484
502
520
532
544
550
560
566
569
572
581
584
588
587
590
594
607
621
632
639
647
655
664
671
686
698
707
717
726
740
750
760
767
770
778
785
793
793
793
788
788
792
799
805
807
810
815
824
826
824
824
826
830
838
846
851
855
856
860
868
876
880
881
885
892
898
902
908
911
915
918
924
929
931
931
933
935
937
940
943
941
938
938
940
939
934
930
929
926
925
922
915
907
898
890
887
882
877
870
861
858
853
846
840
828
820
810
803
799
791
781
774
768
763
759
754
747
742
737
733
736
736
731
721
717
718
720
718
717
716
717
719
720
714
713
712
713
715
717
719
716
715
716
715
719
718
716
715
713
717
720
719
720
716
720
719
724
725
726
723
722
727
726
726
728
728
732
733
739
746
748
751
752
755
762
767
770
773
773
778
781
786
789
789
787
786
784
778
778
775
779
781
782
780
777
773
771
770
771
767
762
757
756
754
749
746
742
740
741
740
741
740
737
731
730
729
730
732
731
729
732
732
735
736
733
732
734
736
737
736
737
735
734
736
740
740
740
737
743
745
748
749
748
746
750
754
760
766
777
792
835
915
1042
1169
1296
1304
1260
1218
1198
1184
1158
1131
1105
1081
1066
1049
1036
1015
992
969
945
916
887
858
834
815
795
774
749
725
706
687
669
650
636
625
622
624
624
621
609
594
581
569
557
545
532
522
527
539
553
567
580
596
612
623
628
631
634
637
645
654
658
662
663
665
667
674
686
699
710
720
734
747
758
772
785
791
799
811
821
835
849
859
871
874
877
878
874
875
880
886
890
892
893
896
903
914
924
931
934
936
932
938
944
954
962
969
977
983
994
1000
1006
1009
1012
1018
1027
1034
1042
1049
1058
1063
1065
1066
1068
1069
1079
1085
1084
1081
1075
1074
1080
1081
1083
1077
1073
1063
1054
1051
1047
1042
1035
1023
1018
1011
1004
996
983
971
960
950
941
934
927
921
912
903
894
885
879
870
865
858
851
843
837
832
829
833
831
830
830
831
831
825
815
816
823
835
841
846
851
852
851
850
857
867
873
876
878
877
874
870
867
866
861
858
859
861
864
863
856
847
848
852
851
844
834
826
827
831
832
828
821
817
815
816
815
812
810
808
809
809
804
804
805
806
807
805
803
804
805
802
802
805
808
805
802
799
798
799
802
802
802
800
800
803
805
804
803
800
799
801
804
802
803
801
802
803
802
804
806
806
804
806
808
808
805
803
800
802
806
811
810
807
809
807
811
811
809
806
809
813
818
820
818
817
815
821
822
825
824
825
831
836
840
846
857
884
948
1065
1192
1319
1377
1334
1281
1251
1241
1220
1194
1163
1133
1107
1079
1049
1016
988
961
934
903
868
835
801
772
739
709
678
649
631
616
606
601
591
581
579
572
573
573
568
561
555
550
549
551
550
552
555
568
585
601
618
637
654
672
685
699
708
718
726
733
744
752
755
755
759
769
782
796
805
816
822
835
847
863
875
890
899
910
920
933
942
951
956
961
967
972
972
976
980
988
993
999
1001
1006
1010
1014
1021
1025
1031
1036
1041
1047
1056
1063
1069
1075
1078
1091
1100
1108
1114
1120
1123
1130
1138
1144
1150
1157
1163
1169
1175
1176
1174
1173
1175
1178
1180
1182
1181
1180
1180
1179
1180
1177
1174
1173
1171
1174
1172
1173
1166
1163
1156
1152
1148
1144
1135
1117
1100
1089
1075
1069
1061
1054
1046
1037
1026
1016
1001
988
980
969
960
949
936
926
917
912
910
906
896
890
883
881
877
876
875
874
872
869
863
858
856
860
859
866
865
865
862
861
857
856
857
855
854
854
855
858
860
862
861
859
856
859
861
863
860
855
856
857
860
863
862
862
862
867
870
872
870
867
863
864
866
868
870
870
866
867
868
871
873
872
870
870
871
873
874
870
869
874
880
881
878
877
875
876
880
882
883
883
882
882
885
886
888
888
893
894
893
894
888
888
888
891
896
900
901
902
899
904
903
904
902
904
905
909
914
913
911
912
914
918
921
921
920
917
918
920
924
929
934
931
936
940
946
957
973
1012
1093
1220
1347
1446
1434
1378
1335
1317
1307
1288
1265
1238
1215
1195
1179
1152
1123
1092
1060
1030
1002
971
935
897
863
828
801
774
750
726
706
695
685
681
675
672
664
655
645
641
633
626
619
615
619
633
649
668
693
725
752
778
793
802
810
820
832
844
850
856
856
863
871
885
897
907
918
928
937
948
962
974
988
1002
1016
1026
1038
1048
1056
1065
1073
1079
1083
1082
1082
1092
1103
1113
1121
1127
1132
1142
1155
1166
1175
1182
1191
1203
1213
1223
1235
1247
1255
1260
1263
1265
1267
1267
1271
1277
1283
1293
1301
1303
1304
1308
1312
1315
1313
1310
1301
1300
1303
1304
1302
1298
1295
1293
1289
1281
1268
1257
1248
1246
1245
1244
1237
1227
1218
1213
1206
1198
1187
1171
1159
1152
1150
1145
1136
1126
1115
1105
1094
1083
1074
1063
1051
1042
1041
1041
1036
1027
1022
1021
1025
1027
1021
1008
998
997
1006
1010
1006
999
992
989
990
992
997
996
995
992
990
990
989
987
982
986
993
999
1005
997
990
988
992
992
992
992
993
997
999
997
996
996
995
996
998
1005
1009
1011
1012
1010
1004
998
1000
1009
1015
1017
1011
1011
1010
1010
1011
1015
1021
1022
1015
1013
1013
1017
1018
1020
1016
1017
1016
1017
1010
1010
1012
1020
1022
1025
1023
1022
1019
1017
1018
1020
1020
1023
1024
1024
1023
1021
1022
1025
1025
1027
1024
1027
1028
1030
1030
1027
1021
1021
1022
1028
1033
1036
1035
1034
1041
1037
1034
1035
1036
1038
1041
1042
1040
1039
1035
1033
1037
1044
1049
1049
1041
1038
1040
1048
1054
1055
1057
1062
1075
1100
1143
1228
1355
1476
1530
1523
1496
1476
1459
1434
1411
1391
1372
1348
1321
1298
1269
1243
1216
1193
1166
1136
1110
1086
1057
1031
1006
982
961
935
903
871
852
842
837
827
809
789
768
746
726
706
685
666
656
666
696
739
783
823
848
865
876
889
905
920
930
940
951
958
963
966
975
993
1015
1029
1039
1048
1055
1064
1072
1084
1100
1117
1132
1151
1169
1181
1189
1190
1187
1186
1194
1194
1191
1189
1186
1188
1191
1191
1186
1186
1191
1200
1209
1206
1200
1197
1194
1204
1215
1221
1222
1223
1228
1233
1237
1241
1243
1249
1250
1258
1263
1273
1278
1280
1278
1283
1293
1295
1293
1293
1292
1297
1304
1305
1305
1301
1298
1298
1302
1302
1300
1300
1300
1296
1285
1283
1278
1276
1266
1259
1252
1245
1234
1221
1216
1214
1209
1199
1185
1171
1157
1154
1152
1151
1140
1129
1118
1115
1112
1108
1097
1083
1075
1072
1073
1067
1062
1054
1052
1054
1050
1048
1044
1043
1037
1042
1038
1033
1031
1029
1030
1034
1040
1041
1039
1033
1026
1026
1030
1031
1031
1026
1021
1017
1019
1026
1023
1021
1017
1018
1019
1022
1021
1020
1019
1019
1019
1019
1023
1019
1018
1019
1024
1026
1027
1025
1023
1024
1023
1023
1022
1022
1023
1025
1027
1025
1024
1023
1022
1023
1026
1028
1027
1025
1022
1025
1025
1025
1025
1024
1024
1023
1023
1021
1021
1020
1022
1027
1029
1027
1024
1021
1018
1018
1019
1022
1024
1023
1020
1021
1022
1024
1023
1025
1023
1023
1024
1028
1026
1025
1023
1023
1023
1025
1024
1022
1018
1023
1024
1022
1024
1023
1022
1022
1027
1027
1027
1027
1024
1024
1026
1027
1029
1030
1028
1026
1027
1031
1031
1036
1036
1044
1051
1065
1095
1149
1248
1374
1470
1508
1497
1470
1451
1442
1435
1424
1406
1391
1372
1362
1352
1341
1327
1309
1291
1270
1248
1228
1204
1180
1154
1128
1101
1073
1042
1008
979
959
943
930
920
912
903
888
871
851
829
806
779
751
726
705
690
693
705
734
754
780
800
818
825
832
837
842
847
848
848
853
857
859
860
862
866
878
891
903
914
921
928
938
949
961
972
983
993
1005
1017
1027
1035
1042
1047
1052
1058
1060
1065
1063
1064
1066
1071
1076
1076
1075
1078
1081
1083
1087
1090
1092
1095
1099
1106
1110
1111
1115
1114
1119
1124
1130
1135
1137
1139
1148
1154
1160
1163
1166
1170
1177
1183
1187
1191
1193
1197
1200
1208
1210
1211
1214
1216
1217
1217
1219
1221
1223
1225
1230
1231
1229
1224
1221
1215
1213
1213
1210
1206
1201
1194
1189
1190
1186
1178
1167
1159
1155
1149
1141
1134
1125
1115
1110
1105
1095
1085
1077
1066
1058
1052
1047
1041
1034
1029
1025
1023
1021
1015
1010
1005
1004
1006
1004
1003
998
997
996
999
998
998
995
989
993
991
991
988
987
984
985
984
986
983
981
980
979
980
980
978
979
978
979
981
981
980
980
981
986
988
989
987
986
983
983
982
985
987
988
986
989
991
992
991
988
987
988
989
993
991
989
988
989
990
990
990
991
990
989
988
991
991
992
987
985
986
984
990
992
992
994
989
988
987
989
987
988
989
991
994
993
990
989
991
989
991
989
989
989
992
992
989
988
989
991
991
994
994
993
996
1003
1008
1011
1014
1015
1019
1025
1033
1038
1042
1045
1045
1047
1051
1056
1059
1064
1062
1064
1061
1057
1056
1053
1052
1054
1057
1060
1058
1058
1059
1064
1070
1073
1078
1095
1133
1214
1321
1413
1460
1456
1433
1412
1404
1392
1376
1357
1338
1323
1310
1295
1279
1261
1242
1222
1205
1181
1156
1130
1104
1076
1053
1023
995
966
935
905
882
858
839
820
805
792
786
778
762
740
714
692
674
655
634
615
602
604
621
647
678
707
730
753
778
793
801
804
810
816
824
829
834
831
828
827
831
839
850
868
882
894
901
911
918
929
939
955
970
987
997
1010
1018
1028
1036
1039
1044
1049
1052
1059
1066
1067
1068
1068
1070
1076
1080
1082
1086
1085
1089
1094
1102
1104
1109
1111
1117
1122
1130
1138
1142
1144
1148
1155
1163
1169
1172
1179
1182
1190
1198
1204
1206
1209
1211
1215
1215
1219
1223
1222
1223
1226
1230
1228
1229
1229
1227
1226
1224
1223
1215
1215
1206
1205
1198
1196
1192
1185
1177
1175
1172
1164
1156
1143
1134
1129
1129
1122
1111
1096
1085
1075
1069
1067
1062
1056
1047
1042
1036
1033
1028
1022
1017
1015
1011
1010
1008
1004
999
997
996
995
992
990
988
990
991
992
987
984
983
986
985
985
984
982
983
983
985
986
983
982
980
979
980
980
983
983
980
981
983
986
985
982
979
984
985
987
989
989
990
992
992
993
993
991
988
988
991
996
998
997
1000
1003
1006
1010
1018
1019
1022
1029
1034
1039
1040
1043
1042
1048
1054
1059
1064
1060
1053
1047
1042
1041
1038
1042
1041
1044
1042
1043
1040
1035
1029
1027
1026
1022
1017
1012
1005
1001
1000
997
990
984
980
981
977
975
972
966
961
961
961
966
966
966
964
965
963
965
965
965
960
960
962
965
966
964
964
966
969
966
968
970
970
974
980
984
988
995
1013
1055
1137
1250
1358
1419
1422
1405
1386
1373
1362
1344
1324
1306
1288
1272
1255
1241
1222
1205
1184
1163
1139
1114
1088
1062
1030
1000
966
934
904
878
851
819
790
768
753
745
736
729
719
702
680
656
639
621
605
586
567
560
570
585
604
626
651
684
715
739
753
764
773
791
809
824
833
839
839
842
852
860
875
890
900
913
925
938
947
955
966
983
1000
1016
1028
1036
1047
1060
1071
1081
1085
1089
1092
1096
1100
1104
1107
1106
1109
1113
1120
1127
1131
1134
1135
1140
1148
1154
1159
1161
1166
1174
1180
1182
1186
1193
1197
1204
1210
1218
1223
1227
1232
1240
1242
1241
1242
1247
1252
1261
1264
1265
1265
1264
1262
1264
1263
1264
1261
1259
1258
1257
1253
1250
1238
1235
1229
1225
1223
1218
1210
1201
1192
1183
1180
1175
1167
1156
1145
1137
1131
1122
1112
1104
1093
1088
1084
1077
1069
1059
1050
1043
1042
1038
1033
1029
1020
1021
1021
1018
1016
1011
1008
1009
1014
1018
1015
1015
1016
1021
1026
1029
1034
1034
1036
1043
1049
1051
1051
1052
1055
1061
1061
1060
1054
1048
1045
1041
1043
1047
1049
1047
1045
1048
1049
1047
1041
1035
1029
1025
1023
1022
1015
1011
1003
999
995
993
991
988
984
984
983
981
975
973
972
973
973
970
967
967
968
972
972
972
970
966
961
963
964
966
965
967
963
964
965
966
966
962
960
960
962
966
966
963
961
963
965
966
963
961
960
962
963
965
966
965
959
964
964
964
961
962
962
965
968
967
966
965
964
967
968
969
968
969
969
972
978
980
981
985
989
998
1024
1077
1173
1291
1382
1419
1408
1382
1363
1351
1338
1322
1304
1284
1267
1255
1237
1221
1204
1182
1158
1135
1109
1087
1064
1035
1004
970
944
924
902
876
852
831
816
803
797
791
779
762
739
718
700
683
665
646
635
639
656
675
697
722
748
772
792
804
811
815
821
828
833
837
842
840
838
839
847
862
873
883
890
902
913
923
934
945
955
968
982
995
1009
1021
1030
1038
1042
1043
1042
1042
1044
1047
1051
1056
1059
1059
1059
1066
1068
1072
1075
1078
1080
1085
1089
1096
1100
1100
1101
1105
1109
1117
1124
1125
1128
1134
1138
1140
1142
1147
1150
1152
1156
1159
1163
1168
1172
1175
1176
1176
1176
1177
1178
1180
1181
1183
1182
1179
1179
1178
1181
1186
1185
1189
1187
1192
1190
1192
1191
1186
1183
1182
1179
1176
1170
1162
1148
1139
1131
1125
1116
1107
1099
1091
1089
1082
1073
1066
1058
1051
1046
1036
1029
1021
1010
1006
997
990
984
977
970
968
965
962
959
956
952
946
947
946
943
941
936
935
935
936
937
934
930
935
935
935
933
934
931
932
938
940
938
937
931
931
935
935
934
933
933
935
937
937
936
934
932
932
935
937
937
939
934
937
937
939
937
936
936
938
939
939
939
934
934
936
941
941
940
938
938
941
945
946
943
942
942
945
946
945
946
944
944
944
945
945
946
945
948
951
954
951
952
949
948
951
955
957
956
954
950
952
956
958
957
957
957
959
962
964
963
965
962
965
966
967
967
967
967
971
975
980
985
988
1001
1031
1095
1204
1324
1399
1413
1393
1369
1355
1341
1325
1305
1292
1281
1269
1255
1238
1218
1201
1181
1154
1124
1096
1067
1038
1009
974
938
903
867
834
806
788
773
760
747
741
732
713
689
665
645
630
615
602
591
593
612
643
678
710
738
763
779
789
798
807
811
818
823
834
838
841
842
844
850
864
877
890
905
915
926
939
954
969
982
995
1006
1020
1036
1048
1055
1058
1060
1065
1069
1072
1073
1076
1080
1084
1090
1095
1098
1106
1110
1122
1131
1138
1148
1155
1165
1176
1186
1192
1197
1199
1207
1214
1226
1235
1237
1238
1238
1242
1241
1249
1255
1257
1261
1265
1270
1274
1275
1274
1270
1270
1269
1268
1265
1258
1253
1249
1243
1240
1236
1229
1227
1219
1215
1205
1195
1185
1175
1166
1161
1152
1142
1127
1120
1112
1104
1097
1085
1074
1063
1054
1048
1039
1028
1018
1010
1005
999
993
984
977
973
972
970
967
962
958
955
953
952
948
944
944
942
942
942
942
940
938
935
936
936
935
932
932
930
931
933
931
931
928
928
931
935
936
934
929
930
939
944
948
943
942
940
943
941
943
942
946
948
949
949
949
947
945
942
943
945
947
948
948
948
952
954
951
951
949
947
948
949
949
950
950
948
948
952
948
946
948
947
950
951
948
950
951
948
949
948
949
949
948
947
951
950
953
953
952
951
956
955
957
958
958
953
954
953
952
954
951
953
958
961
965
963
960
959
958
962
965
967
965
963
965
969
971
975
976
976
986
1004
1050
1134
1247
1351
1400
1396
1365
1343
1326
1309
1295
1281
1265
1249
1236
1217
1200
1175
1149
1122
1093
1059
1024
989
950
909
864
822
787
756
728
703
684
669
657
649
637
622
598
576
561
546
535
518
510
510
532
561
601
641
673
708
739
758
773
788
802
815
837
854
864
867
871
878
896
921
942
954
961
965
973
987
997
1011
1026
1040
1051
1061
1070
1083
1087
1090
1088
1091
1090
1092
1088
1086
1085
1084
1085
1086
1089
1091
1093
1095
1096
1094
1096
1096
1099
1104
1108
1113
1115
1120
1124
1131
1137
1141
1144
1146
1150
1158
1161
1164
1165
1170
1176
1181
1182
1181
1179
1179
1185
1192
1197
1200
1196
1193
1190
1185
1186
1185
1182
1183
1179
1175
1169
1161
1156
1150
1145
1137
1128
1117
1110
1103
1098
1088
1076
1064
1052
1036
1031
1026
1018
1010
1005
998
986
976
965
958
952
944
936
931
926
919
915
908
905
901
896
893
892
891
890
888
888
884
880
880
880
878
876
873
871
871
869
871
868
864
861
862
866
867
866
863
857
854
855
857
857
853
852
852
853
853
852
853
855
853
853
855
855
853
848
846
847
851
853
852
850
848
844
848
846
846
844
841
844
844
843
843
842
843
846
843
837
832
830
832
837
840
841
835
834
830
830
830
830
830
829
828
827
830
829
827
825
825
828
826
826
825
824
821
821
822
823
822
822
821
822
824
823
824
822
818
819
824
823
821
821
818
822
822
822
821
819
819
818
821
820
820
820
822
826
830
835
841
855
884
950
1059
1186
1290
1318
1294
1260
1237
1224
1209
1191
1174
1158
1145
1131
1118
1104
1084
1070
1050
1024
999
977
954
931
907
877
845
816
792
767
753
741
731
717
709
702
693
671
641
613
589
571
551
529
513
509
516
530
552
570
591
610
624
630
634
636
638
640
643
647
651
652
653
653
652
661
672
682
692
698
707
715
726
733
740
749
759
772
783
792
802
811
818
825
829
828
829
830
828
831
836
838
841
844
845
846
850
851
853
855
857
861
862
864
867
872
876
887
890
891
896
897
903
907
914
920
925
928
933
940
943
951
956
960
963
971
974
978
984
987
990
992
996
998
1001
1001
1005
1007
1009
1010
1009
1007
1004
1002
1003
999
995
990
985
984
979
975
966
959
949
944
937
933
924
914
907
903
896
891
885
876
869
865
861
853
847
841
834
831
832
827
823
820
815
815
813
813
812
808
806
804
805
804
804
800
797
799
801
800
800
798
795
795
796
795
792
792
796
800
803
801
798
796
795
797
801
801
797
797
796
798
802
802
802
801
802
806
810
809
809
806
805
808
812
814
809
810
808
811
817
814
815
816
814
814
815
815
815
815
815
815
817
817
