1124
1123
1118
1109
1104
1095
1091
1084
1075
1064
1062
1057
1053
1044
1032
1015
1006
999
999
995
987
973
961
953
949
950
946
938
931
927
925
928
927
924
924
921
923
925
925
925
923
920
922
920
920
916
911
907
911
913
914
913
912
909
911
913
914
917
920
917
912
909
911
909
912
917
919
919
918
914
910
907
910
911
909
910
912
917
923
930
930
930
928
926
925
923
923
920
919
921
925
927
929
930
926
923
921
925
927
929
927
922
918
916
918
922
922
921
924
928
929
934
932
933
935
941
948
954
961
965
971
971
974
979
987
992
997
999
994
992
989
987
991
992
990
989
985
980
980
983
986
982
973
969
967
964
961
953
944
941
943
944
938
936
931
929
933
934
938
941
948
962
997
1072
1197
1324
1451
1500
1498
1479
1463
1450
1432
1417
1400
1383
1363
1342
1319
1299
1280
1259
1238
1208
1176
1144
1113
1087
1068
1044
1021
996
971
947
931
916
902
892
890
881
858
835
806
775
746
718
692
671
665
668
682
699
725
745
759
766
769
775
777
785
786
786
784
786
784
793
806
819
832
844
852
863
872
883
900
914
930
940
951
963
977
989
992
993
994
997
1005
1010
1009
1007
1005
1011
1018
1024
1027
1028
1030
1035
1038
1047
1049
1052
1056
1060
1066
1077
1086
1087
1087
1092
1097
1101
1113
1121
1127
1130
1136
1140
1141
1143
1146
1149
1156
1162
1160
1154
1151
1148
1149
1146
1149
1149
1148
1146
1146
1142
1137
1129
1124
1119
1116
1114
1105
1097
1092
1086
1080
1073
1062
1048
1037
1027
1021
1018
1011
1004
994
981
973
965
960
959
953
948
943
942
939
936
934
935
937
935
935
933
926
923
921
922
919
922
922
925
928
928
926
921
919
919
922
924
926
926
925
923
923
925
928
931
927
931
939
952
959
964
962
964
968
974
983
986
988
983
981
980
977
978
980
980
983
985
986
983
983
978
982
980
977
974
971
966
957
946
937
928
924
921
920
918
915
913
910
910
912
911
908
902
894
890
895
902
904
904
903
898
899
900
899
899
898
895
895
901
902
902
904
907
908
906
902
899
899
898
900
903
901
898
897
902
904
910
905
903
902
901
908
915
912
913
910
907
909
912
913
915
919
926
936
947
962
989
1041
1150
1277
1404
1490
1495
1480
1465
1455
1444
1424
1405
1385
1366
1355
1343
1325
1306
1288
1263
1240
1220
1189
1152
1115
1077
1053
1033
1012
983
950
919
896
885
872
862
850
832
808
783
753
725
699
674
650
630
624
629
643
666
693
723
745
757
761
765
775
786
789
791
796
795
798
800
807
819
832
839
850
859
873
887
899
912
927
944
961
975
987
992
1001
1007
1006
1008
1011
1015
1023
1028
1033
1035
1041
1043
1050
1052
1055
1058
1060
1062
1069
1076
1082
1089
1096
1103
1110
1114
1115
1112
1114
1116
1122
1130
1136
1140
1144
1150
1155
1162
1169
1167
1165
1168
1173
1179
1182
1183
1181
1179
1179
1178
1179
1174
1169
1168
1166
1164
1162
1155
1152
1155
1151
1145
1134
1124
1117
1114
1114
1114
1110
1105
1097
1093
1092
1089
1087
1082
1078
1077
1073
1071
1069
1059
1052
1042
1031
1023
1016
1011
1007
1002
1002
999
996
993
990
981
977
973
975
968
957
947
941
938
935
927
921
919
919
919
917
913
908
906
903
902
898
897
896
898
902
902
903
899
896
896
897
899
899
900
901
898
898
898
900
901
904
903
906
912
909
904
898
896
898
903
904
903
900
900
903
907
908
906
902
898
900
901
901
902
900
901
903
904
907
905
906
906
909
910
912
912
911
910
908
909
906
903
899
902
906
910
910
909
908
905
910
911
909
911
910
913
916
916
915
917
914
914
915
919
918
919
921
923
925
927
926
925
927
927
927
932
932
933
931
933
938
941
942
941
947
955
971
997
1041
1125
1246
1373
1468
1506
1500
1487
1475
1466
1457
1442
1423
1406
1388
1369
1350
1332
1304
1277
1254
1227
1201
1179
1147
1115
1080
1047
1018
995
964
930
897
870
851
836
823
814
810
800
782
761
734
709
687
666
642
621
605
605
620
644
680
709
733
755
768
773
784
790
797
798
801
803
810
813
809
805
809
816
830
845
855
862
872
883
895
907
916
924
938
954
972
987
1002
1011
1018
1020
1025
1029
1031
1025
1023
1023
1027
1037
1044
1047
1051
1052
1057
1067
1076
1088
1096
1103
1114
1124
1132
1132
1133
1134
1143
1158
1170
1178
1187
1194
1201
1205
1205
1205
1206
1209
1216
1223
1224
1224
1224
1222
1225
1229
1230
1231
1230
1228
1228
1223
1214
1201
1193
1185
1185
1185
1182
1175
1168
1160
1154
1146
1136
1127
1116
1107
1102
1094
1087
1079
1067
1057
1054
1046
1034
1025
1016
1008
1001
995
989
983
977
964
957
952
947
941
932
929
927
925
920
913
911
909
915
916
917
913
912
909
908
904
897
896
896
895
899
899
897
900
899
899
898
901
904
905
904
901
897
895
889
889
889
892
897
899
898
894
891
887
890
896
896
897
895
897
901
907
910
906
908
907
913
917
918
915
914
915
917
919
915
913
916
917
920
926
924
920
917
914
917
919
918
913
908
905
909
911
914
915
913
913
915
917
921
923
925
924
923
924
924
923
921
922
921
926
926
928
928
930
933
936
934
932
929
927
927
924
920
921
922
924
929
930
933
936
935
933
931
935
934
933
931
933
936
938
944
945
945
945
945
947
951
953
950
950
955
956
953
952
961
972
992
1021
1071
1158
1280
1398
1479
1510
1506
1492
1480
1469
1459
1444
1426
1408
1389
1370
1353
1334
1311
1286
1258
1233
1205
1177
1146
1115
1080
1044
1012
981
946
909
872
842
822
815
810
805
793
774
751
720
689
665
645
623
606
593
586
593
618
651
689
719
746
775
794
809
827
839
847
853
856
864
878
886
887
884
883
885
891
904
913
925
938
951
964
977
988
998
1008
1011
1026
1037
1043
1052
1055
1055
1057
1053
1049
1050
1048
1049
1054
1057
1059
1058
1057
1055
1053
1058
1057
1061
1066
1071
1077
1082
1080
1081
1083
1089
1099
1109
1115
1120
1124
1123
1127
1132
1139
1146
1150
1154
1157
1158
1156
1158
1161
1170
1175
1176
1178
1177
1181
1181
1182
1182
1180
1180
1173
1171
1173
1175
1176
1173
1172
1167
1163
1154
1145
1135
1130
1129
1128
1127
1120
1110
1099
1086
1078
1071
1059
1048
1034
1026
1020
1016
1008
997
988
982
979
976
972
970
963
959
955
954
953
951
949
948
950
950
949
945
942
939
940
943
942
937
933
926
924
927
922
922
926
926
931
935
932
929
927
925
929
931
928
927
924
927
930
930
933
933
928
925
926
932
934
936
934
929
929
933
933
938
937
938
937
940
941
943
944
942
945
945
945
944
943
943
944
946
946
942
944
944
950
951
955
955
954
946
943
941
941
944
946
944
945
947
948
950
950
948
952
955
952
948
945
942
946
951
954
950
950
953
954
952
950
951
952
957
961
961
959
953
950
944
945
949
952
955
957
952
954
959
962
963
963
963
965
967
964
965
967
967
973
980
987
994
1003
1014
1038
1087
1184
1311
1436
1513
1542
1539
1527
1519
1510
1494
1482
1463
1444
1426
1409
1387
1367
1347
1326
1296
1267
1229
1197
1165
1132
1096
1055
1014
974
939
906
879
854
833
815
798
779
752
723
696
676
657
635
608
584
571
573
596
625
658
693
723
751
771
783
792
801
807
811
819
821
822
823
824
828
835
839
847
850
854
865
876
888
901
910
925
940
959
971
978
983
996
1005
1012
1013
1015
1018
1022
1032
1037
1038
1034
1029
1031
1036
1043
1046
1048
1054
1059
1066
1074
1076
1081
1087
1094
1100
1106
1108
1115
1123
1130
1138
1141
1140
1143
1145
1157
1168
1178
1182
1185
1186
1192
1196
1202
1206
1209
1213
1215
1220
1219
1214
1210
1207
1207
1208
1209
1203
1200
1193
1188
1185
1182
1175
1169
1160
1151
1141
1135
1124
1116
1112
1104
1096
1087
1075
1066
1058
1050
1042
1036
1028
1020
1006
996
993
994
993
989
985
982
977
974
968
962
953
950
953
956
959
956
948
941
941
942
945
948
950
949
950
949
945
942
939
939
942
950
950
949
942
937
938
943
945
945
944
941
941
940
941
942
941
941
947
949
949
949
946
943
947
951
952
955
955
948
945
945
949
950
953
953
954
957
957
955
955
954
953
956
950
948
944
943
947
952
960
961
959
956
959
965
968
972
977
980
982
985
982
985
990
994
1005
1016
1022
1029
1030
1023
1019
1017
1018
1015
1018
1017
1013
1009
1002
998
999
992
994
998
996
991
982
971
971
971
968
964
959
954
951
952
953
956
954
951
952
954
960
967
981
997
1035
1116
1243
1370
1491
1526
1521
1502
1484
1471
1454
1440
1422
1403
1382
1359
1335
1311
1287
1263
1236
1202
1171
1139
1108
1077
1047
1018
992
963
935
912
889
874
859
851
844
834
811
782
754
732
712
691
664
649
647
665
686
709
731
754
768
779
786
796
802
805
802
801
801
804
803
812
825
843
860
876
885
892
902
912
930
948
962
973
985
995
1012
1024
1029
1029
1032
1036
1043
1051
1053
1046
1044
1045
1050
1056
1057
1062
1070
1081
1087
1095
1098
1099
1102
1105
1113
1120
1126
1129
1133
1138
1147
1157
1157
1162
1165
1171
1179
1186
1191
1194
1195
1199
1197
1201
1198
1197
1199
1201
1200
1196
1192
1190
1190
1189
1185
1182
1176
1172
1166
1162
1160
1158
1150
1142
1131
1117
1106
1102
1093
1084
1077
1070
1061
1053
1038
1027
1013
1007
1004
1000
994
987
982
977
979
976
971
963
957
950
949
950
954
952
948
944
945
951
950
948
943
936
934
938
938
936
936
936
934
937
936
934
934
935
938
941
942
944
949
957
969
977
983
983
982
982
989
997
1006
1008
1008
1001
998
991
987
985
989
992
994
996
999
999
994
985
978
970
965
962
956
952
951
949
947
942
939
933
932
931
926
923
919
920
923
925
922
918
914
915
914
913
909
908
905
905
908
910
908
906
906
905
906
910
908
906
907
906
907
911
910
907
908
906
908
909
910
911
911
911
912
916
916
916
916
918
920
925
927
923
921
920
923
926
928
924
924
932
949
972
1007
1078
1204
1331
1458
1504
1493
1474
1461
1451
1436
1421
1398
1382
1363
1345
1328
1306
1284
1259
1233
1203
1176
1147
1115
1086
1062
1039
1018
992
960
933
916
903
895
891
878
855
822
784
751
728
700
673
649
642
648
663
682
705
730
745
756
762
768
776
783
786
792
797
802
802
801
804
812
823
833
844
857
869
883
899
910
923
941
951
963
976
988
998
1002
1007
1011
1014
1014
1013
1013
1017
1023
1027
1030
1035
1039
1041
1045
1046
1045
1045
1049
1054
1059
1064
1068
1074
1076
1084
1089
1096
1098
1100
1100
1106
1116
1121
1127
1123
1126
1128
1136
1140
1143
1144
1144
1142
1146
1151
1151
1153
1151
1149
1149
1151
1156
1150
1140
1129
1122
1121
1122
1124
1119
1115
1111
1111
1110
1108
1102
1095
1090
1090
1090
1088
1084
1079
1076
1073
1067
1055
1042
1034
1026
1025
1018
1012
1007
1007
1007
1010
1005
996
986
974
962
958
953
947
943
938
935
933
928
923
917
906
908
906
904
900
897
891
886
885
883
883
883
885
884
888
889
890
890
888
888
885
877
872
870
874
878
883
885
881
881
881
881
886
881
881
881
880
882
887
885
883
884
884
889
890
889
887
885
884
887
888
887
887
887
888
887
887
885
884
882
881
880
879
879
881
882
881
882
884
886
885
886
882
883
885
883
885
890
894
898
899
900
896
893
892
895
896
894
893
890
889
895
902
899
897
893
894
897
900
902
897
895
894
901
907
909
912
912
913
920
929
939
951
968
1004
1082
1209
1336
1451
1484
1477
1466
1454
1441
1421
1394
1371
1353
1337
1317
1299
1270
1238
1209
1176
1141
1102
1064
1025
991
963
929
897
865
838
820
808
797
781
763
740
710
680
652
625
602
579
563
567
588
618
651
676
703
723
737
747
754
761
767
772
777
778
773
780
788
797
807
814
826
837
854
870
886
902
913
924
937
949
961
976
985
994
998
999
1005
1008
1008
1011
1016
1021
1027
1031
1034
1042
1054
1065
1072
1080
1087
1101
1114
1127
1132
1137
1142
1146
1155
1167
1175
1179
1178
1181
1184
1189
1194
1198
1200
1206
1210
1216
1216
1216
1213
1212
1212
1212
1210
1203
1195
1190
1183
1178
1174
1171
1163
1158
1150
1146
1137
1128
1118
1109
1104
1101
1093
1084
1071
1062
1051
1040
1029
1016
1003
996
990
985
975
963
955
949
946
938
928
924
915
914
911
912
909
905
897
893
890
889
885
882
879
881
882
884
883
880
875
873
870
872
867
866
864
863
865
865
868
865
863
860
861
862
865
866
865
864
863
864
863
864
868
868
871
871
867
865
863
864
869
873
877
880
881
884
885
883
879
878
878
881
884
887
890
890
888
887
888
886
885
886
886
884
882
879
878
879
883
885
886
883
885
890
894
892
892
889
890
889
890
889
892
895
893
889
885
883
887
891
892
893
892
892
894
897
894
895
892
893
896
896
896
896
894
894
897
898
896
898
899
902
901
903
896
895
897
901
905
908
911
907
906
910
914
919
919
923
930
942
960
994
1058
1177
1304
1431
1482
1482
1462
1449
1436
1418
1399
1378
1357
1337
1312
1291
1266
1245
1217
1186
1150
1112
1076
1036
993
945
899
857
821
792
764
739
718
704
697
687
668
642
613
594
579
565
547
525
510
520
547
586
628
668
704
735
754
765
777
794
810
822
833
838
838
840
841
847
859
875
887
901
907
916
928
940
952
963
976
993
1006
1017
1024
1029
1031
1031
1030
1030
1031
1032
1031
1033
1033
1032
1032
1032
1031
1031
1039
1050
1059
1063
1063
1067
1074
1080
1084
1085
1086
1089
1098
1104
1109
1112
1116
1123
1130
1135
1140
1144
1149
1155
1159
1162
1167
1166
1168
1168
1172
1173
1176
1178
1178
1179
1181
1181
1177
1172
1166
1165
1165
1160
1155
1147
1141
1138
1136
1136
1129
1117
1100
1089
1084
1079
1075
1064
1050
1036
1025
1017
1010
1003
990
982
977
973
969
961
951
945
939
939
937
931
924
920
920
921
919
914
906
899
896
897
899
899
898
898
901
904
902
902
900
900
895
891
887
883
884
888
887
887
884
881
879
877
878
875
873
875
873
876
881
889
888
888
884
885
887
890
894
894
891
890
893
898
896
894
894
898
903
905
909
909
906
904
905
906
903
896
892
893
899
899
902
901
898
898
899
901
903
904
902
899
898
900
901
900
897
894
899
900
902
902
901
900
901
904
905
902
904
906
903
904
905
900
898
897
900
905
904
904
902
903
902
907
908
909
911
912
912
915
915
912
906
904
905
906
908
909
909
907
909
911
911
910
910
915
917
922
922
918
917
918
926
935
942
955
972
1000
1052
1149
1276
1395
1466
1489
1485
1477
1469
1461
1449
1439
1425
1408
1386
1362
1337
1317
1300
1278
1253
1226
1194
1158
1120
1079
1032
985
940
902
867
837
814
790
768
749
735
716
690
661
636
615
594
573
547
524
513
520
543
580
613
645
670
692
708
719
732
739
742
746
747
752
753
749
743
746
755
774
792
809
821
830
838
848
860
873
885
899
913
928
939
952
961
967
977
979
980
978
980
985
992
996
995
996
994
997
1002
1009
1016
1020
1021
1022
1026
1035
1041
1046
1047
1053
1066
1074
1083
1087
1089
1093
1101
1109
1113
1117
1120
1126
1134
1143
1145
1149
1155
1157
1157
1157
1155
1155
1160
1164
1167
1167
1163
1161
1156
1155
1154
1153
1149
1144
1139
1132
1129
1119
1108
1095
1084
1081
1078
1070
1065
1056
1047
1040
1033
1026
1020
1012
999
992
982
974
966
957
945
938
938
938
937
930
924
922
919
917
915
912
909
910
912
912
912
912
909
906
903
899
900
898
899
900
905
902
900
899
901
907
905
904
901
901
901
900
902
902
902
899
897
898
898
898
899
896
893
896
899
903
904
906
903
900
904
904
908
911
910
911
909
907
907
907
906
906
907
909
913
915
918
917
915
911
905
904
903
905
909
911
912
911
909
909
911
914
911
912
911
915
920
927
930
934
936
944
952
961
960
958
955
955
960
967
975
978
982
982
980
974
968
964
957
962
967
972
973
974
967
965
964
959
955
953
949
950
947
944
938
931
920
917
914
913
913
914
917
917
918
917
917
919
924
936
952
982
1047
1155
1282
1409
1477
1488
1478
1462
1451
1442
1428
1413
1397
1380
1365
1353
1337
1320
1292
1266
1242
1223
1204
1185
1155
1123
1090
1060
1032
1010
987
967
943
928
920
911
901
893
886
879
864
845
820
789
756
726
696
670
655
652
662
678
693
709
729
738
740
742
745
751
755
758
758
759
760
761
765
769
777
787
800
812
822
833
837
847
859
877
891
905
914
926
936
952
964
973
974
976
978
982
984
984
988
997
1002
1009
1015
1017
1019
1020
1022
1033
1039
1044
1039
1034
1033
1040
1048
1053
1059
1061
1068
1075
1082
1089
1095
1100
1105
1108
1111
1110
1117
1125
1134
1138
1136
1137
1135
1139
1142
1143
1142
1140
1137
1138
1138
1139
1136
1129
1125
1126
1128
1126
1122
1113
1105
1104
1098
1091
1085
1076
1070
1063
1053
1052
1045
1036
1025
1016
1008
1001
993
985
978
974
974
971
963
951
940
937
936
934
930
924
917
915
917
920
920
918
915
915
919
919
916
909
903
907
912
916
915
911
903
902
906
908
909
905
901
901
908
914
921
924
925
929
933
939
939
941
941
946
955
960
964
967
970
974
981
978
978
976
970
969
970
973
977
976
971
972
970
968
964
961
956
952
954
948
939
929
921
919
922
922
922
916
908
902
898
899
894
892
884
880
878
882
886
889
890
889
886
887
892
892
891
886
880
881
882
885
884
886
887
890
890
889
885
887
890
891
892
891
886
885
887
889
890
890
888
892
900
902
899
892
888
890
897
903
902
900
902
908
913
918
927
943
970
1036
1145
1272
1399
1465
1481
1475
1468
1464
1449
1430
1407
1388
1375
1364
1349
1330
1306
1282
1257
1231
1201
1172
1143
1112
1083
1058
1030
1007
978
949
918
893
876
860
849
838
829
815
796
766
733
698
668
644
617
596
588
596
612
629
653
677
696
710
