1098
1068
1039
1012
986
962
943
930
921
915
912
906
890
865
837
817
796
774
747
725
710
711
724
738
752
768
790
810
820
820
821
824
834
840
846
847
848
846
848
855
861
867
880
891
904
917
930
938
946
958
973
990
1003
1014
1020
1028
1038
1048
1051
1052
1053
1060
1067
1070
1068
1069
1071
1075
1083
1092
1099
1100
1091
1082
1084
1091
1100
1107
1109
1113
1122
1131
1135
1140
1148
1157
1164
1174
1181
1185
1190
1198
1212
1225
1235
1240
1243
1246
1253
1262
1267
1269
1267
1263
1259
1259
1257
1259
1258
1257
1257
1257
1258
1254
1250
1243
1234
1223
1213
1203
1196
1186
1177
1167
1157
1144
1129
1113
1100
1094
1083
1073
1059
1047
1038
1032
1027
1022
1015
1005
999
996
991
986
978
976
977
976
975
967
963
960
960
961
954
949
946
946
948
950
950
946
946
948
949
948
943
937
935
934
941
942
942
938
936
933
936
938
940
941
940
941
936
933
932
932
934
936
944
949
950
947
944
942
943
946
949
947
948
946
948
950
954
958
955
947
942
940
943
945
947
950
953
956
955
952
949
950
952
956
957
956
955
952
954
956
958
954
953
957
960
958
950
948
953
958
962
969
968
965
963
962
963
966
969
969
970
968
970
970
971
971
973
971
974
971
968
965
964
966
972
979
979
979
978
982
990
989
987
985
984
984
986
989
996
1004
1013
1029
1052
1092
1176
1295
1421
1506
1538
1536
1520
1508
1494
1480
1464
1445
1423
1395
1371
1348
1330
1308
1277
1243
1211
1175
1139
1099
1059
1020
982
946
916
890
869
850
832
817
808
798
783
763
746
727
706
683
660
639
627
627
646
682
714
742
770
792
810
823
831
837
840
848
855
859
868
872
875
879
892
905
921
941
958
978
996
1012
1026
1036
1051
1073
1096
1122
1135
1143
1143
1146
1148
1153
1156
1163
1163
1171
1179
1178
1177
1175
1174
1171
1172
1174
1176
1178
1179
1181
1185
1185
1191
1192
1199
1203
1206
1213
1214
1219
1218
1224
1233
1240
1245
1251
1254
1260
1269
1273
1275
1273
1270
1272
1278
1280
1283
1280
1279
1275
1272
1269
1263
1257
1248
1242
1238
1233
1232
1224
1215
1199
1190
1182
1175
1165
1156
1142
1132
1124
1116
1108
1093
1079
1070
1065
1058
1047
1031
1021
1015
1012
1009
1003
995
987
986
985
981
974
965
961
960
960
959
954
955
952
953
950
950
951
952
950
946
948
951
947
946
944
945
946
947
945
940
936
935
938
941
941
941
935
935
937
942
943
944
945
944
949
949
945
945
946
947
947
946
946
944
945
947
949
949
946
946
943
948
950
947
943
941
942
945
948
946
945
941
940
943
946
946
944
942
940
940
941
940
942
942
942
946
948
946
942
939
941
944
946
948
947
944
944
946
947
947
947
947
947
947
946
947
950
946
948
951
950
950
949
950
949
951
953
954
951
950
952
955
957
955
955
955
955
956
961
959
958
957
958
966
972
975
979
987
1009
1053
1135
1262
1389
1455
1453
1425
1401
1386
1371
1349
1327
1309
1292
1276
1259
1246
1228
1210
1192
1167
1146
1118
1088
1059
1027
991
957
922
890
858
830
804
782
773
761
764
761
752
734
710
691
673
657
641
625
613
618
646
682
713
738
757
777
791
801
806
807
813
817
824
824
823
817
817
819
827
839
847
855
862
866
880
893
907
917
932
943
953
964
974
979
982
983
984
991
994
994
994
1000
1002
1009
1010
1017
1018
1021
1029
1036
1042
1049
1052
1053
1065
1076
1082
1088
1094
1097
1106
1113
1120
1124
1130
1135
1142
1148
1153
1157
1160
1162
1168
1172
1172
1174
1175
1176
1176
1177
1176
1172
1169
1165
1163
1160
1156
1150
1141
1134
1132
1126
1116
1107
1101
1096
1089
1079
1069
1057
1045
1038
1033
1026
1019
1008
999
989
988
985
978
972
965
960
957
955
952
951
946
944
944
943
942
940
936
937
940
939
938
936
935
934
935
936
934
937
934
936
937
938
939
935
934
932
935
936
936
937
935
934
939
943
942
942
939
939
943
947
948
948
947
947
950
953
953
953
953
951
951
952
951
948
948
948
948
951
949
951
946
947
948
951
947
949
949
948
949
952
951
953
950
948
951
952
953
953
951
951
953
959
962
959
956
952
953
956
960
958
960
962
966
972
972
972
972
975
981
988
990
995
999
1003
1011
1018
1020
1025
1032
1039
1041
1039
1035
1030
1029
1028
1031
1036
1038
1034
1032
1028
1031
1031
1028
1024
1018
1018
1021
1033
1058
1118
1220
1337
1414
1420
1379
1339
1320
1305
1293
1277
1254
1231
1211
1195
1180
1163
1141
1117
1093
1065
1040
1015
986
955
921
887
857
829
800
773
750
731
719
714
706
699
686
678
663
642
624
609
597
580
569
563
566
584
611
640
673
702
729
750
767
782
797
810
818
826
832
832
834
839
842
849
859
873
889
907
916
922
932
947
966
984
998
1010
1021
1034
1048
1059
1066
1072
1072
1079
1089
1092
1093
1096
1100
1108
1113
1119
1123
1128
1136
1138
1146
1152
1155
1161
1169
1176
1181
1186
1191
1195
1198
1204
1216
1225
1228
1229
1235
1238
1243
1250
1257
1262
1261
1265
1269
1271
1273
1271
1271
1271
1271
1271
1270
1267
1263
1257
1256
1253
1247
1240
1233
1224
1220
1211
1203
1194
1184
1174
1170
1160
1151
1140
1129
1117
1110
1104
1093
1083
1075
1065
1059
1053
1044
1040
1033
1028
1025
1022
1018
1013
1010
1003
1001
1000
998
995
993
991
989
990
989
985
985
984
984
986
984
981
978
979
981
984
983
981
980
976
978
978
979
979
979
979
982
985
982
980
979
979
981
983
986
988
990
994
1000
1003
1008
1012
1017
1022
1027
1035
1035
1035
1038
1043
1048
1054
1051
1046
1041
1037
1037
1038
1039
1039
1037
1033
1034
1031
1027
1023
1015
1013
1008
1006
1002
999
993
987
984
981
980
973
974
971
970
969
966
963
960
958
961
962
959
958
957
957
959
959
961
961
957
956
957
961
961
960
958
958
960
963
964
965
962
963
960
967
965
965
967
970
973
983
989
1000
1033
1110
1228
1343
1408
1403
1368
1339
1327
1318
1303
1282
1264
1249
1238
1230
1216
1199
1178
1161
1142
1125
1101
1074
1046
1022
1003
985
965
946
924
909
902
899
899
901
902
898
884
866
843
819
788
758
735
719
720
729
741
755
773
794
810
820
824
826
830
832
837
837
836
841
841
843
843
848
858
869
885
896
903
911
920
934
950
966
981
990
1004
1013
1027
1035
1038
1038
1038
1040
1046
1050
1053
1054
1055
1058
1063
1066
1066
1066
1067
1071
1079
1082
1085
1087
1087
1091
1097
1100
1106
1108
1112
1113
1116
1122
1125
1126
1130
1135
1141
1147
1149
1149
1150
1152
1155
1155
1162
1163
1163
1165
1169
1172
1172
1171
1169
1167
1167
1169
1166
1165
1160
1156
1157
1153
1152
1150
1139
1135
1132
1130
1122
1117
1115
1107
1104
1095
1089
1083
1072
1063
1060
1056
1050
1043
1034
1028
1022
1023
1019
1015
1017
1017
1019
1021
1026
1028
1032
1035
1038
1038
1038
1036
1038
1037
1038
1038
1035
1028
1024
1020
1020
1022
1023
1020
1019
1014
1014
1013
1011
1003
996
989
989
985
982
974
966
960
957
956
954
949
946
943
942
943
940
934
932
932
935
937
938
936
934
935
938
939
937
935
931
931
932
937
936
933
933
930
932
934
933
933
931
931
931
932
932
933
929
929
934
934
931
928
930
933
934
934
931
932
932
931
932
932
935
932
931
931
933
935
934
934
934
934
936
936
938
937
935
935
939
939
941
941
940
941
944
947
948
946
944
942
944
946
946
948
948
948
950
951
952
952
951
955
962
970
978
994
1024
1097
1202
1310
1370
1366
1330
1301
1287
1281
1268
1249
1232
1217
1207
1201
1189
1173
1156
1140
1127
1111
1090
1067
1041
1013
991
969
946
916
886
859
832
810
793
781
776
773
776
775
761
741
721
707
697
683
667
652
645
652
669
696
722
747
769
792
811
820
827
831
831
838
844
853
855
855
853
854
856
865
873
882
888
896
904
915
925
934
945
956
970
986
999
1007
1017
1023
1031
1038
1040
1041
1042
1043
1048
1053
1053
1055
1057
1060
1066
1071
1074
1075
1075
1074
1080
1085
1089
1091
1094
1098
1102
1108
1112
1114
1118
1122
1131
1138
1142
1146
1153
1161
1171
1180
1187
1193
1202
1210
1221
1233
1242
1251
1255
1263
1269
1276
1277
1282
1283
1284
1282
1282
1275
1268
1264
1260
1260
1258
1255
1251
1240
1234
1225
1217
1208
1194
1183
1171
1158
1151
1137
1125
1112
1098
1088
1080
1073
1063
1052
1041
1037
1027
1018
1006
997
993
990
989
987
981
976
971
970
968
965
960
956
955
952
953
952
949
948
945
948
948
946
943
941
940
943
948
946
945
942
941
941
943
940
943
940
937
937
934
937
934
938
939
943
947
943
940
941
941
943
945
946
946
943
944
944
947
945
946
947
948
948
951
952
949
946
947
947
947
946
947
947
944
944
950
952
951
948
947
950
949
947
947
947
952
952
953
951
950
951
950
954
958
955
954
952
952
955
954
953
951
953
957
959
960
959
959
958
958
960
961
965
966
966
958
962
967
966
967
965
964
970
972
973
971
968
967
969
977
979
978
978
976
982
985
988
988
991
998
1021
1069
1152
1257
1350
1385
1371
1343
1325
1312
1298
1281
1265
1251
1235
1215
1196
1177
1155
1132
1102
1075
1046
1017
986
959
930
896
864
828
801
772
742
718
707
697
684
678
668
660
645
626
612
596
582
570
556
546
547
561
583
611
642
675
710
741
765
783
794
804
818
829
836
847
852
857
863
869
875
885
897
914
935
952
964
977
993
1009
1031
1049
1069
1081
1097
1111
1127
1144
1155
1160
1161
1159
1160
1164
1164
1168
1168
1169
1175
1182
1180
1182
1184
1184
1185
1189
1187
1186
1188
1187
1191
1195
1196
1192
1194
1196
1197
1202
1203
1205
1207
1209
1214
1219
1220
1216
1219
1223
1227
1234
1234
1236
1237
1236
1239
1243
1242
1241
1238
1235
1235
1237
1232
1226
1221
1218
1217
1214
1208
1202
1196
1190
1187
1182
1176
1169
1160
1151
1145
1143
1133
1123
1115
1106
1099
1090
1084
1074
1067
1057
1050
1043
1037
1029
1021
1015
1009
1004
999
996
990
988
986
986
981
975
972
967
966
967
966
964
960
957
958
958
958
953
954
952
951
955
952
950
949
945
943
947
946
945
945
944
947
945
945
943
941
942
944
944
945
944
941
940
941
943
943
942
941
943
943
947
946
944
941
940
942
945
944
943
944
943
945
944
942
940
940
940
942
940
941
942
941
942
944
942
939
937
939
936
940
943
940
939
938
939
940
940
938
938
938
937
939
943
942
940
938
939
944
944
941
940
938
938
940
945
944
943
942
943
944
944
945
941
941
940
944
945
945
941
942
941
944
948
948
946
942
943
944
947
948
948
947
946
950
953
958
960
963
971
1001
1055
1143
1253
1329
1347
1319
1291
1273
1263
1250
1233
1219
1206
1194
1182
1173
1159
1148
1140
1125
1112
1093
1077
1063
1048
1030
1010
988
965
943
922
897
874
858
851
854
863
868
866
854
838
812
798
781
766
745
722
712
714
728
754
781
805
824
840
847
849
849
844
845
842
839
838
836
831
828
826
825
825
828
836
846
854
857
863
868
876
890
905
917
928
939
947
958
969
977
982
982
981
987
990
992
993
992
995
998
1002
1005
1006
1010
1010
1015
1018
1019
1021
1020
1026
1033
1039
1040
1043
1045
1046
1052
1058
1061
1064
1068
1071
1077
1083
1086
1085
1088
1093
1100
1107
1108
1110
1112
1114
1120
1122
1123
1124
1126
1125
1128
1130
1127
1124
1124
1122
1123
1124
1120
1117
1115
1112
1110
1108
1104
1100
1096
1090
1085
1080
1073
1067
1062
1058
1053
1049
1038
1028
1023
1018
1013
1009
1000
997
993
980
979
978
973
969
966
958
962
962
959
957
950
946
946
947
947
942
941
939
940
943
940
936
934
934
935
937
936
934
934
934
935
938
937
935
934
935
935
937
936
935
935
936
938
940
942
942
941
939
942
943
942
943
943
943
947
948
946
947
947
945
948
951
952
948
946
947
947
948
946
946
945
945
946
950
948
945
946
944
947
948
947
945
943
944
948
953
951
950
948
949
949
952
947
946
948
948
951
950
948
949
950
951
952
953
954
954
957
955
960
965
966
968
970
973
982
991
998
1003
1006
1010
1013
1017
1020
1024
1026
1026
1023
1022
1021
1021
1020
1021
1022
1026
1028
1028
1029
1036
1068
1136
1241
1336
1369
1349
1318
1298
1284
1269
1245
1222
1203
1188
1170
1152
1129
1101
1075
1052
1024
992
960
924
894
862
823
783
741
707
676
651
632
616
608
597
592
582
561
540
523
510
497
486
478
479
495
527
569
607
642
679
709
735
752
762
773
783
790
798
803
806
807
815
827
837
856
869
880
888
899
910
926
945
961
976
991
1004
1015
1029
1035
1039
1040
1041
1044
1051
1056
1060
1064
1071
1076
1081
1085
1087
1092
1097
1106
1112
1116
1116
1120
1128
1136
1142
1148
1155
1159
1165
1175
1184
1191
1196
1199
1206
1212
1218
1219
1226
1228
1232
1235
1238
1240
1240
1241
1243
1243
1243
1240
1238
1235
1233
1230
1226
1220
1214
1207
1200
1194
1188
1180
1168
1164
1156
1151
1144
1134
1123
1114
1103
1094
1088
1078
1069
1061
1054
1045
1038
1031
1024
1014
1008
1005
1003
998
991
988
983
982
983
980
979
975
972
972
974
972
969
967
966
967
968
969
970
968
966
966
968
966
967
963
963
964
968
969
966
963
966
965
971
970
966
967
965
970
971
969
967
966
967
973
975
974
972
972
977
982
988
990
992
995
999
1008
1015
1015
1019
1020
1022
1026
1029
1033
1039
1033
1030
1026
1028
1025
1021
1019
1017
1018
1021
1018
1013
1006
1002
999
996
992
987
983
979
976
973
967
960
956
954
951
951
948
943
941
936
938
940
940
937
935
933
936
938
936
935
932
931
932
937
935
936
939
935
940
939
938
935
931
933
938
944
945
949
952
956
972
1006
1080
1198
1303
1345
1328
1295
1270
1256
1244
1227
1206
1189
1174
1162
1145
1128
1107
1092
1070
1050
1030
1006
985
959
933
908
883
858
834
811
792
780
778
776
780
779
762
741
723
709
698
679
659
647
655
673
697
718
740
764
781
792
798
804
809
810
812
817
825
826
822
819
824
835
846
860
869
876
886
894
908
925
938
947
959
968
980
992
1000
1006
1005
1006
1010
1017
1021
1022
1023
1025
1030
1035
1037
1039
1039
1042
1046
1050
1053
1055
1055
1060
1066
1070
1077
1076
1075
1079
1089
1096
1095
1097
1097
1102
1108
1113
1116
1116
1116
1118
1122
1125
1128
1124
1124
1123
1123
1128
1127
1124
1120
1119
1118
1118
1114
1111
1108
1103
1100
1101
1097
1090
1083
1079
1072
1069
1059
1051
1042
1038
1035
1029
1023
1013
1004
997
992
992
986
979
975
970
970
972
973
975
974
976
983
988
992
991
995
1000
1004
1007
1008
1010
1012
1012
1009
1005
1001
997
991
992
994
997
993
991
986
986
985
981
974
971
966
964
959
955
950
945
939
934
930
931
928
926
923
920
920
919
919
918
912
914
916
920
917
915
913
909
910
917
915
912
908
908
909
912
909
907
907
909
909
909
911
906
909
905
908
908
908
907
906
906
910
912
912
910
905
908
909
912
911
910
908
906
907
910
910
910
909
906
906
907
908
909
908
908
907
912
911
911
908
907
910
915
914
915
913
913
915
915
916
917
918
922
928
929
933
935
944
972
1035
1141
1262
1338
1339
1308
1279
1266
1254
1239
1219
1200
1185
1171
1157
1141
1120
1099
1075
1053
1024
995
964
930
897
865
831
796
762
723
696
672
656
645
635
623
616
608
590
574
560
548
541
531
522
519
529
554
585
621
656
690
713
734
750
763
771
778
787
795
802
805
808
810
819
832
849
863
876
885
896
906
922
940
958
971
984
998
1008
1021
1029
1030
1034
1036
1041
1045
1047
1050
1053
1057
1062
1068
1071
1074
1076
1080
1085
1089
1096
1098
1102
1107
1114
1121
1126
1131
1132
1141
1151
1158
1163
1166
1172
1179
1188
1198
1202
1209
1215
1220
1230
1238
1247
1250
1255
1262
1268
1274
1277
1277
1277
1275
1278
1278
1274
1263
1253
1246
1240
1238
1231
1225
1215
1211
1204
1195
1188
1174
1161
1149
1137
1128
1115
1101
1082
1069
1057
1046
1034
1021
1008
999
993
987
979
969
960
955
949
946
946
942
934
930
929
928
928
924
924
921
921
923
924
920
917
915
913
917
916
915
914
915
914
916
915
914
909
909
912
915
916
914
911
910
912
915
915
915
913
913
915
917
918
917
915
910
914
918
917
918
916
915
918
918
917
915
913
915
915
917
917
914
913
914
917
919
916
914
912
913
913
914
914
917
915
914
915
914
913
913
913
914
917
920
919
921
916
914
918
919
922
921
918
918
921
922
922
921
919
919
921
923
923
923
921
922
926
930
930
927
925
925
929
932
932
929
926
928
930
933
936
937
936
937
935
938
939
940
937
941
947
948
951
955
961
985
1036
1128
1247
1336
1363
1340
1307
1288
1276
1267
1249
1229
1214
1203
1187
1171
1153
1133
1115
1098
1076
1053
1030
1001
972
943
915
882
850
814
784
758
729
709
693
688
682
679
675
665
650
637
620
608
596
579
556
547
548
563
589
617
646
676
712
738
755
764
771
785
795
807
817
821
820
820
825
832
842
855
870
886
901
910
919
932
946
963
985
1004
1024
1041
1054
1070
1088
1099
1105
1110
1115
1125
1134
1138
1136
1132
1134
1141
1146
1153
1155
1156
1155
1157
1161
1166
1170
1170
1169
1169
1170
1173
1174
1175
1174
1175
1180
1183
1185
1186
1186
1191
1195
1200
1202
1202
1201
1204
1208
1209
1212
1212
1210
1210
1211
1212
1211
1207
1202
1201
1201
1200
1199
1193
1188
1181
1178
1173
1167
1159
1151
1146
1140
1132
1128
1117
1106
1098
1088
1083
1073
1061
1054
1048
1041
1031
1022
1012
1003
997
995
988
982
977
974
969
964
961
954
950
948
948
947
945
942
939
937
937
939
939
940
936
935
934
935
935
934
933
932
929
930
933
934
932
929
929
930
932
933
931
929
927
931
934
934
931
931
932
935
937
939
937
933
931
933
939
936
935
934
935
939
945
944
942
938
939
942
945
945
943
938
939
938
942
941
940
938
940
940
940
937
940
940
942
944
946
943
939
935
936
940
944
942
942
940
942
943
944
944
943
939
940
942
944
945
944
940
944
945
945
946
946
