965
960
958
960
966
969
962
957
952
951
951
948
948
948
952
957
954
946
938
941
943
947
946
946
947
945
942
940
941
938
937
934
937
942
943
943
939
937
937
940
947
952
950
942
937
938
939
942
939
935
937
941
944
947
944
939
940
942
945
943
939
934
936
937
938
937
935
935
935
934
935
933
932
934
935
934
937
934
931
927
935
940
941
934
933
935
945
952
952
946
945
949
960
971
975
974
971
969
976
984
989
991
989
988
986
986
982
980
981
981
982
986
987
993
991
985
981
975
971
967
963
957
951
949
948
948
948
942
944
949
956
963
982
1015
1094
1211
1330
1401
1405
1372
1339
1320
1307
1292
1272
1249
1227
1210
1190
1173
1153
1133
1112
1092
1075
1056
1039
1011
980
946
907
870
833
797
770
746
723
700
676
657
647
646
650
646
632
611
599
590
584
567
546
532
535
556
581
600
617
637
666
697
717
733
746
759
775
784
784
786
791
798
801
806
811
818
823
833
845
859
871
878
883
892
905
917
927
936
949
964
980
988
994
999
1001
1002
1009
1021
1030
1028
1027
1027
1029
1034
1041
1046
1052
1056
1061
1069
1075
1086
1093
1095
1094
1099
1105
1113
1120
1123
1127
1132
1137
1147
1156
1163
1166
1167
1168
1173
1177
1177
1181
1184
1188
1190
1196
1193
1193
1193
1193
1189
1186
1181
1176
1167
1165
1170
1173
1165
1155
1147
1139
1131
1125
1119
1115
1102
1092
1083
1076
1066
1056
1050
1047
1039
1021
1006
996
990
983
981
974
969
960
955
947
943
940
939
934
933
932
929
926
921
921
920
916
911
911
914
914
913
905
902
904
906
904
902
904
906
906
905
903
903
903
900
897
898
907
913
917
911
906
899
898
900
908
912
912
910
910
913
916
919
923
930
940
946
945
942
939
943
951
960
967
969
971
966
962
957
952
952
952
954
967
974
976
970
961
951
950
949
946
944
941
936
933
929
925
921
919
913
911
908
901
898
895
891
894
894
895
890
888
886
884
884
887
889
890
888
888
888
885
884
881
878
881
884
888
889
887
884
883
886
883
880
881
882
886
889
893
888
886
884
886
889
890
890
892
890
894
900
904
903
906
909
919
936
967
1027
1126
1250
1356
1395
1378
1339
1312
1294
1281
1267
1244
1223
1210
1197
1178
1161
1146
1133
1118
1099
1082
1066
1048
1023
1000
977
961
948
931
909
885
862
851
846
848
851
854
856
861
860
851
840
822
808
787
771
763
768
776
781
787
798
812
822
824
825
826
831
833
835
831
827
827
826
821
815
814
816
823
827
830
833
836
840
848
859
867
874
885
892
903
913
921
930
938
939
941
945
951
957
956
953
950
955
962
965
969
972
975
979
982
982
983
984
987
991
995
997
1000
1000
1004
1009
1012
1015
1020
1023
1024
1029
1032
1034
1039
1043
1045
1045
1048
1054
1061
1063
1062
1059
1059
1061
1063
1066
1068
1068
1067
1066
1062
1062
1062
1062
1062
1058
1053
1051
1055
1055
1050
1042
1040
1035
1035
1033
1028
1023
1016
1013
1010
1005
1000
990
989
991
991
979
965
957
954
959
967
972
971
965
964
965
973
980
981
979
975
970
972
977
978
974
968
967
965
966
964
964
965
967
963
965
962
959
955
948
945
942
942
941
936
926
920
914
907
905
903
904
902
903
902
900
894
892
895
896
894
891
887
892
895
894
894
891
890
891
895
898
900
901
896
890
893
895
895
898
896
891
893
897
893
892
890
891
894
899
899
899
897
899
901
901
901
900
897
897
899
900
903
903
903
902
903
903
903
904
902
901
906
909
910
908
906
907
906
908
912
909
908
912
913
916
917
920
919
920
919
920
918
920
923
926
926
927
927
928
930
930
939
944
951
954
954
962
982
1023
1102
1225
1348
1417
1420
1387
1355
1337
1323
1308
1293
1272
1258
1245
1230
1211
1190
1172
1153
1132
1109
1089
1068
1053
1032
1005
975
949
930
907
881
851
832
818
812
814
821
822
815
805
793
788
777
767
747
720
708
709
721
741
753
774
806
832
845
846
845
849
859
865
866
865
863
863
860
864
864
868
874
876
885
893
898
906
910
920
933
945
955
961
973
984
998
1008
1016
1020
1020
1021
1025
1028
1029
1032
1035
1036
1041
1047
1047
1048
1054
1061
1068
1067
1062
1063
1067
1069
1079
1084
1086
1088
1089
1091
1102
1111
1117
1121
1126
1129
1137
1145
1154
1166
1174
1179
1182
1192
1204
1212
1219
1222
1229
1232
1235
1236
1241
1241
1243
1240
1237
1232
1229
1230
1229
1224
1222
1217
1214
1207
1202
1194
1184
1172
1164
1159
1154
1144
1125
1105
1090
1083
1074
1064
1051
1040
1035
1028
1022
1013
1005
999
991
984
974
971
972
969
967
966
968
971
969
965
959
954
953
950
951
949
947
944
946
947
949
945
941
937
941
941
946
948
948
943
945
943
943
944
943
940
940
942
945
948
947
944
945
951
953
953
949
948
952
954
960
956
954
949
951
954
960
960
958
957
957
958
959
960
961
964
965
964
964
960
959
961
960
965
969
969
964
965
968
970
969
967
966
966
970
975
976
975
970
970
974
978
980
979
974
971
975
979
983
982
980
976
978
980
981
982
980
979
985
986
982
979
980
984
990
994
993
991
991
991
988
989
988
993
995
997
998
997
1000
1003
1006
1010
1018
1029
1047
1094
1186
1309
1418
1456
1437
1403
1378
1367
1356
1338
1318
1297
1278
1254
1232
1214
1194
1172
1151
1125
1095
1062
1021
981
943
908
874
841
803
764
737
721
713
703
694
689
685
671
663
648
635
622
608
590
583
587
603
629
659
694
732
767
793
810
823
835
849
858
869
883
891
895
898
903
913
927
939
951
968
985
996
1006
1016
1029
1048
1068
1087
1106
1123
1140
1154
1168
1181
1189
1191
1189
1193
1194
1196
1195
1200
1213
1220
1223
1217
1216
1217
1225
1236
1245
1241
1237
1230
1233
1239
1242
1245
1247
1250
1251
1253
1253
1256
1261
1261
1262
1268
1273
1275
1274
1270
1274
1280
1285
1289
1285
1283
1280
1281
1283
1275
1272
1272
1270
1268
1261
1252
1244
1245
1240
1234
1223
1215
1203
1200
1188
1180
1174
1170
1159
1146
1134
1128
1122
1114
1098
1091
1087
1086
1082
1067
1053
1045
1043
1044
1044
1038
1027
1018
1011
1010
1012
1011
1009
1002
999
1000
1001
999
993
992
995
995
991
989
986
986
986
985
986
985
983
983
984
986
985
985
981
981
982
987
988
986
980
980
984
988
988
985
986
987
991
989
983
980
983
982
981
984
990
994
992
988
983
985
989
992
992
989
987
988
988
988
986
989
989
987
985
985
986
985
986
990
989
988
984
982
981
982
982
986
991
994
989
988
984
984
985
985
987
985
984
988
991
988
987
989
988
986
981
982
987
993
991
986
984
985
987
991
991
990
993
992
990
989
989
994
992
992
993
991
993
991
997
1001
1004
1008
1021
1042
1089
1186
1313
1412
1433
1403
1362
1345
1335
1323
1309
1289
1269
1250
1233
1217
1201
1181
1160
1139
1115
1087
1060
1035
1012
989
961
936
912
891
879
880
893
906
912
905
890
880
878
871
857
830
796
773
780
801
828
857
888
911
927
929
929
927
929
926
921
916
910
903
898
894
896
900
907
912
922
929
934
936
945
953
964
975
984
995
1010
1017
1020
1021
1021
1021
1023
1027
1026
1029
1030
1035
1040
1042
1042
1043
1042
1042
1042
1046
1052
1062
1065
1067
1064
1063
1067
1073
1077
1079
1084
1086
1090
1088
1086
1092
1102
1109
1110
1108
1106
1112
1118
1120
1124
1128
1129
1129
1132
1133
1131
1130
1130
1131
1136
1133
1128
1124
1124
1122
1122
1119
1112
1111
1109
1106
1103
1096
1088
1081
1078
1075
1072
1065
1061
1054
1046
1038
1031
1029
1027
1021
1008
1002
998
999
999
997
991
988
984
977
973
972
972
971
968
966
966
968
972
966
964
961
960
959
956
956
953
954
955
954
951
952
957
955
952
948
946
950
957
954
950
948
949
954
957
958
955
953
956
961
965
961
957
957
956
957
960
963
963
965
963
967
968
966
963
963
963
966
972
968
960
956
958
962
963
959
962
965
969
967
966
961
961
961
963
963
963
964
970
970
968
967
965
965
966
961
961
960
963
967
970
967
963
961
963
965
969
972
968
964
964
966
972
973
970
972
979
981
983
983
982
994
1010
1018
1021
1013
1008
1012
1023
1029
1034
1035
1038
1044
1053
1057
1073
1120
1213
1323
1399
1414
1393
1368
1352
1342
1327
1307
1282
1267
1245
1226
1204
1182
1158
1133
1107
1082
1049
1012
967
927
891
853
817
776
744
716
697
684
685
680
666
651
635
625
619
602
577
555
546
559
596
638
679
715
741
765
780
794
805
814
819
824
829
837
844
844
842
847
863
878
892
899
907
923
939
949
964
974
982
995
1013
1027
1040
1044
1044
1043
1045
1052
1059
1063
1069
1071
1077
1081
1085
1090
1095
1101
1107
1114
1116
1122
1129
1139
1146
1148
1155
1163
1166
1170
1171
1180
1187
1195
1204
1212
1222
1225
1225
1224
1228
1235
1239
1237
1237
1241
1244
1245
1243
1238
1234
1231
1227
1225
1224
1221
1213
1207
1199
1197
1191
1179
1170
1162
1156
1149
1146
1135
1124
1112
1103
1100
1094
1082
1069
1058
1058
1052
1046
1035
1027
1020
1016
1017
1016
1008
1002
995
991
988
992
996
993
983
971
969
978
983
984
977
971
969
975
979
976
968
964
968
973
977
975
970
966
968
968
970
969
969
967
970
973
969
964
965
969
974
983
984
980
975
971
972
971
970
973
973
974
978
982
986
985
982
978
977
974
976
983
990
990
988
985
986
988
993
996
998
1003
1003
1003
1003
1011
1016
1018
1016
1012
1015
1030
1048
1055
1044
1029
1023
1025
1029
1032
1025
1026
1028
1032
1031
1027
1020
1014
1012
1009
1015
1018
1017
1005
986
980
981
982
980
975
970
959
955
957
962
968
966
959
953
954
958
961
959
958
960
963
964
963
956
951
956
965
972
979
980
987
1008
1057
1143
1253
1340
1374
1367
1343
1322
1310
1299
1286
1273
1259
1240
1221
1197
1178
1162
1145
1129
1105
1081
1062
1043
1019
986
949
910
880
855
832
800
772
748
732
729
725
718
708
695
680
660
636
615
597
580
566
569
584
606
628
646
671
703
733
760
774
780
788
800
808
817
824
833
842
847
851
853
859
870
882
894
910
929
942
944
947
957
973
982
988
996
1011
1029
1038
1042
1042
1039
1040
1042
1050
1065
1071
1069
1064
1066
1074
1081
1084
1083
1082
1086
1096
1097
1098
1098
1100
1103
1105
1113
1119
1121
1122
1124
1134
1142
1145
1140
1140
1141
1148
1158
1161
1162
1160
1158
1161
1168
1168
1166
1169
1169
1166
1159
1156
1167
1173
1170
1161
1155
1153
1148
1142
1141
1141
1139
1132
1124
1122
1120
1114
1107
1097
1095
1088
1085
1081
1077
1071
1062
1051
1043
1038
1032
1023
1014
1011
1009
1007
1002
990
981
978
975
969
966
972
974
966
961
960
962
958
951
950
952
952
947
939
932
936
944
955
957
956
953
952
951
955
961
966
970
973
977
980
981
981
980
985
994
999
996
987
979
981
988
992
992
989
988
988
986
984
982
980
978
975
973
972
970
962
957
954
947
943
934
923
915
920
929
935
933
921
911
904
904
906
907
903
899
895
896
899
905
903
899
897
895
896
899
903
900
894
890
892
894
894
889
886
887
890
895
893
886
886
888
896
899
893
888
890
893
894
893
890
887
888
888
886
888
890
889
888
885
885
887
888
887
889
887
887
888
885
885
890
893
895
890
887
883
882
888
893
894
895
894
895
900
906
912
920
940
988
1067
1176
1269
1310
1298
1269
1249
1240
1231
1219
1200
1184
1169
1156
1142
1129
1116
1105
1093
1077
1061
1042
1021
1001
980
957
930
902
876
852
827
798
771
744
724
718
714
717
711
704
688
672
653
638
619
601
585
584
597
620
649
675
702
733
753
766
769
777
784
795
802
803
807
807
807
813
814
818
820
830
840
848
853
861
869
874
881
893
905
919
931
941
947
959
970
982
988
992
990
994
994
999
1000
1002
1006
1009
1014
1017
1018
1022
1024
1026
1033
1038
1041
1043
1045
1049
1056
1057
1059
1057
1059
1065
1074
1080
1083
1089
1088
1095
1102
1106
1108
1110
1112
1115
1118
1120
1122
1124
1122
1123
1127
1130
1130
1127
1126
1127
1131
1128
1125
1122
1118
1115
1118
1118
1117
1116
1112
1113
1118
1119
1120
1119
1113
1110
1105
1104
1102
1098
1094
1089
1083
1073
1064
1051
1043
1039
1035
1032
1029
1023
1014
1012
1007
1000
991
981
971
969
963
959
948
942
936
932
929
928
926
923
916
911
906
902
899
896
895
892
895
896
893
892
891
893
894
893
894
894
890
888
889
889
891
888
888
887
889
891
886
889
884
887
890
893
895
892
891
893
895
895
898
896
893
893
895
896
897
899
898
894
892
893
893
893
892
895
895
898
897
893
890
892
893
894
895
894
892
893
898
899
900
896
897
895
901
903
902
902
900
901
904
903
903
903
903
904
908
911
909
906
901
903
905
908
909
910
909
910
911
914
913
912
911
913
915
919
918
919
916
916
915
916
918
920
920
921
923
926
928
928
929
933
936
941
943
946
959
994
1057
1154
1251
1312
1323
1304
1284
1267
1254
1237
1217
1203
1188
1175
1160
1141
1121
1104
1087
1066
1039
1008
974
937
902
861
818
775
734
701
667
638
609
586
572
563
559
555
551
537
522
509
502
493
489
480
470
476
495
527
560
595
628
665
697
721
740
755
763
775
786
798
809
813
815
820
827
834
847
857
867
882
894
906
916
926
934
941
953
968
986
1001
1011
1021
1032
1044
1051
1052
1052
1055
1058
1065
1069
1075
1077
1084
1087
1093
1102
1112
1118
1127
1136
1143
1150
1156
1163
1172
1180
1192
1202
1208
1207
1212
1214
1217
1219
1222
1225
1229
1236
1239
1243
1242
1244
1246
1246
1247
1246
1245
1242
1241
1238
1235
1235
1230
1223
1218
1212
1209
1203
1198
1190
1179
1173
1169
1166
1159
1150
1143
1135
1128
1117
1108
1097
1091
1084
1076
1064
1052
1039
1035
1024
1016
1008
1003
993
988
985
979
972
963
955
952
950
948
947
944
938
935
932
933
932
930
925
926
929
930
931
927
922
921
922
920
923
925
923
925
925
925
923
923
921
919
921
920
919
918
918
921
924
927
924
921
920
923
927
928
928
926
926
928
929
929
927
928
929
932
935
934
935
933
932
933
933
932
933
929
930
932
935
933
935
933
930
928
931
930
928
926
925
926
927
925
925
924
929
929
927
926
924
925
926
927
929
930
926
924
921
925
930
930
927
925
923
926
929
930
928
927
926
926
927
926
924
926
927
931
934
931
930
927
928
927
933
935
937
936
934
935
935
936
936
939
940
948
959
975
1007
1073
1175
1273
1324
1313
1279
1258
1246
1238
1230
1219
1205
1195
1182
1178
1168
1157
1142
1127
1110
1096
1083
1068
1045
1024
999
979
966
950
932
915
897
889
884
882
882
886
884
876
863
848
832
816
794
774
756
745
750
769
794
823
850
869
882
884
884
887
887
885
878
869
865
868
869
867
859
852
852
854
864
872
880
889
894
903
911
921
933
944
952
961
966
974
979
981
979
975
973
970
966
965
959
959
959
959
959
957
954
955
957
960
957
958
959
967
971
974
971
970
971
973
976
983
982
983
987
992
997
998
999
1000
1000
1002
1007
1008
1008
1008
1004
1008
1013
1017
1019
1018
1018
1021
1022
1027
1028
1027
1027
1030
1034
1036
1037
1033
1031
1037
1038
1037
1035
1031
1026
1021
1021
1018
1014
1006
997
994
990
984
977
972
965
965
965
963
959
953
945
945
940
937
933
931
925
925
929
930
927
918
908
905
901
900
900
900
900
906
911
912
913
913
912
914
914
914
907
900
892
888
889
892
900
908
915
919
917
915
911
910
913
928
929
927
920
917
916
917
918
919
919
916
914
914
913
916
913
914
914
918
917
919
919
918
916
918
925
931
940
939
936
936
937
936
936
934
930
929
929
928
926
925
923
925
925
925
924
925
923
925
928
929
930
930
930
928
928
928
926
924
922
925
927
926
924
925
923
925
926
927
928
930
930
936
936
936
933
931
929
936
937
940
940
937
937
943
945
947
950
955
962
977
1004
1052
1138
1241
1321
1348
1335
1315
1303
1295
1282
1268
1260
1249
1240
1227
1216
1204
1192
1179
1163
1144
1124
1107
1088
1067
1040
1015
991
968
942
920
899
887
875
876
874
866
851
831
804
779
756
734
707
691
685
706
735
763
786
802
809
810
808
808
805
804
796
792
790
787
785
780
777
776
784
796
805
812
819
829
840
849
860
872
883
898
909
922
932
944
944
951
954
956
957
958
958
961
966
966
968
970
971
978
983
984
985
985
991
996
998
1003
1006
1011
1014
1021
1027
1033
1037
1038
1044
1053
1063
1066
1072
1077
1079
1086
1089
1096
1100
1103
1106
1111
1114
1118
1121
1123
1126
1126
1128
1131
1128
1128
1122
1123
1122
1117
1115
1108
1105
1101
1098
1091
1085
1077
1070
1063
1056
1048
1039
1028
1022
1013
1010
1000
991
983
975
970
967
964
958
949
946
946
943
944
940
936
931
929
927
925
923
920
916
919
920
917
919
914
911
911
914
912
908
908
906
910
910
909
907
904
904
905
907
905
905
903
901
902
904
908
909
910
910
913
913
914
914
914
909
914
918
920
917
915
910
911
915
915
918
918
913
915
918
917
916
914
913
912
913
913
910
906
909
913
912
912
913
912
913
917
924
929
931
936
941
948
953
958
963
965
968
969
973
977
980
980
978
974
973
970
964
964
965
966
971
969
968
966
965
963
960
954
948
941
935
931
927
922
916
910
909
909
910
909
911
910
909
914
930
972
1051
1162
1258
1295
1274
1236
1212
1200
1187
1176
1158
1140
1123
1106
1095
1082
1068
1050
1024
1001
973
950
925
892
857
819
778
741
705
662
626
601
581
572
569
565
556
540
521
506
496
483
469
459
452
467
496
532
564
602
641
675
694
707
715
721
731
741
754
762
764
765
769
779
793
805
817
831
841
853
863
875
889
902
919
937
952
965
979
989
997
1005
1008
1010
1013
1015
1022
1027
1033
1036
1038
1041
