1174
1182
1186
1185
1186
1190
1193
1200
1208
1213
1219
1222
1225
1232
1236
1238
1239
1238
1238
1242
1242
1245
1241
1238
1236
1237
1239
1235
1232
1228
1225
1223
1222
1216
1209
1199
1194
1190
1183
1177
1167
1161
1154
1148
1143
1138
1125
1114
1098
1088
1079
1070
1058
1047
1034
1025
1016
1006
997
990
982
974
966
962
956
947
940
938
936
934
930
927
922
919
915
914
909
906
902
906
906
908
905
905
902
904
902
900
897
896
895
898
902
901
903
897
899
902
904
903
903
899
893
895
897
900
903
905
906
907
912
916
916
912
909
913
914
917
919
918
918
918
919
922
925
923
918
915
915
920
923
924
922
923
921
920
918
915
920
923
927
926
923
923
922
926
927
926
927
928
926
928
929
926
925
925
927
932
933
938
936
933
929
925
930
930
935
935
936
935
935
935
934
934
932
935
939
941
941
944
944
945
944
944
942
946
948
949
947
944
938
942
944
948
952
954
957
959
961
963
966
974
988
1024
1103
1226
1343
1405
1400
1367
1341
1332
1322
1305
1286
1261
1240
1223
1206
1187
1160
1129
1095
1063
1031
995
949
899
855
817
779
739
695
665
634
613
598
589
580
574
568
563
551
536
525
516
508
504
504
517
540
580
624
670
710
744
777
799
813
831
848
859
869
881
890
897
895
898
904
913
927
940
953
961
967
972
977
985
1000
1016
1028
1035
1043
1049
1061
1069
1072
1073
1076
1082
1090
1096
1099
1101
1102
1109
1113
1115
1116
1120
1122
1128
1135
1142
1149
1151
1160
1168
1178
1183
1190
1190
1195
1202
1209
1216
1225
1230
1237
1238
1246
1253
1259
1261
1264
1268
1272
1277
1279
1277
1275
1278
1278
1280
1278
1275
1271
1267
1266
1266
1261
1253
1244
1240
1235
1225
1217
1206
1196
1186
1180
1167
1156
1147
1138
1129
1122
1109
1100
1089
1080
1073
1065
1056
1045
1036
1029
1027
1022
1016
1010
1001
994
991
987
985
985
980
977
978
977
979
975
975
973
972
969
966
965
966
965
969
969
968
964
962
959
957
962
962
962
958
958
960
965
963
960
957
959
961
961
962
961
962
964
965
963
961
961
962
962
964
963
961
962
962
961
962
963
962
964
964
962
962
965
965
963
961
957
956
960
962
958
959
957
959
961
958
957
957
957
961
961
958
957
959
960
959
958
957
957
957
954
956
956
958
958
956
956
957
958
960
958
957
957
957
957
962
960
956
955
956
957
959
959
962
964
971
976
976
983
985
989
995
998
1007
1012
1016
1022
1036
1052
1071
1111
1195
1310
1400
1423
1401
1375
1359
1347
1331
1314
1293
1269
1250
1227
1203
1178
1148
1116
1078
1042
1004
969
932
893
852
812
777
746
716
690
662
643
634
624
613
593
572
555
542
527
512
494
486
499
533
573
612
648
683
709
732
748
757
768
775
783
790
796
796
797
803
812
824
840
860
870
879
885
896
911
929
940
954
966
979
994
1004
1014
1019
1020
1023
1027
1033
1037
1039
1041
1049
1052
1057
1063
1064
1068
1074
1082
1088
1093
1098
1100
1110
1115
1121
1126
1134
1138
1147
1157
1163
1166
1170
1173
1182
1191
1195
1200
1201
1206
1208
1213
1217
1214
1217
1215
1218
1219
1216
1213
1210
1204
1202
1202
1198
1192
1188
1177
1174
1169
1163
1156
1146
1135
1126
1122
1112
1102
1092
1082
1073
1063
1054
1043
1034
1024
1019
1009
1001
994
987
980
974
970
967
959
956
948
945
947
947
944
942
939
938
939
935
933
931
930
932
931
932
929
929
927
927
926
929
927
925
924
925
927
926
928
924
921
924
927
927
925
924
923
925
927
928
927
925
924
924
927
930
929
927
927
927
929
930
931
928
927
930
930
931
932
930
925
931
934
935
935
937
940
946
953
961
967
970
969
974
980
983
987
991
995
997
994
988
982
980
980
980
980
983
982
977
975
974
974
970
964
956
949
945
945
940
933
925
923
921
917
917
912
909
907
907
906
903
902
901
902
899
902
904
904
901
900
903
903
906
905
903
907
911
918
923
932
950
999
1094
1221
1334
1365
1340
1309
1292
1284
1272
1253
1234
1215
1200
1184
1169
1155
1135
1113
1095
1076
1054
1030
1003
976
948
925
899
873
844
817
791
770
753
742
730
724
720
708
686
657
630
610
590
578
566
558
563
580
604
629
654
682
703
717
727
736
745
753
760
766
774
781
784
787
788
795
809
823
833
841
848
862
873
887
901
917
932
942
955
970
982
988
993
999
1002
1008
1009
1012
1013
1016
1021
1027
1031
1034
1037
1039
1045
1050
1053
1057
1061
1064
1072
1077
1084
1087
1093
1098
1104
1111
1117
1118
1127
1133
1140
1146
1150
1151
1156
1159
1166
1171
1172
1174
1170
1172
1176
1179
1180
1178
1176
1172
1171
1169
1168
1161
1158
1152
1149
1145
1143
1134
1128
1119
1114
1109
1100
1091
1079
1073
1067
1060
1049
1039
1030
1021
1014
1007
1000
989
979
975
968
966
958
954
947
944
941
940
936
932
928
925
923
926
924
921
920
921
924
927
932
934
936
939
949
959
967
970
973
974
976
981
980
980
981
982
980
977
972
963
962
959
963
964
967
964
963
960
960
959
954
951
946
940
937
935
932
924
918
911
909
907
903
899
896
895
895
895
891
886
882
878
884
887
885
882
883
879
880
882
882
880
877
878
877
880
881
880
879
876
875
877
878
876
876
873
875
878
879
878
877
873
874
878
876
875
875
873
875
877
874
877
876
873
874
877
879
880
880
877
878
880
880
880
877
877
882
882
884
885
883
883
882
888
891
890
887
889
892
895
900
903
907
915
936
982
1076
1203
1328
1362
1339
1302
1283
1270
1256
1240
1224
1205
1192
1176
1162
1139
1120
1096
1068
1036
1006
973
939
906
867
826
788
751
716
680
643
615
597
582
573
564
550
530
507
489
476
469
460
454
461
481
510
547
583
628
663
684
701
716
731
743
759
770
782
789
796
800
807
819
836
855
867
878
889
898
913
930
944
960
974
986
1004
1015
1025
1029
1029
1030
1037
1042
1048
1052
1056
1057
1064
1069
1074
1077
1082
1085
1094
1100
1107
1112
1116
1122
1129
1136
1144
1148
1154
1160
1170
1175
1182
1186
1191
1194
1203
1212
1217
1218
1218
1222
1226
1232
1233
1235
1235
1234
1235
1240
1240
1241
1243
1243
1246
1250
1248
1247
1244
1238
1236
1233
1229
1226
1215
1201
1188
1178
1165
1153
1146
1136
1127
1121
1106
1095
1083
1072
1062
1050
1039
1026
1016
1004
990
983
975
965
957
948
942
936
931
925
921
917
916
914
908
903
903
901
902
903
902
900
897
894
895
897
898
898
896
894
894
895
894
894
897
891
896
895
894
890
888
890
894
893
895
894
890
891
894
896
900
898
899
896
897
896
898
897
895
893
898
899
897
899
896
898
900
900
898
895
895
894
895
897
897
895
893
891
896
898
900
899
896
896
898
900
899
900
900
898
902
902
904
901
900
901
901
899
902
902
898
897
897
903
906
904
905
903
901
903
906
905
904
903
905
907
909
908
907
906
907
911
911
911
909
906
909
912
916
914
915
917
919
921
921
920
920
920
922
923
928
932
933
938
945
965
1009
1095
1215
1323
1375
1365
1335
1313
1307
1291
1273
1256
1236
1216
1199
1179
1159
1141
1110
1083
1054
1019
989
954
914
875
834
794
754
719
685
652
623
608
597
591
583
572
560
540
521
509
499
489
476
467
464
479
507
538
572
609
650
687
711
725
736
744
759
771
783
791
796
796
801
808
820
834
847
860
873
885
897
907
919
935
954
973
989
1007
1018
1029
1043
1054
1068
1074
1079
1084
1094
1103
1109
1114
1120
1127
1135
1138
1137
1134
1133
1132
1138
1146
1150
1155
1155
1159
1163
1168
1168
1172
1171
1172
1173
1178
1179
1182
1179
1180
1183
1185
1186
1187
1185
1185
1191
1195
1196
1194
1191
1190
1190
1191
1189
1187
1183
1178
1176
1178
1173
1169
1161
1156
1150
1143
1136
1126
1117
1108
1102
1097
1087
1077
1067
1057
1050
1041
1029
1020
1007
998
993
985
978
970
962
954
951
944
938
932
927
920
920
916
911
909
905
905
903
901
899
896
893
891
893
892
894
891
888
887
888
891
889
888
887
885
886
887
888
885
882
883
885
885
887
886
885
885
886
893
892
889
888
890
892
893
897
895
895
894
898
898
898
897
894
893
900
902
900
899
897
898
901
901
899
897
897
897
900
899
902
899
896
897
896
901
902
901
899
898
900
899
903
902
901
897
899
901
903
902
900
900
902
905
903
904
902
900
903
901
904
905
903
903
906
908
907
908
905
904
907
907
904
909
909
907
911
911
913
911
907
910
913
911
915
912
913
912
915
915
919
920
921
921
927
930
936
940
951
977
1041
1142
1260
1344
1368
1345
1324
1307
1298
1283
1263
1245
1223
1210
1194
1178
1159
1140
1119
1099
1073
1044
1016
985
956
928
893
858
821
785
758
732
709
689
675
665
661
655
647
627
604
583
570
562
550
536
522
522
537
568
606
642
680
711
741
762
775
787
796
804
813
817
822
821
819
818
820
826
833
839
849
855
867
878
887
894
905
918
933
946
958
970
979
988
996
1001
1005
1007
1006
1009
1011
1018
1024
1026
1028
1029
1032
1039
1043
1047
1050
1052
1056
1064
1067
1072
1073
1077
1085
1090
1099
1103
1108
1114
1122
1128
1132
1136
1140
1144
1148
1154
1161
1163
1166
1166
1172
1178
1178
1178
1178
1180
1182
1186
1185
1183
1179
1176
1174
1173
1170
1164
1158
1153
1149
1143
1138
1129
1121
1110
1104
1097
1088
1077
1067
1057
1047
1042
1033
1025
1014
1004
999
994
986
979
971
963
957
953
951
949
944
938
937
936
934
930
925
923
920
924
921
919
916
913
915
914
915
910
912
908
908
910
911
910
907
908
905
908
908
908
906
905
908
909
911
910
906
907
910
911
912
915
917
915
915
918
920
919
920
919
921
924
925
924
924
921
918
920
921
921
920
919
919
923
921
922
920
919
922
921
924
919
918
917
923
922
923
922
920
921
920
922
921
921
918
917
920
923
924
922
923
921
921
924
924
925
922
922
922
926
925
924
922
923
926
927
928
926
923
923
923
927
929
929
929
928
934
936
941
941
942
946
949
957
966
971
974
979
985
987
991
995
1000
1005
1011
1013
1010
1010
1006
1010
1021
1042
1081
1158
1260
1357
1402
1401
1376
1353
1339
1329
1313
1289
1267
1244
1219
1199
1177
1155
1127
1095
1059
1027
993
960
924
886
845
806
763
725
690
651
617
590
575
563
554
544
537
533
519
504
490
478
465
453
444
444
448
460
488
523
560
596
636
671
697
721
736
749
761
772
780
788
794
797
801
807
816
827
843
857
869
878
886
898
913
927
943
959
975
988
1001
1016
1029
1037
1039
1041
1046
1050
1058
1062
1066
1069
1076
1081
1084
1086
1090
1093
1102
1108
1113
1118
1121
1127
1135
1144
1150
1155
1162
1166
1177
1185
1192
1197
1204
1211
1219
1226
1233
1239
1239
1245
1251
1258
1260
1264
1264
1264
1264
1267
1269
1266
1264
1261
1260
1259
1254
1249
1242
1237
1235
1231
1224
1215
1206
1195
1189
1185
1175
1164
1155
1141
1133
1122
1111
1100
1089
1079
1070
1062
1052
1042
1032
1021
1017
1009
1002
995
987
982
979
977
972
971
966
963
964
962
961
959
956
952
954
956
957
954
952
950
951
953
950
949
947
947
950
950
949
949
948
945
951
951
950
950
949
948
951
954
954
951
950
947
953
956
958
957
954
953
954
955
957
956
956
954
958
961
961
961
962
962
965
969
971
973
976
980
988
996
1000
1003
1003
1003
1009
1013
1024
1025
1027
1022
1016
1015
1013
1011
1008
1007
1008
1008
1007
1003
999
995
990
989
982
979
975
968
965
960
957
955
946
944
944
944
940
935
930
931
927
930
928
925
925
924
926
928
928
926
925
923
924
927
927
927
925
924
928
931
931
932
932
933
938
946
953
970
1002
1083
1210
1332
1386
1375
1340
1314
1304
1295
1277
1258
1239
1221
1208
1193
1177
1153
1131
1109
1087
1068
1042
1019
988
957
929
903
877
851
822
794
772
759
747
735
727
720
713
698
674
650
627
612
597
582
571
568
578
598
625
651
679
704
721
732
743
753
765
772
778
786
798
803
807
809
814
822
836
851
861
872
878
891
905
918
934
946
958
970
984
998
1009
1016
1021
1024
1030
1032
1032
1037
1038
1042
1048
1053
1056
1057
1057
1063
1067
1071
1075
1080
1081
1086
1092
1096
1103
1106
1110
1115
1122
1129
1132
1137
1138
1144
1151
1158
1163
1166
1173
1174
1179
1182
1186
1189
1188
1190
1193
1196
1196
1195
1194
1194
1194
1194
1192
1187
1182
1181
1178
1177
1171
1165
1159
1150
1147
1142
1135
1124
1118
1109
1104
1097
1088
1078
1072
1056
1053
1046
1040
1031
1023
1011
1006
1001
993
985
980
973
973
967
965
960
958
954
954
956
957
958
959
960
966
974
979
987
991
994
1001
1002
1007
1008
1011
1011
1013
1010
1001
996
991
990
992
994
996
993
990
988
986
987
984
977
974
968
964
958
952
947
944
938
935
934
931
927
925
924
921
920
917
913
910
910
911
914
913
911
909
911
907
910
908
907
908
906
907
909
910
905
905
903
905
907
909
907
904
902
903
905
903
905
904
902
904
904
905
905
904
903
906
906
906
905
903
901
905
907
908
907
907
907
907
910
910
907
907
907
910
914
915
914
913
917
918
918
921
923
921
922
927
932
937
939
947
973
1031
1141
1268
1366
1381
1349
1321
1309
1299
1283
1265
1242
1226
1211
1196
1177
1152
1133
1112
1088
1060
1027
996
960
926
896
860
821
786
750
718
688
665
643
626
610
602
588
570
546
531
517
508
501
493
497
514
538
569
602
639
674
700
715
735
750
764
776
789
798
813
823
830
834
840
851
866
884
899
912
920
931
941
961
975
991
1002
1013
1029
1042
1050
1056
1063
1069
1075
1080
1082
1084
1089
1092
1099
1104
1109
1112
1115
1117
1125
1132
1137
1140
1144
1146
1153
1160
1168
1174
1178
1183
1191
1199
1205
1211
1217
1223
1230
1238
1241
1244
1248
1251
1257
1260
1266
1266
1267
1268
1273
1281
1282
1285
1286
1287
1289
1294
1294
1291
1287
1281
1280
1279
1278
1269
1253
1239
1228
1223
1213
1204
1194
1183
1176
1167
1157
1141
1130
1116
1105
1091
1080
1066
1051
1039
1031
1018
1008
996
989
983
976
972
967
961
953
951
946
946
943
939
937
934
936
936
935
933
930
929
933
933
932
932
927
925
926
927
928
923
923
926
927
927
925
926
925
926
926
930
929
928
927
927
929
933
932
929
928
929
930
932
932
931
928
925
930
932
932
935
931
932
931
931
932
930
928
930
934
935
933
930
931
931
933
937
938
936
934
931
933
936
936
935
933
933
937
934
935
934
935
936
939
936
935
937
934
933
936
937
939
937
936
937
939
941
943
940
938
938
940
944
944
941
943
939
945
946
948
947
948
947
949
949
952
954
956
958
964
974
985
1016
1086
1207
1334
1403
1392
1352
1326
1312
1298
1278
1256
1235
1214
1194
1176
1152
1124
1093
1062
1029
996
965
932
892
851
810
778
748
715
683
656
638
626
620
609
599
582
562
547
535
525
510
497
496
511
537
571
606
643
681
712
734
749
760
771
784
797
810
816
818
821
830
846
861
875
888
897
907
918
932
944
958
972
987
1006
1022
1038
1050
1062
1069
1080
1091
1099
1105
1110
1120
1126
1136
1145
1150
1154
1154
1154
1156
1158
1162
1164
1169
1178
1184
1185
1189
1192
1194
1198
1199
1200
1203
1202
1204
1207
1209
1210
1209
1211
1211
1214
1216
1219
1216
1215
1215
1214
1215
1216
1211
1210
1203
1200
1199
1195
1190
1183
1176
1171
1164
1156
1146
1136
1127
1122
1114
1105
1092
1084
1070
1065
1056
1046
1033
1025
1011
1004
998
989
979
967
959
954
949
942
932
928
923
918
917
912
909
903
899
899
900
897
892
889
888
887
885
886
883
882
881
881
881
882
879
877
876
876
876
878
876
872
873
876
878
879
876
876
877
877
880
882
880
879
878
882
883
885
884
883
884
886
890
889
887
888
884
886
887
888
886
885
887
885
886
888
887
886
884
883
886
885
886
883
885
885
887
885
884
883
883
884
886
885
885
886
886
885
886
886
888
885
886
888
890
889
888
886
888
888
891
889
889
886
888
892
893
892
890
890
890
892
893
893
892
891
891
893
895
894
893
891
894
896
897
898
898
896
899
902
905
908
912
913
921
940
981
1071
1198
1325
1373
1353
1320
1299
1285
1270
1247
1229
1209
1190
1173
1150
1127
1105
1077
1049
1014
986
948
914
877
834
789
750
717
693
671
651
634
622
615
613
603
588
569
554
541
530
520
516
516
537
566
607
649
686
716
736
749
766
779
792
804
810
814
813
809
810
813
819
828
842
853
861
869
875
882
896
911
928
938
949
958
971
982
984
986
987
989
995
998
1001
1007
1009
1010
1016
1022
1027
1026
1030
1031
1041
1048
1053
1057
1062
1066
1074
1082
1087
1093
1097
1103
1111
1117
1125
1129
1134
1140
1147
1155
1159
1162
1163
1166
1170
1175
1177
1174
1174
1174
1176
1176
1175
1170
1167
1163
1160
1156
1150
1145
1138
1128
1123
1117
1108
1099
1090
1080
1074
1067
1055
1044
1031
1023
1016
1008
995
986
978
971
965
959
950
944
935
928
928
926
921
916
911
909
909
907
903
901
898
893
894
899
895
893
891
888
888
890
888
887
884
885
885
887
888
885
884
886
888
889
888
888
883
885
887
890
889
888
886
887
888
895
896
894
892
893
892
895
897
899
898
897
899
900
902
901
901
899
900
906
905
903
900
900
902
905
901
899
900
900
904
908
906
904
901
900
902
907
907
906
905
903
904
909
907
907
904
903
904
908
908
906
907
909
909
910
908
907
910
910
912
913
912
911
910
910
915
916
916
915
912
911
914
913
915
915
915
915
917
920
924
926
925
928
933
937
942
948
953
959
966
973
977
985
996
1007
1019
1034
1069
1149
1264
1370
1417
1408
1379
1360
1350
1332
1318
1297
1276
1252
1226
1201
1175
1147
1110
1077
1043
1009
976
941
903
864
823
787
753
719
690
658
627
608
597
590
583
578
573
564
556
539
525
512
501
487
478
477
486
507
540
574
611
642
674
694
711
