936
951
965
977
993
1010
1023
1026
1028
1029
1031
1041
1049
1052
1057
1059
1063
1069
1075
1081
1081
1087
1096
1100
1106
1105
1114
1121
1128
1138
1146
1148
1154
1161
1166
1174
1182
1185
1187
1195
1204
1209
1212
1218
1220
1222
1225
1226
1223
1222
1221
1219
1218
1219
1219
1215
1203
1195
1191
1188
1183
1178
1168
1158
1150
1145
1137
1129
1118
1104
1098
1090
1080
1067
1054
1041
1033
1026
1016
1009
1000
990
985
977
971
964
961
955
951
945
944
941
938
933
926
924
920
921
923
923
923
924
922
918
917
914
917
919
916
920
917
916
916
920
922
922
923
924
930
935
940
941
945
953
960
969
974
978
977
984
991
998
995
987
975
973
970
972
973
974
975
970
967
967
965
960
950
944
941
940
936
927
920
913
911
911
908
906
901
901
902
897
895
888
882
879
881
882
884
883
879
879
877
879
880
880
876
873
872
873
874
872
870
868
871
873
873
868
864
865
867
868
867
866
866
865
867
868
868
865
862
859
861
866
867
866
864
862
864
868
867
866
863
861
866
871
876
875
874
877
891
915
964
1063
1190
1317
1369
1353
1315
1288
1272
1258
1238
1213
1183
1156
1132
1111
1087
1063
1034
1003
963
918
880
851
815
772
730
691
661
637
611
588
573
563
555
549
547
541
533
521
512
508
498
489
479
473
481
493
514
535
559
586
621
648
669
682
692
703
716
725
735
740
742
746
750
764
775
790
803
811
823
838
848
860
872
885
903
917
927
937
944
954
966
974
978
982
984
988
993
998
1001
1003
1010
1017
1027
1035
1041
1043
1047
1049
1053
1060
1066
1072
1080
1088
1095
1104
1108
1113
1116
1123
1133
1142
1145
1149
1149
1152
1154
1160
1162
1162
1161
1163
1164
1163
1163
1159
1153
1152
1150
1148
1139
1130
1125
1119
1115
1111
1098
1089
1081
1071
1065
1056
1045
1031
1019
1010
1002
992
992
986
976
966
962
960
963
959
956
954
954
954
956
956
955
945
935
925
915
912
909
908
907
908
908
905
899
894
890
887
883
877
870
868
866
862
857
851
845
844
841
839
836
833
831
830
831
830
828
829
829
828
831
831
831
828
827
829
830
833
833
830
828
830
834
833
832
829
828
825
826
828
829
827
827
828
828
832
827
825
825
825
828
830
829
829
827
824
826
830
828
831
829
825
827
828
831
830
830
829
831
831
833
830
831
831
832
833
837
834
834
832
835
835
834
835
831
834
836
841
839
838
835
836
836
837
841
841
839
838
842
845
846
846
847
846
849
850
853
854
858
860
868
873
880
890
916
985
1100
1227
1346
1381
1352
1316
1292
1283
1264
1241
1216
1193
1172
1153
1131
1104
1080
1050
1023
995
961
929
897
860
824
790
755
724
697
671
651
634
622
608
599
594
596
597
593
582
570
561
552
545
535
522
518
524
539
560
583
607
633
655
676
688
699
705
713
718
728
740
743
743
743
749
761
772
783
794
807
818
832
843
853
866
879
894
909
924
934
946
956
964
971
977
981
983
987
992
996
1000
1004
1009
1015
1019
1025
1032
1033
1038
1040
1047
1055
1065
1069
1072
1075
1082
1094
1103
1111
1118
1123
1132
1144
1155
1162
1171
1179
1190
1201
1213
1220
1226
1233
1235
1240
1247
1249
1249
1242
1234
1228
1222
1218
1212
1209
1201
1201
1192
1184
1174
1163
1153
1146
1134
1118
1105
1092
1080
1065
1050
1035
1019
1007
994
985
976
966
956
945
933
924
921
918
911
905
903
900
897
894
889
885
882
880
879
878
877
877
876
876
875
872
869
867
866
869
873
870
869
866
866
868
872
871
870
867
864
867
873
872
871
868
867
868
871
872
872
872
874
875
879
878
877
874
874
877
880
877
879
880
881
882
884
885
885
882
880
882
883
883
884
885
885
886
888
889
888
889
885
889
891
893
892
890
889
892
895
894
895
896
896
898
897
895
895
893
894
895
898
897
899
899
901
904
903
903
903
902
905
906
908
908
906
905
904
907
910
910
911
911
912
914
914
914
912
910
909
914
918
916
918
917
915
919
923
922
922
925
926
927
932
933
935
938
943
953
971
1010
1086
1213
1340
1429
1434
1400
1368
1348
1338
1324
1304
1280
1254
1231
1208
1190
1168
1139
1110
1077
1041
1009
979
943
906
869
829
795
757
729
704
683
664
650
639
626
615
608
606
605
598
585
575
563
554
545
538
531
531
538
560
591
625
657
682
706
730
745
758
771
778
786
791
799
808
815
820
827
835
847
864
878
897
910
924
937
953
970
986
1005
1026
1047
1067
1085
1102
1117
1132
1144
1149
1156
1169
1179
1183
1187
1187
1186
1184
1185
1189
1192
1199
1202
1206
1206
1210
1213
1219
1223
1223
1225
1222
1226
1230
1235
1237
1238
1239
1246
1248
1250
1252
1255
1263
1270
1274
1278
1277
1276
1281
1282
1284
1286
1279
1278
1279
1277
1278
1273
1267
1259
1257
1252
1250
1239
1233
1223
1209
1203
1195
1184
1174
1164
1152
1146
1140
1126
1115
1102
1090
1083
1073
1061
1047
1035
1030
1024
1019
1009
1003
996
987
986
983
976
970
962
960
963
966
961
954
950
949
954
954
953
947
944
943
944
947
946
949
948
946
948
949
950
948
946
945
947
950
949
950
951
951
950
950
948
951
952
956
957
956
956
956
953
955
958
962
964
966
964
964
967
970
971
966
962
963
965
968
969
967
966
966
966
971
968
968
966
967
970
974
971
968
964
966
969
972
972
968
968
968
969
971
968
969
969
970
972
971
972
973
972
972
975
977
975
974
973
972
974
975
974
976
974
973
971
977
978
975
975
972
976
981
981
981
978
979
979
981
980
979
977
978
983
989
989
985
979
978
982
988
992
993
994
993
999
1005
1012
1020
1046
1113
1225
1351
1435
1460
1438
1413
1400
1391
1378
1356
1331
1310
1287
1266
1245
1222
1198
1167
1140
1112
1077
1037
1001
965
927
886
844
800
767
738
716
700
677
662
652
646
642
642
640
641
634
626
618
610
599
586
575
577
588
613
641
673
703
735
768
803
825
843
857
867
877
892
898
902
901
896
900
908
914
923
931
939
949
961
968
977
984
995
1008
1023
1035
1044
1052
1059
1072
1083
1091
1096
1101
1106
1113
1117
1119
1122
1124
1127
1133
1139
1140
1143
1146
1148
1153
1161
1166
1168
1171
1173
1181
1190
1196
1201
1202
1206
1212
1218
1225
1229
1238
1243
1252
1258
1259
1262
1263
1266
1272
1279
1280
1281
1282
1284
1286
1287
1286
1286
1284
1280
1277
1278
1275
1267
1262
1254
1253
1249
1244
1235
1223
1216
1211
1208
1199
1190
1179
1168
1159
1154
1144
1133
1120
1106
1097
1090
1083
1072
1065
1053
1046
1037
1026
1015
1007
1002
1000
997
989
979
974
972
975
976
973
967
963
959
957
956
955
952
949
946
948
951
950
950
949
948
949
945
938
937
935
940
943
944
941
936
934
934
940
941
942
942
944
946
943
940
940
940
938
937
936
941
944
945
943
941
942
941
940
939
938
934
939
942
942
941
935
930
934
938
941
937
933
929
928
935
935
933
930
930
932
935
934
929
929
927
929
934
932
927
926
924
924
926
924
923
927
927
927
927
927
927
925
925
924
928
929
930
928
925
927
928
925
921
919
921
929
935
936
931
921
917
917
922
925
927
927
930
929
932
930
928
928
927
931
937
940
946
948
951
960
974
985
1002
1029
1094
1209
1336
1427
1454
1440
1420
1410
1403
1385
1363
1338
1320
1308
1294
1271
1248
1223
1195
1167
1144
1110
1076
1039
1002
965
925
883
842
809
781
757
731
708
689
675
671
670
667
660
649
633
612
598
587
568
551
534
528
532
544
560
581
602
628
658
684
702
712
721
731
742
749
755
756
758
756
765
772
781
792
806
820
829
836
840
846
861
871
887
900
916
926
935
945
955
967
976
979
980
979
986
993
995
997
1002
1004
1007
1011
1012
1014
1016
1023
1033
1041
1046
1051
1053
1059
1065
1073
1079
1083
1088
1091
1097
1103
1110
1116
1124
1130
1134
1142
1149
1149
1152
1153
1156
1163
1170
1172
1170
1167
1170
1173
1174
1173
1170
1167
1166
1163
1160
1158
1154
1149
1149
1145
1138
1127
1116
1108
1104
1097
1091
1077
1067
1059
1054
1046
1031
1019
1009
1004
998
990
983
973
963
954
948
945
938
935
927
924
921
917
910
902
899
899
900
903
900
899
897
894
895
895
894
892
892
895
897
898
896
890
888
888
888
891
891
893
893
892
894
892
889
886
887
888
892
897
900
897
897
892
893
896
898
896
896
894
899
903
899
899
898
896
902
903
903
903
899
897
901
904
905
903
900
898
899
901
899
898
897
897
899
902
900
900
898
895
898
900
903
905
905
906
908
913
911
911
916
921
930
939
943
945
948
951
957
960
962
967
967
967
963
962
961
961
958
956
955
958
959
955
953
948
946
942
938
934
928
923
921
925
920
917
917
916
919
921
921
926
931
945
989
1078
1205
1332
1430
1418
1378
1349
1337
1325
1304
1279
1256
1239
1219
1198
1175
1149
1124
1099
1068
1033
1001
967
932
898
858
820
791
763
741
723
704
694
688
683
686
692
688
676
661
650
638
625
605
587
582
585
601
622
637
659
682
705
723
732
741
743
751
757
764
771
772
776
782
791
806
821
834
845
854
863
878
889
906
920
939
954
968
981
992
1003
1010
1013
1018
1023
1026
1029
1033
1038
1046
1048
1047
1053
1057
1062
1068
1074
1077
1083
1091
1095
1103
1115
1119
1124
1129
1135
1140
1153
1157
1163
1168
1172
1182
1187
1192
1198
1197
1199
1206
1213
1215
1216
1216
1216
1216
1219
1223
1219
1216
1209
1208
1208
1205
1201
1195
1190
1186
1184
1177
1168
1160
1151
1143
1139
1131
1121
1108
1099
1093
1084
1075
1065
1054
1046
1041
1037
1025
1016
1006
998
997
997
992
989
981
976
972
974
972
968
965
963
967
969
968
967
965
963
963
965
966
963
959
960
962
968
968
965
960
956
958
963
965
963
961
964
963
965
964
967
967
968
970
974
974
976
980
984
991
997
999
1004
1014
1018
1030
1037
1042
1044
1044
1050
1058
1061
1056
1049
1041
1038
1041
1039
1039
1035
1031
1030
1033
1034
1026
1021
1016
1010
1005
1005
1000
995
988
982
981
983
980
977
970
966
968
969
965
964
959
960
962
965
963
963
962
957
956
960
965
963
964
963
965
963
962
959
957
960
965
966
965
963
962
963
966
968
969
968
967
970
974
977
979
979
981
983
991
1002
1022
1065
1158
1285
1412
1470
1450
1411
1387
1373
1362
1344
1321
1297
1275
1258
1241
1222
1196
1169
1138
1105
1071
1039
1000
956
919
884
856
826
795
769
751
741
735
729
723
715
703
688
672
660
641
622
609
607
625
652
682
712
745
769
788
803
812
820
829
838
849
856
860
865
871
884
902
921
935
949
959
972
989
1008
1024
1042
1054
1069
1085
1100
1111
1116
1121
1124
1131
1136
1141
1143
1144
1149
1156
1164
1170
1171
1169
1173
1181
1191
1196
1200
1205
1211
1218
1224
1230
1237
1244
1250
1255
1263
1267
1272
1277
1284
1290
1296
1302
1305
1302
1306
1309
1312
1313
1311
1310
1308
1307
1309
1304
1301
1296
1292
1289
1287
1281
1273
1266
1258
1249
1245
1240
1231
1223
1214
1208
1195
1186
1175
1163
1155
1146
1139
1127
1116
1106
1098
1093
1086
1076
1068
1065
1066
1067
1063
1060
1058
1058
1062
1068
1075
1081
1083
1089
1093
1097
1102
1103
1105
1100
1093
1089
1085
1080
1078
1075
1072
1073
1075
1074
1070
1069
1065
1062
1059
1050
1046
1044
1040
1035
1034
1025
1020
1013
1008
1007
1007
1007
1004
1000
1000
999
996
996
994
991
991
994
994
996
992
991
991
994
990
985
981
980
984
986
988
986
985
981
985
983
985
985
984
982
981
980
982
983
983
980
983
982
980
980
974
971
975
980
982
978
977
977
978
980
978
980
977
977
977
979
981
979
978
976
980
982
982
979
977
975
978
981
987
986
983
982
984
986
990
991
990
989
991
992
994
995
996
998
1003
1009
1018
1035
1078
1168
1295
1413
1462
1451
1420
1397
1382
1373
1355
1335
1313
1291
1269
1248
1227
1200
1169
1135
1097
1058
1021
979
932
880
836
794
762
728
699
672
653
644
638
631
627
623
620
611
601
591
585
575
563
555
559
571
593
626
659
693
735
763
787
803
815
827
839
848
857
864
867
871
882
893
906
919
938
955
967
979
991
1003
1018
1039
1057
1072
1084
1095
1107
1117
1125
1131
1136
1141
1143
1145
1154
1157
1159
1161
1167
1174
1180
1187
1189
1191
1197
1204
1209
1213
1217
1222
1229
1235
1239
1245
1249
1252
1256
1262
1272
1278
1282
1287
1288
1293
1298
1302
1308
1309
1311
1314
1320
1323
1325
1321
1324
1332
1335
1338
1336
1337
1334
1334
1334
1334
1333
1328
1321
1314
1303
1291
1280
1271
1265
1257
1256
1248
1236
1221
1206
1195
1189
1177
1163
1149
1132
1123
1113
1105
1092
1081
1068
1055
1050
1041
1033
1023
1016
1016
1014
1008
1000
993
990
991
993
989
984
979
980
980
977
977
976
977
979
978
978
973
971
965
968
970
975
974
970
969
972
970
972
970
969
970
972
974
975
973
969
969
972
976
978
979
977
975
975
976
975
976
977
976
978
979
981
975
977
979
977
977
979
978
978
977
979
975
977
975
975
976
976
977
978
976
976
976
977
982
982
979
977
974
977
977
977
978
977
973
976
980
982
978
976
972
973
976
977
977
975
975
976
978
980
984
984
979
979
981
984
983
979
978
978
981
985
985
983
977
977
980
982
984
983
984
985
984
987
987
984
985
985
992
996
996
997
999
1009
1027
1067
1144
1255
1364
1423
1426
1402
1384
1372
1360
1344
1328
1314
1296
1277
1259
1243
1223
1202
1175
1149
1118
1090
1058
1025
983
938
898
862
829
799
763
730
705
693
688
681
679
680
673
662
649
632
622
605
587
571
561
561
573
592
620
659
697
728
754
770
780
793
806
818
827
835
836
842
848
855
868
883
898
914
928
941
956
965
976
989
1003
1018
1034
1050
1063
1078
1090
1095
1098
1100
1105
1113
1123
1132
1141
1146
1154
1164
1173
1178
1185
1190
1196
1207
1216
1219
1218
1217
1215
1218
1227
1230
1234
1236
1238
1243
1248
1252
1255
1251
1252
1255
1257
1258
1259
1258
1255
1255
1256
1253
1252
1250
1249
1245
1243
1244
1241
1237
1229
1225
1223
1221
1219
1211
1204
1200
1195
1192
1186
1178
1169
1161
1152
1146
1138
1128
1117
1108
1100
1092
1081
1071
1059
1050
1044
1039
1028
1020
1011
1002
998
991
987
983
977
972
969
968
964
959
954
954
956
955
951
949
946
944
948
947
948
945
939
935
936
939
938
938
932
932
931
933
934
937
938
939
939
939
935
934
936
938
941
942
940
942
941
945
946
946
942
940
944
945
951
953
953
949
948
949
949
951
954
954
951
949
951
951
951
951
951
952
955
959
955
949
944
940
944
947
950
951
947
946
951
951
950
952
947
950
950
949
947
947
944
947
950
951
951
950
949
949
950
951
953
951
947
947
948
950
951
952
949
952
954
955
956
954
951
952
955
956
956
952
949
952
952
957
957
955
953
953
956
955
954
952
953
957
961
964
963
964
964
970
973
987
1011
1059
1146
1259
1348
1379
1369
1349
1333
1324
1313
1299
1279
1258
1237
1218
1201
1183
1160
1131
1105
1071
1038
1008
976
939
898
851
807
764
722
688
655
630
614
604
590
583
576
573
564
554
536
521
509
496
487
479
478
486
511
555
603
652
689
719
746
768
789
807
823
839
847
855
859
858
860
864
869
882
897
916
938
952
965
976
990
1001
1012
1020
1031
1045
1057
1066
1070
1072
1074
1082
1085
1087
1090
1090
1091
1092
1096
1098
1098
1096
1098
1103
1109
1116
1120
1123
1125
1128
1132
1140
1147
1151
1150
1154
1161
1168
1173
1178
1180
1185
1193
1202
1205
1209
1213
1216
1220
1224
1225
1229
1229
1237
1240
1238
1236
1233
1230
1230
1227
1229
1228
1225
1221
1217
1216
1211
1204
1195
1189
1182
1178
1172
1163
1154
1145
1138
1128
1118
1105
1095
1080
1072
1063
1059
1048
1039
1030
1021
1014
1008
1003
994
984
979
975
973
968
963
955
955
954
953
950
949
944
941
938
939
935
936
934
937
937
939
939
940
931
926
926
930
931
933
929
928
928
929
930
930
927
927
927
933
935
934
931
929
930
931
934
933
930
931
933
933
936
937
935
936
938
939
941
938
935
935
937
940
941
942
937
934
933
934
935
933
932
932
935
936
936
936
931
930
933
931
930
928
929
931
933
934
933
931
929
929
932
931
930
927
926
927
929
928
929
929
930
927
926
929
931
929
926
925
929
929
931
932
929
929
924
926
927
928
926
928
930
931
934
931
926
927
931
936
938
933
930
931
933
937
939
942
946
951
967
996
1058
1153
1262
1343
1369
1358
1341
1328
1320
1308
1294
1278
1259
1240
1224
1207
1192
1171
1140
1103
1063
1025
987
944
896
850
804
760
723
690
661
632
609
595
584
574
565
556
547
539
532
519
506
488
471
460
449
448
455
474
505
540
575
607
638
670
694
714
731
742
748
756
762
771
776
780
786
794
807
828
847
863
873
880
890
905
915
927
943
958
970
984
999
1011
1020
1023
1027
1026
1033
1036
1041
1046
1047
1050
1054
1059
1067
1065
1067
1073
1078
1084
1088
1091
1095
1100
1106
1112
1115
1120
1125
1131
1138
1145
1149
1155
1157
1162
1168
1176
1180
1181
1182
1186
1191
1196
1199
1200
1197
1197
1196
1197
1197
1199
1195
1190
1189
1191
1189
1186
1178
1171
1169
1160
1154
1144
1136
1132
1126
1122
1109
1098
1088
1082
1073
1063
1051
1040
1027
1019
1013
1005
995
986
975
968
961
949
940
932
928
925
921
915
910
904
899
898
899
895
891
885
881
883
883
883
878
876
873
873
876
874
867
867
866
865
862
860
860
861
862
861
860
857
854
852
851
851
853
854
853
848
844
846
848
845
840
841
841
843
842
840
837
838
839
840
842
844
840
834
830
830
835
837
833
828
824
827
830
832
829
823
818
819
820
819
819
817
812
810
807
807
807
806
805
806
804
800
799
795
795
796
800
802
803
802
799
800
802
804
804
805
802
807
814
818
824
826
827
830
829
831
833
837
839
840
840
841
836
834
830
828
831
832
830
828
825
826
828
824
816
810
805
806
803
801
