1041
1058
1067
1067
1065
1067
1075
1080
1079
1082
1084
1085
1093
1095
1097
1102
1109
1115
1125
1132
1137
1140
1143
1145
1147
1154
1166
1180
1188
1192
1195
1196
1197
1202
1205
1214
1225
1232
1238
1245
1250
1253
1256
1260
1264
1268
1272
1278
1285
1290
1291
1291
1290
1292
1293
1292
1287
1281
1276
1267
1264
1262
1257
1253
1250
1244
1241
1240
1229
1217
1206
1195
1189
1187
1182
1171
1159
1146
1137
1133
1126
1117
1102
1092
1089
1082
1070
1062
1055
1048
1050
1054
1053
1046
1040
1027
1021
1018
1013
1009
1008
1010
1013
1012
1009
1007
1002
1002
1001
1005
1007
1000
998
998
1002
1002
1001
1000
1003
1005
1007
1008
1008
1006
1008
1008
1004
1002
996
993
993
993
994
997
998
994
994
995
999
999
1001
1002
1003
1001
1002
1002
1001
1001
1002
998
1000
1003
1007
1010
1012
1010
1008
1008
1009
1010
1005
1007
1005
1009
1007
1004
1001
1004
1011
1018
1020
1022
1017
1006
998
996
997
996
996
997
1000
1002
1004
1009
1016
1019
1022
1025
1024
1019
1014
1008
1013
1019
1026
1029
1035
1041
1045
1049
1047
1050
1054
1057
1069
1076
1078
1076
1071
1065
1062
1057
1061
1065
1069
1069
1068
1068
1067
1064
1058
1051
1049
1053
1053
1047
1035
1026
1024
1026
1030
1029
1025
1023
1025
1030
1032
1035
1044
1068
1116
1207
1334
1461
1565
1582
1574
1560
1549
1535
1519
1498
1482
1469
1454
1440
1422
1403
1381
1368
1349
1328
1302
1270
1238
1210
1181
1158
1135
1115
1100
1083
1066
1048
1040
1029
1025
1018
1016
1018
1011
994
970
940
904
864
826
793
774
768
768
770
781
797
822
842
850
849
852
854
860
865
864
864
864
859
855
863
872
879
889
899
913
921
922
926
931
937
950
964
976
992
1001
1015
1032
1046
1050
1055
1052
1053
1059
1066
1066
1071
1071
1071
1074
1078
1078
1079
1082
1086
1096
1103
1107
1110
1112
1115
1119
1120
1119
1119
1123
1128
1136
1144
1146
1148
1151
1157
1166
1171
1175
1177
1179
1182
1186
1194
1199
1200
1202
1202
1207
1213
1210
1208
1210
1214
1214
1215
1216
1217
1214
1208
1202
1194
1190
1187
1185
1185
1184
1185
1176
1167
1158
1155
1157
1157
1149
1136
1120
1109
1102
1100
1094
1083
1072
1066
1065
1063
1062
1056
1047
1036
1027
1021
1012
1008
1003
1002
1007
1009
1010
1009
1005
1003
1001
993
987
986
983
986
992
993
988
988
988
989
987
984
978
976
975
981
987
990
991
990
985
984
982
981
980
980
979
980
984
989
990
988
989
990
996
1003
1011
1020
1026
1031
1040
1043
1045
1045
1047
1047
1052
1058
1057
1050
1044
1044
1041
1037
1032
1029
1032
1034
1040
1047
1052
1053
1047
1037
1025
1020
1013
1009
1005
1002
1000
993
985
978
976
976
978
980
976
970
963
961
961
965
960
959
956
952
953
957
961
962
964
960
962
961
961
961
959
956
958
960
961
962
963
962
962
961
962
963
967
967
966
968
962
960
961
959
959
962
961
959
957
960
965
966
967
966
964
965
969
975
981
987
1001
1021
1060
1136
1261
1388
1485
1521
1521
1512
1501
1489
1476
1459
1443
1423
1409
1397
1380
1361
1341
1319
1294
1270
1249
1226
1203
1178
1149
1119
1097
1077
1059
1032
1000
976
962
952
951
953
947
926
894
860
833
810
788
754
722
695
693
701
713
722
734
753
776
792
798
803
812
815
821
827
831
838
841
845
853
867
876
886
891
895
902
912
923
937
956
974
987
1000
1013
1024
1037
1048
1054
1055
1056
1056
1057
1059
1064
1072
1083
1084
1082
1080
1084
1091
1095
1099
1097
1096
1095
1100
1103
1112
1119
1126
1130
1134
1132
1134
1137
1144
1150
1161
1166
1173
1179
1185
1191
1195
1193
1192
1193
1195
1199
1204
1205
1206
1200
1200
1198
1198
1196
1192
1192
1187
1188
1188
1183
1174
1166
1165
1166
1164
1158
1150
1142
1135
1130
1123
1112
1101
1098
1095
1094
1089
1078
1067
1063
1063
1071
1074
1076
1072
1068
1060
1051
1047
1042
1042
1045
1045
1041
1041
1035
1031
1029
1029
1032
1031
1030
1024
1017
1010
1011
1008
1008
999
993
983
980
977
973
973
967
960
954
949
946
942
931
930
932
937
935
937
933
931
933
935
929
923
924
925
933
933
933
935
932
934
935
936
939
942
941
937
932
926
922
918
914
912
917
923
925
926
922
920
926
928
927
923
921
920
919
922
920
922
924
925
928
932
930
924
921
924
927
928
922
920
925
928
929
931
932
926
919
910
907
917
925
931
929
922
920
923
927
926
926
925
922
926
932
935
937
933
933
931
926
926
925
923
923
927
930
929
931
932
934
937
944
945
948
949
958
967
977
1002
1058
1168
1295
1422
1490
1491
1478
1466
1459
1453
1435
1413
1388
1364
1341
1323
1295
1268
1245
1218
1194
1163
1127
1083
1040
1003
968
941
912
879
847
816
799
789
774
756
742
724
710
692
672
646
617
585
561
547
551
571
597
628
668
708
731
742
747
753
766
775
779
784
786
791
797
804
809
818
829
843
857
869
880
891
904
922
940
956
970
985
1001
1011
1019
1023
1025
1025
1024
1027
1030
1030
1036
1041
1045
1053
1060
1065
1067
1063
1064
1075
1088
1098
1103
1106
1108
1115
1124
1134
1139
1146
1156
1166
1182
1192
1200
1204
1204
1212
1225
1235
1239
1243
1240
1237
1236
1237
1236
1235
1236
1237
1237
1236
1232
1225
1217
1211
1204
1201
1192
1181
1170
1159
1151
1140
1119
1101
1082
1073
1065
1058
1044
1027
1010
999
990
982
969
958
945
941
939
938
932
924
917
911
909
905
901
891
884
881
882
888
888
885
880
880
881
883
880
871
866
858
861
866
870
868
868
866
866
866
865
859
853
854
859
859
860
861
863
862
866
868
867
867
866
865
868
867
865
863
869
873
875
877
880
879
882
872
867
859
853
858
868
873
875
870
868
867
870
873
874
876
877
880
881
880
878
878
876
872
871
871
878
886
889
890
886
882
887
885
880
872
867
869
877
882
884
887
886
885
884
887
886
884
881
882
885
888
888
886
886
887
892
899
899
899
898
898
899
905
902
898
894
895
899
904
905
905
903
906
913
919
928
934
949
978
1042
1159
1286
1413
1478
1478
1464
1452
1440
1420
1401
1374
1353
1334
1312
1290
1270
1251
1225
1197
1162
1126
1087
1051
1015
982
957
930
899
875
857
849
836
829
825
816
802
780
754
722
687
654
626
604
589
593
612
643
677
710
734
747
752
753
755
767
772
781
786
790
792
800
809
821
837
853
872
892
911
922
933
950
969
993
1012
1024
1031
1032
1030
1030
1031
1039
1045
1052
1063
1065
1066
1061
1054
1053
1057
1060
1057
1053
1052
1053
1059
1065
1067
1071
1075
1078
1081
1082
1079
1074
1071
1072
1080
1087
1094
1098
1103
1109
1118
1124
1125
1126
1128
1132
1138
1142
1143
1142
1140
1141
1146
1146
1142
1141
1139
1138
1134
1125
1117
1113
1112
1110
1107
1103
1100
1095
1090
1083
1076
1067
1057
1045
1032
1024
1021
1018
1009
1000
989
973
961
955
953
950
945
938
935
931
923
913
910
909
912
910
911
911
911
912
909
903
897
892
889
889
896
906
907
905
903
896
898
898
896
899
902
902
900
899
901
902
901
897
896
894
892
888
889
891
898
907
909
909
906
906
908
913
910
910
911
913
920
923
927
924
922
920
919
918
916
913
915
920
929
935
931
928
926
924
922
920
916
919
923
927
924
918
917
916
915
921
926
928
929
927
927
930
931
938
939
937
938
936
934
934
932
931
937
937
938
938
936
934
934
935
942
946
948
948
947
946
945
943
942
942
945
951
956
959
957
953
955
955
955
952
948
949
950
954
962
971
974
980
991
1021
1085
1200
1327
1454
1506
1507
1495
1484
1473
1459
1444
1427
1413
1404
1391
1375
1354
1330
1306
1282
1250
1220
1187
1157
1128
1103
1077
1044
1002
958
919
890
871
858
850
841
825
797
762
734
703
679
655
632
607
592
594
612
642
681
716
748
768
776
781
786
793
797
803
812
821
825
829
832
836
845
857
868
881
891
903
912
926
935
946
961
976
988
999
1008
1017
1025
1031
1037
1045
1052
1057
1061
1059
1056
1058
1065
1074
1083
1080
1072
1065
1068
1078
1091
1097
1099
1100
1105
1112
1120
1133
1138
1141
1145
1149
1158
1163
1166
1165
1165
1170
1178
1185
1193
1202
1209
1215
1220
1223
1229
1229
1230
1232
1231
1234
1233
1237
1236
1234
1230
1225
1220
1218
1221
1215
1206
1195
1184
1181
1176
1172
1165
1158
1150
1145
1136
1123
1104
1086
1077
1075
1070
1058
1047
1038
1031
1030
1027
1023
1021
1020
1020
1017
1008
992
978
973
971
974
977
978
976
973
964
961
963
968
970
970
971
971
970
968
968
965
965
963
964
963
963
960
961
967
972
974
972
966
961
963
966
966
965
966
968
970
968
973
978
974
972
970
971
972
973
973
973
977
980
978
980
982
983
986
987
984
982
977
967
962
966
974
975
975
973
973
980
982
981
979
981
983
989
992
988
978
971
965
968
972
975
979
984
982
979
977
986
995
1002
1001
993
986
983
991
999
1005
1014
1015
1016
1016
1020
1030
1041
1050
1051
1042
1037
1035
1037
1036
1038
1044
1049
1056
1060
1061
1055
1044
1033
1024
1025
1028
1029
1034
1050
1076
1125
1225
1352
1458
1504
1505
1489
1477
1467
1455
1433
1415
1399
1384
1366
1344
1323
1303
1277
1252
1223
1191
1159
1125
1095
1062
1036
1016
995
968
944
926
909
891
875
869
862
844
816
787
760
733
704
671
636
614
620
648
680
710
739
758
777
789
800
806
810
810
812
813
816
817
817
819
828
848
863
877
878
878
886
905
926
942
959
975
986
997
1005
1010
1015
1016
1024
1035
1042
1045
1042
1040
1040
1046
1053
1055
1061
1064
1066
1070
1076
1081
1083
1085
1084
1089
1095
1099
1106
1110
1111
1114
1114
1120
1125
1128
1136
1143
1153
1155
1155
1153
1151
1151
1161
1166
1172
1176
1179
1182
1185
1186
1181
1176
1177
1183
1185
1181
1181
1176
1170
1169
1169
1174
1174
1170
1159
1149
1142
1135
1132
1126
1122
1116
1111
1105
1094
1086
1079
1074
1069
1061
1053
1044
1033
1028
1026
1019
1014
1007
1000
997
996
995
990
988
982
981
982
977
974
971
969
971
972
971
969
965
964
966
969
973
973
969
969
968
967
963
960
958
959
965
966
965
961
959
959
963
965
965
960
953
955
958
960
961
961
960
958
963
969
974
979
983
989
999
1006
1007
1008
1006
1007
1004
1006
1011
1016
1025
1034
1039
1039
1036
1035
1031
1030
1025
1028
1030
1027
1025
1025
1025
1023
1019
1016
1011
1005
1000
993
984
976
968
966
969
973
973
969
964
957
952
948
944
937
937
939
944
947
946
942
938
938
942
947
947
946
950
948
949
945
937
934
933
940
947
950
950
947
949
949
951
952
952
951
956
961
962
961
963
971
988
1023
1090
1205
1332
1446
1479
1472
1461
1451
1442
1428
1411
1394
1381
1371
1359
1344
1325
1302
1281
1261
1243
1220
1199
1175
1153
1131
1109
1084
1061
1040
1024
1014
1001
993
992
989
992
986
968
934
900
858
815
763
721
697
695
702
713
729
748
771
785
788
793
801
807
815
817
819
827
827
825
820
826
837
853
870
879
888
897
906
921
935
949
964
976
986
999
1011
1017
1023
1026
1026
1027
1034
1040
1043
1043
1046
1051
1054
1058
1054
1054
1055
1058
1066
1074
1078
1078
1083
1089
1094
1102
1104
1101
1102
1109
1116
1123
1130
1133
1138
1144
1148
1155
1161
1163
1163
1160
1156
1155
1154
1156
1160
1166
1170
1170
1165
1164
1159
1159
1159
1159
1157
1156
1150
1148
1145
1144
1134
1128
1123
1121
1121
1115
1109
1104
1096
1092
1084
1078
1071
1064
1052
1039
1031
1024
1019
1015
1008
1003
1002
1001
999
994
990
988
990
993
996
998
1000
1004
1009
1011
1014
1011
1012
1016
1021
1019
1015
1005
1000
997
1001
1003
1007
1007
1008
1006
1002
1002
997
992
984
976
972
969
964
962
953
947
940
934
927
924
918
923
928
929
930
924
921
920
919
918
919
917
917
917
919
917
915
910
909
913
912
907
907
907
908
911
912
911
912
913
915
912
915
911
908
903
902
906
912
913
912
909
909
906
908
908
909
913
915
915
915
912
914
911
909
909
908
908
909
908
909
911
915
915
913
911
909
909
910
911
916
918
915
911
910
911
914
915
917
922
928
930
929
925
922
924
927
928
928
923
924
924
929
934
937
940
949
963
983
1016
1084
1199
1326
1425
1456
1449
1439
1430
1424
1416
1402
1389
1373
1351
1331
1311
1291
1270
1245
1211
1176
1140
1112
1086
1058
1023
984
947
916
882
847
817
794
776
761
747
732
717
703
683
663
640
618
592
570
546
539
547
568
597
631
676
713
735
743
752
761
776
787
794
797
801
803
809
813
816
819
830
846
864
877
891
902
912
924
939
954
963
973
984
999
1016
1029
1038
1036
1033
1032
1036
1042
1051
1056
1059
1055
1059
1062
1067
1070
1073
1076
1085
1094
1103
1112
1115
1113
1113
1113
1115
1121
1127
1133
1143
1150
1154
1157
1158
1162
1174
1180
1186
1193
1199
1205
1217
1224
1232
1236
1240
1243
1245
1248
1255
1250
1256
1259
1260
1260
1255
1248
1243
1240
1242
1245
1242
1233
1223
1210
1206
1202
1195
1186
1178
1165
1154
1140
1124
1110
1101
1090
1079
1067
1053
1040
1030
1017
1010
1003
993
988
983
976
973
971
968
959
946
937
933
935
937
937
930
926
927
930
926
920
915
914
922
926
925
921
915
914
919
926
922
915
908
901
901
905
911
912
908
904
900
900
905
911
913
912
912
911
903
901
901
903
911
915
915
915
913
916
917
916
916
914
909
912
918
922
925
924
919
917
922
926
927
925
920
914
913
912
914
917
916
918
919
924
924
926
925
922
923
924
927
928
924
917
916
917
923
927
927
922
916
914
914
912
913
917
922
925
928
927
924
929
933
932
927
923
918
917
916
920
926
927
926
920
920
920
920
919
918
921
928
934
935
935
936
934
934
939
939
937
932
930
941
954
957
955
944
939
949
974
1019
1102
1222
1349
1431
1449
1439
1427
1421
1411
1399
1386
1371
1354
1336
1318
1304
1288
1266
1236
1206
1180
1158
1138
1109
1071
1033
996
967
943
916
888
866
850
838
833
829
817
790
757
728
695
664
628
595
568
563
578
606
633
667
699
727
744
752
750
747
743
748
757
767
775
777
779
790
799
816
834
850
863
875
886
899
916
934
950
965
983
1000
1014
1025
1035
1046
1051
1052
1052
1052
1057
1062
1058
1052
1052
1056
1065
1069
1071
1077
1076
1076
1075
1077
1077
1075
1071
1070
1072
1078
1081
1079
1079
1081
1085
1091
1089
1089
1088
1086
1089
1097
1103
1103
1100
1097
1101
1105
1113
1113
1112
1108
1106
1108
1110
1109
1108
1105
1103
1102
1099
1097
1090
1087
1085
1084
1087
1084
1078
1068
1057
1051
1044
1039
1036
1026
1014
997
982
975
970
965
956
949
942
938
937
933
930
928
924
911
899
889
885
890
892
892
890
886
883
883
882
883
877
876
872
875
880
880
877
870
866
865
868
869
871
871
875
877
875
867
861
857
861
866
871
871
870
870
869
873
877
875
872
867
862
869
872
878
879
879
873
877
883
886
891
889
884
881
880
882
881
885
889
891
896
897
894
890
884
882
882
881
878
878
878
881
883
884
882
882
883
890
894
891
887
888
888
886
886
886
883
883
883
887
891
893
890
890
891
894
895
894
897
899
899
899
896
892
890
890
891
897
900
900
900
896
893
896
905
909
914
912
903
893
888
892
900
901
899
898
899
903
909
913
913
913
913
912
915
917
923
937
958
992
1062
1174
1301
1417
1454
1449
1433
1424
1415
1404
1389
1372
1354
1338
1322
1309
1293
1274
1252
1230
1201
1177
1152
1123
1089
1054
1016
984
956
930
909
891
881
870
859
848
834
812
778
744
717
692
660
630
603
591
604
634
669
702
729
751
764
764
761
764
761
761
761
761
760
759
765
771
782
788
797
805
811
824
840
857
875
896
908
917
925
931
945
956
967
973
973
972
971
969
974
977
982
986
986
987
983
988
998
1004
1012
1014
1019
1026
1028
1029
1028
1031
1035
1043
1052
1057
1058
1061
1070
1081
1090
1094
1095
1092
1095
1104
1110
1117
1122
1126
1127
1128
1130
1131
1131
1131
1129
1131
1134
1137
1137
1132
1122
1118
1121
1122
1120
1115
1109
1101
1094
1086
1080
1072
1062
1052
1041
1034
1026
1018
1012
1001
994
987
977
972
965
958
950
945
939
935
933
930
926
924
920
919
916
915
913
917
916
913
906
902
901
896
900
899
899
895
891
890
894
898
899
897
894
896
893
891
884
883
885
886
885
884
887
891
895
901
903
904
902
903
901
901
899
897
900
907
913
911
909
903
905
907
907
907
909
909
911
913
911
908
907
907
906
910
917
921
918
915
911
911
912
911
909
907
909
915
922
923
918
910
906
912
913
912
909
909
908
913
918
917
922
923
924
927
930
925
918
914
913
914
920
922
927
929
934
938
942
944
948
954
960
967
972
976
977
985
991
999
1002
1001
995
991
988
988
992
999
999
1001
1000
1004
1010
1016
1026
1044
1091
1183
1310
1419
1471
1472
1457
1448
1443
1429
1408
1387
1368
1353
1337
1317
1295
1268
1240
1212
1182
1156
1120
1086
1053
1021
986
949
911
883
856
839
820
798
778
769
760
747
721
688
662
637
608
579
551
534
538
563
600
639
666
693
721
739
750
760
769
776
775
776
776
775
776
784
797
814
828
840
853
859
866
871
883
902
920
939
950
966
985
1001
1013
1016
1014
1011
1012
1019
1027
1036
1040
1044
1048
1054
1059
1064
1068
1071
1074
1081
1088
1090
1090
1092
1100
1113
1122
1124
1128
1135
1147
1158
1168
1175
1176
1172
1173
1178
1185
1192
1197
1201
1204
1213
1212
1212
1212
1211
1211
1212
1208
1205
1200
1197
1195
1195
1194
1189
1180
1171
1161
1152
1145
1136
1128
1118
1111
1105
1100
1086
1073
1059
1047
1042
1039
1033
1025
1016
1007
1002
997
990
986
978
968
966
962
964
963
961
954
953
956
960
957
950
944
946
950
953
948
940
940
944
948
949
945
940
943
949
952
954
953
949
943
941
940
941
941
940
942
944
948
949
950
949
947
947
945
946
944
947
951
962
967
972
969
972
974
978
983
994
1001
999
1000
998
1000
1006
1014
1019
1023
1023
1023
1021
1019
1016
1010
1000
997
998
998
998
998
1000
999
993
988
986
979
978
975
967
961
957
952
953
950
949
947
943
940
941
940
933
932
928
924
930
933
935
938
934
928
925
925
926
928
929
929
936
936
937
937
939
937
