900
898
896
895
896
897
901
904
907
908
911
916
919
919
918
913
909
909
909
918
928
942
970
1019
1112
1239
1366
1444
1456
1445
1435
1428
1419
1403
1380
1367
1350
1336
1320
1305
1285
1265
1242
1221
1196
1169
1146
1120
1095
1069
1037
1003
975
945
916
888
861
837
819
801
792
783
768
748
718
690
666
649
627
599
580
571
579
597
615
635
660
689
711
722
730
743
759
770
782
786
786
787
788
793
805
818
835
846
854
862
873
889
903
914
924
939
957
970
977
984
997
1007
1015
1018
1021
1021
1024
1027
1036
1047
1052
1049
1045
1042
1049
1062
1071
1073
1073
1074
1080
1094
1103
1106
1108
1109
1118
1128
1137
1141
1146
1145
1148
1152
1156
1161
1163
1166
1169
1178
1183
1184
1181
1177
1177
1185
1189
1189
1186
1185
1188
1190
1188
1182
1177
1169
1166
1161
1156
1148
1141
1129
1122
1119
1111
1103
1093
1088
1082
1078
1069
1058
1042
1033
1024
1023
1020
1011
999
994
991
990
989
986
984
986
993
1000
1000
990
985
984
990
1000
1007
1008
1003
995
990
985
981
977
979
979
980
979
980
977
975
970
962
962
955
951
948
944
943
935
927
916
908
908
912
916
915
912
905
899
903
907
905
900
900
902
904
903
896
889
892
895
901
906
904
906
902
900
897
896
895
898
898
899
900
899
900
900
900
903
904
902
889
881
880
887
896
898
899
896
891
890
892
895
897
896
898
898
903
901
898
896
895
892
892
893
894
895
897
899
897
901
904
907
908
908
908
903
904
906
907
908
907
904
903
904
907
909
917
918
919
920
917
917
920
924
924
928
930
939
952
970
996
1057
1165
1292
1419
1463
1461
1445
1434
1427
1416
1401
1382
1363
1345
1330
1315
1298
1279
1256
1228
1201
1175
1140
1110
1075
1043
1011
984
957
931
902
877
863
852
847
843
833
817
792
766
741
711
684
660
639
626
621
629
643
660
691
725
749
758
763
765
769
777
782
784
787
789
786
785
791
801
816
832
846
857
863
869
879
890
902
921
937
953
967
981
991
1003
1002
1003
1001
1000
1003
1009
1013
1019
1022
1027
1031
1034
1032
1036
1039
1042
1042
1041
1043
1046
1050
1055
1063
1074
1081
1088
1093
1101
1108
1117
1125
1134
1141
1147
1155
1169
1176
1180
1183
1186
1192
1201
1210
1212
1205
1202
1199
1200
1196
1191
1188
1193
1194
1191
1185
1178
1170
1161
1152
1146
1136
1125
1112
1099
1090
1081
1068
1054
1037
1022
1014
1008
1001
990
980
968
957
952
948
949
946
941
933
924
918
910
907
904
903
906
905
905
906
908
905
900
902
902
899
893
881
881
882
882
882
882
885
886
890
888
885
884
877
876
882
884
886
887
884
881
881
881
881
882
883
887
888
892
890
890
890
890
894
894
891
888
889
894
899
901
902
895
889
888
891
899
901
906
905
903
904
903
899
895
886
885
896
905
905
895
889
891
898
902
903
897
896
899
900
903
902
903
904
908
912
912
914
911
910
912
916
918
919
914
909
907
911
915
919
921
916
917
915
909
907
908
915
918
925
926
931
932
928
925
928
933
932
936
941
951
971
997
1053
1163
1290
1417
1468
1460
1442
1428
1417
1406
1391
1374
1355
1336
1314
1294
1275
1252
1224
1193
1162
1133
1104
1066
1022
979
940
910
887
859
839
817
799
792
789
775
755
721
690
667
646
620
587
564
565
590
628
669
700
722
739
755
763
771
777
780
787
796
805
809
809
809
813
823
841
859
880
897
912
931
946
960
978
998
1020
1038
1051
1057
1060
1060
1061
1068
1071
1075
1077
1081
1086
1092
1099
1099
1094
1092
1093
1100
1101
1095
1086
1085
1086
1092
1093
1094
1094
1098
1104
1106
1106
1110
1112
1118
1126
1131
1135
1134
1140
1139
1142
1145
1148
1153
1154
1153
1154
1156
1163
1165
1163
1162
1159
1157
1154
1148
1139
1137
1134
1133
1128
1118
1112
1106
1105
1100
1092
1079
1064
1051
1041
1038
1031
1024
1016
1004
992
984
979
972
964
962
955
951
949
946
940
940
931
921
908
900
900
900
902
902
903
903
900
900
901
900
898
896
893
894
893
897
895
895
893
890
890
893
894
897
894
892
894
896
895
896
897
894
895
902
904
903
897
894
893
897
899
903
901
899
903
909
913
913
911
909
909
913
916
914
911
907
907
912
915
916
913
909
906
909
912
915
913
912
911
917
919
922
915
912
907
913
915
913
909
907
906
908
911
913
915
918
919
921
920
918
914
911
912
915
920
924
924
923
921
922
924
920
918
919
922
929
932
929
926
921
920
924
930
929
927
922
922
926
930
930
931
932
937
945
955
962
976
1000
1060
1176
1303
1424
1468
1466
1451
1445
1438
1431
1412
1393
1373
1362
1344
1323
1305
1283
1268
1251
1230
1200
1169
1137
1102
1070
1041
1013
977
940
904
880
862
843
827
814
797
777
754
725
699
675
644
617
594
581
594
622
655
688
714
737
753
758
763
774
783
791
790
790
790
789
792
793
793
799
810
830
845
856
861
867
874
885
901
921
936
950
958
971
983
991
994
994
1000
1004
1007
1008
1009
1011
1012
1011
1015
1017
1017
1020
1025
1031
1037
1041
1043
1040
1043
1049
1056
1062
1066
1068
1070
1077
1085
1092
1099
1106
1112
1121
1130
1136
1143
1145
1147
1151
1156
1162
1161
1155
1155
1157
1163
1169
1170
1168
1166
1168
1163
1162
1153
1148
1147
1147
1148
1144
1139
1136
1129
1121
1112
1103
1096
1085
1078
1074
1070
1061
1052
1040
1027
1017
1005
997
990
982
977
972
971
964
957
949
944
944
945
943
938
935
931
930
935
938
939
934
928
922
923
920
919
920
923
929
926
918
913
912
911
909
907
908
911
916
919
916
914
912
912
912
916
921
919
920
922
922
923
924
927
929
928
926
929
932
932
930
925
921
923
926
929
928
924
925
928
933
936
936
933
930
931
933
935
932
929
927
929
930
932
937
943
943
936
929
921
917
917
919
921
925
927
929
932
932
931
935
939
940
942
945
950
954
955
958
957
957
958
968
970
976
982
988
996
1004
1006
1004
1002
997
990
983
984
989
993
993
990
990
994
996
994
988
985
984
985
993
999
1017
1061
1157
1284
1409
1473
1480
1465
1450
1443
1430
1406
1384
1367
1356
1343
1321
1298
1269
1241
1212
1182
1151
1122
1087
1051
1019
984
952
921
892
864
839
817
791
770
750
740
730
719
688
661
637
618
603
582
560
540
532
544
572
607
640
667
694
712
726
736
743
750
755
762
773
780
781
781
782
789
799
814
829
840
846
858
871
881
897
909
919
931
949
962
976
989
998
1013
1020
1023
1022
1023
1027
1029
1034
1038
1046
1050
1055
1057
1062
1065
1067
1065
1066
1065
1074
1083
1093
1102
1105
1108
1115
1124
1130
1136
1139
1142
1150
1159
1163
1163
1162
1166
1176
1183
1189
1195
1196
1201
1201
1198
1194
1195
1198
1200
1204
1202
1200
1193
1189
1187
1187
1186
1182
1177
1167
1163
1164
1165
1161
1151
1139
1125
1118
1113
1104
1092
1082
1070
1061
1055
1047
1038
1028
1019
1014
1010
1005
999
992
980
972
965
963
959
957
955
954
951
949
946
944
940
937
934
928
924
922
924
927
925
926
924
923
921
924
929
928
930
927
921
921
922
925
927
925
925
922
921
921
919
920
920
921
922
919
917
915
918
926
929
933
935
932
930
934
935
936
939
942
948
951
958
962
967
971
972
978
983
987
994
1001
1004
1003
996
989
984
979
975
975
981
986
988
990
990
990
986
982
974
967
963
961
956
952
944
942
937
933
934
934
927
924
918
912
912
913
910
908
911
914
920
918
912
908
904
906
908
906
905
906
904
907
912
911
913
910
906
906
908
912
915
916
918
916
914
915
914
915
916
921
922
924
926
926
924
931
938
942
952
969
1003
1072
1186
1313
1423
1472
1475
1461
1452
1445
1431
1415
1396
1377
1365
1351
1338
1324
1307
1287
1268
1247
1224
1200
1173
1147
1127
1107
1085
1066
1048
1028
1005
984
969
957
949
944
948
949
946
928
899
865
833
800
766
736
707
698
698
702
707
717
735
759
779
788
790
790
795
800
804
804
807
807
810
808
810
816
828
837
851
866
875
881
891
899
910
924
936
950
962
975
986
998
1002
1003
1001
1004
1011
1018
1022
1025
1026
1024
1029
1036
1038
1043
1046
1048
1054
1062
1065
1064
1063
1061
1065
1071
1073
1078
1082
1086
1088
1096
1103
1110
1117
1119
1126
1129
1134
1134
1135
1139
1141
1146
1149
1154
1158
1163
1163
1165
1163
1163
1163
1166
1166
1166
1165
1163
1162
1159
1159
1157
1154
1150
1149
1145
1137
1135
1134
1130
1122
1115
1109
1104
1098
1092
1088
1080
1074
1068
1062
1055
1048
1039
1039
1036
1030
1021
1013
1004
1003
1006
1011
1014
1011
1005
999
1000
1004
1009
1009
1011
1013
1017
1023
1025
1028
1024
1019
1012
1009
1006
1004
999
1000
1002
1005
1006
1002
999
997
999
1001
1002
998
990
983
979
976
969
964
959
955
953
944
935
928
923
921
924
927
928
927
925
921
921
925
926
927
925
925
926
928
930
930
926
924
929
930
933
934
933
931
933
936
937
934
928
928
929
928
929
925
920
919
921
926
931
930
930
927
928
928
929
930
927
931
933
935
937
938
939
939
940
939
936
932
929
930
935
938
940
942
942
939
937
935
934
933
934
938
945
949
950
946
939
943
947
956
958
956
954
952
954
957
955
953
952
957
961
964
965
969
973
976
978
990
1006
1039
1100
1203
1330
1456
1511
1515
1501
1490
1481
1471
1457
1440
1420
1402
1389
1370
1352
1332
1309
1286
1261
1232
1200
1166
1129
1089
1055
1024
997
971
941
914
895
886
878
868
859
842
819
791
761
738
715
694
674
658
656
668
690
714
742
770
793
806
812
818
825
830
837
841
844
846
847
846
846
849
858
867
883
896
908
919
930
941
954
966
982
996
1007
1018
1032
1044
1050
1050
1049
1051
1056
1063
1065
1067
1069
1071
1080
1088
1093
1098
1101
1097
1100
1106
1110
1116
1120
1121
1125
1128
1131
1142
1149
1154
1163
1171
1175
1183
1190
1200
1212
1221
1231
1236
1240
1243
1249
1256
1259
1265
1271
1272
1275
1271
1268
1265
1264
1260
1256
1256
1253
1250
1248
1243
1240
1236
1231
1226
1218
1211
1207
1200
1192
1179
1163
1150
1134
1121
1102
1092
1077
1065
1059
1051
1045
1040
1029
1015
1008
1003
995
990
982
979
982
983
979
973
963
955
950
952
952
956
951
950
944
943
941
936
936
937
939
939
937
937
936
938
942
945
941
938
929
927
928
929
931
929
929
930
934
932
934
931
931
929
933
933
934
933
932
932
935
944
947
946
940
933
932
933
936
934
939
940
941
945
945
945
944
943
944
947
950
950
948
946
947
949
952
956
958
954
955
951
948
941
936
939
942
949
950
949
946
944
947
952
955
953
953
953
952
953
953
954
957
960
960
963
960
955
952
953
958
962
962
960
956
958
958
963
964
961
956
957
959
963
964
966
965
966
968
971
973
975
977
977
975
973
977
980
985
984
988
993
997
1010
1036
1095
1208
1335
1458
1512
1517
1502
1489
1480
1464
1446
1422
1402
1381
1365
1344
1324
1302
1278
1250
1221
1186
1149
1106
1063
1021
982
947
913
881
853
832
816
800
791
775
758
737
714
688
665
644
623
601
588
587
598
624
664
705
739
765
782
792
801
806
816
823
831
835
841
848
855
864
881
897
917
934
949
962
978
995
1015
1037
1057
1074
1084
1096
1108
1121
1128
1128
1127
1128
1127
1137
1147
1154
1156
1152
1149
1150
1150
1151
1153
1153
1151
1152
1157
1160
1163
1162
1157
1158
1164
1172
1180
1187
1188
1188
1190
1192
1197
1204
1209
1215
1221
1223
1225
1226
1228
1230
1231
1233
1235
1232
1231
1228
1227
1226
1222
1220
1215
1214
1212
1204
1193
1187
1178
1174
1169
1164
1157
1148
1139
1129
1120
1105
1092
1078
1067
1064
1056
1048
1040
1030
1016
1005
999
995
989
979
970
969
968
966
959
951
945
947
950
954
954
949
943
938
933
930
930
932
935
940
940
942
937
932
928
930
935
938
942
941
937
938
938
934
932
933
934
937
939
938
935
931
927
929
933
937
939
941
942
941
938
935
936
936
937
936
936
937
936
937
938
945
949
951
948
943
942
940
940
939
940
938
939
945
947
949
948
941
940
943
942
937
933
929
931
937
941
941
940
939
936
940
942
942
944
938
936
937
940
942
939
939
938
943
946
944
941
940
939
941
945
950
947
941
944
948
954
954
949
943
935
936
939
943
945
946
944
946
946
945
949
952
953
958
964
969
979
1002
1051
1150
1277
1404
1474
1484
1472
1460
1455
1444
1429
1412
1396
1382
1372
1357
1339
1316
1291
1267
1248
1225
1196
1163
1134
1104
1077
1049
1017
980
947
921
906
897
890
881
868
843
812
779
748
715
685
656
634
629
646
672
705
735
755
765
765
768
775
784
792
791
787
787
785
793
794
798
804
814
824
842
852
863
877
888
902
914
923
933
942
955
967
974
983
986
989
988
989
990
997
1000
1003
1003
1001
1005
1012
1016
1021
1022
1023
1027
1029
1030
1032
1036
1037
1046
1055
1058
1063
1067
1072
1082
1093
1101
1103
1100
1099
1105
1115
1118
1121
1120
1120
1124
1130
1136
1140
1140
1142
1148
1152
1151
1152
1151
1151
1152
1151
1145
1141
1137
1132
1127
1120
1111
1104
1097
1088
1079
1072
1063
1058
1051
1047
1039
1030
1022
1011
1002
992
986
981
973
970
960
954
953
951
949
947
943
946
948
946
937
930
921
918
922
929
927
922
916
913
910
911
914
915
914
914
915
917
914
909
906
903
905
907
907
906
907
906
908
907
909
910
914
918
918
920
920
918
919
921
923
921
917
911
907
905
912
915
918
923
921
918
918
920
920
920
916
915
915
920
925
924
919
915
914
912
914
914
917
920
921
920
919
916
911
909
912
921
923
922
918
913
913
915
918
919
923
926
930
931
930
925
924
925
933
941
945
948
953
955
957
957
958
964
971
980
987
988
986
980
974
969
968
976
979
980
978
979
980
984
985
979
976
971
973
972
969
966
969
975
1001
1055
1153
1279
1387
1439
1449
1440
1427
1414
1400
1382
1363
1348
1333
1312
1294
1277
1260
1242
1216
1183
1155
1127
1103
1077
1050
1017
984
957
932
907
890
874
859
851
845
837
817
781
747
717
694
673
647
621
598
594
615
650
680
703
723
740
750
757
759
762
767
765
767
768
763
761
759
766
777
792
803
813
822
834
845
861
870
883
894
906
923
938
947
951
953
957
964
968
972
981
989
996
1003
1004
1003
1000
995
997
1000
1005
1010
1015
1018
1024
1033
1044
1050
1051
1053
1055
1063
1072
1079
1085
1089
1094
1099
1107
1114
1118
1120
1119
1126
1128
1130
1130
1134
1135
1142
1144
1144
1143
1136
1131
1131
1129
1125
1119
1118
1114
1117
1112
1107
1100
1089
1083
1083
1083
1078
1068
1053
1039
1030
1023
1018
1017
1009
996
990
982
975
965
952
940
934
933
934
933
927
919
916
912
907
907
907
907
910
910
906
904
900
900
899
904
903
905
906
906
907
908
909
909
907
906
903
904
898
891
884
885
888
895
895
896
895
894
895
896
895
898
900
902
909
914
919
924
927
930
939
952
958
960
955
955
963
971
980
978
971
963
959
959
956
959
959
962
963
965
963
960
955
949
947
944
940
935
928
922
917
911
907
903
899
895
892
895
898
893
890
890
895
893
887
881
873
873
878
880
885
885
882
882
887
890
891
889
890
888
888
887
883
877
878
882
884
892
896
899
897
898
893
889
881
877
879
884
897
909
923
938
969
1037
1154
1281
1389
1434
1431
1417
1406
1398
1385
1367
1347
1327
1311
1294
1277
1260
1241
1220
1194
1167
1138
1113
1085
1063
1039
1021
1003
982
955
926
908
899
892
880
873
864
845
816
778
742
717
691
665
646
634
639
650
667
684
710
730
741
748
752
760
769
778
780
779
774
772
767
769
775
785
798
811
824
835
843
853
864
877
892
902
916
930
945
961
973
977
977
978
972
976
981
987
991
992
993
997
1007
1011
1013
1015
1015
1017
1021
1026
1030
1034
1039
1044
1050
1058
1065
1068
1072
1081
1089
1095
1094
1092
1098
1101
1107
1114
1117
1121
1125
1126
1130
1130
1132
1133
1132
1131
1132
1130
1132
1129
1127
1126
1127
1124
1118
1115
1112
1112
1106
1099
1087
1081
1073
1067
1058
1051
1044
1035
1029
1024
1016
1011
1004
995
990
988
983
973
969
962
959
962
963
969
974
980
984
985
984
983
979
977
971
964
960
952
949
949
954
959
960
952
942
939
941
943
939
934
930
920
916
916
914
910
908
903
900
891
883
877
874
876
877
878
875
872
866
863
864
866
870
874
876
871
865
864
864
865
866
867
867
869
871
870
870
870
868
870
870
867
868
865
867
873
876
879
872
870
869
870
869
867
865
866
868
869
869
869
868
865
861
861
863
863
865
868
869
873
875
873
873
873
880
878
876
872
871
871
875
879
877
876
877
877
880
880
883
879
879
877
876
883
887
891
891
890
890
891
893
892
895
903
911
925
942
967
1019
1126
1253
1380
1431
1429
1413
1403
1391
1381
1364
1343
1324
1308
1290
1270
1249
1224
1193
1160
1130
1091
1052
1013
970
936
900
869
837
803
778
763
753
747
739
719
692
656
634
618
607
589
571
555
547
552
575
598
629
660
690
714
727
734
744
753
755
761
762
767
768
768
771
774
785
798
811
820
829
843
858
869
880
889
899
911
922
939
955
966
976
980
984
984
985
992
995
1002
1009
1007
1005
1008
1008
1014
1017
1021
1025
1028
1032
1035
1038
1043
1046
1049
1051
1058
1065
1071
1082
1089
1094
1099
1104
1107
1114
1121
1133
1145
1152
1160
1163
1166
1171
1174
1178
1179
1178
1175
1173
1174
1175
1174
1171
1172
1169
1169
1166
1163
1158
1151
1144
1134
1126
1117
1110
1103
1096
1083
1069
1050
1034
1025
1020
1011
1001
992
983
971
961
951
941
932
922
914
908
909
905
901
896
891
887
886
881
873
867
866
867
873
873
873
870
866
860
862
864
865
863
858
856
853
853
854
853
852
851
853
856
855
850
846
846
846
849
851
851
848
847
852
854
857
858
856
853
854
857
858
856
851
845
850
853
858
859
858
859
862
865
867
864
863
862
