1279
1253
1228
1212
1198
1181
1157
1135
1109
1088
1068
1039
1008
977
938
902
864
827
796
765
737
711
699
695
693
692
691
677
666
654
650
644
627
603
583
579
584
604
639
668
702
727
746
762
773
778
785
791
794
798
801
804
806
811
818
827
836
847
858
862
868
878
889
905
922
933
943
953
964
977
990
999
1003
1006
1010
1011
1018
1022
1026
1031
1032
1032
1034
1040
1047
1053
1059
1060
1067
1072
1074
1078
1081
1087
1097
1108
1114
1117
1119
1125
1132
1138
1144
1149
1151
1153
1156
1162
1170
1174
1178
1180
1182
1179
1175
1176
1178
1184
1189
1184
1177
1173
1171
1165
1162
1156
1154
1154
1145
1142
1139
1134
1126
1118
1107
1098
1091
1087
1081
1069
1060
1050
1036
1026
1024
1023
1015
1001
991
986
979
976
977
973
969
961
955
948
944
944
948
948
945
940
936
929
929
932
937
936
933
929
931
935
931
933
933
932
929
930
931
929
930
927
930
936
933
929
926
927
928
931
933
936
936
930
926
929
931
930
930
930
934
934
932
932
932
940
945
946
947
945
943
940
940
945
953
958
962
963
971
975
978
978
978
978
985
987
992
998
1002
996
991
989
996
999
998
994
994
991
988
985
981
978
978
975
966
954
951
952
948
946
935
931
925
922
923
930
933
924
917
914
920
920
920
917
917
915
918
919
920
919
918
916
918
921
926
928
929
931
934
935
937
943
963
1007
1097
1224
1351
1398
1373
1330
1308
1301
1288
1267
1244
1223
1208
1196
1187
1173
1151
1127
1104
1085
1069
1056
1039
1013
986
961
941
919
888
851
824
807
799
799
803
805
800
790
771
748
728
710
690
671
666
670
685
700
716
741
766
782
792
797
805
814
822
824
825
827
837
845
845
842
845
855
866
875
878
882
892
901
919
934
945
959
966
974
983
994
1004
1016
1020
1019
1018
1015
1014
1015
1021
1027
1036
1040
1043
1046
1050
1050
1052
1056
1058
1068
1080
1086
1090
1094
1094
1098
1104
1110
1113
1116
1119
1124
1132
1133
1140
1144
1150
1151
1156
1158
1161
1164
1164
1160
1159
1161
1163
1164
1161
1156
1161
1165
1164
1156
1148
1145
1141
1134
1124
1118
1114
1111
1106
1095
1089
1080
1074
1066
1058
1050
1052
1044
1033
1022
1017
1012
1007
1002
989
984
982
980
976
970
965
960
954
949
950
947
945
938
938
943
947
948
944
940
937
936
939
943
943
941
941
947
960
974
979
980
976
977
979
984
983
982
988
992
996
997
993
995
993
990
989
984
983
984
984
985
990
995
991
982
972
967
970
967
954
941
938
938
934
931
928
924
921
918
918
921
919
913
907
905
906
911
914
915
913
909
909
914
915
914
912
909
907
909
912
913
906
901
906
911
911
910
906
906
905
909
910
909
908
911
906
906
908
907
910
907
907
911
909
908
907
911
910
911
910
912
910
909
910
912
915
920
917
913
912
916
920
922
924
930
936
941
945
964
1002
1074
1190
1316
1386
1379
1337
1302
1285
1274
1253
1236
1212
1193
1175
1156
1136
1110
1086
1065
1043
1022
990
953
914
864
819
785
752
716
683
653
638
630
626
620
611
603
591
579
564
557
547
541
537
547
567
592
614
641
678
713
740
753
760
769
786
796
806
815
828
842
854
858
860
864
871
881
891
900
911
928
942
949
963
974
986
996
1004
1013
1029
1046
1054
1056
1057
1061
1072
1079
1079
1080
1081
1084
1089
1093
1098
1101
1106
1110
1120
1130
1136
1136
1136
1136
1144
1154
1165
1174
1178
1181
1185
1189
1192
1195
1202
1206
1214
1219
1222
1224
1233
1242
1242
1240
1236
1237
1238
1244
1248
1247
1245
1236
1229
1223
1228
1228
1219
1205
1193
1188
1189
1191
1186
1183
1176
1168
1165
1159
1156
1152
1146
1140
1135
1130
1122
1111
1105
1103
1102
1094
1087
1074
1065
1056
1050
1044
1040
1039
1034
1028
1023
1018
1017
1009
1007
1000
997
989
976
969
964
963
961
954
946
938
936
932
931
927
925
926
929
925
918
911
911
910
909
914
914
914
910
907
910
909
911
913
913
911
909
904
906
907
910
908
902
902
907
912
917
917
917
913
908
907
910
911
907
903
906
911
917
917
913
906
899
900
908
915
918
917
912
910
909
910
912
910
915
918
914
911
912
916
914
916
915
915
912
910
912
912
916
920
922
923
923
923
923
926
926
925
920
923
923
928
929
931
933
934
929
926
925
927
932
935
934
935
936
938
939
943
942
942
942
939
942
939
935
936
941
944
949
949
948
945
944
949
958
964
965
971
976
995
1033
1101
1214
1332
1399
1403
1373
1345
1328
1316
1304
1283
1261
1242
1220
1203
1182
1156
1130
1106
1082
1057
1031
999
967
931
895
855
813
777
747
719
686
656
630
609
601
597
593
589
586
577
568
555
544
533
527
516
512
515
520
535
554
584
620
658
684
705
728
747
764
780
792
798
807
820
839
849
853
853
862
876
893
905
916
927
937
948
963
975
988
1000
1006
1018
1027
1042
1054
1068
1077
1084
1090
1094
1102
1104
1104
1099
1100
1106
1113
1119
1122
1127
1132
1138
1143
1149
1155
1159
1170
1181
1192
1198
1201
1207
1213
1224
1236
1247
1255
1259
1262
1273
1290
1299
1307
1301
1297
1299
1299
1303
1313
1315
1321
1317
1315
1315
1316
1316
1313
1308
1301
1294
1289
1283
1278
1271
1264
1254
1245
1242
1233
1221
1206
1192
1179
1176
1171
1164
1149
1134
1118
1104
1095
1086
1076
1068
1062
1054
1046
1042
1031
1019
1009
1003
996
990
982
974
968
963
961
962
959
954
951
944
941
939
936
935
927
926
928
933
934
925
923
921
924
925
924
920
918
919
924
926
921
919
917
917
919
922
926
925
925
921
918
917
919
920
922
923
926
925
921
915
909
912
921
928
927
923
921
918
922
924
924
919
922
923
926
928
927
925
925
919
919
924
926
927
927
925
929
929
926
918
918
925
933
934
928
926
929
928
928
928
925
923
924
923
930
934
931
926
924
927
930
935
932
927
924
926
928
928
927
931
929
927
925
928
933
935
939
937
934
928
927
928
935
939
941
939
935
936
939
946
948
946
940
931
928
929
932
937
936
940
944
951
952
947
945
949
954
955
962
967
977
1001
1061
1178
1305
1387
1386
1349
1316
1300
1286
1272
1249
1227
1208
1191
1174
1154
1131
1110
1093
1081
1060
1032
994
963
928
889
853
819
784
754
726
702
689
683
677
675
673
666
652
638
626
616
602
583
568
566
568
585
614
650
688
719
741
759
771
779
789
801
811
824
836
847
853
861
866
878
887
897
906
917
930
946
961
972
985
1001
1014
1030
1041
1051
1062
1071
1081
1086
1086
1084
1091
1101
1103
1102
1101
1102
1102
1101
1099
1097
1098
1094
1091
1088
1087
1087
1090
1099
1110
1115
1107
1104
1099
1101
1111
1120
1126
1128
1127
1127
1134
1144
1149
1154
1151
1148
1149
1151
1157
1155
1157
1156
1157
1160
1159
1159
1152
1137
1137
1139
1142
1143
1138
1134
1132
1127
1120
1113
1108
1102
1096
1089
1078
1073
1069
1063
1057
1050
1039
1035
1025
1010
1001
1004
999
994
983
973
967
968
963
958
951
946
940
940
938
937
935
931
935
936
934
932
926
918
915
920
924
929
924
917
914
917
918
921
918
915
917
918
914
911
911
910
914
921
921
915
912
912
913
915
913
910
910
914
918
922
919
911
907
910
916
920
919
917
916
913
916
918
921
926
928
923
919
922
921
924
922
917
918
924
929
930
928
922
920
923
924
923
922
922
919
925
931
933
933
930
928
927
921
923
925
926
928
928
929
931
931
928
930
926
924
926
930
934
936
932
931
929
929
927
928
930
934
931
929
925
927
924
930
937
944
945
944
938
936
935
933
931
937
943
951
947
942
939
941
944
950
952
951
949
952
960
972
992
1037
1128
1249
1356
1396
1374
1333
1307
1296
1286
1266
1244
1223
1208
1189
1173
1159
1146
1131
1114
1099
1080
1052
1026
1003
975
948
920
891
863
836
808
790
777
772
771
773
765
753
742
722
705
683
657
641
638
645
666
691
720
749
778
802
808
811
809
815
830
835
834
831
839
843
843
844
842
844
857
869
881
894
902
910
915
925
936
948
957
970
988
997
1004
1006
1013
1007
1006
1009
1022
1027
1022
1020
1019
1027
1032
1038
1041
1044
1047
1047
1052
1054
1059
1063
1065
1075
1083
1090
1094
1098
1103
1104
1106
1106
1108
1119
1130
1140
1146
1149
1152
1153
1155
1160
1165
1166
1168
1169
1167
1173
1177
1179
1178
1170
1163
1159
1158
1154
1148
1138
1129
1124
1123
1117
1110
1097
1090
1078
1071
1063
1058
1055
1045
1036
1026
1017
1011
999
990
987
994
994
986
971
961
962
962
962
958
955
955
955
953
951
948
943
943
945
943
939
935
932
936
940
941
936
931
932
934
935
934
935
939
942
939
936
936
937
935
933
932
935
942
941
942
939
938
939
946
948
944
945
945
946
948
950
950
952
950
950
952
950
949
946
947
949
952
952
953
950
948
947
949
945
948
950
953
950
949
951
954
952
949
952
953
951
949
947
948
951
955
955
954
945
949
950
955
955
953
952
951
951
953
953
956
953
954
953
955
954
959
963
963
961
964
970
975
976
979
987
998
1002
1003
1002
1003
1006
1013
1023
1033
1031
1027
1021
1022
1025
1028
1029
1031
1038
1049
1060
1081
1133
1239
1359
1424
1416
1378
1348
1334
1323
1308
1278
1247
1221
1197
1175
1154
1126
1103
1076
1048
1013
975
929
883
840
793
745
709
682
662
639
613
600
598
597
592
578
563
556
556
552
542
526
514
523
544
578
613
651
693
726
751
772
781
790
801
814
830
840
843
850
864
878
888
897
903
916
930
946
957
968
980
998
1012
1028
1043
1057
1066
1074
1082
1086
1090
1091
1092
1097
1111
1131
1143
1143
1138
1138
1145
1158
1170
1174
1180
1183
1187
1195
1205
1212
1220
1231
1243
1250
1260
1266
1270
1268
1275
1281
1294
1298
1298
1299
1302
1313
1317
1317
1315
1308
1306
1307
1310
1306
1303
1295
1289
1287
1287
1280
1267
1253
1245
1241
1239
1237
1224
1208
1194
1189
1182
1168
1150
1136
1131
1127
1114
1106
1100
1090
1079
1070
1062
1055
1049
1046
1039
1032
1021
1020
1021
1016
1011
1011
1015
1013
1007
998
996
997
997
994
993
998
1002
1000
994
995
995
993
993
999
1004
1003
997
986
986
991
995
994
991
987
987
990
992
994
995
988
988
988
993
1000
999
991
987
992
994
992
993
989
994
996
999
1000
996
987
988
990
993
997
1000
996
998
998
1007
1012
1016
1017
1020
1022
1023
1024
1029
1036
1042
1045
1046
1050
1045
1037
1037
1038
1043
1046
1041
1036
1034
1032
1035
1038
1036
1028
1018
1013
1015
1020
1019
1007
993
989
990
991
988
985
976
974
975
974
968
961
955
959
963
966
964
960
957
960
963
962
956
956
959
961
962
967
968
967
966
970
975
981
983
994
1025
1091
1204
1328
1400
1400
1363
1334
1317
1307
1289
1268
1251
1238
1223
1206
1185
1166
1153
1138
1118
1102
1083
1056
1027
995
963
931
896
862
830
802
785
768
756
748
747
745
747
731
710
688
673
665
652
634
626
637
659
679
702
728
754
777
792
801
808
812
817
821
829
846
858
864
860
855
862
881
892
901
907
917
931
942
955
967
977
987
999
1013
1026
1034
1040
1041
1039
1040
1045
1054
1062
1064
1066
1063
1070
1077
1079
1080
1082
1088
1090
1093
1091
1096
1106
1111
1115
1115
1117
1125
1131
1135
1138
1138
1141
1145
1148
1156
1160
1161
1161
1156
1155
1160
1166
1167
1168
1163
1159
1157
1158
1155
1155
1149
1144
1141
1138
1140
1133
1120
1114
1108
1106
1103
1097
1088
1080
1079
1077
1068
1057
1043
1037
1035
1028
1021
1015
1009
1002
998
995
993
984
977
975
973
973
967
963
957
956
958
960
961
953
948
946
950
953
955
954
955
960
963
965
970
974
977
982
986
991
993
993
990
992
998
1005
1009
1007
998
993
992
991
989
991
995
1002
1006
1001
998
990
989
988
987
983
977
970
962
959
956
950
945
939
931
931
929
932
931
928
922
919
918
914
909
912
916
921
916
915
913
912
910
910
912
911
914
913
912
909
909
909
908
909
912
913
910
912
908
907
908
908
911
920
918
912
907
908
910
913
911
910
910
909
908
911
914
915
914
912
913
914
918
922
919
916
918
920
921
920
919
923
931
936
936
941
946
970
1014
1092
1211
1321
1367
1354
1322
1295
1283
1271
1254
1240
1226
1213
1196
1181
1163
1148
1133
1113
1095
1077
1055
1033
1013
991
969
947
924
901
876
847
819
800
793
797
806
811
802
785
764
745
734
726
712
692
671
668
684
706
729
752
778
796
806
812
813
819
825
832
836
841
844
848
844
842
843
850
861
869
872
875
882
892
903
914
922
931
942
954
962
970
978
989
999
1003
1003
1004
1005
1008
1017
1020
1023
1023
1023
1024
1029
1029
1034
1044
1049
1054
1050
1050
1052
1059
1064
1070
1073
1075
1080
1084
1091
1094
1100
1107
1110
1109
1111
1118
1121
1124
1127
1129
1134
1138
1138
1135
1138
1137
1138
1139
1138
1136
1137
1135
1130
1129
1125
1120
1117
1114
1115
1116
1114
1112
1109
1109
1104
1101
1099
1100
1098
1091
1086
1081
1083
1082
1074
1064
1053
1044
1039
1032
1030
1024
1019
1017
1014
1012
1006
1001
992
986
982
975
969
965
957
947
940
940
942
938
933
926
922
921
920
917
911
904
905
906
907
901
897
895
899
898
899
898
893
895
896
897
897
897
899
900
899
898
898
896
894
896
900
906
908
901
895
896
901
904
901
896
895
899
902
902
896
898
896
896
901
899
901
898
895
894
896
896
899
900
899
901
899
899
900
899
894
895
900
901
900
899
894
898
902
906
905
903
901
904
906
909
904
903
901
905
909
911
909
906
902
903
907
910
910
908
907
910
911
910
903
905
904
908
911
914
915
917
917
916
915
913
912
912
911
916
927
931
932
929
929
935
953
984
1041
1139
1255
1341
1358
1328
1298
1281
1269
1257
1237
1218
1199
1178
1158
1138
1119
1106
1090
1070
1049
1021
993
960
921
882
839
800
768
735
696
661
632
618
612
606
597
590
578
569
554
547
544
542
532
520
511
516
530
552
576
605
644
679
705
719
728
734
743
755
763
774
786
796
802
801
803
805
809
823
839
851
859
865
874
883
898
912
921
929
935
946
958
975
986
989
988
984
989
994
996
999
1000
1006
1008
1015
1020
1022
1025
1028
1033
1039
1045
1047
1051
1064
1075
1088
1097
1099
1104
1117
1127
1131
1135
1139
1149
1157
1170
1179
1186
1189
1186
1182
1185
1190
1193
1196
1198
1198
1197
1194
1193
1191
1183
1175
1169
1163
1154
1144
1138
1127
1118
1106
1092
1082
1074
1064
1054
1039
1023
1011
999
985
974
959
948
939
931
924
912
903
897
889
878
869
862
856
856
851
842
834
827
823
819
812
809
808
806
804
800
793
786
783
784
785
786
777
775
776
777
780
779
780
774
771
767
767
768
770
764
762
761
761
758
754
754
756
758
755
755
755
755
760
758
757
754
751
747
748
753
759
758
754
748
747
752
757
764
759
752
747
746
746
750
752
752
752
753
752
752
751
750
748
744
744
743
743
738
739
747
749
747
745
738
738
743
750
749
745
739
737
742
743
740
740
740
740
743
741
740
741
740
741
743
744
745
742
737
736
738
741
743
743
742
748
746
746
740
736
739
743
746
746
742
738
743
749
751
749
743
739
744
748
755
760
763
760
759
769
782
804
849
934
1061
1188
1286
1269
1210
1163
1132
1110
1088
1066
1046
1021
990
958
929
905
886
865
836
811
784
754
719
694
668
643
620
599
578
563
543
534
527
526
526
525
517
513
509
503
498
491
481
476
477
480
485
492
503
518
533
553
572
590
602
610
619
631
643
650
657
662
667
674
684
697
711
724
733
739
747
755
765
780
794
810
820
832
837
843
851
862
869
873
875
877
883
890
888
883
880
884
895
903
899
891
883
888
891
892
890
888
889
891
896
904
909
912
907
908
915
921
927
931
935
940
945
950
950
952
953
957
961
968
971
973
969
967
967
971
972
969
966
963
958
955
956
954
949
943
935
930
926
924
916
913
906
900
894
883
874
868
861
855
848
843
835
830
824
819
813
804
798
795
794
790
786
781
777
772
766
762
762
761
758
757
756
755
754
755
751
750
749
751
749
746
743
743
749
754
753
749
743
742
743
747
748
748
750
752
754
753
750
749
745
747
748
749
750
746
744
748
755
757
756
753
752
755
756
757
757
758
755
756
760
761
762
758
756
757
766
771
769
765
761
761
766
770
772
767
765
765
768
768
769
771
773
775
775
773
770
767
769
775
777
777
774
771
771
775
777
777
781
782
781
779
781
785
785
782
780
784
787
786
786
788
786
786
788
788
785
786
788
789
791
792
791
789
789
792
794
795
793
797
799
802
804
803
806
805
803
803
806
809
813
819
821
822
830
848
879
939
1054
1181
1308
1351
1301
1237
1197
1179
1169
1149
1127
1104
1080
1056
1040
1026
1011
996
980
961
944
925
905
886
866
853
838
824
807
790
769
752
744
741
739
738
734
728
723
712
699
690
676
660
648
645
650
665
680
696
721
739
750
748
748
753
755
753
756
757
758
760
761
763
762
762
764
770
781
789
797
802
803
812
820
827
834
841
849
859
870
876
878
880
878
880
885
890
892
893
893
899
903
903
901
902
904
907
913
916
920
920
924
927
930
933
939
943
945
949
952
959
965
972
977
981
986
995
1000
1002
1000
1004
1009
1015
1021
1022
1027
1033
1038
1039
1039
1036
1038
1038
1043
1045
1045
1042
1040
1039
1039
1033
1027
1024
1024
1025
1021
1011
1005
999
992
990
985
982
979
972
963
954
952
949
950
945
937
929
927
926
923
918
911
906
909
908
904
901
897
898
897
897
896
893
894
892
892
890
888
891
895
898
896
889
889
890
890
892
892
893
893
891
892
893
893
895
892
892
891
889
893
897
899
897
896
898
902
905
903
898
896
897
901
907
914
912
913
910
910
913
916
916
911
910
911
913
915
917
917
918
918
918
