866
868
865
853
850
852
864
868
869
867
868
869
869
871
867
862
862
866
871
873
871
868
866
869
872
877
875
873
869
873
876
877
872
864
860
864
867
870
873
871
872
873
878
878
879
883
880
883
885
883
886
883
885
887
888
891
887
886
887
888
891
892
891
890
890
889
895
897
901
898
896
894
901
912
923
941
979
1055
1175
1297
1384
1419
1415
1404
1395
1383
1372
1354
1335
1321
1310
1297
1279
1257
1234
1210
1189
1164
1141
1113
1084
1049
1021
988
955
927
900
874
846
827
808
793
783
780
777
767
745
716
685
658
636
615
592
566
550
554
580
611
640
663
679
695
711
723
730
738
739
740
751
761
772
777
778
779
785
798
812
828
842
856
870
885
897
911
927
944
966
980
991
998
1002
1010
1018
1024
1027
1027
1031
1037
1044
1047
1044
1036
1031
1029
1029
1032
1030
1028
1028
1027
1030
1033
1033
1032
1029
1031
1037
1042
1049
1053
1051
1049
1051
1058
1061
1065
1066
1073
1078
1083
1083
1086
1089
1091
1097
1102
1104
1102
1102
1103
1104
1106
1102
1103
1102
1102
1104
1102
1099
1092
1087
1083
1080
1076
1072
1067
1058
1056
1055
1057
1049
1043
1032
1025
1019
1013
1004
995
985
975
967
958
948
940
925
915
910
909
908
904
901
896
891
888
883
880
880
876
874
875
871
869
866
864
863
862
860
859
854
853
853
854
853
856
854
855
855
856
854
850
847
844
846
849
851
854
850
851
850
848
848
848
847
848
854
857
855
858
854
854
857
860
864
869
868
864
862
863
862
865
865
864
866
868
869
867
866
867
869
871
868
867
863
861
863
866
867
865
864
863
869
870
872
870
870
870
869
869
868
866
867
868
868
871
869
866
869
871
874
876
871
867
867
867
870
872
871
871
872
872
875
876
877
877
873
874
877
886
886
882
875
872
872
874
877
877
877
876
877
883
886
889
885
880
878
877
878
881
886
890
899
913
933
973
1052
1179
1306
1400
1424
1418
1405
1397
1391
1380
1362
1344
1326
1314
1303
1290
1274
1253
1231
1207
1186
1164
1140
1110
1082
1049
1010
974
941
906
878
858
839
827
811
803
792
775
752
726
695
660
630
603
576
554
535
533
554
586
620
653
680
701
710
712
718
720
723
723
727
734
740
739
737
735
734
740
757
773
785
795
803
812
826
836
847
859
873
888
903
913
917
922
924
925
929
931
937
939
943
947
953
953
949
948
949
953
960
966
970
970
970
974
981
987
996
1000
1002
1002
1004
1010
1013
1019
1023
1030
1039
1048
1054
1062
1063
1068
1072
1079
1081
1086
1090
1095
1099
1102
1102
1100
1100
1097
1101
1100
1101
1101
1099
1096
1099
1097
1095
1093
1085
1085
1083
1076
1064
1054
1050
1047
1046
1041
1032
1026
1019
1009
999
990
980
972
965
959
952
943
937
927
920
915
912
914
908
899
891
883
881
881
879
880
877
877
878
881
878
873
865
862
860
859
859
860
861
862
860
861
863
861
860
861
862
863
864
856
853
847
848
851
856
855
856
856
858
856
852
849
847
852
858
862
865
864
863
860
858
858
860
865
866
867
867
864
861
859
863
864
870
873
873
873
873
873
875
874
876
874
873
875
875
875
869
868
868
864
865
864
864
863
862
862
861
865
870
874
873
871
870
867
867
869
867
863
865
866
871
877
880
884
893
901
908
909
908
910
915
927
935
940
942
948
946
940
940
936
931
933
935
934
929
923
923
926
930
937
935
928
920
915
912
911
911
912
910
911
915
923
942
981
1059
1181
1308
1394
1425
1422
1405
1392
1383
1371
1352
1332
1311
1294
1281
1265
1245
1217
1191
1164
1141
1116
1090
1062
1031
1004
976
948
921
893
862
839
822
812
801
789
775
761
741
714
681
658
635
610
587
566
552
553
565
592
628
660
685
705
715
716
719
722
727
730
729
725
723
724
727
734
740
750
762
777
790
793
798
811
822
839
851
865
876
889
906
920
930
937
939
941
946
947
951
956
960
964
968
969
971
976
978
983
986
994
1001
1005
1004
1006
1014
1023
1033
1032
1033
1035
1041
1051
1060
1067
1072
1078
1085
1092
1095
1097
1100
1105
1110
1114
1115
1118
1115
1117
1123
1126
1128
1127
1131
1129
1130
1128
1125
1120
1112
1110
1112
1114
1112
1108
1099
1091
1090
1084
1078
1071
1062
1052
1044
1037
1030
1023
1011
999
989
986
976
964
949
939
935
931
928
922
919
915
911
909
901
899
896
894
893
885
884
879
875
876
876
875
877
880
881
880
883
886
890
888
882
874
868
866
863
862
861
863
869
872
871
869
871
873
879
881
881
880
879
875
873
875
876
882
884
891
894
900
907
912
915
917
926
931
937
942
948
955
959
957
947
939
936
933
934
938
944
946
943
937
938
940
937
935
928
922
920
919
913
908
900
894
888
890
890
887
882
876
875
873
870
869
865
865
864
863
862
863
862
861
863
866
867
865
860
859
863
867
866
866
866
864
866
870
871
869
868
871
873
874
874
874
872
870
870
871
871
866
862
861
866
874
874
878
884
889
897
916
952
1027
1147
1274
1396
1443
1443
1426
1415
1403
1386
1370
1350
1324
1304
1288
1272
1255
1231
1200
1164
1129
1102
1072
1037
999
968
940
914
886
860
837
821
813
812
810
798
770
737
697
668
645
622
600
588
594
607
624
648
676
695
709
722
732
740
744
740
742
751
763
766
762
762
767
787
802
816
827
832
840
852
869
884
901
913
923
941
956
963
965
962
959
960
965
969
969
971
974
984
994
1000
999
996
993
997
1003
1009
1013
1017
1025
1036
1046
1048
1045
1044
1047
1054
1062
1070
1075
1079
1081
1086
1092
1094
1097
1095
1095
1103
1107
1106
1106
1104
1105
1111
1115
1112
1103
1095
1091
1094
1098
1100
1096
1088
1080
1077
1078
1074
1070
1060
1052
1045
1038
1034
1028
1017
1000
988
979
979
972
971
968
970
974
975
977
977
978
980
981
975
969
966
966
968
967
960
956
946
944
943
946
946
944
941
937
936
934
926
917
911
907
906
903
896
890
888
884
880
876
873
867
866
864
865
866
863
859
859
861
865
869
869
864
864
867
873
872
866
859
856
857
862
865
863
860
858
858
862
863
860
854
852
851
856
861
863
861
861
860
864
866
871
868
862
856
855
859
859
858
860
863
864
865
862
862
856
857
862
866
868
867
866
867
868
872
877
879
880
875
875
875
878
875
868
864
865
871
873
875
874
870
873
874
879
882
883
883
882
884
886
887
888
889
892
893
891
892
897
906
922
939
961
1005
1094
1221
1348
1437
1459
1448
1431
1421
1410
1397
1378
1359
1336
1319
1302
1277
1254
1227
1201
1172
1142
1103
1065
1029
998
969
942
916
887
860
842
828
816
807
794
778
752
718
682
655
632
610
591
583
594
615
641
674
704
727
738
741
746
746
748
752
757
760
761
761
763
771
787
802
815
825
833
841
857
874
891
903
912
923
938
951
960
963
965
968
975
981
986
990
987
984
981
986
994
1002
1004
1005
1011
1019
1025
1028
1031
1034
1040
1057
1068
1074
1075
1082
1096
1112
1125
1136
1143
1150
1158
1165
1169
1174
1177
1181
1182
1179
1173
1168
1169
1170
1174
1174
1172
1170
1165
1162
1160
1153
1145
1138
1129
1120
1107
1099
1089
1077
1063
1051
1042
1035
1026
1014
996
978
964
952
943
937
933
926
922
913
904
898
895
891
888
887
883
880
874
870
869
869
868
868
866
860
859
860
863
862
859
854
851
850
847
846
842
841
843
846
846
843
843
843
847
848
846
845
847
847
847
847
845
843
846
847
854
858
855
854
851
848
848
853
856
856
855
853
856
856
858
856
854
857
864
867
865
863
856
855
860
863
865
861
857
853
856
859
861
864
866
867
869
870
867
867
866
866
871
876
876
876
872
867
866
869
873
873
872
870
873
875
877
873
874
877
879
880
875
873
870
872
878
881
884
885
883
883
884
885
888
887
886
889
891
893
891
888
888
889
894
899
905
909
917
931
956
999
1085
1211
1338
1426
1456
1450
1435
1419
1404
1387
1367
1347
1330
1307
1284
1265
1245
1226
1200
1172
1140
1109
1077
1044
1007
966
929
897
864
835
813
792
780
770
765
753
734
708
677
647
620
594
566
540
531
540
572
612
648
679
701
720
735
743
751
762
770
774
782
786
788
795
803
815
830
846
865
877
887
894
911
927
941
955
965
976
989
1001
1011
1019
1031
1038
1042
1040
1037
1031
1029
1029
1037
1041
1041
1033
1029
1025
1028
1032
1033
1035
1037
1035
1041
1045
1050
1053
1059
1060
1067
1073
1075
1077
1076
1081
1085
1092
1099
1101
1104
1107
1112
1117
1120
1124
1124
1125
1127
1126
1123
1122
1121
1121
1123
1121
1115
1110
1108
1103
1100
1100
1102
1099
1092
1082
1077
1071
1066
1056
1048
1040
1030
1019
1009
995
981
971
964
957
949
942
938
934
931
927
922
915
906
903
903
903
898
893
884
879
881
882
885
883
881
879
876
877
875
874
873
875
879
878
873
868
864
864
867
871
870
869
868
866
869
870
872
871
867
866
866
864
864
865
863
867
872
877
878
877
875
871
874
876
879
880
882
882
886
891
892
885
883
880
880
882
885
887
890
891
888
883
881
880
881
884
885
883
879
880
883
885
888
888
887
885
885
885
883
888
889
889
891
888
890
894
894
898
900
899
893
890
884
883
886
886
889
891
891
896
896
895
894
895
896
898
901
900
898
895
895
895
893
895
897
899
899
899
898
899
904
908
910
909
907
908
913
917
916
913
911
912
921
935
950
973
1020
1117
1244
1371
1447
1472
1467
1454
1448
1440
1429
1415
1399
1381
1368
1355
1342
1323
1305
1284
1268
1249
1220
1184
1143
1103
1066
1030
996
959
926
889
855
830
807
795
781
769
755
734
700
669
643
623
607
587
564
541
528
537
563
595
628
658
681
700
717
728
741
750
757
759
763
766
768
768
766
772
780
792
801
811
819
827
837
843
855
865
880
896
911
921
930
941
951
959
969
976
981
981
982
988
992
996
996
998
998
1005
1012
1011
1009
1008
1008
1016
1024
1032
1038
1045
1049
1053
1062
1073
1081
1086
1091
1096
1103
1112
1120
1125
1130
1131
1138
1148
1150
1151
1154
1157
1160
1166
1170
1170
1170
1173
1175
1179
1180
1175
1174
1171
1175
1176
1172
1165
1154
1146
1143
1137
1130
1123
1114
1108
1104
1100
1092
1076
1065
1054
1043
1032
1018
1007
1002
999
994
990
982
974
966
956
949
945
939
934
929
922
922
918
921
917
916
912
913
914
913
911
908
908
904
904
905
900
896
891
891
895
900
903
905
902
901
899
898
892
888
890
891
894
896
892
891
896
902
909
909
904
897
895
899
907
907
901
894
893
899
903
904
904
906
908
913
915
913
910
907
905
909
913
916
917
914
908
906
906
904
903
903
907
911
913
910
906
905
903
906
911
909
907
903
900
903
906
909
912
913
917
919
924
925
926
928
933
937
941
942
944
945
948
953
961
965
970
975
976
977
973
970
964
963
964
968
973
976
973
975
974
975
972
966
956
950
947
948
947
945
938
933
931
935
935
931
927
933
943
968
1010
1092
1216
1342
1432
1471
1471
1457
1447
1436
1422
1408
1391
1375
1356
1339
1324
1314
1302
1287
1266
1240
1205
1173
1139
1112
1090
1066
1040
1015
995
973
949
929
916
910
900
890
883
881
877
860
841
814
783
744
711
682
660
644
643
655
674
701
719
738
749
754
755
757
763
767
769
770
770
767
763
755
756
762
776
798
818
828
830
830
838
848
864
878
892
902
919
931
945
953
955
956
960
964
968
972
975
974
982
986
990
992
995
993
993
997
1002
1007
1008
1009
1013
1018
1024
1029
1030
1033
1038
1048
1056
1062
1063
1065
1065
1072
1080
1087
1090
1089
1091
1095
1104
1110
1111
1112
1111
1115
1117
1118
1119
1120
1123
1123
1128
1129
1131
1129
1121
1116
1108
1105
1106
1106
1106
1105
1098
1089
1083
1082
1080
1077
1069
1057
1048
1038
1035
1027
1021
1016
1007
996
982
976
970
963
956
950
948
943
940
939
933
928
925
924
926
925
917
915
912
911
914
911
910
907
905
906
908
908
912
910
908
907
906
900
895
890
893
899
901
901
904
902
901
903
905
905
904
901
901
907
913
917
920
919
925
937
944
944
937
935
936
947
954
961
967
969
969
966
968
964
965
962
962
967
969
970
972
970
967
964
963
958
950
943
941
937
931
926
917
913
908
906
906
899
897
893
892
896
893
883
879
875
878
884
887
891
892
893
888
887
885
887
889
889
891
888
887
886
884
885
888
892
892
888
882
879
879
882
887
887
888
886
883
885
890
892
892
889
887
892
896
899
903
904
908
911
915
924
939
972
1048
1175
1302
1429
1476
1467
1444
1429
1417
1401
1382
1362
1343
1330
1318
1301
1281
1258
1238
1218
1197
1166
1131
1100
1073
1049
1034
1013
987
959
937
924
914
908
900
892
876
852
824
789
756
729
705
680
658
644
646
659
678
701
727
742
746
753
757
769
775
776
777
778
779
782
785
787
794
803
816
828
839
847
858
869
879
894
908
922
934
945
956
967
973
976
980
981
985
991
994
995
996
1000
1002
1006
1007
1008
1011
1015
1020
1024
1030
1036
1037
1039
1040
1042
1043
1046
1054
1060
1068
1077
1082
1086
1088
1086
1091
1094
1099
1104
1108
1110
1112
1119
1124
1126
1125
1125
1127
1131
1134
1132
1131
1133
1138
1144
1144
1141
1135
1130
1127
1126
1127
1125
1118
1114
1105
1099
1097
1095
1091
1083
1073
1070
1067
1062
1056
1051
1044
1040
1038
1032
1031
1030
1029
1030
1030
1032
1027
1021
1017
1018
1019
1022
1020
1011
994
986
983
981
977
971
966
966
972
972
969
964
963
958
955
954
951
947
942
937
929
920
909
902
897
898
899
897
893
891
889
889
887
877
873
871
874
881
887
887
887
883
881
880
881
881
881
879
880
881
884
886
887
888
889
890
891
890
883
884
886
887
889
884
878
878
878
882
885
884
886
883
882
882
886
886
884
886
884
885
885
883
879
878
879
887
892
892
894
892
895
897
898
892
895
891
891
894
892
889
890
893
896
903
906
904
898
892
892
893
897
902
903
904
904
905
909
911
910
909
902
904
908
911
915
916
915
919
918
920
920
921
927
939
956
980
1024
1115
1242
1369
1470
1486
1475
1458
1445
1434
1421
1403
1383
1364
1347
1329
1307
1283
1258
1230
1197
1165
1134
1102
1069
1036
1004
974
945
912
878
852
836
824
811
801
792
778
754
727
699
675
653
633
613
600
597
607
624
648
676
707
733
753
760
766
776
786
794
798
802
805
806
807
805
808
811
825
836
848
857
865
873
880
893
904
921
935
951
965
976
985
995
1004
1006
1007
1008
1013
1021
1027
1032
1033
1034
1039
1045
1047
1053
1052
1055
1059
1068
1074
1077
1081
1086
1095
1108
1119
1129
1139
1148
1162
1174
1182
1189
1190
1192
1201
1210
1219
1222
1222
1218
1220
1222
1224
1228
1230
1232
1231
1234
1235
1231
1226
1220
1217
1217
1211
1204
1197
1188
1182
1178
1172
1164
1156
1148
1140
1136
1126
1114
1098
1080
1066
1057
1047
1040
1033
1024
1015
1010
1000
988
978
968
962
961
950
945
937
934
931
930
926
920
915
911
911
909
910
905
905
903
902
904
902
899
894
892
891
891
887
883
879
881
888
890
891
893
890
886
883
884
880
881
880
883
885
891
892
888
886
881
883
883
885
885
883
884
888
894
894
894
893
893
898
904
903
903
907
902
901
898
897
898
901
900
906
906
904
904
904
905
910
911
909
901
899
897
904
909
910
909
906
905
905
911
910
910
909
907
908
907
906
901
903
904
908
911
911
911
910
912
916
919
919
916
915
915
919
921
920
918
913
912
915
915
918
918
919
922
922
924
926
929
932
933
934
932
931
931
937
946
961
984
1028
1121
1248
1375
1476
1497
1484
1466
1451
1437
1421
1402
1382
1362
1342
1320
1301
1280
1254
1224
1190
1150
1111
1072
1029
987
952
917
891
861
833
812
792
780
774
767
750
729
702
679
660
639
615
590
574
578
605
641
679
709
736
755
768
779
791
802
810
817
829
834
838
840
845
856
871
888
901
914
925
938
950
960
972
987
1002
1014
1022
1031
1039
1048
1047
1046
1043
1042
1039
1039
1037
1038
1043
1045
1044
1039
1037
1041
1050
1054
1052
1048
1045
1048
1055
1063
1067
1069
1071
1077
1087
1094
1097
1098
1099
1105
1114
1119
1119
1120
1122
1125
1132
1138
1139
1141
1143
1142
1142
1145
1146
1145
1139
1132
1130
1129
1130
1128
1123
1118
1110
1106
1104
1102
1094
1089
1083
1077
1069
1062
1051
1045
1036
1028
1026
1019
1009
995
987
978
974
969
965
965
959
948
936
927
927
927
928
925
921
915
914
912
913
911
910
907
904
906
908
909
905
906
902
901
906
906
907
904
903
899
893
889
886
884
885
888
891
898
900
900
900
896
899
901
901
897
894
894
899
906
911
909
908
906
907
911
909
910
907
907
911
913
919
918
918
916
913
912
907
904
905
907
914
917
913
912
909
909
916
919
918
916
913
913
915
917
915
912
911
913
914
915
916
918
918
917
918
918
917
919
916
914
915
916
915
914
918
914
920
922
919
920
918
921
922
923
923
920
921
922
926
931
931
930
927
925
929
933
940
940
937
934
930
935
942
948
958
978
1024
1115
1242
1369
1465
1494
1496
1488
1480
1474
1462
1447
1432
1418
1403
1391
1374
1350
1326
1299
1265
1226
1190
1161
1128
1098
1062
1028
992
956
927
902
878
858
845
834
817
792
754
716
680
652
628
603
583
579
596
622
655
687
714
736
749
757
767
776
779
778
778
778
779
780
779
783
792
806
823
834
843
853
862
873
888
906
920
927
933
946
961
970
973
970
971
974
981
987
983
984
987
992
999
1004
1003
1003
1002
1004
1012
1019
1024
1027
1032
1037
1048
1053
1060
1065
1072
1074
1082
1089
1095
1100
1108
1114
1122
1127
1130
1137
1146
1153
1161
1161
1157
1149
1149
1148
1154
1162
1162
1161
1159
1155
1156
1155
1150
1145
1137
1130
