960
989
1044
1147
1274
1401
1465
1477
1465
1452
1441
1431
1419
1402
1384
1365
1351
1339
1327
1310
1290
1270
1250
1228
1206
1177
1153
1128
1100
1082
1067
1053
1031
1010
994
992
992
994
995
994
982
965
942
917
887
851
808
773
753
750
752
758
768
789
809
816
816
814
814
819
818
816
814
813
813
813
812
815
823
831
835
846
858
872
882
891
899
908
924
938
952
964
975
982
986
994
994
994
996
998
1002
1008
1012
1014
1014
1016
1016
1015
1014
1018
1025
1033
1041
1046
1049
1047
1047
1053
1057
1065
1073
1075
1080
1082
1086
1089
1094
1100
1101
1108
1111
1112
1111
1111
1109
1114
1121
1130
1130
1127
1125
1125
1124
1127
1129
1131
1128
1128
1127
1128
1127
1121
1114
1109
1103
1096
1090
1089
1086
1080
1076
1068
1059
1054
1047
1041
1033
1029
1021
1012
1001
992
984
981
975
969
964
963
958
954
947
945
942
938
936
938
939
943
943
944
946
947
949
950
957
966
975
979
978
974
971
974
980
984
985
981
976
975
975
972
973
975
974
975
973
971
967
963
959
956
955
954
950
944
938
931
931
929
924
919
913
910
912
916
915
910
900
891
884
886
884
886
886
886
887
884
885
889
894
897
900
897
892
886
883
886
888
886
882
881
880
881
882
881
883
883
882
883
882
887
887
884
884
884
883
883
885
885
883
881
877
874
874
873
868
870
872
878
882
883
879
879
877
878
877
878
876
878
879
880
883
887
890
895
893
895
897
899
901
906
920
937
966
1014
1116
1243
1370
1445
1451
1434
1416
1403
1394
1380
1358
1337
1319
1304
1291
1270
1247
1222
1197
1172
1144
1112
1077
1043
1012
984
960
936
906
872
844
826
821
816
811
801
782
758
730
701
676
654
623
598
593
602
620
642
671
704
722
727
728
732
740
746
747
750
753
751
753
754
756
763
771
779
787
798
809
822
830
840
847
859
877
894
906
916
920
931
937
941
937
934
934
937
944
948
952
956
956
960
963
966
967
966
969
974
982
986
988
987
991
998
1004
1012
1015
1017
1019
1028
1037
1042
1047
1045
1041
1043
1049
1056
1060
1063
1062
1067
1072
1074
1075
1074
1073
1075
1080
1082
1085
1087
1090
1098
1105
1105
1101
1095
1095
1097
1096
1100
1097
1089
1078
1064
1048
1029
1021
1014
1010
1008
1001
994
987
976
965
955
951
943
935
927
914
905
898
891
883
870
862
859
856
853
846
839
834
831
830
828
828
827
822
822
821
822
823
819
819
818
823
823
822
819
817
819
820
819
812
807
803
805
810
813
815
816
816
818
820
823
823
823
819
815
810
808
813
815
811
813
814
816
822
820
820
822
826
827
826
828
824
821
818
818
819
817
820
824
828
829
826
825
825
826
831
835
835
830
825
823
823
827
831
830
828
828
834
837
840
839
836
839
843
844
845
842
841
844
848
851
850
846
846
845
849
854
857
859
859
857
856
854
858
862
858
860
860
862
861
861
861
866
872
876
879
880
877
879
885
891
904
928
965
1044
1168
1295
1419
1470
1469
1453
1439
1424
1406
1376
1349
1329
1314
1296
1273
1248
1217
1190
1160
1127
1096
1060
1025
987
951
916
885
857
833
803
779
762
747
737
731
723
709
693
667
643
619
597
581
563
549
555
576
607
639
668
689
701
707
712
721
734
744
752
753
760
766
769
771
776
786
802
814
826
835
842
850
860
874
889
904
922
934
946
961
975
982
989
990
998
1005
1013
1020
1026
1034
1048
1059
1069
1070
1073
1074
1080
1098
1112
1123
1126
1128
1132
1134
1136
1138
1138
1142
1150
1157
1170
1180
1189
1187
1182
1176
1176
1180
1185
1187
1186
1192
1189
1186
1182
1178
1180
1179
1178
1173
1168
1163
1161
1157
1154
1147
1140
1131
1127
1124
1116
1104
1093
1091
1083
1075
1065
1052
1040
1020
1009
999
994
986
980
967
960
952
947
938
932
926
924
926
921
912
908
903
899
898
895
892
888
887
891
893
894
889
882
878
884
884
885
882
879
880
881
883
883
880
879
878
878
880
879
878
874
873
875
879
880
879
873
868
869
872
876
879
879
879
881
880
882
883
885
884
887
886
888
891
892
891
888
882
881
879
880
881
883
880
878
873
872
875
881
882
884
883
880
874
869
868
875
873
871
868
864
867
869
870
870
864
867
869
872
871
872
870
870
866
867
865
864
864
870
871
872
868
866
862
864
865
865
864
864
860
863
865
868
868
865
860
858
863
868
872
869
860
859
860
864
868
870
875
877
890
907
935
997
1112
1239
1366
1469
1465
1436
1411
1396
1378
1358
1333
1308
1284
1258
1235
1212
1188
1162
1136
1109
1078
1039
996
958
921
897
872
850
826
801
781
768
760
761
760
751
731
711
691
669
644
622
596
576
572
581
604
627
650
674
699
713
719
725
726
725
724
720
719
718
720
728
736
743
751
759
770
782
791
797
798
798
799
809
823
833
838
840
846
854
860
860
855
850
849
851
852
852
852
855
856
861
869
870
870
865
862
860
865
870
877
881
882
887
887
893
899
902
907
908
909
907
907
908
912
921
925
931
930
929
926
925
929
934
934
934
937
941
944
948
951
945
945
940
941
941
940
940
937
935
934
930
925
922
915
909
908
906
898
886
874
871
870
868
859
849
837
831
826
822
819
814
809
809
808
806
799
792
785
785
785
786
787
783
778
778
781
780
780
776
771
772
774
776
775
773
770
768
768
770
768
768
766
766
768
772
771
771
769
770
775
778
777
775
770
772
774
776
779
779
773
769
773
779
781
781
773
767
765
773
777
778
777
780
783
786
785
780
777
781
783
785
783
782
780
781
785
789
792
791
788
786
789
789
786
783
779
778
784
786
788
787
784
787
789
791
793
793
792
795
797
799
798
795
795
796
795
797
799
801
802
803
804
802
799
799
799
801
800
801
805
807
812
817
816
811
811
813
813
817
820
825
830
835
840
853
877
915
988
1115
1242
1369
1496
1499
1467
1442
1426
1412
1393
1372
1346
1317
1294
1273
1251
1225
1195
1164
1131
1099
1067
1031
987
942
903
875
849
826
796
779
762
758
754
746
726
703
675
653
637
619
600
580
567
573
591
613
638
657
667
682
688
700
705
706
704
707
709
711
711
708
707
709
719
729
740
747
753
759
767
774
780
791
800
811
819
828
840
847
853
858
860
861
862
866
867
868
871
875
875
877
876
881
885
896
897
902
900
904
908
914
922
924
926
927
930
937
944
951
958
968
978
985
988
983
983
989
995
1008
1015
1016
1021
1029
1032
1032
1032
1035
1038
1044
1048
1051
1049
1044
1039
1039
1039
1037
1035
1029
1024
1022
1022
1021
1015
1007
1000
999
997
989
979
970
960
952
946
941
933
927
921
915
908
904
896
891
885
888
886
885
879
872
864
859
861
861
858
853
851
853
855
859
864
864
860
857
854
850
848
849
848
853
854
857
857
855
853
855
857
858
857
856
851
852
856
858
858
857
855
858
858
859
858
855
859
862
866
869
870
871
871
874
871
871
870
871
873
873
872
873
876
876
874
875
874
874
874
871
874
876
877
879
878
878
876
878
878
880
879
881
882
883
882
883
886
891
894
894
896
897
904
911
916
921
928
932
931
927
932
939
944
947
944
940
935
934
935
940
943
944
944
944
947
946
943
938
931
930
929
927
922
922
916
915
910
908
904
902
903
906
909
910
910
910
914
923
944
974
1028
1128
1255
1382
1509
1553
1533
1507
1484
1466
1449
1428
1403
1377
1355
1338
1319
1301
1279
1256
1234
1209
1181
1147
1109
1080
1056
1035
1015
994
973
953
927
902
892
886
885
878
872
866
852
830
806
783
760
739
717
700
684
684
691
710
728
748
767
776
778
781
784
789
786
787
787
787
792
792
788
789
791
802
815
825
831
833
841
848
857
867
877
886
899
915
927
938
945
951
953
958
956
953
953
957
960
967
970
974
974
975
978
982
991
993
997
997
1000
1005
1011
1016
1018
1018
1021
1024
1030
1034
1043
1049
1056
1064
1069
1074
1072
1070
1068
1073
1083
1091
1098
1103
1106
1110
1111
1114
1112
1114
1113
1117
1121
1125
1129
1126
1123
1119
1119
1119
1115
1110
1108
1105
1102
1100
1098
1089
1083
1079
1076
1072
1062
1051
1038
1036
1033
1034
1028
1021
1011
1000
990
985
978
972
965
959
956
953
950
945
942
941
943
942
939
933
931
932
935
935
932
928
921
919
919
919
920
919
920
924
927
927
921
917
916
917
922
923
924
921
920
924
929
929
930
929
926
928
929
933
935
936
940
950
955
961
963
962
964
970
975
982
986
989
990
990
988
984
979
975
980
983
986
989
985
980
979
977
982
987
987
980
970
962
956
956
954
949
945
943
942
942
940
940
933
929
923
919
914
912
917
921
923
923
920
921
920
923
924
927
926
927
926
930
929
927
922
917
917
920
926
927
927
928
926
922
922
924
925
925
926
928
928
929
931
932
935
935
935
935
938
940
941
950
953
954
955
958
966
988
1035
1126
1253
1380
1507
1581
1565
1538
1513
1500
1478
1454
1433
1415
1398
1376
1351
1325
1299
1276
1254
1232
1203
1172
1141
1110
1077
1052
1034
1016
995
968
946
933
925
921
917
911
898
878
855
830
805
788
764
741
720
713
720
734
747
767
790
814
824
825
827
828
830
832
838
842
846
846
842
848
854
863
875
882
884
891
898
907
918
931
943
954
967
978
989
997
1006
1014
1022
1024
1025
1025
1028
1030
1038
1042
1045
1046
1049
1055
1059
1061
1060
1058
1055
1060
1065
1070
1074
1080
1080
1085
1088
1094
1098
1101
1106
1115
1120
1126
1128
1128
1130
1134
1149
1158
1159
1159
1159
1164
1169
1171
1172
1173
1177
1185
1187
1190
1182
1177
1173
1172
1176
1176
1173
1172
1171
1169
1166
1161
1151
1143
1135
1134
1133
1131
1130
1126
1120
1113
1107
1101
1090
1087
1080
1080
1083
1082
1080
1077
1071
1070
1069
1069
1070
1071
1070
1069
1069
1068
1068
1064
1058
1047
1040
1033
1028
1025
1022
1020
1021
1022
1023
1024
1023
1022
1022
1020
1014
1005
993
990
991
991
987
982
975
971
969
967
966
965
963
959
959
960
957
956
952
953
955
958
957
954
950
950
953
949
950
945
944
943
950
953
955
956
955
955
956
957
958
956
956
958
961
961
958
955
951
954
956
960
960
958
954
957
959
960
960
957
955
955
957
960
964
968
965
966
964
964
962
959
957
957
961
961
965
968
965
966
966
967
969
969
969
968
972
972
972
972
976
979
982
984
984
984
982
983
986
990
996
1000
998
995
987
984
986
985
985
988
993
996
1000
1006
1003
1009
1014
1021
1034
1045
1071
1129
1232
1359
1486
1582
1598
1584
1571
1562
1544
1523
1498
1477
1459
1444
1427
1406
1379
1348
1320
1291
1259
1224
1190
1150
1116
1079
1041
1009
978
957
931
909
888
864
847
839
838
828
812
792
772
758
740
727
707
695
692
701
722
744
769
801
830
852
865
867
869
874
877
886
897
906
906
907
904
911
925
938
956
967
970
982
992
1005
1015
1020
1030
1041
1049
1061
1075
1090
1102
1113
1121
1123
1127
1130
1133
1137
1138
1140
1143
1143
1144
1152
1157
1165
1169
1177
1180
1185
1191
1196
1197
1197
1195
1201
1214
1227
1238
1246
1256
1267
1282
1292
1300
1306
1308
1316
1320
1332
1341
1348
1349
1349
1345
1346
1347
1348
1347
1350
1351
1352
1350
1346
1347
1346
1342
1332
1319
1312
1306
1302
1297
1288
1278
1264
1253
1244
1236
1228
1219
1206
1194
1182
1172
1160
1148
1136
1122
1111
1105
1099
1095
1092
1085
1077
1066
1060
1055
1052
1050
1045
1041
1039
1035
1031
1027
1025
1024
1025
1023
1016
1011
1010
1012
1012
1010
1008
1004
1004
1009
1013
1014
1011
1005
1001
1001
1002
1006
1005
1005
1006
1012
1012
1013
1009
1007
1007
1010
1013
1013
1014
1013
1013
1013
1010
1008
1006
1006
1008
1016
1019
1020
1020
1022
1025
1031
1032
1032
1026
1019
1019
1020
1021
1022
1023
1022
1018
1019
1019
1023
1024
1026
1027
1030
1030
1029
1027
1025
1027
1027
1030
1028
1025
1024
1028
1029
1033
1032
1030
1030
1032
1032
1033
1031
1029
1027
1028
1028
1030
1029
1029
1027
1027
1028
1033
1034
1033
1031
1030
1033
1036
1036
1035
1034
1036
1040
1042
1048
1048
1046
1046
1046
1047
1047
1039
1035
1037
1042
1045
1045
1046
1051
1055
1059
1066
1078
1098
1145
1245
1372
1499
1571
1582
1564
1551
1542
1531
1512
1494
1473
1457
1436
1415
1393
1367
1341
1311
1284
1254
1219
1184
1142
1105
1075
1055
1030
999
966
941
927
920
910
908
895
869
839
808
778
754
727
699
685
688
712
739
773
810
841
860
870
875
885
899
905
908
914
920
922
927
932
944
961
977
997
1014
1025
1035
1045
1067
1088
1111
1128
1138
1145
1151
1158
1166
1173
1177
1174
1172
1171
1175
1181
1182
1178
1176
1173
1173
1176
1180
1181
1177
1170
1165
1164
1163
1166
1171
1169
1174
1180
1184
1186
1183
1189
1196
1201
1206
1209
1208
1209
1210
1215
1223
1223
1220
1216
1216
1220
1223
1225
1227
1227
1227
1223
1215
1210
1206
1206
1208
1209
1206
1198
1191
1183
1184
1180
1179
1171
1161
1151
1145
1137
1130
1122
1110
1098
1092
1086
1080
1072
1064
1060
1059
1055
1053
1047
1040
1036
1033
1030
1030
1028
1029
1028
1030
1030
1023
1014
1006
999
1003
1006
1010
1008
1007
1001
1002
1001
1004
1006
1009
1009
1013
1015
1016
1010
1002
997
995
996
996
995
994
994
999
1004
1008
1008
1004
1001
1002
1006
1011
1010
1007
1007
1007
1012
1016
1020
1020
1015
1015
1015
1016
1015
1013
1011
1009
1009
1013
1018
1019
1017
1015
1015
1013
1014
1012
1011
1011
1015
1016
1015
1011
1008
1007
1012
1019
1019
1018
1014
1012
1018
1017
1017
1016
1014
1015
1018
1019
1020
1023
1020
1018
1020
1019
1023
1014
1006
1010
1017
1026
1027
1026
1023
1017
1016
1016
1017
1019
1015
1018
1019
1021
1020
1018
1018
1021
1025
1027
1028
1029
1027
1032
1039
1050
1060
1075
1111
1192
1314
1437
1513
1537
1526
1515
1509
1504
1491
1475
1461
1447
1432
1418
1402
1381
1364
1348
1332
1313
1287
1262
1232
1207
1183
1160
1134
1104
1072
1045
1026
1014
1003
998
994
982
961
933
901
868
838
799
765
743
743
760
786
815
842
860
866
868
870
877
879
876
874
872
868
863
865
871
880
898
912
925
936
946
953
958
969
983
1000
1014
1023
1032
1041
1048
1053
1054
1055
1057
1059
1063
1067
1068
1068
1069
1070
1074
1078
1079
1082
1085
1086
1090
1090
1092
1100
1104
1104
1108
1111
1119
1124
1131
1134
1142
1146
1150
1156
1164
1170
1171
1180
1190
1194
1191
1192
1190
1192
1200
1201
1207
1211
1212
1213
1210
1204
1195
1192
1189
1191
1193
1188
1178
1169
1164
1162
1158
1154
1147
1136
1129
1119
1111
1100
1095
1088
1084
1080
1069
1060
1051
1044
1040
1038
1038
1033
1026
1018
1016
1019
1018
1012
1000
996
991
992
994
996
994
990
986
983
983
983
985
985
989
988
988
983
975
971
974
978
983
983
984
981
979
982
983
983
983
982
981
986
989
989
993
995
996
996
991
986
983
984
988
993
998
998
997
992
992
994
999
997
995
992
990
990
992
991
990
988
990
992
995
995
992
989
990
992
994
996
999
998
999
1002
997
994
991
989
990
993
998
997
993
992
995
999
1002
1006
1005
1013
1018
1022
1023
1025
1029
1037
1043
1042
1041
1043
1046
1055
1066
1074
1070
1060
1050
1045
1045
1051
1056
1060
1061
1059
1061
1063
1064
1062
1060
1057
1060
1065
1084
1130
1223
1350
1460
1507
1506
1493
1479
1467
1456
1440
1427
1410
1391
1371
1353
1336
1320
1298
1272
1244
1211
1183
1158
1134
1107
1077
1047
1020
993
969
951
933
921
912
910
905
885
858
833
809
779
747
711
682
663
665
693
736
769
794
811
823
830
834
838
839
845
847
848
843
836
832
833
845
858
874
883
888
896
906
921
936
950
967
981
996
1006
1015
1024
1031
1035
1038
1040
1043
1046
1051
1054
1059
1060
1061
1062
1061
1067
1073
1082
1087
1090
1094
1102
1109
1113
1110
1111
1111
1118
1127
1134
1141
1145
1142
1146
1154
1162
1168
1173
1175
1176
1179
1183
1186
1191
1193
1195
1199
1204
1203
1205
1198
1200
1198
1199
1199
1199
1197
1196
1193
1185
1178
1173
1169
1168
1167
1167
1163
1156
1149
1139
1131
1123
1114
1105
1094
1088
1083
1078
1072
1061
1054
1049
1044
1041
1034
1028
1020
1015
1010
1011
1007
1001
993
989
989
990
991
988
986
986
980
980
976
977
972
970
973
976
978
979
979
979
979
977
973
966
960
959
961
962
963
961
961
966
974
977
976
971
966
964
966
969
972
970
967
967
969
973
977
979
984
990
994
995
999
1001
1004
1013
1021
1025
1029
1029
1032
1037
1045
1049
1048
1040
1033
1028
1031
1033
1032
1026
1018
1017
1019
1022
1025
1018
1013
1007
1006
1005
1001
998
992
989
984
978
973
968
966
966
967
967
961
955
946
948
950
959
963
959
953
952
951
952
952
952
952
952
953
948
944
944
945
949
950
949
951
952
953
957
957
953
952
953
954
956
957
960
965
965
964
968
978
991
1019
1075
1180
1307
1422
1473
1473
1459
1451
1444
1435
1422
1406
1392
1376
1365
1354
1340
1319
1293
1267
1244
1224
1206
1182
1152
1116
1080
1048
1019
997
975
948
918
896
881
867
857
843
830
812
790
766
737
710
692
670
647
624
613
617
636
661
687
715
742
761
768
775
784
794
802
809
816
826
833
835
833
832
842
860
876
887
894
903
916
927
936
947
960
974
984
995
1010
1017
1029
1038
1047
1055
1057
1061
1062
1063
1067
1071
1078
1079
1077
1080
1079
1084
1089
1089
1088
1087
1092
1106
1119
1120
1123
1124
1128
1133
1139
1146
1149
1152
1156
1160
1164
1170
1175
1176
1178
1187
1191
1196
1195
1197
1202
1210
1213
1215
1217
1214
1216
1217
1220
1219
1214
1208
1207
1209
1211
1209
1205
1198
1196
1191
1186
1181
1177
1171
1166
1154
1144
1134
1126
1118
1114
1109
1103
1095
1083
1073
1066
1060
1052
1044
1037
1025
1021
1020
1019
1016
1014
1009
1009
1009
1010
1009
1012
1016
1020
1020
1019
1019
1022
1019
1018
1021
1025
1026
1021
1015
1010
1009
1008
1009
1009
1007
1006
1009
1005
1007
1005
1000
998
999
993
987
985
978
974
973
973
968
963
955
954
954
954
951
947
942
939
939
937
933
931
929
931
935
935
932
929
928
930
931
927
925
925
926
929
931
932
928
926
924
923
930
931
932
927
926
925
