942
942
942
946
943
944
944
944
947
948
952
948
945
945
946
952
952
951
946
947
948
952
955
954
953
953
958
963
968
972
977
998
1041
1123
1237
1332
1365
1351
1322
1305
1292
1279
1264
1246
1230
1217
1203
1188
1174
1161
1144
1132
1108
1083
1054
1031
1005
977
945
911
879
855
834
816
799
784
767
759
753
754
751
743
721
697
679
661
646
625
601
586
584
592
620
658
692
727
755
779
795
807
812
813
820
825
827
826
824
824
827
830
827
829
834
846
858
872
879
885
892
903
916
930
946
959
971
982
994
1008
1018
1022
1024
1028
1032
1036
1038
1037
1041
1044
1050
1055
1059
1060
1060
1064
1066
1074
1078
1079
1082
1088
1094
1099
1104
1106
1106
1113
1119
1127
1132
1136
1138
1145
1150
1156
1162
1165
1168
1174
1179
1184
1188
1189
1191
1196
1199
1203
1204
1206
1207
1207
1209
1209
1210
1209
1206
1203
1202
1202
1199
1194
1189
1186
1182
1176
1174
1165
1159
1150
1146
1140
1133
1124
1112
1103
1096
1089
1080
1074
1063
1054
1047
1044
1038
1030
1019
1012
1009
1004
998
993
986
983
984
983
977
975
970
971
970
970
967
964
963
962
962
963
963
960
956
955
957
959
959
957
955
957
956
958
957
955
954
954
955
958
958
957
957
959
959
959
961
958
959
959
961
963
964
962
960
963
964
967
966
964
963
964
966
969
968
965
964
961
966
964
963
962
962
961
964
966
964
964
960
962
964
964
962
961
958
955
958
963
961
960
958
959
960
960
961
962
957
961
960
962
963
960
958
956
959
961
962
960
957
958
961
962
961
962
965
969
972
977
977
983
986
994
999
1008
1011
1015
1016
1019
1022
1028
1033
1037
1034
1033
1032
1031
1028
1023
1024
1028
1035
1040
1047
1065
1107
1203
1307
1365
1361
1329
1301
1283
1270
1254
1233
1212
1190
1174
1157
1139
1120
1099
1077
1058
1035
1012
988
959
926
895
861
823
781
744
708
677
659
650
646
640
633
629
618
601
581
564
552
537
523
508
502
503
523
554
590
623
651
680
710
736
752
765
772
781
788
797
802
804
804
806
807
816
827
841
857
866
872
881
890
904
919
932
945
962
976
991
1002
1013
1018
1023
1030
1033
1040
1041
1043
1047
1051
1053
1058
1060
1059
1067
1073
1079
1086
1089
1090
1096
1102
1110
1114
1119
1125
1133
1137
1144
1149
1151
1155
1162
1170
1178
1181
1187
1191
1197
1203
1208
1212
1215
1219
1223
1227
1227
1227
1224
1224
1225
1227
1228
1227
1220
1214
1213
1214
1213
1203
1199
1194
1189
1184
1181
1174
1166
1154
1148
1142
1135
1126
1119
1108
1099
1092
1082
1074
1068
1059
1053
1047
1042
1034
1024
1020
1016
1015
1006
997
989
982
984
989
990
989
986
977
975
972
972
967
962
959
963
974
981
979
973
968
967
971
976
979
975
970
970
970
973
973
971
969
970
968
969
972
972
972
973
976
977
974
972
972
973
972
973
971
973
977
980
982
982
981
979
977
976
982
987
991
995
992
993
997
1006
1008
1011
1011
1016
1019
1025
1027
1029
1034
1040
1041
1040
1036
1031
1026
1025
1024
1025
1023
1021
1017
1019
1019
1018
1011
1007
1000
996
992
989
984
979
973
971
967
965
962
956
952
949
949
943
942
940
936
937
938
940
941
938
933
935
937
935
936
933
931
932
932
934
934
933
932
930
933
933
934
934
934
938
943
947
952
961
987
1048
1153
1270
1345
1350
1315
1286
1272
1262
1249
1226
1205
1188
1174
1164
1151
1130
1108
1087
1066
1047
1028
1003
976
951
925
902
880
856
833
807
790
775
766
759
755
752
749
740
723
700
680
662
649
639
618
600
598
611
631
652
673
696
719
738
753
759
766
771
774
775
783
790
794
790
791
794
805
814
825
832
838
851
861
873
883
894
906
919
934
945
957
967
974
980
983
990
992
993
994
997
1001
1004
1006
1007
1008
1011
1015
1021
1023
1024
1024
1030
1034
1039
1042
1044
1046
1051
1056
1059
1062
1067
1071
1074
1079
1084
1088
1089
1094
1096
1101
1107
1107
1110
1112
1112
1116
1120
1121
1119
1120
1118
1122
1123
1123
1119
1118
1114
1115
1114
1112
1109
1105
1099
1097
1094
1090
1085
1080
1071
1065
1063
1056
1048
1040
1032
1025
1022
1014
1006
994
989
983
978
970
962
954
948
941
939
932
929
920
920
922
917
915
914
915
919
918
924
926
929
933
939
947
952
955
954
951
952
956
962
963
957
950
943
939
940
939
937
933
937
939
940
938
934
928
923
920
917
913
910
903
898
898
894
888
883
877
875
874
873
872
867
860
858
859
860
859
856
855
855
856
856
856
857
853
854
853
854
854
853
851
851
851
850
848
850
848
846
848
849
847
843
841
846
847
850
849
848
845
844
847
848
846
846
845
845
848
847
850
844
842
842
846
847
848
845
844
846
848
851
849
848
846
846
850
851
853
848
848
853
854
856
858
856
855
859
863
868
872
873
875
888
915
974
1081
1208
1291
1294
1256
1221
1204
1195
1178
1158
1140
1125
1113
1099
1085
1070
1056
1042
1024
1007
987
964
936
914
893
869
848
828
802
779
760
745
736
737
736
737
727
706
683
667
654
644
625
607
598
604
619
640
662
685
705
719
731
737
742
745
748
753
762
763
764
761
760
766
775
786
798
806
813
821
834
845
859
873
883
896
910
921
932
937
939
938
944
947
951
952
956
960
964
970
971
972
974
980
986
991
993
995
996
1000
1007
1012
1020
1024
1028
1033
1039
1047
1050
1058
1062
1070
1076
1084
1089
1096
1098
1105
1116
1124
1129
1135
1141
1148
1157
1166
1171
1174
1177
1181
1183
1182
1183
1181
1180
1179
1173
1168
1160
1153
1145
1141
1135
1128
1121
1114
1102
1092
1087
1076
1062
1046
1033
1020
1008
998
984
971
957
948
939
933
925
915
908
903
899
895
891
883
878
874
875
876
876
875
869
868
869
869
868
864
864
863
864
863
864
863
861
863
863
865
862
860
861
863
866
869
867
867
865
862
865
867
865
864
866
867
869
871
872
871
867
869
874
878
879
876
873
874
876
878
878
879
876
878
874
878
879
878
874
876
879
879
883
878
879
881
883
883
884
882
880
881
884
886
884
886
886
888
888
891
891
888
886
889
891
893
894
892
892
896
897
898
899
896
893
893
895
899
900
902
902
903
903
906
903
906
901
903
907
907
910
913
909
910
913
916
916
917
916
921
924
926
929
931
936
947
967
1013
1104
1231
1339
1369
1343
1306
1285
1273
1256
1236
1214
1197
1176
1155
1134
1112
1087
1062
1031
1001
971
939
907
878
848
813
779
747
719
697
678
662
650
641
634
625
612
595
577
564
555
545
532
526
532
557
591
627
655
686
713
734
751
763
778
785
792
804
812
815
819
826
838
855
872
885
897
908
918
934
953
972
991
1014
1032
1054
1071
1090
1099
1107
1112
1121
1128
1138
1145
1145
1144
1143
1146
1148
1151
1155
1162
1168
1172
1176
1178
1178
1177
1178
1181
1186
1190
1191
1191
1195
1196
1200
1200
1199
1203
1206
1211
1216
1220
1220
1217
1221
1225
1231
1231
1228
1223
1221
1223
1223
1222
1223
1218
1214
1213
1209
1203
1195
1189
1183
1179
1175
1166
1158
1149
1142
1136
1131
1121
1111
1100
1091
1082
1073
1065
1055
1044
1034
1030
1026
1019
1008
996
987
983
979
974
967
962
957
959
958
954
949
944
944
945
942
940
939
934
932
931
934
933
933
931
931
933
933
934
933
930
930
931
931
929
932
930
930
932
932
930
931
929
931
934
937
935
933
932
935
937
938
940
937
936
938
942
943
941
937
937
941
944
944
945
943
939
942
943
946
944
942
940
937
939
941
942
941
942
941
943
944
941
940
937
940
942
945
944
943
940
942
943
944
943
941
939
940
943
943
944
943
943
944
947
947
949
947
944
946
947
950
948
947
946
948
949
952
950
950
948
951
951
951
952
951
951
954
958
961
961
959
956
956
959
966
967
970
976
985
1005
1056
1156
1283
1377
1383
1344
1310
1292
1280
1261
1244
1228
1217
1205
1194
1176
1160
1144
1126
1107
1082
1056
1031
1010
986
956
927
902
883
868
859
855
852
855
861
865
853
834
808
786
762
738
722
718
728
760
794
822
844
862
869
869
867
867
868
866
865
859
851
847
847
851
859
865
876
884
892
897
904
918
935
954
970
984
993
999
1010
1015
1019
1017
1020
1022
1025
1032
1033
1033
1035
1036
1042
1047
1048
1053
1054
1055
1062
1066
1071
1075
1075
1078
1085
1091
1095
1099
1103
1105
1111
1119
1127
1129
1133
1135
1141
1145
1154
1154
1156
1157
1161
1164
1170
1171
1171
1171
1173
1176
1175
1175
1174
1172
1169
1170
1166
1162
1159
1154
1148
1144
1141
1135
1130
1119
1111
1106
1100
1093
1083
1073
1070
1064
1059
1052
1045
1035
1030
1025
1018
1011
1004
997
993
993
990
986
982
979
978
976
977
975
973
967
967
967
968
968
963
962
960
963
963
962
960
955
956
962
965
964
959
957
955
956
958
957
954
951
955
957
961
960
960
960
960
965
968
968
969
965
964
966
969
968
967
965
967
973
973
972
968
965
968
972
975
974
975
973
974
974
973
972
970
966
968
970
971
973
969
969
971
973
975
976
973
970
971
974
976
975
974
971
973
975
981
979
975
975
975
975
976
976
976
971
972
973
976
979
978
975
979
986
989
993
991
995
1001
1014
1024
1030
1030
1030
1034
1035
1045
1053
1059
1059
1056
1053
1052
1051
1050
1046
1053
1061
1069
1084
1123
1201
1310
1388
1406
1377
1346
1325
1310
1298
1281
1258
1237
1216
1199
1182
1164
1139
1112
1082
1053
1027
996
962
927
891
850
811
775
742
710
681
662
655
647
640
634
623
610
593
578
564
548
528
514
510
519
541
573
608
647
685
721
748
765
780
791
801
810
817
821
820
822
829
841
853
867
882
897
908
918
931
948
965
979
995
1010
1025
1036
1046
1058
1067
1071
1074
1078
1085
1089
1091
1098
1102
1106
1109
1114
1121
1127
1132
1136
1139
1147
1153
1162
1167
1174
1178
1186
1191
1197
1200
1207
1213
1221
1226
1233
1240
1243
1245
1248
1256
1264
1268
1268
1267
1268
1270
1272
1276
1272
1266
1263
1264
1269
1267
1259
1253
1248
1246
1241
1237
1229
1217
1210
1205
1200
1190
1177
1166
1156
1151
1145
1137
1124
1112
1101
1094
1089
1083
1070
1059
1054
1048
1043
1037
1029
1023
1018
1013
1012
1004
1001
998
993
994
992
992
989
988
985
984
984
984
981
981
981
983
980
982
982
978
978
981
980
981
979
977
975
979
984
981
978
977
978
979
983
983
981
978
980
982
985
983
983
981
982
986
987
986
984
984
985
987
991
992
993
995
1000
1005
1010
1016
1021
1023
1027
1028
1031
1033
1036
1036
1042
1042
1041
1036
1030
1024
1026
1026
1027
1028
1025
1021
1020
1019
1016
1010
1002
997
992
991
988
984
978
972
969
966
966
962
958
953
954
952
948
944
942
940
941
943
942
944
942
942
939
942
940
938
937
935
938
940
942
940
938
937
936
940
943
946
943
943
948
953
959
968
991
1039
1133
1250
1340
1360
1332
1298
1277
1268
1257
1240
1218
1199
1185
1178
1168
1150
1136
1115
1100
1082
1064
1042
1019
995
973
950
929
906
882
858
835
820
810
803
800
795
794
791
782
762
744
724
710
696
679
660
654
658
675
693
711
732
751
767
782
795
800
803
806
807
810
815
820
824
822
819
820
824
834
840
848
854
862
872
880
888
899
906
919
933
947
956
966
974
987
996
1003
1005
1003
1006
1007
1015
1019
1017
1018
1020
1025
1028
1027
1025
1031
1031
1038
1042
1045
1046
1048
1051
1057
1063
1065
1070
1074
1076
1081
1088
1092
1095
1099
1099
1103
1108
1114
1117
1117
1115
1121
1125
1131
1134
1134
1135
1137
1138
1140
1138
1137
1135
1137
1139
1138
1135
1135
1133
1132
1132
1129
1125
1124
1117
1113
1115
1113
1109
1101
1090
1085
1078
1076
1066
1059
1052
1047
1042
1039
1034
1029
1021
1013
1010
1005
998
992
987
986
982
978
978
976
975
976
980
983
987
992
997
1002
1008
1014
1016
1015
1013
1019
1021
1026
1026
1023
1015
1011
1010
1007
1005
1004
1003
1006
1008
1007
1006
1005
999
1000
996
993
990
985
982
977
973
968
963
959
954
950
948
945
942
941
935
937
934
934
931
929
929
928
932
932
934
929
927
930
930
931
930
931
926
927
930
931
930
926
925
924
926
929
927
925
925
926
926
926
928
929
928
926
926
926
926
926
924
928
928
931
929
927
927
928
928
931
930
928
929
931
935
935
934
933
932
931
934
935
935
935
935
935
936
938
939
937
937
939
941
942
940
940
939
941
944
946
946
946
947
950
954
958
961
964
964
972
994
1046
1132
1241
1329
1366
1348
1321
1297
1285
1272
1257
1243
1229
1212
1198
1183
1172
1158
1143
1124
1102
1078
1055
1031
1005
978
945
913
879
844
808
771
736
698
667
644
629
616
606
591
581
568
554
536
522
508
500
492
486
485
490
506
535
564
599
637
669
697
722
738
754
767
779
788
802
816
828
833
834
839
846
856
869
884
898
907
919
928
940
953
965
976
993
1009
1026
1038
1046
1054
1066
1074
1079
1082
1086
1086
1090
1095
1099
1101
1104
1107
1111
1116
1122
1124
1126
1129
1137
1141
1149
1154
1155
1161
1167
1176
1181
1188
1191
1190
1201
1206
1213
1216
1223
1224
1228
1232
1240
1247
1256
1261
1268
1273
1281
1285
1291
1293
1303
1308
1313
1312
1313
1310
1315
1317
1321
1317
1305
1295
1286
1282
1279
1274
1266
1252
1246
1240
1234
1228
1214
1202
1188
1172
1161
1149
1137
1121
1109
1098
1092
1077
1065
1048
1040
1032
1024
1017
1011
1002
996
989
982
977
973
971
969
968
964
962
955
954
953
953
954
953
949
947
948
950
952
950
948
944
941
941
945
947
945
940
942
942
942
940
939
941
944
944
946
946
943
940
942
946
948
948
947
942
944
947
948
952
951
949
946
946
949
951
952
950
947
945
947
948
949
949
949
946
946
945
948
945
949
947
948
948
949
947
945
946
947
948
948
948
948
952
955
955
948
947
947
950
954
951
951
950
951
950
952
955
954
951
952
952
955
952
947
948
950
950
953
952
953
952
951
950
954
955
955
951
950
953
954
955
953
954
956
958
957
959
957
957
959
963
966
968
971
975
983
995
1015
1063
1150
1262
1350
1373
1349
1317
1297
1283
1266
1255
1236
1217
1195
1177
1155
1137
1113
1087
1063
1034
1003
977
947
913
877
839
805
777
749
718
695
678
667
663
656
646
632
616
600
586
575
564
547
533
529
539
561
587
618
650
685
714
740
757
769
776
787
797
806
817
822
823
827
833
841
852
862
877
890
905
918
930
942
957
976
998
1020
1038
1052
1065
1081
1093
1102
1109
1113
1115
1116
1119
1118
1118
1119
1118
1124
1128
1132
1132
1134
1129
1130
1132
1135
1136
1133
1132
1133
1136
1138
1136
1137
1135
1135
1136
1138
1136
1137
1136
1142
1144
1148
1150
1150
1149
1154
1159
1162
1163
1162
1162
1165
1165
1168
1170
1167
1166
1165
1165
1163
1160
1157
1152
1151
1147
1142
1143
1136
1131
1126
1123
1118
1112
1106
1094
1089
1087
1083
1074
1065
1056
1047
1043
1037
1028
1021
1013
1007
1001
995
990
986
981
979
975
969
963
960
954
954
951
951
949
945
943
943
945
946
944
941
937
936
932
935
936
932
931
931
932
931
931
930
930
928
931
931
931
931
931
930
931
935
935
935
931
934
936
936
937
936
934
935
937
939
940
939
936
937
940
945
944
941
939
940
942
942
942
940
938
937
939
940
937
937
937
937
939
944
944
942
939
941
944
945
943
941
943
944
944
945
944
942
942
942
943
944
943
940
941
941
943
946
946
945
945
944
944
949
948
947
946
946
950
950
951
946
946
947
949
951
949
951
949
951
954
959
957
956
955
954
956
960
961
961
963
967
976
990
1014
1076
1182
1301
1366
1362
1327
1305
1293
1282
1269
1251
1235
1219
1202
1190
1176
1158
1136
1109
1085
1059
1036
1017
990
957
920
888
856
829
809
794
779
771
759
746
722
695
670
650
636
615
594
578
575
600
632
672
710
734
757
777
786
798
801
806
808
814
820
824
823
825
829
839
851
867
883
892
900
913
927
941
956
973
981
994
1006
1021
1029
1032
1030
1032
1037
1041
1041
1043
1039
1048
1055
1057
1060
1063
1063
1066
1071
1079
1079
1082
1085
1090
1100
1103
1105
1107
1112
1117
1122
1132
1138
1141
1144
1151
1159
1163
1168
1174
1175
1178
1185
1189
1193
1196
1197
1200
1202
1206
1205
1205
1202
1201
1202
1201
1199
1196
1189
1187
1184
1182
1176
1167
1161
1153
1148
1145
1137
1126
1117
1108
1103
1094
1085
1076
1067
1061
1053
1048
1041
1033
1023
1017
1014
1009
1004
994
986
981
981
980
980
978
971
971
966
967
967
961
960
958
961
959
959
956
953
952
953
954
954
954
951
951
952
954
951
953
950
950
951
951
951
951
949
950
951
950
952
951
949
947
950
950
956
954
954
952
952
953
955
952
955
956
958
960
958
957
952
949
951
952
955
953
951
949
953
956
958
958
953
953
951
952
952
951
949
950
951
951
950
948
947
951
951
949
950
948
948
946
947
949
952
953
948
948
950
953
957
959
959
961
966
973
981
988
989
990
989
992
998
1007
1017
1019
1023
1020
1015
1014
1009
1008
1012
1013
1010
1009
1009
1016
1023
1023
1022
1021
1034
1085
1175
1291
1384
1413
1395
1373
1359
1343
1325
1306
1283
1261
1245
1229
1209
1186
1158
1133
1106
1082
1052
1017
979
944
911
878
844
812
781
754
735
721
702
685
676
665
653
634
604
582
562
545
529
527
537
558
594
633
671
705
733
750
762
769
774
780
787
798
806
806
807
807
816
827
844
859
870
876
884
892
899
915
931
947
958
968
979
991
999
1001
1000
1002
1006
1014
1020
1022
1026
1027
1025
1025
1027
1033
1044
1057
1066
1072
1071
1074
1077
1082
1084
1088
1092
1102
1107
1111
1119
1128
1138
1143
1144
1148
1152
1156
1163
1165
1167
1170
1171
1173
1180
1183
1186
1188
1184
1184
1186
1184
1184
1180
1176
1172
1168
1165
1159
1153
1147
1143
1134
1125
1118
1113
1107
1099
1090
1082
1070
1066
1060
1051
1039
1029
1022
1013
1001
995
992
988
979
973
964
960
957
952
948
943
937
935
934
931
927
926
929
932
932
929
924
918
914
918
924
931
930
926
921
922
920
921
918
916
