1038
1040
1044
1047
1049
1046
1041
1034
1032
1028
1025
1025
1025
1025
1023
1022
1018
1019
1018
1013
1006
1001
997
995
989
982
974
970
964
963
960
955
951
951
950
946
944
942
941
941
936
935
937
939
939
936
931
928
930
934
934
933
930
931
933
930
930
930
930
934
931
924
923
926
928
931
931
931
930
927
928
932
934
938
937
936
937
939
945
952
953
962
981
1027
1120
1242
1350
1402
1392
1365
1345
1337
1320
1298
1278
1263
1247
1227
1206
1188
1172
1155
1135
1109
1080
1045
1012
980
946
913
879
845
818
793
773
752
726
706
693
687
682
678
675
666
648
631
612
596
578
560
545
544
559
587
624
660
691
729
760
780
794
800
806
813
820
827
831
833
835
838
845
859
873
885
895
905
914
921
931
946
963
982
997
1010
1025
1035
1044
1052
1061
1066
1072
1074
1077
1081
1090
1094
1097
1097
1099
1104
1111
1115
1121
1125
1126
1131
1134
1142
1149
1153
1155
1164
1172
1181
1186
1192
1197
1207
1209
1211
1211
1223
1227
1231
1233
1236
1239
1243
1241
1245
1247
1245
1243
1242
1236
1236
1238
1236
1232
1225
1220
1218
1216
1209
1202
1192
1182
1175
1171
1165
1157
1147
1139
1130
1124
1114
1104
1092
1082
1072
1066
1058
1050
1043
1034
1029
1023
1019
1013
1007
1006
1008
1009
1010
1011
1012
1013
1018
1025
1028
1031
1035
1036
1040
1043
1040
1035
1026
1020
1017
1015
1011
1009
1008
1010
1013
1012
1008
1002
997
991
988
986
983
976
971
963
960
956
950
943
939
939
936
935
932
932
927
927
924
923
925
926
922
921
924
925
927
925
924
922
920
924
924
922
919
919
921
921
919
919
918
914
916
917
915
915
916
917
918
919
917
916
911
913
914
915
920
920
916
914
916
917
918
916
916
915
913
916
918
918
919
915
917
917
919
918
918
917
917
920
921
921
923
922
922
923
927
927
926
924
925
928
930
930
931
929
930
932
935
936
934
934
936
942
947
952
957
963
987
1040
1144
1271
1377
1403
1380
1353
1340
1332
1317
1298
1277
1259
1241
1220
1199
1177
1157
1132
1105
1071
1031
991
953
913
870
825
785
749
719
692
665
646
632
621
611
606
602
598
583
567
556
543
531
518
508
507
524
554
594
629
664
700
733
756
771
779
787
793
806
814
820
820
822
826
836
850
862
878
889
903
917
925
943
959
973
991
1009
1020
1034
1047
1060
1072
1077
1080
1082
1083
1087
1091
1098
1104
1111
1114
1117
1122
1127
1134
1142
1145
1146
1151
1157
1168
1174
1181
1186
1187
1198
1205
1212
1218
1224
1230
1237
1242
1251
1260
1267
1277
1282
1291
1300
1304
1308
1313
1319
1323
1324
1326
1323
1318
1306
1298
1292
1286
1280
1273
1266
1259
1251
1240
1228
1217
1205
1195
1180
1162
1144
1131
1115
1101
1087
1069
1054
1039
1029
1021
1012
1000
989
976
970
966
960
954
949
945
940
941
938
935
927
923
922
922
922
920
918
915
916
915
914
911
910
907
912
914
915
912
911
912
910
912
913
912
912
910
910
913
913
912
910
910
911
914
914
916
913
914
913
910
915
914
914
913
914
918
914
914
911
910
911
915
914
917
915
915
917
918
916
915
914
914
916
914
919
917
916
916
916
920
920
920
919
917
920
920
918
920
917
914
916
921
923
919
920
919
921
923
922
921
919
919
924
928
927
926
920
920
925
928
926
926
924
925
926
931
931
927
925
924
926
930
931
932
932
931
935
939
941
945
945
959
977
1025
1124
1251
1360
1390
1368
1337
1318
1304
1290
1268
1245
1223
1200
1177
1156
1129
1102
1072
1036
998
958
917
873
827
781
737
698
664
635
618
600
583
568
561
559
558
552
539
523
510
498
486
471
465
470
494
545
595
639
671
699
726
746
762
770
775
787
792
802
807
812
819
827
838
856
876
893
906
921
932
951
970
993
1017
1039
1057
1075
1095
1110
1121
1131
1139
1150
1157
1158
1157
1155
1155
1156
1160
1167
1167
1168
1174
1179
1185
1189
1189
1189
1188
1192
1195
1197
1197
1198
1201
1207
1211
1217
1217
1222
1223
1230
1237
1238
1238
1239
1239
1243
1247
1250
1249
1244
1244
1241
1240
1238
1235
1231
1227
1221
1217
1210
1202
1193
1185
1179
1174
1166
1155
1143
1131
1122
1114
1103
1088
1078
1066
1059
1049
1035
1023
1011
1001
992
984
978
969
963
956
952
948
941
936
929
924
925
924
921
919
914
914
911
913
910
906
905
903
904
906
904
905
904
902
903
905
906
902
901
901
905
908
905
906
907
908
908
907
908
907
908
912
914
916
915
913
916
913
915
915
916
914
913
915
916
917
918
920
915
916
916
919
920
917
915
914
913
914
915
916
912
910
912
912
918
916
914
913
914
917
918
915
913
912
915
915
917
915
913
913
912
915
915
915
914
913
915
918
918
914
914
914
915
916
916
916
913
913
914
918
917
916
913
914
914
919
919
918
919
918
920
924
925
925
923
925
931
936
938
944
953
979
1043
1156
1283
1375
1381
1347
1322
1310
1300
1278
1252
1226
1204
1182
1159
1134
1106
1073
1038
998
956
913
866
817
773
731
690
654
624
597
581
574
567
559
555
553
551
546
537
526
515
501
480
472
469
486
519
572
623
670
705
735
760
781
792
801
805
808
809
807
807
812
817
825
835
845
861
877
886
898
908
921
934
951
966
981
995
1005
1021
1033
1040
1041
1041
1043
1050
1057
1064
1068
1069
1071
1077
1082
1090
1091
1095
1100
1104
1115
1120
1124
1132
1138
1148
1153
1160
1165
1172
1180
1188
1196
1199
1203
1205
1211
1219
1225
1231
1232
1236
1235
1240
1243
1244
1244
1238
1237
1239
1240
1235
1229
1223
1221
1218
1213
1207
1197
1191
1186
1178
1173
1160
1149
1140
1133
1127
1115
1100
1087
1075
1069
1061
1053
1043
1032
1020
1012
1002
997
991
982
975
968
963
960
955
950
941
933
927
928
931
928
923
920
919
919
920
918
915
914
915
917
917
914
911
911
914
917
917
915
912
912
914
913
909
912
911
913
915
916
916
917
913
915
917
919
917
914
913
915
915
919
920
920
920
918
917
920
920
920
919
917
920
922
922
920
920
921
920
920
919
920
919
919
918
920
917
915
913
913
916
919
919
919
914
913
914
918
920
914
913
908
911
915
917
916
915
911
914
915
917
917
913
914
915
918
917
916
916
915
915
916
914
915
916
916
916
920
918
916
910
911
916
921
924
926
926
926
934
939
945
949
953
959
964
966
970
979
986
993
1004
1008
1012
1020
1043
1106
1212
1321
1381
1388
1368
1347
1338
1326
1309
1287
1266
1240
1217
1194
1170
1146
1115
1083
1051
1019
980
940
899
855
815
779
741
701
665
630
609
586
572
557
546
539
539
542
541
530
516
503
491
484
469
456
447
444
460
490
529
567
601
630
662
692
709
724
734
740
745
749
756
757
757
759
765
777
788
803
813
825
840
848
858
865
879
892
911
930
942
956
968
980
994
1004
1011
1013
1014
1017
1023
1030
1036
1038
1041
1045
1050
1054
1058
1063
1069
1072
1080
1088
1093
1095
1101
1107
1115
1123
1128
1137
1142
1148
1155
1163
1167
1174
1177
1182
1188
1194
1197
1199
1206
1209
1214
1220
1220
1219
1220
1220
1222
1224
1220
1217
1215
1211
1212
1212
1207
1198
1195
1188
1187
1180
1172
1164
1156
1149
1140
1134
1127
1118
1108
1098
1092
1081
1069
1063
1052
1042
1033
1026
1017
1008
999
991
986
982
976
970
961
956
952
948
945
943
935
932
930
930
927
923
922
918
920
920
916
913
911
909
912
917
915
916
913
912
913
918
916
914
914
913
913
912
913
912
912
911
913
914
914
916
917
915
917
919
922
921
920
918
921
922
922
924
923
920
921
925
926
923
921
923
925
925
924
921
919
918
924
925
926
924
922
922
923
924
926
924
927
924
928
933
936
938
940
944
953
962
966
968
970
974
981
987
992
996
997
994
993
988
983
978
973
972
974
977
976
970
969
963
964
961
958
953
945
941
936
931
927
919
915
916
915
913
909
904
901
898
899
900
899
899
895
892
891
895
896
895
892
892
895
897
897
899
900
903
915
926
943
984
1069
1189
1304
1361
1353
1323
1302
1289
1280
1265
1241
1216
1195
1174
1158
1142
1119
1091
1062
1036
1008
982
953
921
881
840
801
765
734
704
678
651
629
619
601
593
591
590
585
571
554
540
529
517
506
495
489
492
509
532
561
591
620
653
679
698
714
727
736
746
752
759
771
778
781
785
789
802
822
835
847
857
866
878
894
912
930
942
956
969
986
1003
1013
1021
1024
1028
1033
1039
1041
1043
1046
1049
1054
1059
1065
1066
1069
1076
1084
1088
1094
1095
1096
1100
1105
1116
1122
1126
1132
1137
1145
1154
1159
1164
1171
1176
1180
1189
1193
1198
1201
1203
1210
1214
1214
1215
1217
1215
1219
1220
1219
1215
1212
1209
1210
1209
1205
1199
1192
1187
1184
1182
1175
1167
1160
1150
1147
1139
1130
1122
1114
1104
1097
1092
1082
1069
1059
1047
1041
1033
1026
1017
1009
1000
991
987
981
971
966
959
955
953
949
943
939
934
931
930
929
926
920
918
917
919
915
912
912
911
912
913
910
911
911
910
911
914
915
916
916
923
930
935
935
942
948
954
961
967
971
975
980
982
990
994
993
987
980
974
973
975
973
971
970
970
973
974
971
963
960
957
954
952
946
940
935
929
925
918
915
912
908
905
903
902
899
897
894
889
887
889
885
883
882
880
883
883
882
880
878
878
878
881
880
881
879
878
879
879
876
876
874
873
876
879
878
875
873
871
873
876
876
874
875
874
875
877
876
872
872
871
874
875
875
873
871
871
873
877
874
870
871
872
875
876
875
873
876
878
881
884
884
886
888
889
898
909
928
965
1048
1175
1300
1355
1343
1307
1288
1277
1266
1251
1224
1203
1180
1161
1145
1127
1103
1074
1045
1012
979
946
914
873
830
784
744
708
676
650
617
594
579
569
558
546
542
538
532
523
508
497
486
474
464
459
464
477
504
536
573
611
648
679
699
713
729
744
757
763
773
777
784
789
793
796
806
823
839
857
867
879
888
899
915
934
951
968
980
990
1005
1014
1023
1027
1033
1032
1040
1048
1054
1054
1054
1057
1063
1069
1073
1079
1082
1085
1093
1101
1105
1109
1109
1115
1122
1131
1136
1142
1146
1152
1160
1166
1174
1179
1188
1190
1197
1202
1204
1206
1207
1211
1214
1218
1220
1217
1216
1215
1216
1216
1214
1210
1201
1198
1196
1193
1189
1181
1172
1163
1162
1157
1152
1146
1141
1133
1129
1127
1122
1116
1111
1108
1102
1103
1097
1094
1087
1084
1081
1075
1062
1044
1028
1018
1013
1010
1007
1001
995
988
983
976
971
966
960
954
947
940
932
927
920
913
907
903
899
895
893
888
888
888
885
882
880
879
879
879
879
876
876
875
879
880
879
879
876
871
870
873
873
873
875
873
875
878
879
877
875
874
875
878
879
873
871
871
873
877
877
871
871
869
873
873
873
870
869
867
867
871
870
872
871
870
870
873
873
872
871
867
865
869
869
870
869
869
871
874
875
873
872
871
875
876
875
873
874
872
876
879
880
878
878
874
876
877
878
878
880
878
881
882
881
881
880
878
882
884
884
883
882
880
882
886
887
886
885
887
887
890
891
891
892
893
893
902
907
911
916
928
952
1006
1107
1231
1328
1352
1334
1306
1290
1276
1257
1238
1217
1197
1177
1150
1128
1104
1081
1048
1011
970
930
891
858
820
776
732
690
650
621
599
572
553
539
526
518
517
510
505
494
482
473
463
452
442
437
442
461
493
530
568
600
633
664
691
712
726
735
744
753
763
770
772
778
787
803
817
831
848
862
875
890
904
919
933
945
961
978
991
1003
1016
1025
1034
1040
1046
1047
1051
1056
1059
1067
1075
1077
1082
1084
1090
1098
1107
1113
1120
1126
1134
1146
1157
1171
1180
1195
1207
1218
1229
1236
1246
1255
1265
1272
1275
1272
1273
1272
1273
1277
1283
1286
1285
1284
1283
1283
1282
1274
1265
1257
1251
1244
1240
1231
1221
1210
1199
1190
1182
1172
1161
1151
1136
1127
1120
1108
1092
1080
1070
1062
1054
1039
1030
1019
1007
995
987
973
965
958
949
943
937
930
926
918
912
910
908
901
897
893
891
890
891
888
886
884
880
879
879
878
874
874
874
878
881
877
876
875
876
878
878
878
877
876
877
878
881
880
879
877
877
880
881
877
878
879
880
884
887
884
886
886
886
887
888
888
886
887
887
891
892
893
892
887
886
887
888
891
889
886
887
889
892
891
889
886
886
888
892
889
887
886
882
886
891
892
889
889
888
891
893
890
888
885
887
889
890
890
890
888
888
891
891
891
889
889
890
891
894
890
889
887
887
890
894
890
890
889
888
891
894
893
891
889
891
891
895
891
894
895
896
893
898
897
896
896
898
896
905
911
913
928
950
1007
1106
1233
1332
1356
1333
1306
1291
1277
1260
1236
1209
1184
1161
1133
1106
1079
1047
1015
976
931
890
846
800
754
708
661
623
586
557
539
527
513
499
490
486
485
483
470
461
446
438
430
427
425
435
460
500
546
587
622
649
675
695
711
730
744
758
769
784
797
811
822
839
856
881
906
927
935
938
941
952
971
994
1010
1023
1033
1039
1046
1052
1051
1049
1047
1044
1048
1051
1050
1047
1044
1044
1051
1055
1057
1059
1060
1062
1067
1071
1075
1080
1085
1090
1099
1106
1109
1120
1124
1128
1137
1145
1151
1157
1158
1162
1168
1167
1168
1169
1171
1170
1170
1171
1167
1162
1154
1147
1145
1141
1134
1124
1115
1107
1099
1090
1083
1072
1057
1045
1035
1027
1016
1002
986
969
959
953
942
928
915
902
894
886
879
868
859
851
851
847
839
829
823
817
818
814
814
811
809
805
803
804
803
801
797
797
799
802
799
794
793
792
795
799
796
795
791
793
795
797
795
795
792
792
792
794
796
797
797
797
799
803
798
796
793
793
798
801
799
799
799
797
799
804
801
799
795
799
800
803
799
797
796
795
798
800
798
797
794
793
795
797
797
794
790
794
796
801
800
796
793
794
797
799
796
795
792
796
798
802
797
795
794
793
793
797
796
793
794
796
797
800
798
796
794
795
797
801
799
796
797
797
798
801
802
802
801
798
800
804
804
804
800
803
805
810
811
812
809
812
817
824
825
832
845
876
946
1066
1193
1320
1335
1298
1257
1240
1224
1204
1178
1149
1125
1103
1078
1055
1029
1002
971
938
901
868
831
795
764
733
695
656
623
596
573
558
542
531
521
515
514
511
504
493
481
473
468
463
461
459
466
485
512
545
576
599
618
637
653
667
678
682
683
688
696
700
705
710
716
727
743
758
769
775
786
799
812
825
840
850
862
874
886
899
908
911
912
916
923
928
933
935
939
944
950
957
964
967
968
973
977
985
997
1002
1009
1017
1026
1038
1049
1057
1064
1069
1077
1087
1098
1105
1110
1118
1126
1138
1145
1146
1148
1153
1162
1164
1168
1167
1165
1163
1164
1162
1157
1151
1146
1139
1130
1127
1120
1110
1101
1091
1083
1077
1064
1051
1036
1025
1016
1009
997
986
973
964
956
948
937
925
916
906
901
898
894
885
877
874
867
865
860
858
854
854
855
855
853
851
846
845
845
847
847
846
845
846
848
849
848
844
841
843
846
847
847
847
847
847
848
850
849
853
851
851
855
856
857
855
855
858
859
860
861
860
858
859
864
865
863
862
861
865
867
870
867
865
865
865
866
869
873
870
868
866
864
869
867
868
866
866
868
870
870
872
873
873
874
874
872
871
872
869
873
875
875
876
875
877
877
880
877
875
874
876
878
880
883
883
880
881
882
887
891
892
893
897
901
908
915
922
923
927
934
939
947
953
955
958
955
951
947
947
945
947
950
954
954
950
949
951
954
955
959
969
1006
1094
1221
1348
1432
1424
1378
1347
1328
1315
1289
1261
1229
1198
1168
1136
1110
1080
1047
1010
977
941
910
878
843
811
783
755
725
696
674
652
639
631
619
609
598
599
601
600
589
577
564
560
555
549
547
545
548
562
588
618
648
675
701
722
742
757
767
774
779
785
791
794
795
795
800
806
818
832
847
859
870
880
889
901
914
931
947
965
982
994
1003
1012
1020
1029
1035
1041
1046
1055
1056
1062
1071
1077
1081
1084
1087
1097
1106
1115
1120
1125
1131
1142
1149
1159
1168
1174
1178
1186
1197
1205
1216
1225
1230
1240
1245
1251
1256
1263
1268
1278
1285
1286
1286
1287
1288
1293
1295
1293
1289
1284
1282
1284
1282
1277
1272
1262
1254
1248
1240
1232
1220
1211
1198
1194
1186
1177
1169
1154
1139
1127
1115
1107
1097
1084
1075
1062
1052
1046
1037
1028
1019
1013
1008
1004
997
994
988
986
982
983
979
975
972
972
970
969
968
966
964
966
968
971
970
969
963
965
968
969
970
969
966
967
969
973
971
972
969
970
973
976
978
976
975
977
980
980
981
980
977
980
983
986
987
986
983
984
984
988
990
990
990
993
996
1003
1005
1009
1010
1018
1026
1033
1036
1040
1043
1045
1057
1063
1068
1063
1054
1048
1043
1044
1041
1041
1037
1040
1039
1038
1034
1030
1024
1022
1021
1017
1013
1005
999
997
994
993
989
986
979
979
978
979
979
975
971
970
969
969
972
970
965
966
968
973
972
970
972
970
973
971
971
973
972
973
975
975
975
980
979
982
987
993
999
1008
1026
1074
1167
1294
1417
1467
1442
1402
1379
1369
1355
1330
1303
1276
1252
1236
1215
1193
1169
1144
1117
1092
1058
1029
998
967
935
901
865
831
799
776
753
734
719
703
693
684
682
683
676
665
649
638
631
624
618
608
608
616
637
661
689
716
747
778
808
829
840
851
860
870
879
887
895
900
905
910
921
934
944
957
968
980
994
1002
1011
1021
1031
1050
1067
1084
1097
1106
1116
1127
1136
1143
1149
1152
1153
1158
1164
1172
1173
1175
1176
1181
1188
1194
1197
1204
1206
1216
1220
1228
1231
1237
1241
1248
1257
1266
1277
1279
1285
1292
1303
1308
1313
1319
1322
1329
1335
1341
1344
1344
1346
1349
1350
1354
1355
1353
1351
1351
1349
1349
1344
1339
1331
1327
1323
1318
1313
1308
1298
1289
1285
1279
1266
1257
1245
1234
1229
1223
1214
1199
1188
1178
1167
1158
1149
1136
1124
1115
1108
1102
1093
1084
1078
1070
1067
