971
967
964
962
966
967
968
968
966
967
968
969
970
965
965
965
968
967
967
966
966
963
966
966
970
968
963
965
966
967
970
967
966
967
968
972
970
966
964
964
969
972
973
972
969
969
973
973
977
975
974
979
985
985
983
983
981
983
985
988
986
987
984
986
990
994
994
994
994
995
1000
1000
999
1001
1000
1002
1003
1006
1003
1002
1002
1004
1007
1009
1006
1004
1004
1005
1008
1009
1012
1008
1000
1002
1003
1002
1003
1000
998
1000
1000
1001
1003
999
998
999
999
1000
1001
1000
997
994
996
1002
1001
996
993
992
992
991
992
988
987
988
988
989
986
989
986
983
981
981
981
979
977
975
975
975
976
974
970
970
970
970
965
964
963
964
963
964
962
960
959
963
966
969
968
960
961
958
962
964
964
963
960
960
961
961
965
965
962
960
960
965
961
961
960
961
962
963
960
961
960
964
966
968
967
965
963
960
963
967
971
968
963
959
962
968
973
971
967
967
971
969
970
964
963
964
969
972
971
965
965
970
972
973
974
978
978
981
985
989
988
982
982
987
997
1000
1001
1001
1006
1008
1011
1016
1016
1017
1016
1018
1024
1030
1031
1030
1026
1023
1022
1020
1011
1000
994
991
986
979
974
972
969
972
975
979
980
979
976
974
978
980
981
978
978
978
981
985
982
981
981
983
986
987
987
985
986
988
988
988
989
992
991
986
988
987
990
988
988
984
989
997
1011
1025
1043
1067
1090
1096
1085
1075
1078
1086
1093
1096
1101
1106
1105
1105
1110
1112
1115
1115
1103
1086
1058
1034
1010
986
960
929
908
892
895
905
918
925
927
932
941
949
953
958
963
965
963
963
968
970
972
971
968
965
962
960
964
969
969
968
967
965
966
966
965
962
962
968
967
969
968
964
962
963
966
967
968
967
963
966
965
967
967
962
962
963
969
969
970
968
965
967
968
969
971
972
970
971
974
975
977
973
974
976
979
984
988
988
984
984
987
987
988
987
989
992
993
993
994
997
1000
1004
1002
1003
1003
1002
1004
1007
1011
1012
1008
1005
1004
1006
1009
1012
1013
1010
1008
1010
1008
1009
1009
1008
1006
1008
1009
1010
1008
1007
1008
1008
1008
1008
1008
1008
1005
1002
1002
1006
1005
1007
1003
1004
1007
1002
1000
999
998
998
1000
1001
1001
999
995
994
996
995
992
991
991
991
991
991
991
991
989
988
988
987
986
985
983
985
986
989
989
986
981
982
984
986
986
984
982
984
987
987
987
987
988
988
986
990
992
990
988
989
990
994
997
997
994
996
998
1000
997
997
994
997
999
1002
1002
997
998
999
998
997
998
1003
1001
1003
1003
1004
1003
1006
1003
1005
1006
1007
1007
1007
1008
1009
1012
1015
1019
1019
1020
1023
1026
1030
1034
1035
1038
1038
1042
1047
1048
1047
1045
1046
1052
1054
1058
1056
1053
1043
1040
1036
1031
1023
1016
1012
1005
1002
1000
997
996
996
1001
1003
1003
1001
998
999
999
1003
1002
1002
998
1000
999
1001
999
1000
997
998
1002
1003
1003
1002
1000
1000
1002
1004
1004
1002
1000
997
1003
1002
999
993
987
991
999
1013
1031
1050
1069
1081
1082
1081
1078
1083
1091
1100
1106
1105
1106
1106
1107
1113
1114
1114
1105
1086
1057
1027
1005
984
964
937
915
905
909
926
936
945
945
951
960
969
976
978
976
978
981
983
983
984
980
981
986
986
983
981
977
977
984
986
985
985
980
979
982
982
983
984
982
979
977
981
984
981
979
981
981
984
984
983
981
979
982
983
983
981
979
981
982
985
983
986
985
986
987
989
989
987
987
987
991
993
997
995
995
995
996
1001
1001
1003
1001
1002
1003
1006
1006
1006
1007
1008
1009
1010
1012
1011
1009
1010
1015
1017
1020
1020
1017
1014
1016
1020
1019
1017
1013
1013
1016
1018
1017
1018
1012
1013
1016
1016
1014
1014
1009
1012
1012
1014
1012
1009
1009
1009
1012
1010
1006
1005
1006
1006
1006
1006
1006
1003
1001
1002
1004
1003
1004
999
997
998
1000
998
999
995
992
993
994
997
990
988
983
987
989
991
989
986
982
984
985
986
987
985
983
983
984
986
986
986
982
980
982
984
983
985
984
986
987
987
985
985
983
985
986
990
989
986
983
982
987
990
991
987
988
988
990
993
991
990
987
987
988
991
991
992
989
989
991
991
991
990
990
991
993
995
994
989
986
989
994
993
992
987
987
992
993
996
994
987
990
989
992
995
995
995
991
989
990
994
994
992
989
993
995
997
997
995
995
993
994
995
995
997
994
997
1000
1005
1006
1005
1004
1008
1013
1013
1013
1012
1015
1020
1025
1028
1031
1031
1030
1031
1033
1035
1036
1038
1040
1042
1043
1040
1034
1030
1016
1012
1007
1003
996
986
978
978
979
986
985
984
979
982
982
984
983
981
978
978
980
980
982
980
975
978
981
981
981
980
979
978
982
984
980
978
976
975
976
976
975
970
965
966
972
984
1002
1024
1043
1057
1054
1045
1049
1058
1065
1074
1073
1077
1078
1080
1080
1078
1075
1059
1025
990
964
941
920
899
882
876
886
905
914
922
926
936
941
948
953
956
955
954
952
952
952
955
955
954
949
947
951
952
953
949
947
948
951
952
952
948
945
947
948
950
949
947
943
946
946
948
947
947
945
946
949
952
950
947
947
949
950
951
952
951
950
950
951
953
953
953
953
953
956
958
955
958
960
960
963
965
966
966
963
965
968
967
968
970
970
970
970
969
971
969
968
970
973
974
974
974
970
972
974
976
974
970
966
966
968
970
966
963
964
962
962
962
962
962
960
962
962
967
963
961
957
954
954
954
956
954
953
950
948
949
946
948
944
940
940
944
950
947
940
937
937
940
939
937
935
932
930
929
924
922
921
925
929
930
924
918
914
915
914
918
919
919
914
912
914
915
916
914
910
909
912
915
916
914
913
916
918
916
916
915
915
917
921
920
918
918
916
919
919
922
923
921
921
921
923
925
927
925
922
919
919
924
924
925
919
922
923
927
925
923
919
917
920
923
925
923
923
922
924
926
925
924
922
922
923
926
924
924
921
923
926
927
926
924
922
925
926
928
926
925
924
923
927
927
927
926
927
926
932
932
931
929
926
929
932
936
936
935
932
939
943
947
947
944
944
949
952
956
960
964
967
971
974
975
977
978
980
985
986
989
988
984
975
967
961
954
950
940
930
929
928
932
932
931
930
933
934
937
934
931
928
929
931
932
933
930
929
932
934
934
933
931
932
932
935
936
937
934
933
933
934
935
936
935
934
939
949
968
985
1008
1028
1044
1048
1039
1037
1043
1047
1054
1060
1068
1065
1065
1068
1071
1074
1070
1050
1017
981
952
927
899
872
847
837
844
860
872
878
881
885
893
906
913
915
915
914
913
914
916
913
912
912
912
911
911
913
912
911
911
912
914
914
912
908
909
912
914
912
912
911
913
915
914
914
913
911
913
912
915
915
911
912
916
919
922
919
917
916
917
919
920
922
920
922
924
928
930
928
928
927
927
931
932
934
937
933
935
938
940
943
943
942
944
946
946
948
948
946
950
954
955
959
959
957
957
959
962
963
962
961
964
968
969
968
964
964
964
966
966
966
964
962
964
966
966
967
965
963
964
967
965
962
963
962
965
964
965
962
960
958
961
958
961
959
958
955
956
958
956
956
955
952
952
953
953
951
947
946
945
945
946
947
942
941
940
942
943
942
938
935
936
935
939
940
936
934
932
935
935
937
937
934
937
938
940
939
936
936
939
940
943
942
940
939
940
941
944
943
944
940
943
942
946
945
945
944
942
944
947
951
950
946
945
947
949
951
948
945
945
949
952
950
947
945
947
950
952
951
950
946
949
950
951
953
950
951
951
954
956
957
957
956
960
960
965
965
967
966
971
977
983
986
989
990
993
995
998
996
995
998
1002
1002
999
992
984
973
967
964
960
952
944
941
944
947
949
946
947
945
946
947
946
945
944
945
944
946
948
948
950
946
948
950
952
953
950
946
947
947
950
950
947
945
946
947
948
947
949
960
981
1006
1034
1050
1048
1036
1037
1051
1064
1066
1067
1063
1070
1075
1079
1078
1072
1049
1016
984
956
931
904
877
862
857
865
879
889
892
899
906
915
924
924
926
932
933
933
929
928
932
933
932
932
932
932
930
931
933
933
931
931
929
928
926
930
930
930
929
931
931
932
931
929
927
927
930
932
932
929
929
932
933
935
934
935
934
933
936
937
937
938
938
940
941
942
941
942
939
944
947
949
949
948
947
949
952
954
955
953
953
955
958
963
963
963
963
963
966
965
967
967
966
970
972
972
972
971
969
971
972
975
975
976
974
975
975
977
975
973
970
971
973
979
978
974
970
973
971
975
974
973
970
967
968
971
969
970
965
964
968
967
964
963
962
963
964
968
963
963
959
956
957
959
959
958
953
954
953
955
954
952
949
949
948
946
949
949
944
945
945
947
946
947
942
943
944
947
949
946
942
945
948
946
950
945
944
947
949
952
952
949
947
947
948
949
948
951
949
953
953
954
955
955
953
954
956
958
957
957
957
955
956
957
961
958
958
956
958
962
960
961
955
956
959
960
961
961
959
958
961
961
960
957
955
957
960
961
961
959
959
960
962
960
960
960
957
957
960
963
962
962
960
962
961
964
964
964
961
964
965
965
964
963
960
960
965
966
965
963
966
968
973
977
978
975
976
981
981
986
991
992
995
996
999
999
1001
1001
1003
1004
1013
1015
1015
1006
999
995
988
983
975
964
954
953
955
957
955
953
956
958
955
957
958
956
955
956
958
958
956
956
955
955
960
961
961
962
957
957
958
960
959
958
957
958
958
959
960
957
953
950
953
965
983
1002
1024
1040
1045
1039
1036
1043
1048
1059
1063
1065
1068
1070
1067
1067
1069
1063
1036
1003
975
952
932
909
886
868
861
871
884
894
899
904
911
921
932
935
937
937
934
934
936
936
936
937
935
936
940
938
936
933
931
934
936
938
936
936
930
931
933
935
934
932
929
932
936
934
935
933
931
933
937
931
932
933
934
935
939
937
938
934
935
937
941
946
945
944
940
941
944
947
946
945
946
951
952
953
956
957
956
958
960
959
960
960
958
960
964
967
966
966
964
967
972
973
973
971
970
972
977
977
976
973
973
976
977
979
978
976
974
979
981
981
979
977
974
973
975
976
975
975
970
971
973
974
971
968
969
972
972
973
969
966
962
963
964
964
965
965
965
962
965
966
967
962
956
952
951
959
966
962
959
958
958
958
955
953
950
950
949
950
947
945
944
946
945
949
946
943
940
939
939
943
944
942
937
933
937
940
942
940
938
938
939
939
944
945
944
943
946
947
949
947
947
946
948
953
949
949
947
946
946
950
953
952
953
954
955
958
956
954
952
951
955
958
958
957
954
955
954
959
955
956
955
956
957
958
955
955
953
958
959
959
961
959
956
957
960
962
960
957
956
958
961
960
960
958
957
959
961
963
960
960
959
960
963
963
958
960
960
962
962
962
963
964
967
972
972
974
975
977
978
982
986
991
992
993
993
997
1002
1005
1004
1003
1003
1009
1014
1016
1015
1009
1001
996
991
985
982
973
963
957
952
953
954
952
953
955
957
959
959
953
951
953
956
957
954
955
951
954
957
955
955
955
955
958
958
955
952
953
951
951
953
956
958
956
953
953
952
950
949
945
943
946
954
963
978
995
1009
1027
1043
1048
1043
1042
1044
1049
1051
1054
1056
1058
1056
1060
1061
1059
1057
1057
1049
1028
1004
984
967
945
918
891
874
865
859
863
871
886
901
905
906
908
918
927
933
934
933
932
932
932
935
939
940
935
933
935
935
932
934
936
934
931
929
929
930
934
932
931
931
930
925
924
925
926
929
933
930
926
925
923
922
927
928
927
925
924
926
927
926
925
923
924
927
928
928
929
928
929
930
931
931
933
933
933
934
935
934
935
934
933
936
937
943
943
941
941
945
947
947
947
948
950
951
954
954
956
951
954
961
963
963
964
963
962
966
969
970
970
967
967
968
971
971
968
966
965
966
968
969
967
963
963
964
965
961
960
957
958
960
961
960
956
954
959
959
963
960
958
955
956
958
957
954
954
953
954
953
951
952
948
947
948
951
951
950
946
945
946
945
947
946
947
942
944
944
943
942
938
939
939
943
942
942
939
932
933
939
941
940
937
933
936
938
942
939
937
937
938
941
940
940
939
939
939
945
943
943
944
941
941
944
943
945
945
941
944
947
948
947
946
944
946
950
953
953
951
950
949
952
952
953
952
950
954
955
953
957
955
955
957
957
955
954
956
953
955
957
960
958
957
954
958
960
960
960
957
955
959
963
962
962
959
959
958
961
962
962
963
963
961
961
962
964
965
965
966
968
972
972
968
967
971
974
980
980
983
984
988
992
996
997
1001
1001
1005
1009
1012
1014
1014
1013
1015
1016
1014
1006
998
985
980
977
973
965
957
951
953
957
960
958
956
955
957
958
957
957
952
952
955
959
958
956
957
954
956
956
957
956
955
957
957
961
960
959
958
958
960
964
962
960
957
957
959
961
962
965
975
989
1010
1036
1056
1072
1076
1067
1063
1074
1083
1089
1093
1093
1094
1096
1101
1104
1105
1101
1094
1073
1043
1013
990
964
939
915
894
877
864
867
879
892
901
903
905
910
917
929
936
938
937
938
939
938
938
939
940
941
944
944
942
942
937
938
939
944
940
940
938
936
941
941
939
937
937
936
939
941
942
940
940
937
940
940
942
940
941
939
936
941
939
939
938
935
937
941
944
945
942
942
945
945
947
947
945
947
950
951
954
952
950
950
954
956
959
959
959
957
960
962
963
965
967
965
966
972
971
973
974
976
980
980
981
980
978
980
983
983
986
987
987
987
988
990
989
989
986
985
985
987
990
988
987
985
984
986
986
984
983
980
984
987
986
984
985
981
984
984
981
982
977
979
979
981
982
978
974
972
972
975
977
977
975
970
971
973
971
970
969
966
967
966
965
965
962
958
960
963
961
961
960
959
958
959
960
958
954
955
956
956
959
959
957
958
959
961
962
964
965
963
962
964
965
966
964
964
965
967
969
969
970
968
969
969
970
971
971
970
971
973
977
972
971
971
974
977
975
979
979
976
978
981
980
981
977
978
979
979
980
979
977
976
980
980
982
981
979
980
980
982
983
982
980
979
982
980
983
985
987
990
992
996
995
995
995
996
1000
1004
1009
1010
1013
1016
1019
1023
1024
1023
1024
1025
1029
1031
1032
1029
1026
1020
1016
1010
1003
995
989
982
974
975
971
972
971
971
974
974
973
972
969
970
972
974
976
974
972
971
973
975
977
977
977
975
974
976
976
976
975
974
979
982
982
980
974
972
974
978
975
973
968
976
996
1019
1040
1061
1079
1078
1074
1077
1092
1099
1102
1102
1105
1107
1114
1122
1121
1115
1112
1099
1067
1030
1005
981
957
930
904
885
880
888
905
918
919
921
928
936
947
951
957
956
951
951
955
955
958
958
958
956
959
957
958
956
954
953
957
959
956
956
956
953
954
956
956
956
956
953
957
955
958
955
952
954
955
959
959
959
955
953
954
959
959
960
959
960
963
964
965
963
964
965
969
970
970
968
968
969
972
974
975
975
976
982
985
985
985
984
984
983
987
991
993
993
990
993
997
1002
1004
1001
1001
1000
1004
1004
1003
1002
1002
1004
1007
1007
1004
1001
1002
1001
1004
1007
1007
1005
1003
1001
1003
1003
1003
1001
999
997
999
998
999
999
998
997
998
1001
1000
998
994
992
995
999
998
995
994
990
991
991
992
989
985
984
984
988
989
987
982
979
982
981
982
982
978
975
977
978
978
976
973
972
974
974
975
973
969
967
971
973
975
977
975
972
970
972
976
978
977
974
976
977
981
981
981
976
980
980
982
983
982
983
984
986
988
983
981
980
985
985
984
985
986
983
984
987
989
987
986
983
988
990
989
989
987
985
988
991
991
993
989
986
987
989
991
989
989
986
989
993
995
993
989
985
989
994
997
995
994
992
992
995
995
994
991
989
992
995
994
991
995
994
998
999
1003
1007
1008
1008
1013
1011
1010
1010
1010
1012
1021
1029
1029
1031
1031
1029
1032
1036
1039
1041
1036
1033
1031
1028
1023
1015
1008
1002
995
985
975
975
977
978
982
984
979
977
977
976
980
984
986
982
979
978
979
981
982
980
978
977
982
986
986
989
984
982
986
988
983
981
981
979
980
982
987
995
1010
1034
1066
1094
1104
1096
1088
1094
1103
1113
1114
1110
1109
1116
1126
1130
1126
1107
1075
1041
1014
994
969
937
905
886
889
905
918
922
920
923
936
945
947
946
946
947
950
953
949
948
949
947
949
946
947
947
945
944
945
946
947
947
944
942
943
943
944
944
942
940
942
944
946
946
945
944
945
948
948
946
945
944
947
950
953
951
949
950
952
956
957
954
954
956
960
962
963
963
964
964
968
971
972
972
973
974
975
978
978
980
980
980
982
984
988
987
987
988
990
992
995
996
996
993
996
999
1002
1002
1001
998
1001
1001
1002
1003
999
999
1000
1003
1005
1002
997
997
999
1003
1001
999
997
998
1001
1004
1004
999
997
997
1000
1000
999
998
997
996
997
999
996
995
993
992
995
998
994
994
990
992
993
994
990
988
987
987
988
987
988
986
985
982
981
985
984
981
978
980
978
983
982
980
979
977
980
983
982
