934
939
944
951
958
963
967
970
973
973
970
968
966
969
972
970
969
971
968
971
969
968
969
969
965
968
971
971
968
967
965
968
970
967
963
963
961
962
966
965
968
965
961
963
963
963
965
967
968
969
971
970
970
969
967
968
967
961
967
965
972
976
975
973
970
969
967
969
975
978
978
978
979
982
981
979
977
978
978
982
987
990
988
989
987
984
990
987
987
988
988
994
999
999
999
998
997
995
998
999
997
994
994
997
1000
999
997
996
995
995
997
995
996
996
994
997
996
996
992
991
993
996
1000
998
998
995
995
993
995
993
996
993
992
994
996
995
992
989
986
984
987
984
984
983
985
984
984
983
986
987
990
988
988
984
980
979
980
979
978
977
976
976
976
977
981
979
978
976
975
977
977
977
978
975
976
977
976
974
972
974
973
977
978
983
978
979
979
978
981
979
979
977
982
984
986
983
984
981
980
981
983
985
985
984
983
984
983
979
981
985
987
985
986
983
983
984
984
987
986
984
982
981
983
982
985
985
983
981
982
983
988
990
987
983
982
984
986
986
984
982
982
981
983
986
982
980
984
988
989
989
987
988
987
986
988
981
982
987
990
991
993
990
985
981
981
989
992
990
991
990
984
984
987
990
987
986
983
987
993
994
990
987
986
988
993
995
993
990
986
985
988
988
994
997
997
1002
1004
1002
1003
1002
1003
1009
1018
1020
1020
1019
1022
1025
1029
1028
1029
1029
1033
1036
1040
1041
1039
1030
1016
1006
1002
1001
1000
994
986
980
980
981
982
979
977
979
981
981
982
981
979
982
985
982
977
972
972
975
979
982
984
983
981
982
982
981
975
980
981
982
988
988
987
982
978
980
978
980
986
994
1001
1014
1027
1040
1057
1075
1095
1097
1091
1086
1088
1092
1099
1108
1114
1111
1109
1115
1118
1113
1101
1068
1027
993
962
938
919
902
892
886
890
902
914
921
922
925
930
942
952
955
958
961
965
969
970
970
965
963
963
963
963
963
961
957
957
956
959
958
958
955
958
962
960
957
956
956
961
960
960
961
960
955
957
957
957
958
954
952
954
955
957
962
965
961
959
958
963
964
962
961
957
962
966
963
963
959
961
961
963
964
965
962
962
967
965
964
964
966
965
968
971
976
976
975
973
974
979
980
981
979
980
980
981
983
982
982
985
987
988
990
990
990
991
992
994
994
993
991
994
993
996
994
996
994
995
996
998
1001
999
995
996
996
1000
997
994
992
993
996
997
1001
1000
998
998
997
998
995
995
995
994
996
995
993
990
990
992
993
997
998
993
993
992
992
993
991
990
986
986
987
988
986
985
982
982
982
984
985
984
982
981
981
982
978
975
972
975
981
989
986
983
982
982
982
981
981
981
981
981
983
983
981
984
982
981
986
985
985
981
982
980
981
986
986
987
985
986
986
988
986
986
984
984
989
993
991
985
984
984
992
991
991
987
985
986
993
997
996
995
989
986
986
994
997
996
990
991
993
994
996
990
988
990
992
995
995
994
991
989
992
995
994
993
992
993
995
997
994
995
992
991
992
997
998
996
993
992
997
996
997
996
993
997
999
1004
1006
1006
1008
1008
1010
1015
1017
1017
1021
1027
1029
1030
1031
1031
1031
1032
1036
1040
1046
1048
1047
1048
1041
1034
1024
1013
1009
1003
996
991
988
989
989
988
992
992
991
990
987
989
989
991
992
990
989
989
990
992
990
990
989
988
990
990
990
989
989
991
993
997
994
992
988
987
991
994
993
994
991
996
1007
1025
1045
1065
1083
1102
1106
1098
1092
1095
1100
1105
1110
1115
1116
1113
1115
1115
1113
1100
1070
1033
1001
977
958
942
925
908
898
901
916
932
939
940
944
952
963
968
973
973
971
972
975
979
976
975
972
970
972
976
976
973
970
969
974
976
978
976
973
974
974
973
972
970
969
968
973
976
974
972
969
968
972
974
972
971
971
971
974
973
974
973
971
971
972
976
975
976
970
972
978
976
976
975
974
975
973
979
982
984
983
983
983
984
987
986
984
988
988
991
991
988
987
987
991
996
996
997
994
996
999
1001
1004
1000
999
998
1002
1006
1002
1001
997
1005
1008
1007
1006
1004
1002
1000
1006
1007
1007
1004
1004
1003
1005
1008
1008
1006
1002
1002
1003
1006
1003
1003
1002
1002
1001
1003
1002
999
995
997
999
1000
1000
999
995
992
996
998
996
994
990
990
989
990
992
990
989
986
986
989
987
988
984
983
983
984
987
987
985
983
984
984
985
985
984
981
982
981
985
985
982
982
986
989
990
989
984
987
987
989
989
987
985
987
988
990
991
990
987
984
984
986
987
988
989
990
994
995
994
994
991
991
993
994
994
993
992
990
992
995
995
997
994
995
997
999
994
994
992
996
999
998
995
994
999
1001
998
1000
1000
996
995
994
996
999
1001
999
998
997
997
1002
999
997
995
995
996
998
997
993
995
996
1000
1000
997
997
997
999
1000
1001
998
994
993
996
996
996
998
998
1004
1010
1014
1016
1014
1012
1011
1014
1020
1027
1030
1031
1028
1031
1037
1039
1039
1039
1038
1043
1050
1051
1050
1043
1033
1026
1018
1013
1007
999
991
987
990
991
993
994
993
992
991
993
991
988
985
988
989
992
993
990
987
988
987
990
996
994
993
992
993
993
995
993
990
992
994
994
992
988
989
990
992
996
996
998
1004
1023
1040
1060
1081
1098
1104
1096
1096
1104
1108
1112
1114
1114
1115
1117
1116
1110
1098
1074
1041
1011
984
958
938
924
912
905
904
913
922
931
938
947
954
960
966
971
977
976
975
973
971
973
975
975
977
973
967
966
969
972
971
965
966
969
971
971
967
968
964
965
966
967
967
965
965
965
966
967
965
962
960
963
965
968
968
968
968
968
972
972
973
971
968
970
971
973
970
973
967
969
970
974
976
979
978
975
978
980
982
980
979
981
983
984
986
987
984
986
986
991
990
988
985
990
996
998
995
991
992
992
997
999
996
994
986
988
994
1003
1006
1003
998
998
999
1001
1001
999
995
995
997
998
996
994
994
992
994
998
996
994
994
993
995
994
990
990
991
996
998
995
992
990
988
987
989
991
986
983
981
984
982
985
985
980
976
978
977
980
977
975
975
975
975
974
972
970
969
967
965
968
973
974
974
975
972
972
971
971
974
976
975
975
972
970
970
970
971
974
975
977
975
975
978
978
978
977
973
972
976
981
982
982
978
979
979
981
983
980
982
982
984
982
981
980
979
980
983
982
981
977
978
982
985
987
984
980
978
981
985
986
987
985
981
980
985
983
984
984
980
981
984
987
986
984
982
981
986
989
987
985
984
985
988
989
987
989
986
989
987
988
987
984
984
986
990
991
992
991
990
986
990
991
992
992
988
985
990
992
994
993
989
989
991
993
991
993
997
997
1000
1004
1008
1013
1010
1014
1016
1019
1023
1025
1027
1029
1030
1031
1035
1036
1037
1036
1037
1042
1036
1026
1013
1005
1001
1002
994
985
980
980
983
986
985
980
977
978
983
988
988
984
980
980
983
984
985
984
984
985
986
985
987
985
982
982
985
986
989
986
987
985
987
989
985
984
985
986
990
995
1006
1021
1039
1062
1086
1100
1095
1086
1085
1094
1099
1107
1115
1115
1112
1118
1123
1118
1106
1076
1037
1003
976
952
935
918
902
895
900
913
925
929
933
939
948
960
966
968
967
968
970
972
972
968
968
966
967
968
971
966
966
966
966
967
967
965
963
966
966
968
965
964
963
964
965
969
967
965
964
964
965
966
968
968
966
966
965
969
970
969
967
970
971
970
969
969
963
965
966
969
971
972
965
966
968
972
971
968
971
975
977
977
976
977
975
979
980
982
982
981
980
980
983
985
986
983
986
991
990
991
988
989
990
992
993
997
996
996
995
994
995
998
998
998
993
995
1000
998
1000
999
996
997
997
998
998
1000
1000
1004
1003
1001
1001
998
996
996
998
998
999
998
995
997
999
1002
1001
999
996
994
994
997
996
995
991
991
992
994
995
991
991
989
992
994
993
990
985
985
986
986
984
982
980
977
980
983
985
982
978
980
980
981
982
980
976
976
975
977
978
975
973
975
980
980
981
977
976
979
980
983
979
977
976
976
979
982
981
978
977
980
983
982
983
983
981
982
983
985
983
985
983
983
985
986
986
986
985
986
987
990
990
988
986
986
987
990
989
987
988
988
992
992
991
991
989
989
989
991
992
992
986
990
990
990
989
987
985
988
991
994
994
989
988
989
992
995
993
992
990
990
991
996
995
997
996
994
997
1002
1001
996
991
993
993
995
994
995
992
993
992
995
995
992
990
995
995
995
996
995
994
996
998
1003
1004
1007
1003
1005
1005
1008
1010
1012
1015
1019
1026
1027
1029
1032
1030
1034
1034
1035
1037
1041
1042
1045
1045
1043
1039
1029
1018
1012
1007
1004
998
991
982
984
984
988
988
987
984
985
986
987
987
984
984
984
987
989
988
986
983
983
984
990
990
988
983
985
987
988
986
988
987
990
989
990
991
988
987
989
989
992
993
991
992
1001
1017
1035
1051
1067
1084
1096
1095
1092
1090
1096
1098
1102
1108
1111
1109
1108
1107
1107
1101
1091
1062
1031
997
977
958
942
927
913
902
897
902
913
922
926
929
933
941
952
961
965
965
966
968
970
972
968
966
967
972
973
973
969
967
966
968
972
971
968
965
965
967
967
967
967
965
966
966
965
966
965
963
962
964
967
968
966
961
960
964
963
965
964
962
964
967
969
969
970
966
965
967
968
968
969
967
964
967
968
968
970
969
970
970
972
971
971
970
969
971
970
974
976
979
977
979
979
977
978
974
976
981
984
984
983
980
981
983
987
987
988
985
984
990
992
992
987
984
988
992
996
995
997
993
993
995
997
993
991
991
992
993
995
994
993
991
990
993
994
994
996
994
994
992
992
994
996
992
989
989
992
993
989
988
986
987
987
988
987
986
983
985
985
985
981
981
984
985
982
982
979
974
976
976
976
978
978
976
977
975
972
971
967
965
969
972
976
974
970
967
967
967
968
967
968
967
968
966
969
968
966
967
967
966
967
970
971
968
967
969
971
972
973
972
976
976
978
975
972
971
973
978
976
975
971
969
973
977
981
981
978
977
980
980
981
981
980
977
979
978
977
976
975
977
977
978
978
979
979
979
978
980
983
983
982
985
985
986
986
984
982
981
981
982
982
981
982
981
984
988
989
988
984
982
980
984
985
986
986
984
983
984
985
989
987
981
982
982
986
991
992
989
987
989
990
991
989
988
990
992
997
997
997
995
996
999
998
999
1004
1005
1010
1016
1020
1022
1021
1020
1024
1028
1033
1031
1027
1031
1035
1040
1042
1040
1039
1030
1020
1012
1009
1005
996
986
981
982
984
984
981
982
983
983
981
980
981
980
984
985
986
985
982
983
984
984
983
981
982
982
985
988
989
991
989
987
985
988
990
992
987
986
987
989
988
988
987
987
989
994
1005
1019
1034
1049
1075
1094
1102
1095
1087
1089
1097
1104
1111
1115
1115
1113
1116
1119
1118
1110
1089
1057
1026
999
978
958
940
920
908
901
900
907
917
926
933
938
943
950
954
956
958
964
969
971
968
966
964
966
969
970
967
965
964
964
963
962
963
962
966
966
967
966
962
960
960
961
964
963
961
961
962
964
965
964
963
959
962
963
963
964
962
960
961
963
965
962
962
961
962
965
966
966
964
963
962
965
967
967
967
961
964
966
970
974
972
974
974
974
974
973
973
973
977
979
980
979
981
981
984
985
986
985
984
985
987
990
987
990
989
986
989
991
993
993
991
992
994
993
995
996
995
991
994
995
998
995
995
995
996
998
997
993
992
988
990
991
995
997
996
994
995
994
995
995
992
989
989
992
992
992
990
987
990
991
989
992
988
986
984
983
983
984
982
981
982
981
981
978
979
976
976
974
979
975
975
973
972
974
972
977
972
970
969
971
971
969
968
970
974
976
975
974
973
973
973
975
977
976
974
974
977
977
978
977
978
980
981
982
982
982
979
977
980
983
982
983
983
980
981
983
982
984
981
978
979
981
983
986
983
978
982
982
986
987
985
984
984
986
988
986
985
983
984
985
987
988
986
982
984
984
985
985
984
983
986
985
986
986
984
983
983
981
984
987
984
981
982
985
988
986
986
981
984
986
987
987
986
982
981
984
987
984
983
980
984
986
988
986
988
987
989
992
993
995
993
993
996
999
1005
1010
1012
1010
1014
1019
1023
1019
1015
1019
1024
1029
1032
1032
1030
1026
1017
1010
1002
996
984
976
974
975
978
976
976
972
974
974
975
976
972
969
969
973
976
973
968
965
970
974
977
979
976
970
974
976
978
977
972
975
977
979
979
978
976
973
974
977
984
985
985
990
1007
1025
1049
1074
1092
1095
1087
1083
1088
1095
1100
1103
1111
1113
1115
1117
1120
1111
1100
1080
1051
1014
985
956
930
911
897
888
883
889
901
910
919
920
931
935
942
949
953
954
955
946
945
946
950
953
955
953
948
949
951
949
947
942
943
942
945
946
947
945
945
943
947
951
948
945
947
949
950
948
945
942
941
943
942
942
944
942
945
945
945
945
943
944
946
945
946
945
946
943
945
945
948
950
950
944
945
949
950
950
951
952
952
955
955
950
953
952
953
958
960
960
957
956
959
962
968
967
967
962
965
969
973
972
968
970
971
975
976
975
974
971
975
979
982
978
976
976
977
978
980
979
978
977
978
975
977
978
977
974
975
977
978
978
975
975
974
973
975
973
975
972
971
971
973
973
972
970
971
971
972
969
972
969
969
969
969
966
964
960
964
963
963
961
960
960
960
959
963
961
962
959
958
958
958
959
956
954
956
959
963
963
958
955
958
958
961
959
958
957
960
962
964
961
959
960
962
963
967
964
963
966
966
968
970
968
964
960
963
966
969
972
972
971
972
971
972
973
972
967
970
970
974
974
975
973
971
974
974
977
974
970
972
974
976
976
976
971
974
973
975
975
974
973
975
977
980
979
978
974
976
977
978
978
977
974
976
977
978
976
975
971
973
979
981
981
980
980
979
980
980
979
978
977
982
980
985
983
982
979
980
982
985
984
982
981
986
993
992
991
992
990
993
998
1004
1004
1007
1009
1014
1018
1022
1020
1018
1017
1020
1022
1029
1029
1032
1029
1030
1023
1018
1006
997
988
984
980
977
976
975
974
975
977
978
976
974
970
971
974
975
973
971
970
974
980
979
979
977
974
975
978
980
981
980
977
978
981
981
979
977
975
977
981
983
985
989
1003
1020
1041
1064
1084
1094
1086
1082
1087
1094
1099
1101
1098
1098
1105
1109
1106
1089
1059
1024
995
970
948
928
912
899
894
897
907
916
923
932
942
951
954
956
957
961
963
963
961
960
958
960
963
963
962
960
960
959
962
962
960
957
955
957
959
959
959
954
953
955
956
958
959
960
958
958
957
962
963
961
957
959
962
963
961
959
956
959
961
961
963
962
962
965
965
965
965
968
965
969
971
971
969
967
967
970
976
978
976
976
975
976
976
980
979
980
978
978
982
983
983
984
984
986
987
989
988
986
986
987
988
990
993
990
988
993
994
996
994
991
988
988
995
1000
1000
997
994
993
994
995
997
995
993
994
993
993
992
990
990
992
993
994
992
989
989
990
990
992
990
987
986
987
988
988
986
984
981
982
984
985
983
982
980
978
980
981
977
976
973
973
976
974
973
973
973
973
975
975
973
971
969
970
975
976
976
971
967
969
970
973
975
970
970
966
971
975
975
971
973
974
977
979
979
976
976
980
980
981
976
980
976
979
980
983
979
979
979
981
981
983
983
982
980
983
982
984
984
981
979
981
984
984
985
982
982
982
985
985
982
980
979
982
985
991
989
987
985
984
987
986
986
984
983
985
985
984
983
985
983
986
986
989
988
986
981
984
985
986
986
984
984
983
988
984
985
985
983
985
989
986
989
987
989
991
995
997
997
995
995
997
1001
1002
1002
1003
1006
1008
1012
1020
1022
1022
1021
1025
1027
1029
1029
1028
1030
1034
1035
1029
1016
1004
997
992
989
984
977
973
972
975
981
980
977
977
975
977
977
978
979
976
974
976
980
981
980
978
975
977
979
981
982
981
976
978
977
981
978
975
975
976
979
986
988
988
987
997
1018
1039
1059
1079
1096
1099
1091
1095
1101
1110
1114
1115
1119
1124
1127
1125
1114
1088
1056
1020
984
954
932
911
896
892
898
909
917
922
925
933
941
946
949
949
953
956
956
956
956
957
959
958
958
954
952
951
953
957
957
956
951
951
953
955
953
950
947
947
949
953
952
950
949
952
954
952
950
947
946
946
951
952
951
950
949
947
950
952
953
955
953
952
952
955
955
954
952
950
952
956
957
957
957
962
963
964
966
963
961
960
963
965
968
970
969
970
972
974
975
974
973
975
978
978
977
979
978
980
983
986
987
987
986
987
989
990
989
988
987
987
989
993
991
990
988
992
993
995
992
990
986
988
990
994
993
991
988
988
989
991
992
990
988
987
989
991
989
988
985
986
987
984
985
987
987
988
988
986
986
983
980
984
984
987
983
981
981
982
985
984
979
980
977
978
978
980
977
975
975
975
977
976
974
974
976
