940
940
936
936
941
941
939
936
935
938
941
942
941
939
937
937
936
938
937
933
930
930
933
936
939
937
930
928
931
933
934
936
935
935
933
936
935
937
936
935
938
937
940
940
938
938
937
939
941
943
943
943
943
943
949
949
950
947
949
949
951
952
950
953
957
961
960
960
956
957
958
961
963
964
962
962
965
972
972
970
967
970
975
976
975
971
968
971
973
973
974
975
975
977
976
979
975
971
967
972
977
980
979
977
971
973
974
975
977
975
973
975
975
976
974
972
969
974
976
980
977
974
967
967
971
976
975
970
967
968
967
970
970
970
968
969
970
970
965
963
961
963
964
961
958
959
959
963
963
962
961
958
956
956
956
956
953
951
949
951
953
954
953
949
948
948
950
950
950
948
948
949
950
953
952
953
949
947
950
951
952
952
951
954
957
961
958
956
954
957
959
962
959
957
955
960
963
965
964
962
962
963
966
967
967
965
960
960
960
966
967
965
963
962
964
965
967
965
965
965
967
969
967
968
967
968
970
973
974
971
968
971
972
974
971
971
972
973
977
977
975
971
968
970
972
972
974
970
970
970
972
978
977
974
971
972
972
977
973
971
970
972
976
975
975
975
971
975
977
976
974
971
969
974
976
978
977
974
971
972
977
978
980
979
978
981
987
989
991
988
988
991
994
999
1002
1003
1003
1006
1012
1018
1017
1015
1014
1019
1023
1022
1024
1021
1022
1020
1016
1008
1001
991
983
980
977
971
968
969
970
972
969
968
967
969
970
975
975
972
973
971
974
973
971
969
972
972
972
970
972
972
970
972
972
974
976
977
976
975
969
968
971
976
975
975
977
992
1012
1035
1061
1081
1094
1091
1089
1093
1103
1106
1109
1108
1111
1114
1117
1116
1111
1103
1086
1061
1037
1015
989
971
954
934
911
898
896
908
919
926
929
933
935
940
947
947
949
952
953
955
956
958
955
953
952
955
954
956
956
953
952
950
949
947
947
951
951
953
954
955
950
950
948
950
952
954
955
954
953
953
955
955
955
956
957
957
958
960
957
955
956
960
963
963
959
959
961
964
968
968
969
968
968
969
971
971
971
970
968
969
973
978
980
983
985
985
988
985
983
983
981
985
988
989
990
988
985
986
988
992
990
991
987
988
991
994
993
993
989
989
993
994
994
993
990
992
993
992
991
990
990
987
989
991
993
991
986
985
988
989
993
992
988
987
987
986
984
983
983
986
989
988
984
983
978
980
983
982
981
980
977
977
978
979
979
980
978
974
973
973
970
971
970
968
968
967
967
968
967
968
967
965
965
963
962
964
961
966
967
965
961
963
965
966
969
967
966
967
968
968
969
967
968
972
972
971
968
969
969
972
974
975
977
980
980
980
978
979
980
979
978
978
979
980
979
979
979
980
980
983
981
980
979
980
979
982
987
989
989
987
982
981
980
984
982
985
986
987
987
987
984
982
981
985
987
986
984
985
986
988
987
985
984
984
986
986
983
985
988
988
990
989
990
990
990
988
987
987
988
990
992
990
991
990
990
988
987
990
994
997
994
994
995
1000
1002
1006
1007
1005
1004
1006
1011
1017
1022
1025
1026
1026
1029
1030
1029
1028
1031
1039
1047
1048
1042
1036
1030
1023
1016
1008
1002
995
986
982
982
988
988
990
985
985
984
987
987
987
982
982
986
988
986
986
983
984
982
986
985
985
984
982
986
992
994
990
985
988
988
988
988
986
988
999
1015
1038
1062
1088
1104
1107
1103
1108
1117
1121
1124
1123
1126
1130
1130
1127
1119
1102
1077
1048
1020
997
974
952
929
911
915
927
933
935
941
947
955
963
964
966
969
970
969
969
970
969
970
972
973
970
969
965
966
965
967
967
963
964
962
966
966
969
965
963
963
968
967
963
959
959
959
963
969
970
969
966
969
969
971
971
969
970
971
970
970
971
972
977
979
980
978
977
974
974
978
979
980
982
982
981
984
989
993
992
988
987
988
990
993
995
994
996
998
999
998
998
997
999
1000
998
997
995
997
999
999
998
999
1000
996
999
1000
998
998
997
998
1001
1001
998
997
996
996
999
999
1001
998
996
994
993
995
996
999
999
996
994
994
997
995
992
989
991
991
991
990
988
985
985
988
988
985
984
980
980
980
980
978
979
976
980
984
981
977
975
973
974
974
974
973
971
970
972
972
976
974
971
968
970
969
973
973
970
967
969
973
974
973
975
974
974
974
978
977
974
974
972
978
982
980
977
977
979
982
982
981
982
977
974
979
981
982
980
978
982
985
985
987
984
984
985
986
986
985
980
981
984
983
986
984
983
982
985
986
986
985
984
983
980
982
987
987
985
983
987
991
989
985
986
988
989
987
990
991
988
984
986
988
988
988
986
984
986
986
985
987
988
987
989
988
988
985
988
985
990
991
996
997
996
997
1000
1003
1004
1006
1013
1016
1018
1019
1022
1022
1023
1022
1024
1031
1036
1037
1036
1032
1032
1030
1023
1017
1006
997
991
986
980
978
978
977
981
979
978
974
975
978
983
984
982
979
977
975
979
981
982
981
980
975
979
979
977
979
979
979
979
980
982
983
984
985
982
981
983
982
979
983
994
1012
1033
1056
1085
1105
1118
1112
1112
1115
1120
1123
1133
1141
1143
1147
1153
1147
1143
1136
1119
1094
1064
1035
1007
985
956
932
910
900
906
918
925
924
926
933
943
951
955
957
955
955
956
956
956
954
953
951
953
955
955
956
955
953
953
952
949
949
947
946
950
951
950
949
948
948
948
949
949
948
947
948
950
950
951
949
948
946
947
947
947
947
947
943
946
950
957
958
956
954
952
956
953
953
954
950
952
955
959
960
960
961
964
965
969
968
965
965
965
969
974
971
969
966
971
980
984
982
978
978
978
983
986
986
985
983
984
987
990
988
988
985
987
990
989
988
987
986
987
993
993
992
991
988
990
989
989
989
989
988
987
992
991
989
987
984
987
986
986
986
986
984
984
987
985
984
983
977
979
978
977
976
980
982
981
980
975
975
976
974
976
977
978
974
970
970
972
973
971
970
969
967
968
970
971
972
968
965
967
968
965
966
966
964
967
971
971
968
969
969
970
972
972
973
971
970
974
975
978
976
973
974
977
979
979
977
977
975
978
977
977
976
977
977
980
981
981
980
979
977
978
983
983
982
982
979
978
981
983
982
980
981
982
982
982
982
982
980
981
982
986
986
986
984
982
983
984
983
984
984
985
986
986
984
982
982
984
984
987
988
989
986
988
988
987
988
983
981
984
986
990
993
995
995
994
997
999
998
997
997
1000
1003
1008
1014
1013
1016
1018
1021
1026
1024
1022
1022
1026
1028
1031
1029
1031
1029
1026
1024
1020
1013
1002
993
991
989
981
975
973
974
975
975
978
977
975
974
974
977
975
974
974
977
976
977
977
975
975
973
975
979
979
981
978
975
979
977
980
978
976
975
977
977
976
977
979
976
975
979
986
1001
1021
1044
1073
1097
1106
1096
1091
1096
1107
1112
1118
1117
1119
1120
1126
1133
1131
1127
1118
1101
1071
1049
1026
1005
982
959
937
916
904
904
912
919
923
928
932
941
945
949
953
958
960
960
957
952
956
957
957
954
951
955
953
953
955
954
954
950
951
953
953
955
954
953
953
951
951
952
953
952
952
951
951
952
949
948
951
953
953
950
950
950
952
952
952
953
953
951
950
954
956
959
960
956
958
960
961
959
960
959
963
964
966
964
967
964
968
971
974
975
974
971
974
976
978
977
977
975
979
981
984
985
982
981
979
984
983
981
982
983
985
987
988
987
987
984
985
985
987
987
987
987
987
986
986
985
982
984
984
984
983
983
981
979
982
983
983
980
977
977
981
980
982
979
979
978
977
980
979
975
974
970
972
973
971
972
969
969
968
969
968
969
971
964
961
961
958
959
959
958
960
960
960
960
959
956
958
959
959
955
954
954
955
956
954
952
952
950
953
953
952
952
951
951
953
955
958
957
955
954
956
955
956
959
959
958
958
960
960
958
955
954
957
960
960
963
963
961
964
966
968
965
965
965
964
967
968
966
965
966
969
971
969
967
965
967
968
970
971
968
966
966
969
969
972
970
964
963
967
971
971
972
972
971
971
971
970
969
968
968
969
971
973
974
973
972
971
972
973
971
971
968
971
973
974
975
975
971
973
974
974
970
969
971
973
974
974
971
970
969
969
971
973
975
976
976
975
980
981
982
982
985
983
985
982
985
986
988
991
995
1001
1005
1006
1005
1007
1009
1008
1010
1007
1012
1018
1023
1024
1023
1021
1012
1008
1002
996
985
979
973
964
957
961
961
961
960
961
963
966
965
964
963
965
965
967
963
965
962
965
965
965
964
962
961
963
964
965
966
965
963
965
966
967
969
967
963
965
963
964
968
968
967
978
996
1017
1041
1066
1088
1107
1107
1103
1110
1120
1126
1138
1146
1150
1156
1165
1167
1169
1162
1144
1111
1070
1040
1012
985
947
915
888
881
892
906
908
911
912
914
922
930
935
936
936
934
935
939
941
935
932
931
930
937
938
937
934
930
930
932
931
931
927
924
925
926
928
927
926
927
928
929
928
926
922
923
930
929
928
926
926
927
925
928
930
929
928
928
931
934
933
931
931
930
933
934
931
931
930
929
932
939
940
939
941
939
940
941
943
944
942
942
943
946
953
952
950
950
952
956
958
958
954
957
958
963
966
965
964
962
965
968
968
971
966
963
965
968
968
968
970
970
972
972
972
970
970
970
973
973
973
976
974
971
971
972
971
972
969
971
973
976
974
971
968
967
970
969
971
970
963
961
966
968
969
969
965
962
966
970
971
966
965
962
964
964
963
961
959
960
959
961
961
959
955
952
955
958
957
957
954
950
953
956
956
958
956
950
954
955
956
952
949
946
951
954
954
954
951
948
956
961
963
963
957
953
954
958
958
959
964
961
960
959
965
969
968
963
960
963
964
963
963
962
961
963
966
969
972
972
972
973
970
968
967
965
968
972
973
971
970
970
970
974
973
970
967
966
967
969
972
972
972
969
970
970
975
978
978
970
973
978
980
977
975
975
975
976
980
982
978
975
977
981
981
981
979
975
977
980
983
986
988
987
988
989
987
988
992
995
1000
1000
1002
1004
1008
1015
1015
1018
1021
1022
1024
1025
1027
1030
1027
1017
1010
998
992
986
973
961
958
964
973
977
976
970
970
969
970
970
970
967
963
961
968
968
968
965
959
957
967
975
978
972
968
966
966
967
972
978
976
973
972
974
979
979
972
967
965
969
978
989
1010
1043
1085
1107
1106
1095
1095
1108
1123
1132
1134
1134
1135
1144
1154
1157
1156
1149
1134
1111
1085
1060
1034
1005
977
943
917
899
899
910
914
917
919
924
927
925
930
939
948
949
948
947
944
944
940
939
938
940
951
960
963
959
949
943
939
940
943
941
940
940
939
937
937
938
936
930
930
931
936
939
946
949
944
942
936
935
938
939
942
949
952
948
940
938
937
941
947
950
951
947
945
942
941
939
949
963
967
965
960
956
956
956
960
964
966
966
958
958
964
970
977
976
974
968
960
959
971
980
986
983
975
970
972
978
979
979
978
981
988
991
988
983
977
977
981
982
981
977
976
976
980
982
983
980
977
974
974
972
978
984
984
981
978
979
978
975
969
968
970
973
973
973
970
971
977
977
971
964
963
967
972
974
972
968
967
966
965
959
955
953
955
959
967
963
960
956
953
952
956
961
956
952
946
952
965
971
965
954
948
944
946
954
954
953
953
950
950
950
956
962
961
956
957
965
966
961
958
959
961
962
961
956
953
958
966
973
976
975
971
968
968
965
963
961
962
962
969
973
973
973
970
973
976
978
973
969
965
959
962
972
981
975
967
964
969
977
976
971
973
974
973
976
978
978
972
968
970
977
977
976
975
971
971
975
979
979
976
972
975
978
975
971
967
967
974
981
985
981
976
974
974
978
979
979
975
976
971
967
969
978
987
990
986
982
981
984
982
983
990
997
1001
999
995
994
1005
1007
1009
1010
1014
1019
1018
1019
1014
1017
1021
1032
1036
1032
1022
1011
998
988
984
986
982
979
978
978
976
977
974
968
968
964
968
974
976
974
976
976
977
978
975
972
969
971
977
981
977
974
968
964
967
977
984
986
980
974
975
974
977
975
969
970
974
980
981
987
1000
1027
1060
1094
1115
1115
1108
1109
1126
1143
1153
1153
1154
1156
1166
1174
1174
1167
1153
1131
1107
1080
1057
1031
1000
968
937
911
895
896
899
908
916
923
928
930
932
938
949
954
956
950
945
943
948
947
945
945
944
941
946
949
949
946
945
946
946
946
944
944
941
940
938
943
943
940
938
937
939
943
945
939
937
936
942
946
944
938
934
933
942
948
947
947
940
939
943
944
947
950
945
942
941
945
946
945
944
939
944
948
953
953
950
952
952
957
957
956
954
958
960
962
960
960
962
961
964
967
968
963
961
964
972
975
972
971
970
975
979
981
983
979
976
977
978
978
980
981
979
979
982
982
981
981
982
983
983
983
981
980
979
979
978
983
981
981
977
977
976
977
977
978
979
976
975
974
974
973
976
975
976
978
976
972
969
971
974
974
972
967
966
964
966
967
965
962
959
957
958
959
961
962
958
956
956
958
957
956
958
956
961
961
959
956
956
957
960
963
964
958
956
959
961
960
958
958
957
959
961
964
967
965
964
966
968
971
970
968
969
968
967
968
970
973
972
971
970
969
970
969
968
969
973
974
974
974
968
970
972
971
972
973
974
973
974
975
977
974
974
974
974
973
974
973
974
976
980
980
974
972
975
979
982
982
981
978
977
976
975
978
976
979
978
978
978
981
982
983
980
978
978
982
983
982
978
974
976
986
986
984
978
974
978
983
986
985
980
978
979
985
987
987
985
979
980
984
982
981
980
980
986
991
997
999
996
996
1000
1002
1002
1003
1004
1008
1010
1014
1013
1016
1019
1020
1021
1024
1027
1029
1029
1028
1031
1035
1031
1017
1006
993
991
992
987
980
973
974
977
980
980
980
978
974
975
975
976
976
974
973
977
982
981
977
977
979
983
982
979
978
975
974
979
981
985
983
980
978
980
976
976
975
977
979
988
1000
1016
1037
1062
1088
1109
1117
1115
1120
1129
1137
1144
1154
1154
1155
1165
1169
1172
1173
1161
1142
1115
1083
1063
1042
1010
973
937
908
899
906
913
919
922
926
930
937
943
946
952
954
959
961
958
952
953
954
956
956
955
953
950
947
949
947
947
948
947
943
945
947
950
949
944
940
945
949
948
944
944
945
950
953
951
947
946
946
946
949
949
949
948
947
951
954
956
955
952
949
949
956
956
956
954
952
952
957
961
965
967
962
966
973
975
975
974
971
974
976
979
977
975
974
980
984
986
979
974
982
990
998
992
989
984
985
986
991
992
992
989
989
992
990
993
992
992
994
992
993
988
988
988
990
992
997
994
989
986
986
987
985
986
985
980
982
986
992
988
982
977
978
979
984
985
983
983
982
979
982
979
977
975
973
973
973
970
971
969
967
969
970
967
968
965
967
969
969
969
964
960
959
961
964
966
967
966
965
966
970
969
967
965
965
971
974
972
967
967
968
972
976
976
975
972
973
976
981
977
976
976
977
978
978
975
974
977
984
986
985
982
981
981
983
983
984
980
982
981
981
985
986
984
984
984
983
985
985
983
987
984
984
983
986
984
982
983
983
986
987
987
990
988
988
988
986
986
986
987
988
985
989
989
989
983
981
989
993
992
990
990
987
986
990
991
991
991
988
989
992
990
990
988
990
992
995
990
992
990
988
989
992
990
986
985
989
994
996
996
993
990
990
988
992
993
995
992
990
989
991
993
991
989
990
994
997
995
990
989
987
990
991
993
994
993
993
994
995
993
994
992
988
991
994
993
993
992
992
994
997
999
997
994
994
995
994
992
992
992
994
996
996
994
991
995
995
995
996
994
993
995
992
994
995
995
993
991
988
990
993
996
996
994
991
995
999
998
998
998
999
1003
1006
1006
1005
1004
1005
1009
1014
1017
1018
1019
1022
1028
1033
1033
1032
1033
1035
1039
1042
1042
1042
1038
1027
1018
1012
1005
1000
990
985
984
987
989
985
985
983
986
990
988
985
983
984
986
986
986
985
984
983
987
987
985
985
984
985
987
986
986
987
985
987
985
984
981
984
982
988
999
1015
1033
1052
1081
1108
1124
1127
1121
1122
1135
1146
1151
1151
1150
1157
1164
1163
1168
1169
1148
1115
1080
1055
1032
1004
969
935
908
894
901
916
924
924
926
927
933
942
947
948
951
955
957
957
952
952
950
949
953
958
959
955
951
950
952
952
954
950
948
947
948
944
943
946
950
952
951
947
946
946
946
945
946
947
947
947
946
942
943
944
946
942
945
945
948
951
949
947
945
943
948
952
950
947
948
952
955
956
954
954
955
955
956
956
958
956
956
958
960
964
963
963
967
967
969
972
974
973
967
969
969
972
976
977
979
977
976
981
981
982
980
982
981
983
985
983
985
985
987
987
986
981
980
983
986
992
990
986
983
982
986
991
990
