972
960
958
960
958
957
946
943
950
959
960
960
956
952
950
954
956
956
957
953
955
953
951
948
948
950
952
957
959
959
961
959
959
958
964
968
964
957
957
966
969
967
961
961
972
982
989
986
981
973
972
977
983
989
994
997
997
990
984
985
988
993
999
1004
1002
998
996
996
995
990
985
987
994
1007
1007
999
992
990
993
1000
1005
1006
998
996
991
994
994
993
993
994
995
994
995
994
991
989
989
994
995
997
990
980
972
975
981
985
986
988
991
989
988
983
979
978
975
973
976
979
982
984
982
980
983
989
986
984
977
978
982
984
982
981
976
971
970
976
985
985
978
971
973
978
985
994
997
993
982
975
979
986
993
995
992
993
992
993
996
998
999
996
994
991
990
989
994
994
997
1001
995
992
991
995
1000
1003
1001
996
995
998
998
997
991
990
993
997
993
997
1001
1006
1008
1002
996
992
994
1001
998
997
998
1000
997
991
991
988
993
999
1001
998
997
995
999
1000
1001
1000
997
996
994
995
996
1000
1002
1003
1001
997
992
990
991
996
999
1000
997
993
994
999
1003
998
990
986
991
1000
1000
994
990
990
999
1008
1008
999
990
983
986
991
997
998
994
998
1007
1008
999
992
997
1004
1007
1001
998
1002
1009
1016
1016
1017
1014
1011
1014
1022
1023
1025
1027
1029
1033
1029
1026
1028
1037
1047
1047
1047
1046
1040
1032
1021
1008
998
996
998
998
992
987
982
977
974
976
985
987
982
970
965
972
982
986
983
983
983
990
991
988
980
976
978
980
983
980
974
979
985
986
979
974
973
981
984
976
967
962
974
989
1003
1019
1038
1070
1100
1113
1104
1097
1098
1103
1103
1101
1101
1110
1115
1122
1126
1125
1121
1105
1077
1037
1002
981
961
925
880
852
847
866
888
902
905
901
906
912
919
929
936
939
939
943
947
946
942
938
937
942
944
943
933
926
923
930
941
952
952
938
928
923
925
931
936
935
931
921
916
920
927
935
931
927
922
930
937
938
933
928
923
930
935
934
928
931
937
938
939
933
927
926
927
930
931
933
937
942
944
942
941
941
945
942
934
932
933
938
943
946
954
956
953
949
947
949
952
954
950
946
943
949
954
960
959
955
948
943
945
950
954
956
956
958
960
960
961
962
961
960
959
959
957
953
955
961
964
965
964
956
949
948
948
952
957
957
952
949
942
937
944
953
956
959
958
958
949
945
942
952
956
953
945
942
946
950
952
949
942
943
946
946
944
940
935
933
933
939
948
947
933
929
934
942
944
939
934
932
927
925
928
935
934
927
924
925
925
924
924
924
925
933
934
929
924
921
918
922
928
936
943
937
927
923
928
930
933
940
942
943
938
936
939
935
923
919
928
941
944
942
938
937
941
942
942
942
945
949
947
943
942
942
939
936
938
938
936
938
938
941
947
955
955
955
945
942
939
941
943
954
957
959
959
959
962
955
950
953
956
955
951
951
954
958
963
962
958
951
943
942
941
939
940
944
955
971
978
969
960
957
960
967
965
955
947
945
949
956
959
953
950
947
946
948
954
961
968
967
960
959
957
955
950
948
949
957
964
963
953
947
948
955
958
960
960
960
956
958
956
953
946
944
952
965
977
983
978
965
955
954
962
973
980
986
991
996
997
996
992
991
988
985
992
998
1001
999
1000
1009
1020
1013
1001
983
972
967
964
960
948
940
936
939
935
933
939
947
957
954
947
941
938
938
932
932
937
941
947
950
946
947
952
950
950
949
947
945
944
944
943
943
951
953
951
949
940
930
933
941
947
938
931
929
950
983
1003
1019
1037
1059
1066
1056
1040
1038
1048
1061
1072
1081
1086
1079
1072
1071
1075
1074
1064
1039
1008
976
956
937
907
871
838
817
813
822
838
855
865
869
874
883
891
896
900
900
902
911
917
920
911
902
900
911
919
915
906
898
900
910
912
906
898
897
903
910
914
911
908
906
905
903
899
899
898
894
892
894
903
905
902
898
892
884
879
887
903
917
922
917
909
902
898
898
900
903
908
906
894
886
886
895
902
907
905
907
902
904
900
897
893
895
898
897
891
887
891
903
916
923
926
924
919
911
905
900
900
903
906
907
909
916
924
924
921
914
905
907
917
922
918
910
904
905
913
924
931
925
915
913
914
911
903
901
909
922
925
921
917
911
902
898
900
906
907
901
897
898
902
906
905
897
888
882
879
883
891
899
896
893
893
892
891
886
887
892
891
887
884
880
878
881
880
874
872
869
866
871
869
865
862
863
870
874
874
870
870
868
866
867
865
862
859
859
855
852
854
852
858
862
864
861
860
863
869
876
875
868
864
858
861
864
868
868
865
867
865
863
860
866
870
873
867
862
861
866
871
871
863
859
864
869
875
871
864
859
857
865
870
874
871
870
868
868
869
868
863
859
862
868
871
865
857
856
863
870
873
874
874
868
864
863
864
862
861
862
865
867
869
867
870
866
861
860
865
866
863
862
859
859
861
863
863
861
862
864
869
867
865
861
862
866
868
862
858
857
859
863
866
864
864
866
869
875
878
877
874
874
875
880
882
882
883
887
895
901
903
903
902
906
903
903
910
907
902
887
871
870
869
862
852
846
846
849
852
851
849
843
843
847
850
853
845
840
837
839
845
850
859
856
851
849
847
844
845
848
846
851
853
852
848
842
838
843
850
852
848
843
849
859
866
874
886
909
936
961
979
984
975
967
970
980
994
1000
996
995
1008
1022
1027
1010
984
945
901
868
846
832
815
786
760
746
749
763
778
784
785
789
805
815
821
824
827
825
829
827
827
830
828
829
834
834
828
827
827
832
831
828
830
828
824
826
825
826
825
821
821
825
827
827
828
826
824
827
828
831
831
827
826
829
831
829
829
828
828
831
832
835
835
837
839
839
837
837
837
838
838
840
843
844
841
840
842
842
848
846
846
849
848
854
859
860
859
857
858
862
865
867
864
862
866
872
875
877
876
876
877
879
885
886
886
885
881
883
888
890
892
889
886
889
893
894
890
887
887
889
892
894
896
896
892
889
895
895
897
895
895
897
898
898
896
896
893
897
897
898
896
894
891
893
898
898
896
896
891
892
893
892
890
891
891
895
893
890
885
889
893
898
895
890
890
888
888
891
895
900
900
893
888
888
893
894
896
898
896
894
895
899
897
896
897
903
905
903
902
902
902
900
902
903
903
904
903
904
903
910
910
907
900
904
909
915
913
911
908
905
905
909
908
905
903
909
911
910
909
912
908
910
908
906
909
908
911
916
920
916
914
911
912
910
913
916
917
916
915
914
918
918
919
921
919
920
917
917
917
920
918
923
925
923
921
920
922
924
926
928
930
930
927
931
939
941
941
937
936
938
945
947
952
956
961
963
968
970
971
969
969
974
981
985
987
984
979
970
968
961
955
950
944
935
933
934
937
936
933
932
936
935
937
936
938
939
942
941
940
938
939
944
947
946
945
941
943
944
949
946
947
945
946
949
950
949
952
953
955
954
958
969
982
1002
1028
1057
1082
1082
1072
1075
1084
1098
1111
1119
1122
1127
1136
1141
1137
1110
1068
1019
974
947
921
893
870
863
867
879
893
897
904
912
920
932
939
942
943
944
943
947
947
949
947
943
943
944
949
949
950
946
946
943
945
949
950
951
950
948
947
948
946
948
945
946
948
948
948
948
946
951
955
954
952
950
949
949
954
951
952
950
946
951
955
954
952
951
950
953
957
956
954
951
952
954
957
959
962
961
960
962
967
968
967
967
966
967
971
973
973
975
975
977
981
983
979
981
984
987
991
992
992
991
991
995
1000
1000
999
998
997
997
1000
1004
1005
1005
1001
1004
1002
1004
1002
1001
999
1004
1008
1013
1012
1010
1006
1006
1008
1008
1009
1007
1004
1007
1008
1007
1004
1003
1005
1007
1008
1005
1001
1002
1004
1007
1006
1002
1001
1002
1001
1002
1003
1000
998
995
994
995
996
996
998
998
997
998
1000
999
998
997
994
995
998
996
996
996
992
997
997
998
997
995
999
1003
1004
1003
1002
998
999
1002
1001
1004
1005
1001
1005
1009
1012
1009
1007
1007
1007
1008
1011
1011
1011
1010
1008
1011
1010
1011
1011
1013
1016
1016
1016
1014
1015
1016
1016
1021
1022
1022
1018
1018
1011
1018
1020
1021
1020
1017
1015
1018
1022
1021
1019
1018
1017
1021
1026
1026
1024
1022
1021
1023
1024
1024
1022
1023
1024
1025
1026
1026
1028
1026
1025
1027
1029
1028
1025
1025
1025
1028
1030
1029
1027
1028
1029
1030
1033
1031
1029
1030
1029
1031
1036
1036
1036
1035
1040
1044
1049
1048
1047
1047
1049
1055
1063
1062
1066
1067
1068
1074
1078
1079
1082
1084
1082
1085
1080
1068
1060
1050
1044
1038
1031
1027
1026
1025
1025
1025
1030
1028
1027
1024
1024
1029
1031
1034
1034
1029
1027
1029
1030
1031
1035
1036
1034
1032
1035
1031
1033
1032
1030
1035
1037
1034
1032
1033
1031
1034
1037
1041
1052
1071
1092
1122
1147
1154
1148
1143
1149
1160
1169
1174
1176
1177
1182
1190
1195
1195
1179
1146
1105
1069
1045
1019
991
966
949
942
953
965
973
978
981
988
997
1003
1004
1006
1007
1012
1018
1015
1015
1011
1011
1012
1015
1012
1010
1007
1006
1009
1010
1009
1007
1008
1006
1005
1007
1007
1005
1005
1003
1008
1009
1007
1006
1003
1001
1004
1008
1007
1006
1005
1007
1007
1010
1008
1005
1004
1001
1005
1007
1009
1010
1006
1004
1003
1004
1005
1008
1009
1010
1010
1013
1010
1009
1011
1011
1012
1013
1012
1015
1015
1016
1016
1016
1017
1017
1017
1019
1021
1025
1025
1023
1025
1027
1028
1030
1029
1030
1030
1031
1030
1032
1034
1035
1033
1033
1038
1040
1043
1040
1037
1035
1038
1040
1037
1037
1036
1034
1038
1045
1045
1041
1036
1032
1033
1040
1041
1039
1037
1036
1039
1042
1040
1033
1031
1030
1033
1035
1035
1034
1029
1029
1030
1032
1032
1030
1027
1029
1030
1029
1028
1025
1023
1023
1021
1027
1023
1018
1017
1017
1019
1020
1018
1020
1020
1018
1015
1016
1015
1017
1015
1014
1013
1017
1018
1013
1008
1007
1010
1013
1013
1013
1008
1010
1010
1014
1011
1013
1013
1013
1013
1016
1017
1018
1016
1017
1018
1022
1020
1021
1021
1020
1022
1023
1021
1020
1022
1020
1018
1022
1021
1023
1023
1022
1025
1028
1028
1026
1024
1023
1024
1028
1028
1030
1026
1027
1030
1033
1032
1028
1024
1026
1028
1034
1032
1029
1025
1025
1032
1033
1029
1028
1024
1028
1030
1032
1031
1029
1026
1027
1030
1031
1031
1033
1032
1031
1033
1034
1034
1031
1031
1029
1032
1032
1032
1033
1030
1031
1031
1034
1034
1032
1030
1032
1037
1039
1039
1039
1041
1040
1042
1047
1044
1048
1047
1049
1052
1058
1064
1066
1066
1069
1072
1078
1078
1078
1077
1082
1087
1091
1089
1089
1083
1074
1067
1064
1060
1053
1046
1036
1033
1031
1032
1033
1031
1033
1033
1037
1033
1030
1033
1030
1035
1034
1034
1033
1033
1031
1033
1034
1035
1036
1034
1033
1037
1042
1038
1037
1035
1036
1039
1042
1044
1041
1037
1037
1038
1042
1039
1040
1042
1054
1071
1093
1112
1137
1157
1163
1155
1153
1155
1166
1167
1172
1181
1184
1184
1195
1196
1199
1192
1175
1144
1108
1079
1051
1027
1005
981
963
952
943
950
962
972
977
981
985
993
1003
1009
1012
1012
1015
1017
1021
1020
1020
1015
1013
1016
1018
1016
1016
1016
1011
1011
1014
1012
1012
1011
1008
1011
1014
1013
1009
1008
1005
1005
1009
1013
1012
1011
1006
1005
1006
1008
1008
1007
1008
1011
1013
1011
1008
1004
1004
1008
1012
1012
1011
1009
1008
1007
1010
1009
1007
1006
1006
1008
1013
1015
1013
1009
1010
1012
1014
1016
1018
1018
1016
1017
1019
1019
1016
1018
1019
1021
1023
1024
1026
1023
1022
1025
1030
1031
1031
1030
1028
1029
1030
1033
1035
1037
1036
1036
1036
1037
1036
1037
1043
1046
1049
1045
1041
1041
1040
1042
1044
1043
1042
1041
1038
1037
1039
1039
1040
1036
1035
1037
1041
1041
1039
1034
1034
1037
1038
1036
1032
1036
1037
1035
1035
1035
1035
1036
1032
1035
1030
1032
1030
1029
1032
1032
1030
1026
1024
1024
1025
1029
1030
1027
1024
1021
1019
1016
1019
1019
1020
1020
1019
1016
1018
1015
1011
1015
1015
1015
1017
1015
1012
1008
1010
1015
1018
1017
1017
1015
1015
1020
1024
1020
1020
1016
1018
1018
1021
1019
1016
1017
1020
1023
1026
1022
1020
1022
1022
1027
1028
1026
1024
1022
1022
1024
1029
1029
1026
1025
1027
1027
1030
1030
1032
1029
1028
1031
1030
1029
1026
1026
1025
1028
1035
1034
1034
1032
1029
1030
1031
1032
1032
1034
1035
1033
1034
1034
1034
1033
1032
1037
1038
1038
1035
1036
1034
1034
1035
1034
1035
1033
1032
1034
1037
1036
1033
1032
1030
1031
1034
1036
1039
1037
1035
1037
1039
1037
1036
1038
1037
1044
1047
1048
1044
1046
1052
1059
1061
1062
1062
1066
1067
1073
1077
1078
1080
1076
1080
1084
1086
1087
1089
1088
1088
1086
1077
1068
1059
1051
1048
1043
1036
1027
1026
1026
1028
1029
1028
1030
1029
1028
1025
1028
1029
1029
1027
1029
1027
1026
1028
1026
1030
1028
1030
1031
1032
1030
1030
1027
1027
1029
1033
1032
1034
1033
1034
1036
1033
1033
1033
1029
1035
1040
1056
1071
1087
1107
1130
1147
1154
1143
1138
1146
1155
1162
1167
1171
1173
1171
1172
1179
1181
1178
1167
1138
1098
1062
1032
998
971
946
930
924
927
935
947
953
959
969
980
989
997
1001
1005
1009
1014
1011
1008
1007
1005
1009
1012
1010
1006
1001
1000
1002
1006
1007
1006
1005
1001
1003
1002
1000
1001
1001
1002
1002
1003
1003
1001
1001
1000
1002
1001
999
997
998
999
1002
1003
1003
1004
1006
1001
999
1001
1002
1002
1003
1002
1002
1008
1005
1002
1004
1005
1008
1008
1007
1005
1005
1007
1013
1014
1016
1010
1013
1013
1012
1014
1014
1019
1019
1020
1023
1028
1030
1028
1022
1025
1028
1032
1029
1030
1029
1032
1034
1037
1037
1038
1036
1035
1040
1042
1043
1039
1037
1038
1044
1047
1048
1047
1044
1044
1047
1045
1046
1044
1042
1041
1043
1044
1044
1044
1042
1041
1044
1044
1045
1043
1041
1039
1040
1045
1047
1044
1039
1037
1038
1039
1040
1039
1039
1038
1037
1038
1036
1034
1030
1032
1033
1034
1031
1029
1028
1028
1029
1029
1030
1027
1025
1021
1023
1026
1027
1026
1024
1019
1017
1022
1023
1023
1023
1021
1020
1026
1025
1023
1020
1018
1022
1026
1025
1020
1023
1022
1027
1028
1029
1026
1025
1024
1028
1029
1032
1029
1027
1026
1026
1032
1032
1028
1029
1032
1033
1036
1034
1032
1032
1034
1038
1040
1038
1036
1033
1036
1038
1038
1039
1036
1034
1034
1039
1037
1037
1036
1037
1037
1036
1036
1035
1036
1033
1036
1036
1039
1036
1039
1041
1043
1044
1045
1040
1038
1038
1039
1041
1043
1042
1043
1037
1038
1037
1039
1041
1042
1040
1041
1039
1047
1043
1044
1041
1042
1044
1047
1047
1044
1039
1039
1043
1045
1045
1042
1039
1041
1045
1047
1045
1045
1041
1041
1046
1046
1047
1044
1043
1044
1050
1055
1055
1054
1053
1054
1059
1064
1068
1070
1067
1068
1070
1075
1079
1083
1086
1083
1084
1087
1088
1094
1096
1096
1091
1087
1078
1068
1058
1048
1041
1034
1023
1019
1017
1023
1027
1028
1024
1027
1023
1026
1026
1022
1024
1020
1023
1023
1019
1015
1014
1019
1026
1029
1026
1024
1024
1028
1027
1025
1018
1019
1014
1016
1019
1021
1018
1018
1016
1010
1010
1009
1009
1019
1031
1044
1060
1091
1126
1154
1159
1140
1121
1126
1140
1150
1162
1166
1161
1159
1165
1171
1173
1160
1134
1094
1058
1030
998
964
930
907
898
895
899
909
919
929
937
941
949
955
960
965
971
975
976
981
983
974
966
969
971
972
971
966
972
978
980
978
971
962
960
961
966
970
965
961
959
962
967
972
970
964
963
969
967
967
963
966
964
963
963
965
962
958
961
964
968
965
964
967
970
974
971
970
964
963
965
970
980
981
974
969
964
963
966
976
986
987
985
977
981
980
975
973
980
985
989
991
989
990
992
997
993
985
979
981
989
996
998
995
992
1000
1006
1010
1010
1011
1010
1006
1005
1007
1009
1011
1010
1015
1016
1012
1006
1004
1009
1019
1017
1015
1012
1014
1013
1013
1014
1014
1012
1012
1014
1019
1022
1023
1017
1011
1006
1010
1011
1013
1014
1014
1012
1009
1007
1005
1006
1008
1005
1005
1007
1007
1005
1004
1002
1003
1002
1004
1004
1001
1003
1003
1003
1007
1003
996
996
998
1002
1001
993
990
993
995
992
992
993
998
998
998
993
994
994
994
990
988
990
994
993
993
994
996
998
999
997
999
1002
1004
1002
1000
997
998
998
1000
1003
1005
1007
1004
1002
1003
1006
1009
1011
1010
1007
1005
1008
1011
1010
1009
1007
1008
1011
1011
1008
1003
1005
1006
1012
1016
1017
1015
1012
1009
1012
1018
1019
1021
1017
1018
1019
1019
1019
1018
1014
1015
1018
1023
1023
1019
1018
1017
1018
1020
1021
1017
1016
1020
1024
1029
1025
1020
1016
1015
1021
1025
1028
1027
1024
1022
1024
1026
1028
1030
1033
1040
1040
1041
1042
1046
1046
1046
1049
1057
1061
1063
1059
1064
1072
1076
1074
1075
1074
1080
1088
1094
1092
1082
1071
1062
1058
1049
1042
1031
1023
1027
1029
1031
1030
1029
1026
1025
1029
1030
1028
1031
1030
1030
1029
1034
1033
1030
1029
1028
1032
1038
1038
1036
1033
1031
1035
1039
1040
1039
1037
1036
1037
1037
1037
1038
1038
1042
1054
1068
1087
1108
1137
1162
1172
1163
1160
1165
1171
1177
1186
1190
1189
1195
1199
1199
1193
1170
1132
1089
1048
1018
989
963
941
931
926
938
957
970
974
978
985
996
1006
1010
1010
1009
1012
1011
1015
1019
1017
1016
1012
1012
1015
1016
1016
1014
1010
1012
1011
1013
1014
1011
1009
1009
1012
1011
1011
1011
1010
1009
1007
1010
1011
1011
1009
1007
1008
1007
1009
1010
1009
1011
1010
1014
1012
1009
1008
1012
1012
1014
1016
1013
1010
1011
1014
1016
1016
1016
1014
1015
1015
1019
1018
1018
1016
1020
1021
1023
1023
1023
1022
1023
1026
1029
1030
1031
1029
1029
1033
1034
1036
1035
1033
1034
1038
1044
1045
1043
1041
1042
1044
1049
1048
1046
1041
1044
1047
1050
1049
1048
1046
1045
1045
1046
1043
1043
1045
1046
1048
1051
1049
1045
1045
1043
1043
1042
1042
1045
1043
1042
1042
1045
1045
1044
1041
1042
1042
1042
1040
1038
1036
1036
1036
1034
1035
1033
1031
1032
1032
1032
1028
1026
1025
1026
1030
1030
1029
1023
1021
1021
1021
1022
1021
1020
1017
1020
1020
1018
1019
1019
1016
1014
1017
1019
1022
1020
1018
1018
1019
1019
1020
1021
1020
1019
1019
1022
1024
1022
1018
1018
1021
1024
1024
1021
1019
1018
1020
1022
1022
1023
1020
1021
1022
1022
1022
1023
