980
982
982
979
980
978
980
982
984
980
979
980
981
984
984
981
979
979
981
983
983
983
981
980
984
983
982
981
982
981
983
986
983
984
982
978
983
983
984
982
983
982
983
986
985
983
982
983
982
988
988
987
985
986
985
987
986
990
988
991
992
996
995
995
994
997
1001
1002
1005
1007
1009
1012
1017
1020
1022
1024
1023
1025
1027
1034
1036
1037
1037
1034
1035
1033
1024
1014
1005
998
994
990
984
978
974
975
976
979
978
975
976
977
976
977
979
975
976
975
978
978
980
980
977
978
979
980
978
980
981
979
980
978
981
980
978
981
981
983
984
980
979
980
979
982
983
982
989
997
1013
1035
1055
1081
1100
1107
1103
1098
1102
1112
1119
1122
1131
1135
1135
1139
1142
1142
1136
1125
1097
1065
1034
1006
978
949
916
899
884
881
894
905
914
916
918
926
936
946
950
952
953
952
955
957
957
955
952
951
953
958
957
954
953
955
956
954
954
949
950
949
952
951
953
953
950
949
950
951
952
952
951
950
950
950
952
949
950
949
950
952
952
952
949
950
952
954
952
952
951
949
950
952
951
951
951
953
956
955
954
953
957
962
964
970
969
963
960
959
964
971
967
972
970
970
970
972
974
974
973
969
971
975
980
983
982
979
982
984
985
984
981
979
978
979
983
984
984
987
988
988
987
985
986
982
982
982
982
986
987
986
986
988
989
989
988
985
983
985
982
984
982
982
985
983
981
977
977
973
977
979
978
977
974
972
969
971
972
971
970
967
967
968
966
965
965
964
963
964
963
964
965
964
964
962
960
959
960
959
960
963
959
960
957
957
959
960
958
953
953
955
959
960
960
959
958
956
954
956
961
961
956
961
960
961
960
961
962
961
963
963
964
964
964
965
967
965
963
965
963
964
963
966
963
964
966
966
969
969
969
964
963
960
959
965
968
972
967
965
965
968
972
974
972
967
967
967
967
968
972
970
969
968
969
970
970
968
970
970
973
970
971
968
967
969
970
968
965
965
967
969
966
964
961
966
973
976
974
970
963
968
976
988
988
979
967
959
958
961
961
962
964
965
970
973
971
971
970
971
975
983
987
987
985
988
987
981
975
979
985
992
997
1001
1002
1003
1001
1002
1005
1008
1013
1011
1008
1005
1003
998
987
975
960
952
952
949
951
954
964
967
967
964
960
958
955
951
955
961
961
957
952
951
954
957
956
953
952
953
957
960
961
960
957
958
958
960
959
955
955
954
953
953
959
960
961
959
965
975
988
1006
1030
1050
1074
1090
1091
1092
1098
1108
1118
1124
1128
1118
1107
1110
1122
1129
1117
1089
1057
1028
1010
992
963
927
897
877
872
875
878
880
879
880
885
898
914
928
930
930
931
931
932
944
957
957
943
925
918
920
927
930
932
936
935
931
928
923
921
920
919
922
926
929
932
929
922
922
922
923
925
925
917
911
907
917
929
935
936
932
923
919
929
937
940
934
923
916
915
924
931
932
928
930
935
934
927
924
932
947
954
950
941
937
934
936
941
948
947
947
945
947
948
948
945
936
935
947
960
967
964
952
939
933
934
942
955
972
984
983
979
971
966
960
958
962
963
964
961
955
953
952
956
963
966
963
962
969
978
979
965
957
958
962
965
963
961
958
956
957
960
961
959
958
954
950
950
953
952
952
953
953
957
959
952
948
945
947
950
947
941
939
936
938
939
940
942
951
957
959
954
950
945
946
944
941
935
931
929
935
938
939
937
936
943
951
951
943
940
936
937
939
942
937
937
935
933
932
933
943
954
962
964
954
946
946
950
956
955
954
950
947
949
950
947
943
945
949
962
966
960
953
950
951
959
962
958
952
950
956
961
962
957
956
956
958
963
961
955
948
947
949
957
961
953
951
957
968
974
976
970
969
972
972
969
963
959
958
960
964
967
965
962
956
954
959
964
968
966
965
960
954
956
967
975
975
969
971
974
970
966
961
967
975
981
983
978
972
971
973
978
977
977
985
999
1008
1010
1011
1012
1010
1010
1012
1012
1011
1013
1012
1012
1010
1004
1001
997
999
988
975
965
964
963
964
961
964
962
958
957
956
951
956
961
967
961
954
952
953
960
959
960
960
962
964
969
975
979
976
966
961
963
967
970
968
960
961
966
972
973
976
983
996
1014
1041
1081
1111
1114
1100
1099
1113
1122
1126
1133
1141
1154
1166
1165
1164
1152
1144
1125
1095
1059
1025
990
948
917
896
884
885
891
899
901
902
901
903
911
928
939
944
940
938
936
939
946
946
943
940
942
946
952
950
946
941
936
931
937
944
947
942
938
938
939
942
942
937
930
930
932
933
939
941
942
941
940
938
937
937
936
936
940
937
939
940
942
947
948
946
944
946
948
951
946
950
951
950
948
949
951
952
951
948
945
949
956
961
962
958
955
952
957
970
976
975
970
971
972
973
971
966
960
962
967
973
975
977
977
980
983
983
977
981
980
982
982
985
987
985
980
974
977
980
981
984
988
989
989
986
984
983
983
982
986
986
984
977
975
979
984
992
989
986
979
974
973
980
983
979
975
976
978
983
982
982
977
973
970
974
981
981
975
969
969
979
985
981
971
965
961
960
959
962
960
963
970
977
977
969
961
960
968
974
969
961
954
957
962
961
961
960
962
961
962
965
969
966
962
954
956
964
974
977
971
974
979
981
975
968
965
968
973
974
972
970
971
972
970
971
969
969
963
964
970
975
978
977
977
984
987
983
981
976
972
974
977
982
985
982
975
971
969
969
974
973
974
977
982
983
984
983
980
979
983
985
981
975
973
973
979
985
990
984
978
974
978
988
988
981
972
975
979
984
984
981
982
982
974
977
978
984
984
984
985
986
985
985
986
989
989
987
991
993
993
992
996
1000
1001
1001
1005
1011
1015
1016
1014
1012
1014
1023
1030
1034
1035
1035
1033
1029
1023
1013
1006
996
991
985
975
970
969
973
976
977
977
974
974
976
973
974
977
980
982
979
973
975
975
971
969
971
972
977
975
977
982
985
981
978
976
977
980
978
973
970
973
973
975
984
991
1013
1032
1054
1079
1101
1108
1106
1103
1109
1118
1126
1127
1124
1122
1126
1137
1137
1136
1123
1098
1060
1027
1006
987
958
922
899
886
894
905
913
917
922
928
932
941
947
954
958
955
949
944
943
946
956
960
958
951
953
951
953
952
950
950
948
951
956
955
953
948
947
948
954
959
954
948
948
951
952
952
947
946
947
947
947
944
944
946
948
955
960
960
956
952
949
951
956
961
957
953
956
955
956
954
952
951
959
961
964
963
957
952
955
965
976
980
975
972
973
973
967
967
965
965
973
977
975
974
979
980
984
982
976
972
976
981
981
979
979
984
993
995
995
993
995
991
985
981
981
989
994
993
988
984
986
984
984
981
980
980
982
986
985
981
981
975
976
977
980
983
982
978
976
970
971
970
971
970
970
971
974
976
975
971
969
967
966
965
963
960
961
961
964
959
958
954
955
956
964
964
960
954
954
956
958
956
955
953
956
954
958
956
955
955
955
957
959
959
958
956
958
959
962
960
957
954
956
960
966
969
968
966
964
967
968
967
967
963
967
970
974
972
971
966
968
969
974
972
971
969
969
969
973
974
975
974
973
973
976
977
976
970
972
974
975
976
975
971
973
973
973
976
976
972
975
977
978
979
975
972
974
979
978
977
976
976
981
984
984
982
980
978
977
977
975
979
979
981
979
981
979
980
980
979
981
982
983
982
983
981
985
989
992
995
995
993
991
995
1000
1004
1005
1006
1011
1015
1019
1021
1020
1019
1021
1027
1030
1031
1029
1022
1018
1014
1009
1002
993
984
978
973
973
973
975
975
975
975
972
974
973
972
970
970
972
973
975
972
971
972
974
973
972
970
969
971
973
974
974
971
974
975
975
973
975
978
974
972
971
973
971
972
974
984
999
1015
1031
1053
1080
1103
1110
1104
1101
1110
1122
1130
1137
1143
1142
1142
1148
1154
1155
1143
1120
1086
1050
1026
999
965
927
897
881
875
880
889
899
904
907
914
921
933
938
939
938
942
945
944
941
940
944
944
943
939
938
939
939
940
941
940
940
935
936
935
936
937
936
934
933
932
935
937
937
934
933
937
940
939
938
934
934
934
938
938
936
934
936
938
943
941
940
938
940
941
941
945
943
942
945
947
947
947
949
951
947
949
953
953
956
951
954
957
961
964
963
960
961
964
967
971
967
966
971
974
977
975
973
972
975
975
978
978
979
979
981
979
981
980
980
978
976
976
979
981
979
976
978
980
979
981
981
976
975
980
979
976
976
970
973
976
976
976
969
964
968
968
971
971
968
966
966
966
964
961
960
958
954
955
957
958
955
951
951
954
955
956
952
949
947
951
950
948
944
941
944
947
948
947
948
948
950
949
950
951
946
947
946
947
948
948
948
946
947
951
954
954
955
951
950
952
953
954
952
951
952
955
956
956
955
954
955
956
958
961
961
958
955
958
957
957
957
956
958
957
958
960
962
961
964
961
962
958
959
960
964
968
970
971
966
962
959
961
959
953
952
952
958
962
959
954
949
949
951
953
956
950
944
942
951
964
969
969
970
962
958
963
963
956
944
940
946
949
953
958
960
960
965
972
979
984
986
980
974
971
977
985
989
984
991
995
999
1003
1004
1001
1002
1003
1002
995
985
978
977
975
973
966
957
944
942
949
959
960
951
949
959
974
970
947
933
933
943
949
951
951
950
948
945
943
946
947
953
953
957
961
958
951
945
943
949
951
953
954
952
952
952
953
957
977
1006
1032
1064
1091
1097
1090
1081
1082
1092
1098
1107
1116
1126
1142
1156
1158
1148
1131
1103
1068
1041
1023
1003
964
916
877
865
879
896
905
902
896
901
917
934
936
931
926
924
923
925
928
925
920
919
919
927
932
936
932
927
927
924
923
925
926
932
932
927
924
921
925
926
927
924
923
923
923
923
922
926
925
927
927
927
928
928
932
932
923
922
925
933
933
931
931
936
939
940
935
934
936
941
943
941
939
939
941
945
949
951
955
956
957
958
960
963
963
964
964
964
967
969
972
978
977
978
978
980
979
979
975
976
981
987
989
990
984
984
987
990
993
995
990
991
993
994
993
995
995
996
992
993
993
995
994
993
993
995
995
994
994
991
991
990
992
993
994
994
992
993
991
990
985
987
987
989
992
991
988
987
986
986
990
986
981
980
981
986
986
983
977
975
976
980
979
978
973
976
978
984
987
983
980
979
982
981
981
982
982
983
983
983
981
978
981
986
988
988
986
986
984
987
989
989
987
986
986
989
994
995
990
985
983
987
995
1003
1004
998
994
996
998
999
999
998
995
995
994
998
1002
1004
999
997
999
998
999
998
998
997
1000
1002
1004
1003
1001
1001
1003
1005
1005
1004
1001
998
1001
1003
1003
1002
1001
1001
1001
999
1000
1002
1006
1006
1007
1010
1010
1011
1011
1013
1014
1018
1018
1017
1016
1019
1021
1023
1023
1027
1030
1036
1039
1041
1041
1038
1040
1045
1049
1053
1056
1056
1053
1050
1043
1038
1033
1023
1013
1004
991
982
980
989
1000
1013
1013
1008
1003
1003
1003
1001
1000
998
1001
1000
997
998
1005
1004
994
987
990
998
1006
1011
1008
999
991
993
999
1002
1003
1004
1003
1002
1001
998
997
996
993
991
992
998
1016
1040
1061
1082
1103
1117
1118
1112
1110
1118
1126
1130
1131
1131
1131
1135
1146
1150
1150
1140
1132
1123
1104
1074
1047
1021
999
988
978
954
925
909
910
927
940
942
941
949
964
976
986
985
985
983
979
978
978
979
981
980
977
976
977
977
978
979
981
982
978
978
978
977
974
972
973
978
978
977
972
972
975
975
972
967
961
965
975
986
986
979
975
974
976
978
974
974
975
979
981
984
982
976
976
979
982
984
985
982
978
980
982
986
988
989
989
990
988
992
991
996
995
995
995
995
997
999
1003
1006
1004
1004
1008
1009
1004
1005
1008
1009
1006
1002
1004
1006
1010
1013
1011
1011
1009
1009
1010
1012
1009
1011
1010
1017
1019
1015
1010
1010
1008
1010
1011
1013
1013
1010
1010
1012
1011
1012
1009
1007
1006
1008
1011
1010
1009
1005
1005
1007
1007
1008
1006
1004
1004
1006
1010
1010
1008
1003
1004
1003
1005
1005
1002
1001
997
1001
1002
1002
999
996
995
996
998
993
994
992
988
990
993
992
990
987
985
987
989
986
986
982
977
979
986
992
990
984
982
980
982
985
984
984
982
979
983
981
982
981
979
977
981
984
983
982
986
987
986
986
984
983
978
982
985
989
989
986
986
987
990
988
990
991
989
994
995
994
992
989
986
988
995
993
993
992
996
997
998
998
991
989
993
995
998
996
994
992
994
995
999
999
996
994
992
996
1000
1003
1000
999
995
995
993
997
996
993
994
999
1003
1002
998
994
995
999
1003
1002
999
998
996
1001
1000
1006
1003
1003
1001
999
1000
1003
1007
1008
1006
1004
1009
1009
1009
1009
1008
1014
1017
1018
1016
1016
1017
1017
1022
1024
1027
1029
1029
1033
1039
1039
1041
1039
1038
1042
1046
1046
1047
1045
1042
1036
1030
1025
1018
1012
1003
996
996
995
992
989
988
993
996
997
996
995
993
992
991
994
992
990
991
994
995
994
994
996
995
997
996
993
992
989
990
994
996
996
991
990
996
1003
999
998
999
1002
1007
1022
1043
1062
1087
1102
1105
1101
1101
1107
1115
1117
1119
1117
1120
1122
1126
1127
1125
1122
1111
1088
1057
1030
1008
997
985
965
940
918
911
921
935
947
950
953
956
967
973
974
975
977
979
980
981
982
982
979
979
978
978
979
980
980
974
976
979
980
979
976
979
979
980
977
976
973
972
974
974
976
976
975
973
974
975
975
974
971
973
975
976
975
975
979
981
980
978
976
981
984
980
983
986
989
987
989
988
987
987
985
990
991
991
990
996
996
997
995
996
995
996
1000
1001
1004
1005
1007
1007
1005
1005
1006
1004
1005
1007
1007
1008
1008
1008
1006
1005
1007
1005
1006
1006
1012
1012
1013
1015
1014
1013
1012
1010
1012
1012
1011
1011
1011
1009
1008
1006
1007
1005
1009
1011
1011
1007
1003
1002
1002
1008
1009
1003
997
997
998
1001
1001
1000
999
997
1000
1006
1006
998
994
992
996
999
1001
997
992
988
989
990
993
990
984
981
985
989
986
984
984
981
980
978
977
974
973
970
972
978
980
978
978
973
970
970
974
974
971
971
971
974
975
973
971
970
973
973
971
971
973
974
978
977
976
979
978
976
977
976
980
979
978
976
978
981
983
985
984
984
986
987
985
984
982
982
987
993
990
985
982
981
984
991
992
987
986
987
988
990
991
989
989
990
992
991
991
988
989
985
989
991
994
990
986
986
988
991
992
993
993
992
992
994
991
986
988
989
991
996
996
994
991
990
992
990
992
989
990
995
999
1002
1002
1001
1003
1004
1005
1009
1012
1015
1017
1017
1023
1027
1029
1027
1024
1025
1029
1033
1035
1036
1034
1031
1028
1024
1015
1006
997
991
990
988
983
983
984
981
984
986
986
982
980
981
983
984
980
976
978
980
980
984
985
981
983
983
981
984
982
981
979
978
984
990
989
987
980
979
984
986
987
990
994
1008
1029
1059
1085
1106
1115
1107
1100
1108
1120
1127
1128
1127
1134
1143
1151
1147
1139
1127
1107
1079
1045
1017
997
974
956
936
917
903
904
909
920
925
930
931
937
945
954
960
960
960
956
953
959
959
961
959
956
956
958
957
956
953
953
953
954
957
956
954
953
952
953
952
951
947
945
947
953
962
961
960
957
955
955
956
956
953
950
948
952
959
958
956
952
951
955
960
963
963
960
960
963
963
962
961
960
960
963
963
964
965
966
968
969
968
964
966
972
979
981
980
976
978
982
982
981
984
987
986
984
983
987
990
991
991
990
989
988
992
994
991
988
987
989
994
995
994
991
987
989
994
994
992
990
988
992
991
989
989
988
988
992
990
986
984
984
983
986
987
983
989
992
990
987
986
985
983
983
979
981
985
982
981
978
977
975
976
974
974
974
971
971
971
968
968
967
966
966
970
964
964
961
964
966
964
965
967
967
965
963
968
967
968
965
965
969
969
968
969
968
968
970
971
970
968
967
967
970
974
973
970
971
972
971
975
977
975
972
969
973
976
978
975
974
971
975
983
982
980
978
977
979
979
980
979
978
979
981
984
980
977
974
975
979
981
980
983
990
988
985
983
982
984
984
984
984
984
984
982
982
983
983
981
982
982
981
978
982
985
988
990
989
990
992
998
999
995
995
997
1000
1004
1010
1011
1011
1012
1016
1024
1025
1023
1023
1024
1029
1033
1035
1036
1029
1024
1017
1012
1001
995
988
981
975
973
974
972
974
971
973
978
977
976
975
975
976
979
977
977
973
970
972
975
981
983
983
979
976
979
983
981
980
978
979
983
984
978
977
978
982
984
985
983
984
990
1006
1028
1048
1071
1091
1103
1098
1092
1093
1101
1105
1112
1117
1120
1115
1119
1122
1123
1121
1116
1095
1065
1039
1014
991
972
948
925
904
897
910
923
928
931
934
938
948
957
962
961
961
958
960
958
958
955
952
955
964
968
969
964
958
958
961
960
958
955
953
955
958
958
954
951
950
950
955
958
957
956
952
954
956
957
960
958
956
955
957
961
961
961
961
962
962
966
965
963
963
966
970
972
971
967
968
974
977
976
979
981
981
982
984
985
986
986
983
984
990
