999
1003
1003
1000
1002
1000
1000
999
1000
1000
999
997
998
996
994
995
992
992
991
989
987
984
981
980
981
983
982
980
978
975
978
978
978
977
974
975
974
975
976
973
969
971
973
975
973
970
968
969
971
973
972
970
967
968
971
968
972
969
969
966
967
968
966
967
966
964
964
967
965
965
965
965
964
963
962
963
960
961
962
961
960
959
958
960
959
959
959
956
956
956
956
958
959
956
954
952
955
954
955
957
956
952
953
953
954
952
952
952
953
955
954
956
957
955
955
954
952
951
951
956
962
966
964
961
958
956
957
958
960
961
960
958
955
961
957
957
961
962
964
966
966
965
960
961
962
966
966
961
961
962
963
964
963
963
960
957
957
960
961
961
957
959
961
966
967
969
969
965
965
964
963
962
964
965
966
968
967
966
962
960
963
965
964
961
960
962
966
967
968
968
968
965
967
970
968
969
968
967
971
973
974
972
973
975
980
982
983
982
983
984
987
992
996
996
997
1001
1004
1010
1010
1008
1005
1009
1011
1014
1016
1016
1011
999
991
985
979
975
969
965
961
959
957
959
959
954
955
958
958
954
952
955
957
958
958
954
953
953
955
958
959
956
954
952
956
958
961
962
958
957
955
960
960
956
953
956
959
960
958
950
946
943
951
961
967
968
972
970
962
946
939
934
932
931
930
925
912
902
895
887
883
878
866
854
844
840
842
850
860
863
865
868
883
895
909
923
933
943
951
958
961
963
963
961
963
965
966
967
967
965
966
969
970
970
968
967
967
970
972
972
968
968
970
973
972
971
970
971
972
974
976
976
973
973
975
978
978
976
976
977
979
985
983
981
980
982
984
985
986
985
982
983
986
994
993
991
989
991
992
995
995
995
994
996
1000
998
1000
1000
999
1000
1001
1002
999
999
998
996
997
999
1000
998
997
995
997
998
993
994
992
990
988
992
991
988
985
984
985
987
985
983
982
983
984
982
980
977
976
977
978
978
979
977
973
971
972
973
975
975
973
970
973
974
976
975
975
974
974
977
977
978
974
972
973
971
976
976
973
971
970
972
971
969
969
970
972
974
972
967
965
968
968
967
966
964
966
964
967
965
964
964
963
960
961
964
965
963
962
960
961
961
964
968
966
964
963
962
960
962
960
960
964
965
963
963
962
962
964
966
964
962
964
964
967
965
969
971
971
968
968
969
968
969
969
971
971
974
972
972
969
971
974
973
974
972
968
971
975
974
975
975
972
972
971
973
970
971
970
972
972
974
973
973
976
978
980
978
976
973
974
973
979
981
979
977
976
976
977
977
974
972
975
977
980
983
981
982
985
984
989
990
990
994
996
1000
1006
1012
1016
1018
1017
1017
1021
1025
1023
1022
1025
1026
1029
1029
1022
1013
1006
997
992
989
978
971
968
970
977
980
976
970
968
969
976
978
981
977
972
967
970
978
978
976
973
974
975
974
974
976
977
973
972
973
971
973
977
979
979
977
969
966
968
974
979
986
992
993
980
960
954
953
951
948
940
930
919
914
906
895
885
873
867
868
870
875
880
883
890
902
919
932
935
944
955
968
976
981
980
981
984
987
987
989
984
984
988
993
995
996
994
992
994
998
996
996
993
994
996
998
996
994
993
992
996
1000
999
1001
998
995
997
1001
1001
1000
999
999
1001
1003
1003
1005
1005
1004
1006
1008
1008
1008
1005
1007
1009
1010
1011
1012
1014
1013
1016
1016
1016
1018
1019
1020
1020
1024
1021
1020
1019
1018
1021
1023
1024
1022
1018
1015
1015
1019
1019
1017
1014
1011
1013
1018
1018
1011
1004
1003
1005
1007
1005
1002
1000
999
996
996
996
995
993
991
994
996
995
993
991
990
992
993
992
988
987
987
990
992
990
989
989
986
986
987
987
984
986
984
987
989
988
988
986
981
984
987
985
982
980
983
986
986
981
977
978
981
984
983
979
980
982
977
980
982
982
981
977
980
977
977
976
973
974
975
975
977
972
971
972
974
975
977
974
973
970
971
972
974
975
975
974
974
976
976
974
976
973
972
974
979
979
978
975
975
977
976
977
975
974
974
974
979
979
978
975
973
975
975
978
978
976
975
977
977
980
979
977
973
973
977
973
972
974
975
981
984
980
983
982
982
985
984
981
981
979
981
982
984
985
982
985
987
990
991
991
992
994
996
999
1003
1010
1014
1016
1017
1017
1023
1024
1023
1025
1026
1029
1030
1031
1025
1017
1009
999
996
989
978
969
969
972
976
977
976
972
971
973
973
977
974
973
974
976
977
973
974
972
976
976
978
973
970
972
973
973
977
977
975
973
974
975
980
981
982
979
976
974
981
986
994
998
1002
1003
993
972
963
955
952
953
950
937
929
926
923
915
909
897
880
873
869
870
876
880
883
885
896
915
932
943
950
955
962
974
983
984
986
984
987
988
990
991
991
989
986
988
994
994
994
992
992
995
997
998
996
995
993
997
999
999
996
996
996
998
1004
1004
1003
1000
998
1001
1004
1006
1003
1006
1006
1008
1013
1012
1011
1012
1010
1010
1012
1016
1014
1013
1011
1014
1017
1017
1018
1018
1016
1022
1026
1025
1023
1022
1022
1024
1028
1028
1030
1023
1022
1025
1029
1029
1027
1025
1024
1024
1022
1019
1017
1017
1014
1014
1019
1017
1013
1011
1010
1009
1010
1009
1007
1005
1004
1003
1008
1005
1004
999
1000
1001
1004
1000
1001
1000
1002
1003
1004
1003
1002
1005
1003
1004
1006
1002
1003
1002
999
1002
1002
1003
1002
999
998
1001
1000
1003
1000
999
1001
1001
1002
999
999
996
997
996
999
999
998
997
994
997
995
996
997
996
994
996
994
994
992
988
987
992
993
991
992
991
988
987
989
989
989
987
988
990
991
985
985
984
986
992
993
991
992
990
991
993
992
991
992
990
990
993
992
993
990
990
990
994
993
995
991
991
991
994
995
994
992
990
990
993
995
994
994
992
993
995
997
995
992
990
993
995
998
995
993
989
991
997
998
995
994
992
991
991
998
996
998
996
996
995
995
997
998
998
997
999
1001
998
999
1001
1004
1007
1008
1009
1010
1008
1010
1012
1015
1019
1025
1025
1025
1027
1036
1038
1035
1031
1034
1038
1041
1041
1042
1039
1034
1029
1024
1016
1007
999
991
988
986
985
983
981
983
986
990
989
984
982
984
986
990
986
982
981
981
984
990
992
988
984
982
985
988
985
985
983
981
984
988
986
983
982
982
985
988
989
985
976
972
973
981
989
994
995
994
991
979
963
956
951
947
948
947
938
925
915
906
902
901
893
879
872
866
867
871
877
884
888
889
897
913
927
939
944
952
964
975
983
989
991
991
995
997
1000
998
997
996
997
1001
1002
1002
1001
1002
1005
1005
1006
1003
1002
1000
1003
1006
1007
1005
1004
1003
1005
1007
1005
1003
1001
1005
1008
1010
1013
1006
1007
1009
1013
1015
1012
1010
1009
1010
1010
1014
1015
1016
1013
1015
1018
1021
1019
1020
1019
1022
1025
1026
1027
1023
1023
1023
1027
1028
1030
1030
1030
1029
1031
1035
1032
1033
1030
1030
1030
1031
1030
1029
1028
1030
1032
1034
1031
1027
1026
1026
1025
1027
1024
1024
1020
1017
1015
1015
1015
1013
1013
1010
1012
1012
1011
1008
1004
1006
1008
1010
1010
1006
1000
1000
1001
1006
1005
1005
1002
1003
1004
1008
1006
1005
1002
1001
1001
1004
1001
1000
999
1001
1001
1004
1001
1000
997
997
1000
1003
1001
998
998
998
999
999
998
996
995
994
994
995
995
992
989
990
995
997
995
990
987
985
985
990
989
987
985
981
983
987
986
985
978
977
978
983
989
987
983
984
985
986
987
984
982
981
985
988
988
985
984
982
984
986
987
986
982
983
985
986
985
985
983
984
986
989
988
985
985
985
986
992
991
991
989
986
986
989
984
985
986
987
988
988
990
988
987
986
988
988
992
992
990
988
989
991
990
989
985
986
991
993
993
991
987
985
989
989
989
986
983
985
990
992
993
992
990
990
992
992
991
989
990
990
992
993
995
992
988
987
990
992
992
992
988
987
993
994
996
995
991
993
998
1000
1003
1006
1004
1006
1011
1013
1019
1021
1019
1023
1028
1034
1033
1031
1027
1029
1034
1038
1040
1038
1033
1025
1022
1016
1011
1002
995
987
983
983
980
981
978
978
980
984
983
982
981
982
982
983
981
980
978
976
977
984
984
982
979
977
979
983
982
981
980
977
981
981
978
978
975
980
983
986
985
983
979
979
979
977
971
969
975
983
993
998
1000
998
997
982
967
960
961
959
955
951
945
935
928
924
918
912
906
899
884
876
866
861
862
873
879
883
885
894
913
928
938
943
951
956
969
977
983
985
984
984
987
992
991
989
986
987
989
990
993
992
991
994
993
994
995
993
993
995
995
995
995
996
993
992
992
995
998
1000
998
1000
1000
1003
1000
999
1000
1000
1004
1007
1009
1007
1003
1003
1006
1007
1009
1009
1008
1010
1014
1016
1017
1015
1013
1014
1014
1018
1019
1020
1019
1021
1019
1021
1022
1023
1022
1023
1024
1023
1023
1026
1022
1025
1025
1025
1027
1023
1020
1020
1021
1023
1021
1018
1013
1013
1014
1014
1014
1011
1011
1006
1005
1003
1003
1005
1002
1003
1002
1002
997
994
993
997
999
1004
998
995
993
991
994
994
993
989
990
991
994
996
993
994
990
987
989
990
989
986
987
987
989
990
991
988
984
987
987
986
988
986
986
984
984
985
984
982
980
980
982
984
983
978
975
977
979
982
982
979
975
976
978
977
976
974
974
973
975
978
977
973
973
972
976
976
975
976
974
972
974
977
979
978
975
975
975
977
978
980
979
979
977
979
979
980
980
980
983
985
983
982
980
982
986
986
982
985
985
989
989
989
989
986
983
982
983
987
984
985
982
983
985
986
988
986
985
990
990
988
985
984
986
988
986
988
987
989
986
986
985
990
991
987
982
983
986
992
995
993
992
988
990
992
990
989
987
987
987
989
992
991
987
985
984
987
988
993
990
989
989
990
990
987
985
988
989
991
990
986
986
992
994
996
992
988
987
992
995
999
994
994
991
994
995
995
993
993
989
994
995
997
1000
999
996
995
994
996
997
996
993
993
996
999
999
997
993
995
1000
996
996
996
998
1001
1003
1006
1007
1008
1007
1007
1012
1019
1023
1026
1028
1028
1032
1037
1041
1042
1039
1040
1048
1049
1051
1046
1039
1027
1018
1015
1011
1005
993
988
989
987
992
988
986
989
991
990
989
988
986
984
989
993
993
988
982
979
982
987
992
994
988
987
990
988
985
984
986
993
995
995
993
989
988
990
995
997
994
990
989
995
1006
1013
1013
1014
1013
1003
984
971
963
960
957
959
949
937
927
922
912
910
905
900
889
881
874
875
885
897
901
902
909
923
941
951
958
965
971
979
988
997
1000
1001
1000
1002
1006
1007
1008
1005
1004
1005
1004
1005
1006
1004
1003
1007
1009
1011
1010
1011
1010
1008
1007
1009
1011
1008
1006
1003
1006
1010
1012
1013
1011
1011
1013
1015
1014
1014
1009
1008
1009
1012
1016
1017
1016
1016
1017
1021
1021
1024
1021
1020
1020
1023
1022
1023
1021
1023
1026
1028
1025
1025
1025
1026
1028
1030
1031
1028
1026
1027
1029
1030
1029
1029
1028
1029
1032
1032
1029
1027
1027
1029
1030
1027
1025
1023
1021
1022
1026
1028
1023
1019
1016
1016
1019
1022
1021
1017
1014
1012
1014
1015
1013
1007
1005
1006
1011
1012
1012
1010
1006
1007
1008
1011
1011
1008
1005
1005
1007
1009
1008
1003
1003
1006
1006
1005
1006
1007
1002
1003
1004
1007
1005
1006
1002
1004
1006
1009
1006
1005
1003
1004
1006
1007
1003
1001
999
1000
999
1001
999
999
1000
1001
1002
1003
999
999
996
993
995
997
998
996
992
992
994
995
993
992
990
991
991
991
991
990
987
985
988
994
991
988
987
988
992
993
992
986
985
984
990
992
992
990
989
993
997
996
997
994
991
993
997
998
996
993
990
990
992
994
994
993
992
992
994
995
995
994
991
991
992
996
995
993
992
991
994
998
998
994
994
993
995
999
995
993
991
996
1003
1003
1000
998
994
995
997
998
995
990
986
989
998
1004
1007
1003
1000
999
1000
1000
998
1000
997
997
998
998
1002
1000
999
996
998
1001
1001
999
997
999
999
1001
1001
1000
996
994
997
999
1000
999
997
1000
1002
1002
1002
1000
999
997
998
1000
998
999
997
997
1001
1001
999
1001
999
999
1002
1004
1004
1001
998
997
999
999
1003
1003
1000
1000
1004
1002
1001
998
992
999
1001
1003
1002
998
998
1001
1001
1002
1005
1006
1008
1008
1008
1013
1015
1017
1016
1023
1028
1032
1035
1035
1037
1038
1040
1041
1043
1044
1044
1046
1046
1044
1037
1026
1017
1015
1011
1005
995
992
989
991
991
993
995
991
988
989
993
995
995
996
995
994
996
997
998
996
993
995
994
998
995
997
994
994
995
997
996
996
992
996
1000
1000
998
998
993
992
993
990
985
984
989
995
1004
1004
1007
1006
994
973
963
963
962
959
957
945
936
932
931
925
918
913
909
900
890
886
882
881
889
901
908
908
914
932
946
958
966
971
977
989
996
1001
1006
1005
1003
1004
1003
1007
1009
1013
1010
1010
1008
1011
1012
1015
1009
1009
1011
1014
1014
1011
1009
1009
1014
1016
1016
1014
1012
1009
1015
1017
1014
1014
1013
1014
1015
1018
1017
1018
1018
1016
1018
1018
1019
1020
1019
1021
1021
1024
1027
1025
1022
1021
1027
1030
1029
1029
1028
1032
1033
1034
1032
1030
1027
1029
1033
1040
1040
1038
1034
1035
1039
1041
1041
1038
1035
1038
1036
1038
1038
1035
1032
1033
1035
1037
1035
1032
1028
1027
1028
1028
1025
1021
1017
1020
1021
1017
1014
1014
1013
1014
1014
1016
1015
1015
1010
1009
1012
1014
1015
1015
1010
1011
1012
1012
1008
1008
1005
1006
1007
1009
1009
1005
999
1001
1006
1005
1003
1003
1003
1006
1008
1008
1003
1000
999
999
999
1000
1000
998
993
994
995
997
996
995
991
992
994
992
989
987
987
989
992
991
990
990
988
988
990
989
990
988
983
985
986
989
988
987
987
987
989
987
986
984
984
987
989
989
989
988
987
986
989
990
989
989
987
989
990
992
992
990
991
990
990
992
992
988
987
987
989
994
993
992
988
985
986
989
989
990
988
987
989
990
992
992
992
990
988
989
991
991
987
988
990
990
990
989
986
987
986
989
992
990
991
989
991
991
994
992
987
986
985
989
989
992
991
990
991
993
993
989
992
994
992
993
991
992
988
988
992
995
993
991
989
991
994
995
991
989
985
992
993
992
993
992
988
986
988
992
993
990
984
983
985
987
985
987
991
995
993
994
989
987
988
984
985
984
981
985
986
991
995
997
994
989
988
988
990
989
983
987
990
992
993
993
994
990
989
989
989
990
986
985
988
988
990
990
990
991
990
994
997
997
1000
1001
996
1000
1006
1013
1018
1017
1017
1022
1026
1025
1030
1028
1028
1031
1032
1036
1032
1026
1016
1005
1003
998
990
980
972
973
976
977
978
978
975
976
978
983
981
978
977
976
979
980
979
975
974
974
980
980
979
977
978
978
978
980
981
980
978
981
980
976
973
972
974
979
985
993
997
998
995
982
961
946
941
940
937
924
917
912
907
899
887
880
873
869
866
869
877
884
887
896
911
924
935
944
956
966
973
979
982
985
986
991
988
987
988
990
991
993
995
991
993
987
989
995
992
993
990
990
992
994
992
993
992
991
991
996
998
995
993
996
996
1000
999
996
996
996
996
1000
1001
1000
998
999
1002
1007
1007
1007
1002
1003
1007
1011
1011
1009
1005
1005
1005
1007
1009
1015
1017
1018
1015
1019
1020
1019
1017
1019
1021
1021
1020
1015
1016
1019
1020
1020
1016
1015
1014
1014
1016
1016
1015
1010
1006
1008
1008
1016
1013
1008
1003
1003
1007
1009
1008
1005
1001
1001
999
1002
1004
1005
1000
998
999
1002
1002
1002
1001
1002
1004
1004
1000
1000
998
999
1004
1003
1002
1000
997
999
1000
1005
1003
1000
996
998
1000
998
1001
998
997
995
996
999
1000
1001
998
996
996
999
996
993
992
992
994
996
996
995
993
989
990
990
987
987
989
991
990
991
987
986
987
989
991
993
991
988
985
986
987
989
991
989
991
993
994
994
996
993
994
995
1000
1000
996
995
992
991
994
996
998
997
996
995
999
1000
1003
998
997
996
1000
997
1002
998
998
999
997
1000
1001
999
1001
999
997
997
1000
1000
1001
1001
1002
1003
1000
1001
1001
1002
1002
1006
1006
1007
1004
1003
1004
1006
1005
1002
1001
1002
1004
1005
1007
1002
1003
1004
1006
1007
1004
1003
1003
1000
1003
1006
1006
1006
1003
1002
999
1003
1005
1002
997
999
1005
1010
1008
1002
999
1004
1009
1009
1008
1006
1005
1004
1004
1004
1003
1003
999
1002
1004
1006
1008
1007
1004
1003
1008
1011
1010
1007
1001
999
1002
1007
1006
1004
1001
1000
1005
1007
1010
1007
1006
1007
1007
1011
1012
1011
1016
1020
1021
1025
1027
1030
1030
1032
1036
1042
1044
1040
1038
1041
1047
1051
1051
1046
1039
1029
1022
1016
1010
1002
994
990
992
994
994
993
989
988
992
994
996
994
991
990
992
993
993
996
996
995
995
994
993
991
991
990
991
993
991
987
985
989
992
996
991
988
981
974
976
982
990
996
994
999
1004
1001
980
960
951
953
956
951
945
936
926
922
915
907
895
884
875
875
874
875
876
884
883
885
896
915
932
942
950
958
967
977
983
987
987
989
993
996
994
996
993
992
993
993
992
991
994
994
992
992
993
998
1001
999
999
999
999
998
992
989
992
996
1002
1001
997
997
997
1000
1000
997
997
995
999
1003
1005
1003
1003
1002
1006
1006
1006
1007
1004
1006
1007
1011
1016
1013
1006
1009
1011
1011
1013
1012
1010
1012
1015
1018
1019
1018
1017
1015
1014
1019
1021
1022
1019
1020
1016
1017
1019
1020
1019
1021
1020
1019
1018
1016
1015
1013
1014
1012
1009
1008
1005
1009
1011
1011
1007
1003
999
999
999
1001
996
994
993
994
998
998
997
993
990
987
988
992
990
989
989
992
993
995
993
990
988
988
