978
977
977
978
981
979
979
979
980
977
976
974
977
979
980
977
977
978
977
981
984
984
983
978
982
985
986
982
983
979
982
983
985
986
986
986
984
985
986
986
986
985
987
988
988
990
991
990
988
988
990
989
987
988
990
994
993
992
990
991
990
990
991
992
990
987
989
991
993
994
996
994
993
994
993
990
989
988
989
994
998
998
998
993
993
994
992
993
989
988
990
993
995
992
994
991
995
997
998
998
997
994
998
1001
1003
1005
1003
1002
1003
1006
1008
1012
1015
1018
1023
1028
1031
1032
1033
1033
1035
1039
1041
1043
1041
1041
1043
1040
1033
1026
1019
1009
1007
998
989
985
986
986
987
990
992
988
986
986
989
990
991
990
987
984
985
988
989
986
986
985
985
988
990
988
987
987
990
988
989
988
987
986
989
989
990
986
987
982
984
990
989
991
995
1004
1021
1037
1055
1076
1096
1102
1099
1094
1097
1105
1108
1112
1118
1122
1122
1125
1128
1128
1127
1117
1099
1068
1038
1012
993
975
954
937
917
905
902
907
921
928
935
938
943
952
958
963
965
965
967
970
971
968
969
967
970
970
971
970
967
966
967
971
971
973
970
966
969
967
969
968
963
959
961
965
969
968
966
964
964
966
966
963
964
965
966
965
962
963
963
963
966
965
968
965
966
964
966
970
967
968
967
966
969
967
969
970
972
970
974
975
975
975
975
973
975
975
976
980
980
977
980
982
983
984
982
979
982
984
988
990
987
986
988
993
997
995
992
989
992
999
999
1000
996
995
994
998
998
997
996
995
998
1000
1000
999
997
993
994
995
996
996
996
997
998
997
997
995
997
995
993
993
993
995
991
989
991
995
994
991
991
986
986
986
989
989
987
982
984
985
987
984
979
978
981
980
980
980
979
977
978
977
975
972
971
971
973
969
968
965
966
968
965
969
971
972
969
969
971
973
974
973
968
968
971
973
975
974
974
974
974
977
977
976
977
975
979
979
980
977
976
976
981
980
982
985
985
984
984
984
984
985
983
982
980
984
985
982
982
977
982
983
983
982
979
979
982
985
984
985
984
984
988
986
986
984
983
984
986
988
989
984
987
984
987
990
988
986
986
984
983
986
987
986
984
982
986
989
987
987
987
981
983
984
986
987
986
987
988
993
994
991
987
988
986
990
991
990
989
987
989
993
993
993
994
993
997
1000
1001
1002
999
999
1001
1005
1009
1013
1016
1018
1020
1023
1025
1027
1026
1024
1028
1034
1037
1037
1035
1034
1035
1034
1031
1021
1012
1002
999
993
989
984
978
976
979
984
985
982
980
975
978
980
983
981
976
975
978
981
983
981
977
977
979
982
982
980
981
978
978
980
981
980
981
981
980
978
983
981
978
975
977
980
983
983
982
983
990
1003
1019
1036
1051
1070
1090
1100
1096
1090
1089
1097
1105
1112
1115
1114
1112
1117
1121
1124
1120
1111
1089
1059
1032
1010
992
971
947
923
905
896
896
906
915
918
925
930
936
944
950
953
954
960
958
956
954
952
952
954
958
961
958
954
953
958
957
960
958
951
952
951
955
953
950
953
952
956
955
954
951
950
950
952
954
951
950
951
950
955
954
953
950
948
952
952
954
952
950
948
953
954
956
953
954
954
959
959
959
957
959
958
958
961
960
961
960
958
961
965
967
965
964
963
964
968
968
967
967
965
971
971
973
975
973
971
974
978
977
981
977
977
977
979
984
982
981
977
979
983
984
984
982
983
983
985
985
983
981
981
982
983
986
982
977
979
981
981
984
980
979
981
980
980
982
979
979
977
979
979
977
975
974
973
976
974
975
972
972
972
972
969
971
970
967
967
965
965
967
965
964
962
962
964
965
964
962
960
960
961
960
957
957
954
956
957
958
958
955
953
953
953
955
956
956
954
956
957
958
956
954
953
956
958
959
960
960
959
961
963
963
962
960
957
960
963
965
965
964
963
965
965
965
964
961
961
962
968
969
969
967
965
966
969
972
968
965
966
968
968
970
969
969
969
967
970
969
969
968
966
970
969
969
967
970
968
970
972
975
974
973
971
971
971
971
972
970
970
971
976
975
978
975
973
973
974
973
971
971
969
971
975
978
976
974
972
975
975
976
976
973
970
972
977
976
974
976
976
976
980
980
977
975
973
978
978
981
981
982
979
982
985
989
989
986
987
991
994
1000
1005
1006
1004
1009
1013
1016
1014
1012
1012
1018
1024
1026
1028
1026
1024
1014
1010
1002
993
986
976
970
966
963
965
964
964
967
969
968
969
968
967
968
968
971
968
965
965
965
969
967
967
966
967
968
969
969
971
969
967
969
974
975
973
971
969
972
970
970
972
974
980
993
1012
1031
1053
1075
1090
1094
1090
1088
1098
1105
1110
1120
1123
1128
1137
1141
1134
1125
1101
1068
1030
996
962
936
912
897
885
883
893
907
914
917
920
924
930
938
945
947
948
947
946
943
948
947
948
946
943
949
949
950
948
946
943
945
946
946
944
941
940
944
946
944
942
941
939
943
948
949
946
946
943
945
946
945
944
942
940
943
947
948
948
944
946
946
948
949
947
947
945
943
949
948
949
947
947
947
950
955
950
950
949
954
955
959
957
954
955
957
961
962
962
961
964
967
969
971
971
970
971
975
976
976
977
975
974
977
984
984
982
981
980
982
984
984
985
985
982
984
987
987
987
984
984
985
986
988
988
987
984
984
986
986
985
982
984
986
988
990
989
986
983
985
988
986
985
985
980
980
982
983
980
981
977
977
978
977
976
975
974
975
973
973
973
970
970
971
972
971
971
970
968
969
970
970
966
968
967
969
968
970
968
964
965
965
968
969
968
967
969
971
970
975
972
970
968
970
969
974
973
975
973
973
976
973
974
974
973
974
975
975
976
975
973
976
976
977
976
976
977
978
981
981
980
982
978
979
982
981
980
978
978
980
982
981
980
980
978
979
982
979
982
981
980
982
982
984
982
981
983
983
983
982
982
981
979
983
985
985
983
981
983
984
985
985
984
983
982
984
986
987
985
983
981
981
986
990
991
990
994
997
998
1000
999
998
997
1002
1009
1014
1015
1015
1016
1021
1024
1024
1024
1024
1029
1031
1033
1034
1028
1019
1008
1001
995
990
983
977
970
971
976
977
977
974
973
976
976
977
977
973
971
973
974
975
975
973
975
977
978
977
977
975
975
976
977
977
977
978
976
977
979
978
978
976
973
977
982
997
1014
1035
1056
1083
1099
1095
1088
1094
1100
1106
1113
1115
1113
1115
1120
1123
1120
1110
1084
1048
1012
989
970
949
923
902
887
888
902
914
919
919
924
933
943
949
952
953
950
954
954
954
954
953
952
953
952
951
951
951
948
952
953
953
951
946
944
949
950
947
947
945
945
947
947
946
948
948
946
944
946
948
949
947
946
947
950
952
952
950
946
949
949
951
949
949
950
953
955
957
955
954
951
954
958
959
956
958
955
958
961
962
963
962
961
962
967
970
967
966
966
969
971
973
972
973
970
972
974
977
975
978
977
978
979
979
980
979
979
982
981
982
980
979
978
979
981
983
982
981
978
978
980
982
981
980
978
982
981
982
979
978
977
976
978
979
977
976
975
975
975
973
973
972
970
969
974
975
973
972
969
967
967
968
969
965
966
967
967
966
965
962
961
962
961
964
961
959
958
958
960
959
958
956
955
956
956
957
957
955
954
957
960
959
960
957
957
957
961
962
962
960
955
960
966
965
966
962
960
963
965
967
967
964
963
964
967
968
966
964
965
967
968
969
968
968
966
967
970
973
970
967
966
965
971
972
972
971
969
970
972
970
968
968
967
968
968
973
974
970
967
972
971
970
972
973
968
971
970
971
970
968
968
971
973
972
971
967
966
970
972
972
968
967
969
972
972
972
970
967
966
972
973
973
969
969
966
970
972
973
971
968
968
972
976
978
978
978
980
979
980
982
985
986
988
992
997
1000
1002
1004
1003
1005
1007
1009
1011
1013
1015
1017
1020
1016
1011
996
986
978
979
973
965
959
957
958
962
960
958
956
954
957
960
962
960
958
957
960
960
961
962
958
956
960
962
961
960
958
957
961
963
963
961
961
959
966
966
965
961
959
959
961
964
970
977
990
1007
1026
1052
1075
1088
1086
1077
1079
1090
1098
1102
1105
1107
1110
1115
1121
1123
1119
1105
1082
1052
1022
994
965
940
918
898
884
874
876
881
895
903
906
909
912
918
927
934
934
935
935
935
937
938
941
937
938
935
937
938
936
938
937
936
937
937
934
933
934
933
934
934
935
934
931
928
932
933
937
936
933
933
934
931
934
932
931
928
931
934
936
934
934
931
933
932
933
935
936
935
934
936
932
935
932
934
938
941
942
940
939
938
941
942
944
943
942
942
945
947
949
951
949
950
952
955
957
955
955
957
960
964
965
963
962
962
967
968
968
965
966
967
971
972
972
971
972
972
971
973
970
971
970
970
972
973
975
973
973
971
973
973
974
972
970
968
970
970
971
974
971
967
969
971
970
970
967
965
968
969
967
965
963
962
962
965
964
961
961
956
957
958
957
960
957
957
955
958
956
956
956
955
957
955
956
954
952
952
952
953
955
954
954
953
953
957
958
954
951
954
953
955
957
959
958
957
961
962
961
958
960
960
962
963
966
964
962
962
964
965
966
964
962
964
965
968
970
968
965
965
969
969
972
970
968
967
969
971
973
972
970
969
970
972
971
973
972
972
973
973
976
975
974
972
974
976
975
972
976
973
974
978
979
975
974
973
975
976
977
978
979
978
979
981
982
981
979
978
980
981
982
982
981
980
983
989
990
989
989
991
995
1002
1003
1001
1004
1006
1013
1016
1015
1016
1013
1015
1018
1024
1025
1031
1028
1029
1032
1033
1028
1019
1010
1000
995
990
984
980
972
973
974
978
977
975
975
972
975
978
977
976
977
975
976
980
977
975
975
973
976
978
980
978
979
978
980
979
981
979
979
976
980
982
984
985
980
977
979
980
986
998
1016
1032
1058
1084
1101
1098
1088
1087
1093
1101
1112
1118
1114
1115
1122
1131
1132
1126
1116
1097
1070
1042
1015
991
970
946
927
909
898
896
906
919
925
930
932
940
946
951
957
958
961
960
957
957
959
961
966
962
958
956
959
961
961
961
957
956
956
959
959
957
955
951
956
956
961
958
956
957
958
956
957
956
955
953
953
957
957
956
957
957
958
958
958
956
956
954
959
962
962
960
960
957
958
962
963
965
964
964
964
967
967
969
965
965
968
971
970
973
973
973
975
979
980
980
979
978
979
983
985
985
985
986
986
987
991
990
992
989
989
991
993
992
993
991
991
995
999
995
995
992
993
993
995
991
991
989
989
993
993
993
992
992
992
993
995
991
990
988
990
990
989
988
988
988
987
988
986
986
984
980
982
981
982
982
985
979
979
978
979
977
971
971
973
975
974
973
971
969
970
971
970
970
968
965
965
964
965
970
969
967
966
967
971
969
966
969
969
972
970
970
967
967
972
975
976
973
974
971
975
977
974
977
974
975
975
977
981
979
975
973
976
978
981
982
979
975
978
980
981
978
977
978
981
982
981
976
978
978
978
980
980
978
978
978
980
981
980
978
981
981
983
983
981
982
978
981
981
982
980
981
980
980
983
985
984
985
983
981
983
984
984
985
981
981
985
987
987
986
983
980
983
985
985
983
982
983
987
990
990
987
985
985
985
986
984
985
986
985
988
991
995
999
997
995
996
1000
1000
1002
1001
1005
1011
1016
1020
1021
1023
1022
1024
1025
1026
1030
1032
1033
1035
1035
1030
1022
1015
1007
999
993
987
979
976
975
978
980
978
978
973
972
977
978
976
978
976
973
974
976
979
977
977
972
971
973
978
980
977
974
976
974
976
976
976
975
978
976
975
975
979
978
977
980
986
993
1006
1028
1051
1078
1095
1100
1092
1087
1096
1106
1114
1116
1119
1118
1120
1128
1132
1128
1122
1102
1073
1044
1016
990
967
942
922
906
894
893
904
912
919
923
930
932
941
947
951
956
957
955
951
951
955
954
954
953
950
950
951
954
955
954
951
950
953
952
952
948
945
944
948
948
949
947
945
945
946
951
950
948
946
945
942
948
949
950
950
948
949
953
949
946
949
948
951
953
951
952
950
951
950
951
956
953
950
947
951
953
958
960
958
955
958
959
959
959
959
961
962
966
967
967
968
968
968
972
972
971
968
969
972
976
977
979
976
975
976
979
980
979
979
981
984
988
989
985
984
980
981
986
986
984
981
981
985
986
985
987
984
982
985
986
988
985
982
980
978
983
984
985
978
979
984
984
985
980
979
976
980
981
980
978
975
975
978
977
976
976
972
969
971
974
973
971
967
966
970
967
968
968
961
959
964
966
966
964
960
956
956
960
959
959
959
959
959
961
960
959
958
956
957
960
959
959
956
956
957
960
963
959
958
960
963
964
965
962
959
958
962
967
967
962
963
962
965
968
969
965
964
964
967
972
973
970
969
968
970
971
970
970
969
966
970
973
973
971
970
969
972
973
975
972
973
972
974
976
976
975
976
975
976
978
975
977
974
974
975
978
979
981
981
980
983
983
983
982
980
980
980
981
981
981
979
979
981
984
985
982
978
978
980
982
982
981
981
981
983
983
983
984
986
986
990
996
996
995
995
996
998
1004
1006
1009
1013
1013
1018
1023
1024
1024
1022
1026
1030
1033
1035
1036
1036
1027
1020
1014
1004
998
990
982
978
977
979
978
979
977
980
983
984
981
979
979
982
985
983
982
981
978
982
987
988
986
984
984
984
985
987
986
984
985
987
989
986
985
984
983
984
989
990
990
990
993
1007
1024
1041
1060
1081
1101
1110
1107
1100
1103
1111
1116
1121
1129
1129
1132
1135
1141
1146
1144
1135
1111
1079
1047
1019
998
979
954
932
914
901
902
912
920
926
929
936
942
950
954
958
960
965
966
967
966
964
963
965
967
965
965
965
962
965
967
966
963
962
961
962
961
963
961
961
959
963
963
965
965
962
962
961
964
963
959
958
959
962
964
966
964
961
960
963
967
966
965
962
961
965
966
967
966
965
964
966
969
968
967
966
964
967
969
969
972
968
969
973
972
971
975
974
973
976
975
979
981
977
977
978
983
984
982
980
982
985
987
987
988
987
988
990
995
994
994
993
992
996
1000
1003
1002
999
1000
1000
1003
1002
1002
1001
1000
1001
1000
1001
1002
1000
998
1001
1001
1002
998
995
995
998
1001
1002
1000
997
998
997
999
1001
998
995
994
994
998
998
996
992
990
991
993
995
993
990
989
989
992
991
991
987
984
987
986
989
988
984
982
984
985
983
984
980
978
979
982
981
979
979
975
978
979
979
980
978
977
979
979
980
980
977
980
980
980
982
980
980
980
983
986
986
983
984
982
983
990
987
988
984
986
986
989
989
991
987
986
987
989
989
991
989
988
990
993
993
996
993
991
994
997
998
994
992
989
990
995
995
992
993
993
995
998
997
997
992
993
994
999
998
998
997
995
995
994
997
995
995
993
995
997
1001
997
995
991
996
998
997
995
993
992
995
998
998
997
994
992
996
1000
999
998
996
999
1001
1002
1000
1000
1001
1002
1005
1007
1006
1008
1009
1012
1013
1018
1021
1023
1023
1027
1030
1033
1036
1034
1029
1033
1040
1044
1047
1045
1044
1042
1035
1029
1023
1016
1007
1001
997
993
990
988
988
988
991
992
992
992
987
988
990
992
992
989
987
988
991
993
993
991
990
990
993
995
995
993
994
991
994
995
996
996
994
992
996
997
996
995
991
991
999
1013
1030
1048
1066
1088
1106
1114
1110
1105
1107
1115
1121
1128
1134
1132
1130
1132
1138
1137
1134
1120
1098
1067
1037
1016
999
977
953
935
920
911
909
917
926
929
935
942
947
954
961
962
966
970
970
971
968
968
972
972
971
968
967
966
968
969
968
967
966
966
967
969
966
963
961
962
963
962
966
965
961
960
961
961
961
961
959
962
964
965
965
964
963
962
963
967
963
962
960
961
966
965
967
967
964
964
968
968
965
967
965
966
967
969
967
969
971
968
973
973
975
976
972
975
975
978
978
980
980
978
981
985
984
985
986
985
989
989
991
990
989
988
990
994
995
994
989
990
993
995
997
995
995
991
994
995
995
994
992
989
992
993
993
995
989
988
992
989
989
988
990
988
990
986
987
989
986
986
988
989
986
986
982
979
980
980
980
975
976
975
977
976
973
970
969
968
971
968
969
967
965
964
964
965
964
965
962
961
961
962
963
963
963
962
965
965
966
964
960
960
964
967
970
967
969
966
968
970
968
967
965
966
966
969
970
968
966
967
968
970
972
973
970
969
968
968
971
973
972
971
974
974
973
972
972
971
971
970
971
972
971
970
974
975
976
975
975
973
975
976
972
971
967
969
973
975
977
974
971
969
971
974
975
975
975
973
974
977
974
975
971
970
974
975
975
972
972
972
976
973
975
974
974
971
973
978
978
981
979
977
976
979
977
977
976
975
979
984
984
986
988
988
990
991
992
991
994
999
1005
1008
1010
1011
1011
1011
1014
1017
1017
1019
1020
1019
1021
1019
1012
1000
994
985
982
975
969
967
962
964
