1067
1062
1060
1064
1065
1065
1063
1052
1042
1036
1026
1016
1008
1013
1022
1021
1019
1012
1010
1015
1022
1023
1018
1011
1004
1011
1019
1019
1015
1008
1004
1008
1014
1013
1013
1010
1002
1006
1013
1022
1018
1008
999
1002
1014
1027
1024
1018
1012
1011
1008
1006
996
996
1002
1007
1010
1012
1014
1013
1002
986
977
971
972
969
962
955
945
938
929
918
914
916
907
900
891
887
887
904
912
910
909
925
955
977
982
983
989
998
1006
1007
1012
1010
1012
1015
1018
1022
1021
1019
1017
1019
1019
1019
1023
1026
1021
1016
1014
1014
1019
1023
1023
1020
1023
1027
1027
1025
1020
1016
1015
1022
1029
1027
1026
1023
1024
1026
1024
1025
1023
1025
1026
1035
1036
1037
1036
1034
1033
1036
1040
1042
1040
1037
1035
1045
1048
1047
1044
1039
1039
1047
1047
1046
1046
1046
1049
1049
1051
1050
1049
1049
1051
1052
1051
1052
1048
1044
1046
1057
1058
1055
1048
1043
1041
1041
1042
1038
1037
1036
1032
1032
1030
1025
1020
1025
1032
1041
1039
1035
1032
1029
1025
1026
1023
1022
1021
1022
1021
1019
1020
1020
1022
1025
1021
1017
1017
1016
1017
1015
1009
1008
1017
1024
1023
1015
1010
1013
1012
1013
1014
1014
1013
1011
1010
1010
1005
1009
1005
1005
1006
1009
1009
1013
1007
1000
1002
1005
1005
1001
993
993
1000
1005
1008
1007
1001
1003
1005
1002
1000
999
997
1000
1000
1002
1000
1000
998
995
996
997
995
992
991
996
999
994
990
990
990
995
994
996
999
1000
997
994
997
1003
1007
1006
1001
998
994
995
997
1002
1004
1001
997
999
1000
1001
999
998
1000
995
994
995
997
999
1000
998
996
994
995
995
992
996
1002
1002
998
1003
1006
1004
1003
1001
995
992
993
999
1004
1005
1003
1000
998
999
1002
1001
998
997
999
1001
998
995
994
1000
1005
1002
998
990
995
1002
1010
1009
1006
999
994
995
999
1001
1005
1006
1003
1002
1005
1008
1003
1004
1006
1014
1013
1012
1010
1010
1011
1017
1026
1036
1037
1035
1034
1036
1037
1037
1048
1053
1052
1049
1049
1049
1047
1044
1037
1027
1020
1013
1002
995
988
989
990
990
985
985
991
997
995
992
987
981
979
981
989
998
1000
996
989
984
983
986
991
991
990
989
991
989
984
986
986
986
987
988
991
992
991
990
990
980
973
965
965
969
970
970
969
961
948
940
939
942
935
929
923
922
919
905
891
874
873
884
885
878
869
867
873
885
894
894
900
910
930
943
953
960
967
973
980
990
999
1000
999
998
997
1001
1001
1002
999
995
996
997
997
999
1002
1006
1006
1005
1004
1006
1005
1006
1005
1003
999
1002
1006
1007
1007
1007
1007
1009
1008
1009
1007
1008
1008
1008
1011
1014
1015
1017
1018
1022
1018
1013
1012
1015
1019
1022
1025
1020
1021
1022
1020
1025
1030
1032
1030
1030
1030
1033
1035
1032
1031
1033
1033
1033
1035
1032
1031
1033
1035
1039
1038
1037
1038
1038
1039
1035
1033
1031
1030
1030
1027
1027
1028
1023
1024
1029
1030
1027
1025
1020
1013
1011
1012
1014
1016
1012
1006
1001
1003
1007
1015
1017
1012
1011
1009
1006
1006
1004
998
997
1006
1012
1009
1007
1002
1000
999
1000
1002
1000
997
997
998
996
991
990
996
994
990
989
997
1001
999
992
987
987
993
998
999
996
993
990
992
993
990
987
990
989
990
988
986
986
984
985
982
984
981
984
983
983
982
980
979
981
986
985
983
979
977
980
981
982
985
987
986
981
979
981
980
980
978
979
979
977
978
979
979
985
981
978
980
983
980
983
983
984
980
980
979
977
981
982
985
984
981
982
987
983
982
982
979
979
979
981
978
981
982
984
984
983
983
982
981
980
982
981
978
980
985
989
987
987
983
983
977
978
978
981
984
981
981
984
985
986
982
979
979
981
985
985
983
978
979
982
984
985
984
985
984
988
990
994
996
995
992
995
999
1001
1002
1006
1008
1011
1017
1023
1023
1020
1014
1015
1015
1020
1024
1022
1017
1011
1003
999
993
984
973
968
966
967
967
965
963
963
961
963
965
966
965
967
968
970
968
967
962
965
966
965
963
960
962
963
962
961
957
955
956
960
962
962
962
962
961
961
958
956
951
950
951
954
957
961
966
964
949
936
927
927
926
925
920
911
901
893
884
875
866
857
853
845
844
840
840
852
862
864
867
871
886
904
917
921
924
932
942
955
965
970
972
970
970
975
973
976
973
973
971
973
975
973
970
971
973
979
981
979
977
975
972
975
977
977
974
974
973
979
981
979
977
976
976
981
983
982
983
982
982
982
985
988
987
984
985
988
990
990
990
991
995
999
996
996
993
995
996
999
999
1000
1000
1000
1003
1003
1004
1004
1006
1006
1005
1010
1009
1007
1005
1000
997
1002
1004
1007
1004
997
994
995
995
994
992
992
990
991
990
988
982
982
982
981
981
981
976
977
977
980
977
974
975
975
977
980
980
977
973
967
962
968
974
975
974
972
972
974
972
972
973
971
969
971
971
971
967
967
965
966
969
970
969
963
962
964
967
969
967
963
961
962
962
963
963
960
959
956
955
954
956
960
959
959
959
958
957
954
949
953
951
955
956
955
955
960
961
959
956
951
950
952
957
957
952
950
950
956
960
960
958
954
954
958
959
959
955
956
954
956
960
959
958
958
957
960
966
962
962
961
956
959
960
958
955
952
951
957
964
967
966
966
964
964
965
956
955
959
962
964
967
969
965
963
960
962
963
962
965
963
965
966
965
964
966
963
965
966
967
964
964
962
959
963
966
967
964
962
962
965
969
972
971
971
974
974
977
980
977
979
977
982
988
996
998
999
1001
1004
1005
1005
1004
1002
1007
1011
1014
1015
1013
1008
1005
999
994
985
977
970
963
958
959
955
957
959
958
957
957
956
954
958
960
962
959
960
958
958
956
958
959
955
954
958
960
962
963
960
960
956
953
956
957
960
960
959
959
959
961
958
953
947
946
951
956
962
966
969
969
958
948
941
936
932
928
924
920
911
903
896
886
879
871
862
853
846
843
843
849
858
864
864
871
888
902
912
918
924
930
948
959
964
964
964
962
964
969
972
974
974
974
975
977
976
976
975
973
976
977
975
973
972
975
976
981
984
982
978
977
980
981
976
976
977
978
984
989
987
985
984
983
985
984
984
984
985
988
991
991
993
991
990
988
992
993
995
993
990
988
992
997
999
1002
999
996
996
1002
1003
1000
1002
1002
1003
1007
1012
1012
1012
1008
1008
1010
1009
1007
1009
1008
1006
1007
1006
1008
1007
1003
1003
1002
1001
1000
995
994
996
996
996
991
988
984
986
989
989
987
984
983
984
987
987
981
980
978
977
978
980
978
980
982
982
983
984
981
977
974
976
980
982
979
974
973
978
981
979
976
974
972
973
974
973
974
971
964
969
969
970
966
965
968
972
973
973
969
966
965
968
971
971
967
965
963
964
965
965
963
961
960
957
961
962
961
959
959
961
964
963
960
958
958
963
967
965
962
963
964
964
965
967
964
962
962
964
966
968
965
963
965
968
970
968
969
966
965
968
970
971
963
961
964
973
977
974
974
971
971
968
968
967
968
968
969
967
968
967
967
969
968
968
967
968
969
966
967
971
974
972
968
965
965
969
974
974
974
973
972
973
968
968
969
972
972
971
973
974
973
971
971
972
975
973
968
966
968
975
979
973
970
970
971
976
979
977
974
973
970
974
971
970
973
973
973
973
975
974
972
969
974
980
988
985
983
983
982
985
989
997
1003
1005
1008
1013
1015
1014
1014
1014
1017
1020
1023
1023
1022
1020
1012
1005
997
989
984
975
966
963
965
965
963
963
959
963
968
969
968
964
959
963
966
963
964
963
965
968
969
966
961
957
956
959
962
963
963
960
959
962
964
966
963
961
958
964
963
961
956
956
960
967
973
975
976
971
955
943
943
937
936
933
929
921
912
902
894
886
879
869
863
852
846
842
845
856
869
872
873
879
895
911
925
933
937
947
958
964
967
967
971
974
977
976
978
977
979
979
975
979
979
975
976
978
981
982
981
981
983
981
981
980
981
980
979
980
981
985
985
985
983
980
981
988
991
987
986
984
984
987
993
998
995
994
992
994
996
996
995
994
996
1001
1001
1002
1003
999
999
1002
1006
1005
1001
1002
1003
1009
1011
1007
1003
1000
1000
1005
1009
1008
1004
1000
1000
1000
1000
997
990
989
990
990
991
987
988
985
979
983
983
982
977
975
974
978
981
978
975
970
972
974
975
973
973
971
970
973
978
976
972
970
965
965
971
975
975
974
968
970
969
971
972
970
967
967
970
971
971
969
966
966
966
966
961
963
965
966
967
963
962
960
959
959
960
958
958
958
957
957
958
957
960
958
957
959
962
960
957
954
952
955
960
960
956
956
956
959
961
957
957
954
954
957
962
961
962
958
959
959
957
962
963
965
962
964
966
967
963
959
954
959
965
968
968
963
961
963
965
962
961
960
960
965
971
974
967
966
964
966
971
969
965
962
964
967
971
968
969
968
966
972
968
966
965
964
965
968
970
970
969
970
966
969
971
970
970
967
965
967
971
970
967
966
965
970
973
972
970
966
966
968
971
971
971
968
968
967
972
972
969
967
968
969
973
973
972
970
963
966
973
975
975
971
968
968
972
973
973
967
969
972
975
973
969
966
966
971
977
978
973
971
971
971
974
971
970
971
973
974
974
976
973
972
971
974
973
975
971
970
969
975
978
978
976
974
978
980
985
987
985
986
987
993
1002
1005
1006
1006
1008
1013
1016
1017
1018
1018
1021
1023
1024
1018
1010
998
991
985
981
975
968
957
958
962
966
964
964
957
960
964
972
968
966
961
962
962
965
966
961
961
961
963
967
963
961
960
964
967
968
966
964
964
962
963
965
968
965
964
960
960
966
972
971
970
972
974
962
941
924
915
915
920
916
906
893
887
878
873
867
853
842
834
830
834
844
855
862
862
873
893
914
927
929
934
942
956
967
969
970
970
974
975
977
981
979
978
979
978
980
979
981
978
980
982
981
978
979
976
980
982
983
982
980
979
981
983
983
984
986
988
987
986
989
987
984
984
986
990
990
989
987
984
988
988
988
991
992
991
995
1002
1007
1006
1002
997
997
999
999
1002
999
997
997
1001
1003
1003
1002
1001
1001
1004
1009
1006
1004
1002
1004
1004
1003
1002
999
999
1000
1001
1000
996
994
991
992
992
990
988
984
982
979
981
988
997
996
989
985
982
982
983
979
979
980
979
981
979
975
971
972
975
977
975
974
971
974
977
978
977
974
973
974
977
978
976
972
967
962
968
975
978
976
972
969
973
972
972
970
968
968
967
967
967
964
963
964
967
972
972
969
966
964
962
964
961
958
958
957
960
960
958
955
954
953
955
958
958
957
957
956
955
955
957
956
955
954
957
956
955
954
953
956
956
956
953
952
956
960
962
962
961
956
955
958
961
963
964
965
963
961
960
958
957
958
956
958
961
962
963
960
957
959
960
958
956
956
958
961
963
965
963
962
960
962
965
965
962
960
958
961
966
967
967
962
960
960
962
964
964
963
960
961
963
965
961
961
963
966
967
967
967
964
962
960
964
967
968
969
968
965
965
967
970
968
966
966
967
967
968
967
965
964
966
972
971
967
963
965
968
970
969
966
961
963
967
970
969
966
965
966
968
969
967
968
966
968
971
972
969
969
969
971
972
972
969
968
967
968
971
975
973
973
974
982
984
984
982
980
978
984
991
998
1002
1003
1003
1005
1005
1008
1011
1012
1011
1014
1013
1016
1015
1009
1000
997
993
988
979
969
960
957
959
963
962
961
961
961
961
959
958
958
957
961
962
960
958
956
953
958
960
962
958
956
955
958
963
962
964
962
961
962
963
964
962
959
956
960
961
963
961
960
958
963
969
973
970
970
974
973
963
943
932
927
922
921
920
914
905
896
893
889
884
876
866
853
847
839
836
837
844
854
862
868
877
892
905
913
919
929
939
948
957
962
962
967
970
975
973
973
970
970
971
972
972
974
975
981
986
987
986
986
984
985
985
984
980
977
978
979
983
986
984
983
981
980
984
986
987
987
984
984
986
992
990
989
989
989
988
991
993
993
993
994
997
997
996
996
995
995
997
1002
1001
1001
999
999
1000
1003
1005
1004
1002
1003
1006
1009
1007
1007
1005
1005
1009
1012
1012
1009
1006
1007
1006
1010
1009
1007
1005
1002
1006
1008
1006
1004
1001
1000
1001
1000
996
996
991
994
992
990
992
991
991
987
989
987
982
983
982
985
985
986
984
980
976
978
979
985
985
987
984
981
982
981
981
982
979
983
983
983
981
980
980
981
981
981
984
981
980
980
981
984
982
977
978
979
979
981
979
980
977
978
978
977
976
975
976
974
976
975
975
971
968
969
968
970
972
968
967
967
970
972
971
968
963
965
969
971
971
968
967
965
969
973
971
967
966
969
970
972
971
968
967
970
972
974
973
972
970
973
976
976
974
972
971
973
975
975
974
973
972
974
974
975
975
974
973
973
973
974
976
973
972
972
974
980
980
977
974
977
980
980
982
981
976
974
977
977
977
975
974
975
979
981
984
983
978
978
977
979
978
977
976
980
983
983
982
982
979
980
985
984
983
981
979
978
981
983
984
983
982
983
984
986
984
982
979
979
983
987
987
985
978
980
985
986
987
984
981
979
980
986
986
983
983
983
987
987
985
985
984
988
989
993
993
996
998
998
1001
1003
1005
1010
1018
1020
1020
1021
1019
1020
1022
1027
1035
1039
1039
1036
1033
1029
1020
1017
1009
1000
991
983
977
973
974
975
973
976
976
977
977
976
973
974
974
975
972
974
973
971
976
977
979
976
973
972
976
975
972
971
969
973
975
981
979
976
974
973
976
979
980
977
975
971
968
969
975
982
985
988
987
990
994
986
968
952
942
939
936
940
933
921
911
907
904
899
889
877
868
867
866
861
861
864
878
885
889
900
910
924
937
949
954
960
967
975
983
985
987
985
982
982
982
985
990
990
989
989
988
992
992
994
995
994
994
993
994
993
994
994
994
994
995
996
993
995
995
992
995
990
990
993
997
1000
1001
997
995
998
1002
1004
1004
1001
999
999
1003
1002
1001
1005
1004
1005
1007
1006
1009
1008
1008
1009
1009
1013
1016
1017
1017
1016
1015
1017
1020
1023
1019
1018
1017
1017
1017
1018
1011
1014
1011
1015
1014
1012
1007
1006
1007
1009
1007
1003
1002
1001
1001
1002
1001
1000
997
997
997
998
995
992
990
991
992
994
994
991
984
988
987
989
989
986
986
984
988
988
989
986
983
988
990
995
992
987
985
984
982
987
986
984
982
984
985
987
988
986
982
985
984
981
979
979
977
979
981
984
982
978
977
977
978
979
979
978
977
977
979
974
973
973
970
972
973
975
973
974
974
972
971
971
972
970
969
972
972
975
973
971
968
969
973
974
975
971
971
972
973
973
973
973
971
974
976
977
974
971
973
973
973
973
972
974
977
982
982
980
977
975
975
978
977
976
978
979
977
978
979
978
979
978
975
975
976
979
976
973
972
975
976
981
983
976
972
973
976
980
979
978
974
973
979
979
980
978
972
973
975
979
978
977
976
977
978
979
978
978
973
977
977
979
977
975
975
978
981
983
981
978
976
976
980
981
982
980
980
977
980
980
978
978
979
981
982
983
981
982
981
986
989
991
990
991
991
996
996
1001
1003
1007
1011
1012
1016
1022
1022
1021
1018
1022
1026
1030
1030
1028
1021
1013
1010
1002
997
987
977
971
970
971
972
972
969
971
974
975
977
972
970
974
974
977
974
970
969
970
971
974
974
972
966
968
972
975
974
971
966
969
972
972
974
974
972
976
974
976
971
975
983
994
999
1004
1003
991
967
950
943
943
943
940
931
920
919
921
919
908
894
882
873
868
863
862
866
873
882
886
895
911
922
930
940
950
958
968
973
980
983
984
985
987
984
988
989
990
990
990
989
991
991
994
992
989
988
988
989
990
990
991
991
994
998
998
997
996
992
994
995
999
1001
997
996
997
997
1004
1005
1007
1002
1005
1006
1006
1007
1008
1009
1010
1011
1010
1011
1009
1013
1016
1018
1021
1021
1020
1016
1017
1020
1022
1021
1018
1019
1022
1023
1024
1023
1019
1016
1017
1019
1022
1021
1018
1016
1015
1014
1014
1015
1013
1010
1008
1007
1007
1007
1004
1001
1001
1002
999
999
999
995
994
996
999
995
991
993
997
997
999
998
998
995
995
997
998
996
994
992
998
999
999
1000
999
994
995
998
1001
1001
997
990
990
993
995
992
990
991
991
991
991
991
992
992
993
993
993
993
990
988
989
990
994
994
991
988
987
989
989
989
988
985
982
982
982
983
980
979
982
984
983
982
982
982
982
984
984
984
981
978
976
978
985
987
986
985
983
986
989
986
987
983
984
987
990
991
990
987
987
990
991
989
989
986
984
986
987
986
989
987
991
989
987
985
985
984
985
986
987
989
989
989
988
989
989
988
988
986
986
988
987
985
986
987
989
989
988
988
987
985
987
989
991
990
990
987
988
991
992
991
989
987
990
987
988
987
988
987
989
988
988
988
985
983
984
987
989
991
991
991
991
991
993
992
990
988
989
990
992
994
996
997
1000
1002
1002
1003
1003
1003
1005
1010
1015
1018
1020
1021
1026
1029
1029
1027
1028
1028
1029
1031
1035
1036
1032
1022
1014
1007
1002
994
984
978
974
977
981
982
980
976
976
978
981
981
980
977
979
976
978
979
977
970
973
979
983
981
979
973
977
981
982
984
982
981
