927
898
879
867
871
885
900
905
908
908
914
925
930
934
940
947
949
953
949
944
941
942
944
948
949
944
942
941
940
944
946
945
944
935
932
935
938
942
939
936
936
937
939
938
934
934
938
940
939
936
934
933
934
936
936
939
936
937
938
942
941
939
934
932
935
943
946
948
947
943
943
944
947
950
953
950
949
943
946
954
956
955
951
952
954
956
955
955
958
958
964
964
964
962
962
964
966
965
964
962
963
961
964
968
966
968
968
968
968
966
962
958
959
961
967
966
963
956
957
958
960
959
956
951
954
957
962
959
954
950
953
953
955
952
951
950
949
949
948
949
947
947
944
947
943
945
942
941
941
938
939
938
936
936
932
935
937
936
937
934
935
934
936
930
927
919
922
925
927
923
922
923
925
926
928
927
926
927
929
929
930
930
927
926
930
928
930
931
934
935
937
937
935
936
935
934
934
940
939
942
941
937
937
943
943
943
942
940
941
943
943
943
944
943
946
947
950
948
949
946
948
949
950
948
949
945
946
950
955
954
956
958
962
964
967
970
968
966
969
975
983
985
986
985
991
994
998
999
998
997
1000
1003
1007
1001
992
985
980
975
971
967
957
944
943
943
944
945
945
946
946
945
946
947
947
948
949
949
950
952
953
949
949
950
950
952
950
948
949
951
955
957
954
952
955
954
955
955
950
947
950
961
978
1001
1022
1040
1054
1057
1051
1052
1054
1060
1068
1075
1076
1075
1079
1080
1080
1078
1061
1031
1003
981
958
933
908
885
868
863
874
889
900
903
908
914
925
933
939
941
940
940
939
942
942
941
936
935
942
948
944
942
941
939
938
942
940
936
935
935
937
934
937
938
938
940
941
939
936
932
933
932
935
936
939
938
936
932
936
943
945
945
942
940
941
940
941
944
944
941
943
944
945
945
945
942
947
951
955
955
954
947
947
952
959
961
959
957
957
961
963
961
962
966
971
972
967
957
954
958
967
971
966
958
958
957
961
961
963
963
962
962
963
963
963
960
958
954
951
958
958
961
956
955
955
955
958
957
953
948
949
951
954
954
952
950
950
948
950
948
944
945
946
947
948
947
944
942
943
945
943
940
939
939
939
939
941
940
936
938
938
936
938
935
935
938
940
944
945
941
939
937
942
944
946
946
944
947
948
949
950
951
950
948
951
953
952
956
954
953
954
956
959
957
959
960
962
958
959
956
953
952
956
961
961
964
963
960
960
963
963
963
965
967
971
977
979
976
973
969
968
972
978
980
980
980
984
990
995
996
999
1000
1005
1011
1015
1016
1011
1006
1006
1012
1017
1016
1006
997
992
986
981
975
965
957
952
959
963
964
961
959
958
962
966
965
959
958
959
965
967
963
962
959
963
967
965
962
959
957
964
967
968
967
963
959
959
961
962
961
962
970
986
1012
1035
1058
1073
1069
1062
1064
1075
1085
1089
1086
1086
1092
1100
1104
1103
1102
1090
1067
1035
1003
980
949
920
895
883
891
907
916
915
911
920
936
943
942
940
942
946
947
946
944
943
945
944
943
940
938
939
944
946
942
940
941
940
945
942
941
940
939
939
938
944
945
944
939
933
930
931
936
940
934
936
936
940
940
938
935
937
942
945
943
941
941
946
950
952
950
949
950
953
955
960
959
959
955
956
957
962
963
962
959
962
970
972
973
971
969
968
975
980
981
982
982
982
984
983
979
982
983
988
986
983
980
980
978
984
984
985
983
981
979
980
980
982
985
986
982
982
983
982
981
976
974
977
981
982
979
974
972
968
969
971
971
970
967
969
971
971
970
966
963
964
966
968
966
962
960
962
965
968
964
959
954
955
956
961
962
963
959
958
960
963
965
963
961
964
966
968
968
965
964
966
967
968
971
969
969
971
973
973
973
972
972
977
980
980
980
977
973
972
973
975
976
973
974
975
976
977
978
975
974
976
980
981
983
985
986
990
994
995
996
994
994
997
1006
1007
1008
1007
1010
1013
1015
1018
1020
1025
1026
1032
1031
1028
1022
1020
1022
1016
1006
996
990
988
984
978
971
967
969
971
974
975
977
975
972
971
970
973
975
979
977
974
974
976
978
979
977
972
971
972
977
980
981
977
974
975
977
978
978
972
968
968
973
978
989
1002
1015
1043
1067
1081
1084
1076
1072
1078
1093
1104
1104
1102
1098
1104
1113
1122
1120
1119
1112
1096
1067
1037
1015
992
967
938
911
890
891
905
923
929
931
938
939
949
952
957
959
957
955
954
952
956
958
963
963
960
956
958
959
957
952
950
951
953
951
948
951
954
956
954
948
945
947
951
957
960
960
958
954
952
951
951
954
953
951
949
954
960
963
962
960
955
949
951
956
962
962
961
962
967
971
967
962
958
960
962
967
968
968
968
967
972
974
976
979
981
980
979
980
987
983
986
986
988
990
996
995
990
981
979
986
987
984
985
987
989
991
990
987
986
982
989
987
990
990
987
987
987
988
986
987
985
981
984
984
981
978
973
974
978
983
981
980
973
965
962
962
965
969
970
971
967
968
972
979
980
971
964
956
951
951
950
949
953
956
960
964
958
954
952
952
951
945
945
953
958
959
956
950
949
946
948
949
952
955
955
953
956
957
956
955
954
955
956
960
959
957
951
953
962
964
962
958
955
956
962
963
963
962
963
960
960
960
961
957
956
955
962
969
969
967
962
961
967
973
971
968
967
965
968
970
971
972
976
979
984
986
984
985
983
986
986
994
997
999
1003
1003
1003
1006
1013
1018
1015
1004
999
1001
1011
1013
1005
996
992
992
985
976
966
958
955
953
954
954
953
955
960
959
956
955
952
952
954
956
958
959
957
955
954
954
957
955
955
955
958
959
959
956
956
957
954
957
958
959
957
952
948
946
950
963
981
1008
1034
1052
1054
1048
1046
1052
1064
1074
1075
1073
1075
1081
1088
1090
1090
1090
1080
1053
1024
1002
988
963
933
897
874
876
888
900
905
908
917
929
933
931
927
931
934
938
940
937
936
932
932
934
939
939
938
937
934
934
935
935
933
930
933
934
936
937
936
932
934
934
937
936
934
934
934
935
937
930
930
929
934
936
936
935
935
934
936
938
941
941
942
939
941
946
945
944
946
948
951
953
955
952
953
951
958
959
960
961
961
962
964
966
967
971
969
967
970
974
975
972
972
970
975
981
980
979
976
974
978
979
980
977
976
976
977
975
975
975
974
972
973
975
977
975
974
972
974
973
972
972
972
970
970
973
973
971
969
969
971
970
970
968
967
965
969
967
967
965
966
961
962
965
966
959
959
959
963
964
961
960
955
953
954
955
957
957
958
955
955
953
954
956
956
953
956
956
955
956
953
953
953
955
957
958
956
957
962
965
965
965
960
957
959
961
962
962
960
963
967
969
968
967
969
961
964
967
968
971
969
964
967
971
974
972
969
969
971
970
969
970
970
971
972
973
975
973
971
973
977
977
977
977
976
973
973
978
980
981
980
978
980
989
993
994
993
994
996
998
1003
1004
1007
1010
1013
1016
1019
1018
1017
1020
1022
1026
1027
1026
1026
1025
1026
1025
1020
1010
1002
997
992
986
978
971
966
968
973
975
977
973
973
968
969
970
971
971
970
969
968
970
971
974
971
970
973
976
976
975
970
969
974
976
977
976
974
970
971
967
966
961
964
972
991
1014
1042
1055
1055
1048
1051
1064
1073
1075
1072
1072
1076
1084
1083
1083
1084
1076
1055
1027
1001
984
968
947
923
903
888
888
905
915
921
925
930
939
946
950
953
959
964
964
964
961
963
962
963
962
960
958
959
960
963
962
957
952
956
961
964
963
963
963
963
964
962
960
958
961
965
966
963
964
966
967
966
969
972
970
968
965
968
968
972
973
976
972
973
975
977
977
978
973
972
973
977
981
981
977
979
984
986
988
986
988
992
998
999
1001
999
998
1002
1007
1004
1001
1000
1000
1004
1003
1004
1007
1004
1001
1004
1003
1005
1006
1001
1002
1000
1002
999
997
996
994
995
999
998
998
995
995
996
996
997
993
988
984
988
991
991
988
989
989
990
990
985
979
976
978
982
984
981
979
980
978
978
974
974
971
973
975
976
973
973
971
969
963
963
965
968
967
966
960
961
966
968
967
964
960
961
965
962
961
962
961
961
963
967
967
965
965
968
972
974
971
965
959
963
968
969
962
959
960
964
965
967
971
972
975
977
975
972
968
964
966
974
977
978
972
971
972
971
968
970
975
977
981
985
982
979
975
974
972
974
978
979
975
974
972
974
974
973
972
973
977
986
987
985
978
974
970
972
976
976
976
973
970
977
981
984
982
979
982
986
989
991
987
986
984
987
997
1003
1004
1002
999
1006
1013
1015
1016
1015
1013
1015
1017
1017
1015
1008
1000
994
987
978
970
960
954
955
957
962
960
960
956
958
960
962
962
960
961
959
961
963
963
959
957
958
961
964
964
962
963
967
968
967
965
963
965
965
966
964
960
955
956
959
967
982
998
1016
1034
1054
1061
1056
1050
1053
1058
1066
1068
1070
1069
1071
1079
1084
1086
1083
1069
1041
1016
997
984
963
932
902
882
876
883
898
909
910
910
916
926
939
946
943
940
944
951
955
954
951
951
951
954
956
954
953
950
954
955
955
955
956
955
953
953
952
948
950
953
954
959
958
956
952
952
957
959
957
956
955
956
963
965
966
962
958
957
958
964
966
967
966
965
968
968
969
970
973
970
970
975
976
973
973
975
979
979
979
977
979
979
984
987
989
990
989
988
991
991
992
993
994
994
995
997
997
997
1000
999
998
999
1002
1001
1001
998
1002
1001
1003
1003
1004
998
997
995
998
1002
1004
1003
1002
1000
1000
1001
999
1000
996
995
996
993
993
989
994
996
991
988
984
984
985
989
989
989
986
986
987
989
990
985
984
983
984
986
983
981
979
979
980
979
978
975
975
975
975
975
974
974
974
974
975
975
976
978
977
977
974
972
967
965
963
963
965
968
969
968
968
969
973
972
972
971
970
969
972
976
978
973
972
969
971
973
975
973
972
971
976
979
980
979
976
975
977
983
985
983
982
976
979
981
981
980
980
981
984
984
981
980
975
975
977
977
978
979
980
979
977
977
980
980
980
978
980
982
985
981
981
977
980
981
980
982
980
979
984
987
991
991
989
989
990
994
995
994
995
998
1005
1012
1015
1016
1016
1019
1025
1030
1031
1025
1018
1018
1019
1020
1013
1008
998
994
988
981
971
967
966
969
970
971
974
972
969
968
968
970
971
972
970
971
972
976
976
972
969
966
970
972
976
974
971
970
973
975
975
971
972
969
968
970
969
967
964
964
974
989
1006
1026
1041
1054
1054
1051
1050
1056
1060
1066
1068
1070
1065
1062
1059
1059
1059
1053
1035
1007
982
962
942
923
909
894
883
892
908
920
923
921
926
934
943
952
958
957
959
959
961
967
968
966
966
965
969
967
969
967
968
964
965
967
966
968
967
963
965
967
966
969
969
969
970
970
973
969
969
968
968
970
970
968
966
967
969
971
972
971
972
970
972
972
973
973
971
971
973
978
982
981
981
979
979
980
983
982
982
982
985
986
986
987
988
985
990
989
991
990
990
987
990
993
995
994
993
991
996
1001
1001
1000
997
994
996
998
997
995
995
997
999
1000
1002
1003
999
995
994
997
999
998
1000
998
998
998
995
993
990
990
990
990
988
991
988
983
982
985
987
985
980
982
983
984
985
979
975
973
979
981
984
979
976
974
975
974
972
969
969
965
969
972
971
968
962
960
962
965
966
964
961
962
963
965
960
954
947
946
954
957
958
957
953
957
957
959
958
958
961
958
957
956
957
960
958
964
967
965
965
962
963
964
964
965
965
965
965
962
965
967
969
969
966
967
970
971
969
969
966
967
970
974
974
970
969
969
970
974
974
974
970
968
970
974
974
973
969
968
974
980
979
978
976
973
976
975
974
974
979
983
984
980
977
976
981
979
983
988
989
991
987
991
997
1003
1008
1014
1016
1018
1022
1021
1024
1022
1026
1028
1029
1029
1026
1018
1011
1006
1002
995
988
978
973
968
966
964
966
968
966
967
970
971
971
972
972
970
973
975
974
972
973
970
972
972
972
973
975
975
976
974
977
972
971
966
965
970
973
977
978
975
977
985
997
1009
1027
1048
1074
1094
1093
1082
1075
1082
1097
1105
1108
1113
1108
1104
1112
1116
1118
1113
1099
1075
1048
1024
1001
972
941
917
901
892
890
900
911
917
916
922
929
939
944
951
957
960
961
957
957
955
958
960
963
960
957
957
958
962
966
961
956
952
955
958
958
956
954
957
958
961
960
958
956
956
959
959
960
961
960
956
959
961
961
959
957
957
958
962
962
963
962
959
962
965
965
964
964
961
963
967
967
968
967
967
972
977
979
978
975
974
977
981
979
977
977
979
985
990
995
992
990
990
997
997
994
992
991
991
1000
1006
1006
1003
1003
1003
1006
1006
1005
1004
1004
1002
1005
1007
1007
1003
1003
1002
1005
1007
1005
1005
1003
1002
1004
1007
1007
1006
1004
1001
999
999
1002
999
997
995
997
999
1001
999
995
996
997
1001
995
991
987
988
990
993
990
990
985
985
987
988
986
987
985
985
986
986
987
987
985
982
981
981
981
979
977
979
982
983
982
983
981
982
983
984
983
984
983
984
986
989
988
988
988
989
987
989
988
986
990
988
993
995
994
993
991
991
992
997
999
998
992
990
992
995
996
995
994
994
997
999
997
998
999
996
997
997
997
994
998
997
1000
1001
999
997
998
998
1003
1004
1007
1009
1002
1003
1002
1006
1013
1013
1014
1014
1021
1027
1031
1032
1034
1036
1040
1044
1042
1043
1048
1050
1051
1054
1051
1046
1039
1032
1025
1019
1010
1000
987
981
982
988
992
992
991
990
993
992
992
992
991
989
991
989
991
988
989
987
987
990
992
991
988
986
983
986
991
992
991
990
994
992
987
983
982
982
987
1001
1013
1030
1050
1073
1088
1090
1080
1077
1083
1093
1101
1103
1102
1101
1102
1105
1104
1105
1094
1066
1031
1001
981
962
940
918
902
891
900
917
927
932
934
942
952
962
967
969
970
972
973
975
973
970
967
966
972
973
971
967
965
963
967
970
969
965
965
966
971
970
968
971
968
965
965
967
966
965
966
964
965
967
968
967
967
964
968
968
968
967
965
966
971
972
973
972
969
968
972
974
975
974
971
971
974
981
978
977
980
982
987
988
986
984
983
982
986
990
991
994
992
993
995
998
995
994
995
997
1001
1003
1002
999
995
991
992
996
995
994
990
989
996
999
997
995
993
991
994
999
996
992
987
984
987
990
987
987
986
985
987
990
992
989
983
979
980
983
985
984
977
971
972
975
975
972
971
971
973
975
974
967
964
965
970
971
968
964
963
960
964
966
963
963
963
961
963
963
958
956
953
952
957
960
962
957
957
956
960
964
963
962
960
963
964
964
961
963
960
961
963
965
966
967
965
968
968
968
966
966
965
967
971
974
971
969
967
964
964
969
968
963
960
962
968
970
966
964
965
967
971
972
971
971
968
968
969
973
976
978
983
983
988
989
991
990
990
993
1000
1006
1010
1012
1009
1007
1011
1014
1018
1019
1020
1016
1016
1015
1005
998
989
979
966
962
956
951
952
955
960
960
962
958
957
958
960
961
960
958
960
959
957
955
955
956
955
956
955
958
959
958
957
955
960
962
961
956
958
957
960
961
960
966
980
1002
1025
1051
1066
1067
1056
1056
1064
1073
1077
1081
1078
1075
1075
1078
1079
1078
1064
1037
1009
987
960
929
898
878
868
869
879
892
896
899
907
915
924
930
933
937
943
946
943
941
937
940
940
939
940
940
938
939
941
942
939
936
938
938
938
937
935
936
937
936
935
939
938
937
938
935
934
933
935
936
937
933
938
937
936
938
936
936
939
940
940
940
938
939
943
946
944
942
944
943
949
951
953
952
950
951
954
957
958
954
954
956
960
965
963
961
961
967
971
974
973
971
969
969
974
980
978
975
974
973
974
976
976
978
977
976
978
982
982
980
979
978
980
981
978
981
978
979
979
981
978
977
977
974
980
988
985
975
967
962
970
975
977
970
967
969
972
974
976
972
969
969
971
972
971
968
964
965
966
968
967
965
964
962
960
964
960
961
957
957
960
960
958
957
960
956
959
959
960
961
958
958
957
960
959
958
958
957
960
963
964
966
963
963
964
969
967
967
967
964
968
969
971
969
969
967
969
974
972
973
971
970
971
978
975
974
975
973
975
979
980
977
976
975
976
981
983
981
978
975
977
984
980
977
977
977
980
982
980
981
983
982
982
983
981
982
985
988
991
994
994
996
997
1000
1001
1006
1009
1016
1019
1021
1025
1027
1028
1028
1028
1031
1033
1038
1038
1037
1035
1035
1032
1028
1017
1009
1004
997
992
987
981
979
978
981
981
984
983
981
979
977
978
983
983
981
979
978
980
984
985
982
979
979
983
984
984
981
980
979
982
987
987
986
982
981
980
986
984
982
978
981
988
1002
1019
1037
1055
1075
1086
1082
1076
1074
1084
1091
1097
1100
1101
1099
1100
1105
1105
1108
1109
1103
1080
1050
1022
1003
984
960
932
911
898
896
906
919
924
930
934
941
951
956
964
968
968
967
967
967
966
966
969
970
