962
964
966
975
994
1023
1058
1089
1110
1124
1138
1157
1189
1214
1241
1262
1282
1297
1303
1307
1308
1299
1288
1263
1234
1198
1165
1137
1109
1080
1054
1016
976
939
907
881
863
853
840
836
832
831
836
842
843
843
845
851
861
872
880
880
883
888
893
900
907
909
910
911
912
917
916
916
913
912
913
914
914
912
910
910
909
912
911
909
907
906
908
908
909
904
905
903
904
904
904
902
901
902
903
906
907
905
903
904
908
907
909
911
909
910
914
917
917
920
919
920
926
932
936
938
938
940
944
948
950
953
957
956
958
965
972
973
974
975
981
983
985
988
987
989
993
996
997
998
997
997
1001
1004
1005
1004
1004
1002
1004
1006
1003
1004
1004
1004
1004
1002
1004
1002
1002
997
996
998
997
995
994
993
995
997
995
995
995
994
998
1000
999
998
996
996
997
997
999
1001
1000
1002
1006
1007
1006
1009
1006
1002
1002
1004
1000
1001
1001
999
1004
1006
1008
1006
1002
1000
997
994
989
984
978
972
970
966
961
958
955
954
953
955
955
953
952
950
954
953
956
955
950
950
954
957
956
956
955
954
957
959
960
959
956
956
956
959
960
958
957
959
959
962
962
962
960
960
961
967
967
967
969
966
967
970
967
966
963
959
960
968
982
1001
1027
1056
1082
1106
1121
1131
1149
1172
1200
1226
1246
1261
1269
1271
1271
1268
1259
1244
1217
1185
1162
1143
1121
1102
1074
1041
1004
971
938
907
885
865
853
845
846
846
847
849
849
855
859
864
872
878
888
894
897
899
902
907
913
919
921
920
921
920
921
923
923
918
918
918
917
921
920
918
915
913
914
918
918
917
913
912
914
915
914
911
911
909
913
915
915
914
914
913
919
922
921
921
922
923
924
932
935
937
939
942
945
951
956
955
956
960
964
972
976
978
978
980
986
990
994
995
996
996
1002
1008
1008
1009
1008
1008
1011
1011
1016
1012
1013
1013
1016
1016
1017
1015
1013
1012
1014
1013
1014
1010
1008
1004
1006
1008
1009
1009
1009
1006
1010
1012
1013
1013
1014
1010
1011
1013
1013
1010
1011
1015
1018
1024
1023
1019
1021
1020
1019
1019
1016
1012
1012
1013
1013
1015
1016
1014
1014
1013
1012
1010
1004
1000
989
985
982
980
975
970
967
966
968
968
966
965
963
962
964
966
965
965
962
961
963
965
968
967
964
963
965
967
967
965
965
964
966
970
970
971
970
968
970
973
974
972
970
969
975
976
977
975
974
973
976
974
976
972
963
960
960
963
969
985
1008
1035
1064
1086
1097
1112
1132
1163
1196
1219
1243
1263
1271
1276
1273
1271
1259
1232
1196
1164
1143
1123
1094
1063
1027
990
957
931
904
882
867
858
855
855
857
855
855
856
862
871
878
885
890
894
899
908
912
915
919
922
925
929
931
930
925
929
928
929
930
928
922
922
924
924
923
922
920
917
919
921
921
918
914
913
917
917
919
916
915
914
916
919
920
922
919
920
924
926
929
929
928
931
934
939
942
944
944
948
953
957
960
960
963
966
969
976
979
980
982
983
988
995
997
998
999
999
1004
1008
1012
1012
1014
1012
1015
1020
1021
1021
1020
1018
1021
1023
1022
1020
1018
1017
1019
1018
1017
1014
1010
1011
1011
1012
1009
1009
1010
1011
1012
1013
1016
1014
1013
1011
1012
1014
1016
1014
1014
1013
1017
1020
1022
1020
1018
1018
1020
1022
1017
1013
1014
1012
1013
1013
1015
1016
1015
1014
1015
1014
1009
1004
997
990
987
987
981
977
972
969
970
971
971
968
967
964
969
971
969
967
966
967
968
969
970
969
970
965
968
972
969
971
968
965
969
972
971
970
969
969
971
975
973
975
974
972
975
977
978
978
975
978
979
981
980
979
977
971
967
969
968
969
980
1000
1028
1055
1079
1098
1113
1128
1152
1183
1213
1238
1261
1280
1293
1299
1300
1294
1282
1260
1230
1195
1165
1140
1112
1079
1045
1007
970
938
908
885
870
862
858
855
851
853
856
857
859
865
871
879
889
894
898
903
904
908
916
923
923
924
924
925
930
929
929
927
925
924
926
925
925
924
920
920
919
920
919
919
915
915
916
917
914
914
910
908
910
916
918
916
915
915
920
922
924
926
925
927
932
936
939
940
942
946
949
956
958
959
962
964
970
974
976
979
979
983
989
993
995
999
1000
1000
1004
1008
1010
1012
1013
1013
1016
1019
1021
1020
1019
1018
1021
1019
1018
1020
1020
1018
1018
1018
1018
1014
1011
1009
1012
1014
1013
1015
1012
1012
1015
1018
1018
1017
1015
1011
1015
1013
1014
1016
1015
1016
1019
1021
1019
1018
1018
1016
1015
1015
1014
1013
1014
1012
1015
1017
1018
1014
1008
1007
1004
999
991
986
981
977
973
972
972
968
966
964
965
967
966
964
963
964
965
969
968
965
964
965
968
968
968
966
966
963
966
968
969
968
965
967
968
970
971
970
970
969
971
973
972
972
970
970
975
974
975
975
971
971
975
974
972
967
961
960
961
969
984
1006
1031
1058
1083
1101
1119
1134
1160
1188
1218
1245
1269
1290
1302
1310
1313
1309
1302
1284
1251
1214
1186
1159
1134
1107
1075
1038
1000
966
939
911
885
866
855
852
846
842
843
846
849
851
851
858
862
873
884
891
894
893
899
904
908
915
918
921
919
920
923
926
926
926
923
922
923
924
923
920
917
915
914
919
919
915
912
912
914
913
914
913
910
910
912
911
913
914
912
910
912
914
914
916
915
916
919
922
924
926
927
928
931
935
938
939
941
943
949
953
957
959
959
964
970
974
977
980
980
983
990
995
996
1000
1001
1002
1006
1009
1011
1013
1010
1010
1012
1015
1016
1016
1014
1014
1016
1017
1018
1016
1015
1011
1013
1013
1013
1012
1008
1008
1009
1011
1011
1011
1011
1011
1017
1017
1017
1014
1011
1010
1013
1015
1014
1014
1014
1013
1018
1018
1018
1017
1017
1015
1017
1015
1013
1012
1010
1009
1013
1012
1014
1015
1014
1011
1011
1009
1001
995
990
984
983
981
977
971
969
967
967
969
967
966
962
964
965
966
966
966
967
964
964
967
969
966
965
965
965
970
972
969
967
966
970
971
972
972
969
970
972
972
973
973
972
970
974
976
977
976
976
974
978
980
976
976
971
965
964
962
967
975
992
1016
1045
1071
1091
1107
1122
1141
1167
1197
1228
1250
1274
1293
1308
1316
1318
1313
1302
1281
1250
1214
1183
1152
1125
1089
1054
1019
981
948
922
897
879
866
859
847
842
841
844
848
851
850
852
856
867
877
884
887
890
891
898
903
910
913
916
919
920
924
928
925
923
923
924
925
923
921
918
918
917
920
919
915
914
913
914
915
914
912
910
908
908
910
909
909
908
906
909
910
908
907
908
907
908
911
915
915
913
916
920
921
925
924
927
930
932
938
940
941
944
942
950
953
956
960
959
961
968
973
976
979
981
984
989
993
997
998
998
1001
1005
1009
1012
1013
1011
1011
1015
1017
1017
1016
1013
1013
1016
1017
1017
1014
1009
1010
1011
1011
1014
1010
1005
1004
1005
1007
1006
1008
1005
1006
1009
1011
1010
1010
1006
1003
1006
1006
1007
1009
1008
1009
1012
1014
1016
1015
1014
1012
1011
1012
1010
1011
1010
1008
1010
1011
1012
1009
1003
1000
996
990
983
977
971
967
967
965
962
964
960
957
958
960
959
959
959
959
960
963
963
962
961
957
960
962
963
963
961
960
959
963
963
962
964
962
964
966
966
964
962
964
965
968
969
967
966
966
969
973
973
970
969
967
966
967
963
963
972
987
1016
1048
1074
1096
1116
1130
1150
1179
1209
1235
1262
1284
1304
1316
1318
1314
1305
1290
1268
1232
1194
1164
1134
1103
1074
1042
1001
963
930
902
878
860
847
837
830
827
831
835
838
838
837
840
853
863
869
873
876
880
885
891
894
897
901
902
907
912
912
915
914
913
914
916
916
908
909
907
907
909
909
906
903
903
906
905
908
903
901
901
899
902
901
900
900
896
898
902
901
898
898
895
900
903
903
901
901
901
906
912
912
913
913
914
921
923
925
929
929
931
935
941
945
947
949
953
958
963
967
965
970
973
977
979
981
983
985
985
988
993
994
995
996
998
1001
1002
1003
1004
1004
1002
1003
1007
1005
1003
1004
1004
1002
1003
1001
1000
998
997
999
999
999
995
990
991
992
995
995
994
994
991
996
997
995
995
991
990
993
993
994
992
994
993
997
1004
1004
1003
1001
1000
999
1000
998
997
996
993
997
1000
999
1002
1000
998
997
997
990
986
977
972
971
970
964
961
954
952
952
955
956
953
950
950
951
954
952
952
948
950
951
953
954
952
951
952
954
957
956
954
955
953
958
958
956
957
957
954
956
957
959
956
958
957
957
962
962
960
960
960
962
964
961
959
956
953
956
962
971
993
1019
1050
1080
1099
1113
1124
1137
1162
1186
1209
1230
1245
1256
1256
1255
1252
1246
1231
1208
1175
1149
1130
1107
1084
1058
1027
994
964
936
910
888
865
853
846
842
836
838
842
844
844
847
849
854
862
872
878
882
886
887
892
898
905
909
911
911
910
913
916
917
915
912
911
913
912
913
910
910
907
907
910
910
910
908
903
906
909
907
908
902
904
904
907
906
905
905
903
908
908
909
907
907
910
911
914
916
915
916
917
921
926
929
930
928
933
937
943
947
949
948
950
956
960
965
965
969
969
973
977
981
982
983
986
991
995
997
997
997
998
999
1002
1005
1006
1002
1002
1003
1008
1007
1007
1000
1002
1005
1005
1005
1003
1000
998
1004
1002
1000
997
995
994
997
997
997
995
994
995
1000
1001
1004
1001
1000
998
1001
1002
1001
999
998
999
1004
1009
1008
1008
1007
1007
1009
1011
1009
1006
1004
1001
1003
1003
1004
1003
1002
1001
1006
1006
1005
999
994
986
984
982
978
971
965
962
960
961
961
959
956
955
955
958
958
956
953
955
957
960
959
955
953
954
955
957
959
958
954
957
958
960
963
960
958
959
962
963
965
962
958
959
961
967
964
967
963
964
968
972
971
968
966
967
969
968
965
958
956
956
958
965
981
1005
1025
1048
1071
1088
1099
1117
1140
1166
1192
1216
1232
1246
1256
1262
1266
1266
1261
1250
1231
1200
1175
1156
1138
1118
1090
1067
1037
1007
974
944
912
890
874
868
860
854
851
851
854
855
856
856
860
866
874
883
888
891
892
896
901
908
914
914
916
918
924
924
928
927
924
923
925
925
925
925
923
919
920
921
922
919
919
918
919
921
919
918
914
914
915
917
916
914
912
912
915
918
917
918
917
915
918
920
921
922
919
922
923
927
929
930
930
932
934
939
943
944
944
947
951
954
958
960
961
962
966
970
973
973
977
979
983
988
989
989
992
992
997
1001
1002
1004
1003
1003
1010
1011
1013
1011
1010
1011
1014
1016
1019
1017
1014
1014
1014
1018
1018
1016
1013
1013
1014
1013
1012
1013
1009
1008
1008
1006
1009
1008
1006
1004
1009
1010
1011
1012
1010
1009
1010
1012
1011
1010
1008
1007
1011
1013
1015
1015
1015
1015
1016
1018
1017
1013
1010
1008
1010
1011
1012
1010
1010
1009
1009
1010
1013
1011
1007
1000
1001
997
992
985
980
976
974
971
967
963
960
960
963
966
962
961
959
959
962
963
965
962
960
960
964
964
964
964
963
962
964
967
965
965
964
962
965
966
964
966
963
963
966
966
964
965
966
965
968
969
969
969
968
965
970
972
972
970
966
966
968
967
960
957
956
955
966
984
1011
1034
1056
1075
1091
1106
1125
1151
1176
1202
1228
1251
1269
1277
1280
1281
1280
1272
1253
1226
1194
1168
1146
1124
1102
1074
1036
1003
974
947
923
898
879
861
854
849
844
842
840
840
843
844
847
853
857
864
874
879
883
887
888
894
898
905
907
907
910
911
915
916
914
912
912
909
911
910
911
909
907
905
907
908
906
906
901
902
905
905
903
901
901
901
901
902
902
901
897
897
901
903
903
901
900
904
908
909
911
910
911
913
917
919
922
923
926
929
935
937
941
943
944
948
953
957
965
965
964
969
975
979
981
985
983
986
989
996
1000
1000
999
1000
1002
1005
1006
1006
1006
1004
1009
1010
1011
1011
1009
1007
1007
1009
1008
1005
1005
1002
1004
1005
1004
1002
1000
997
999
1000
1001
1000
1000
1000
1003
1004
1004
1002
1001
999
998
1000
1000
1000
1004
1005
1007
1008
1008
1005
1005
1004
1004
1003
1002
1000
998
1000
1002
1004
1004
1005
1003
1002
997
994
990
981
975
969
967
966
962
958
954
955
956
957
954
953
951
950
952
955
954
953
954
954
955
957
957
956
954
955
956
958
957
957
958
955
957
959
961
960
960
960
960
962
963
961
959
958
961
965
966
964
963
963
966
967
968
967
962
957
951
952
954
959
969
989
1019
1045
1070
1085
1100
1117
1143
1173
1205
1228
1251
1271
1281
1288
1286
1284
1270
1251
1225
1196
1169
1146
1123
1095
1067
1039
1000
964
933
906
883
866
853
844
838
835
838
843
842
842
842
846
859
866
874
879
880
882
888
895
901
904
908
909
912
915
915
917
915
911
915
916
915
911
909
909
909
908
910
907
906
903
906
906
902
902
900
897
902
903
902
902
899
899
900
904
906
904
904
903
905
909
911
909
912
915
917
921
924
925
927
929
934
936
939
941
944
945
950
957
960
960
965
963
968
974
977
979
979
981
986
991
994
994
994
996
1000
1003
1001
1005
1002
1004
1007
1008
1009
1006
1006
1002
1004
1007
1006
1004
999
998
1001
1000
998
995
995
993
993
998
997
998
998
996
999
999
999
998
995
994
995
998
1003
1005
1003
1001
1003
1004
1004
1001
998
996
999
1000
997
1001
1002
1001
1000
997
993
984
976
972
970
968
964
959
955
953
955
958
956
956
954
953
955
957
957
957
954
953
956
959
957
958
956
954
954
958
959
958
957
955
958
961
961
961
958
958
959
963
963
962
961
963
964
965
962
964
963
957
956
955
955
959
974
996
1031
1061
1087
1105
1119
1138
1171
1201
1231
1256
1279
1294
1302
1303
1299
1286
1266
1236
1198
1167
1138
1109
1079
1045
1010
975
940
912
884
862
847
838
834
830
831
833
837
838
839
843
848
855
863
869
877
878
881
884
892
898
900
905
904
906
908
909
909
906
904
902
902
906
904
903
900
900
900
900
899
898
895
894
897
898
897
896
895
892
891
891
892
894
891
892
893
895
896
894
896
895
901
902
903
905
906
906
911
916
920
924
925
927
929
934
938
941
944
942
951
956
959
960
964
967
972
976
978
980
982
982
988
991
992
994
995
995
998
998
998
997
996
996
997
1000
1000
996
996
993
995
992
992
989
988
986
986
989
988
988
987
984
986
993
991
990
987
987
988
988
989
987
986
987
992
995
995
996
994
992
990
993
990
990
988
988
991
993
995
993
991
986
983
978
973
970
964
957
957
956
952
949
948
944
943
944
946
947
947
946
946
945
947
945
945
945
946
948
948
946
945
946
949
950
948
950
948
947
949
951
953
952
951
949
949
952
952
952
951
951
954
955
956
957
955
953
956
953
951
950
950
963
986
1016
1046
1070
1090
1106
1124
1148
1173
1196
1215
1237
1255
1264
1264
1260
1253
1239
1220
1192
1159
1130
1106
1081
1057
1029
990
954
925
896
873
856
846
836
831
830
830
836
837
836
839
843
853
863
871
874
877
878
884
893
897
900
900
897
903
907
907
907
905
904
904
905
905
904
903
902
901
903
901
901
899
899
900
902
899
898
895
894
896
897
899
896
895
893
896
900
900
900
899
899
901
904
906
907
904
906
909
915
917
919
920
922
927
933
933
934
938
941
947
949
955
954
956
958
963
969
973
975
976
977
982
986
987
988
989
990
992
995
994
996
994
993
996
997
999
998
995
991
994
997
994
991
989
988
988
988
989
986
983
985
984
987
987
987
988
988
988
990
990
987
985
985
986
990
994
998
997
996
998
998
997
993
992
991
991
993
992
993
994
992
994
993
988
982
972
969
967
962
960
956
952
951
952
953
953
950
950
950
951
951
953
948
947
950
951
953
953
953
950
952
952
955
955
953
949
950
953
954
956
951
953
955
955
959
958
960
957
956
958
961
961
961
960
960
960
958
956
955
956
961
983
1013
1038
1063
1083
1097
1113
1133
1156
1179
1199
1219
1235
1244
1242
1235
1230
1214
1196
1169
1144
1121
1101
1076
1053
1026
993
961
933
904
886
870
859
850
846
846
850
852
851
853
854
860
869
880
884
888
890
892
895
902
906
910
911
913
916
920
921
922
920
920
920
920
920
918
917
915
916
918
917
915
913
911
913
914
913
912
910
908
911
913
913
911
909
910
909
912
914
912
910
909
914
917
918
917
917
919
922
927
929
929
932
933
937
943
944
944
947
948
953
958
960
962
963
963
969
972
978
977
976
978
982
987
991
994
992
994
1000
1003
1004
1005
1002
1005
1006
1013
1010
1011
1011
1009
1011
1013
1015
1014
1011
1011
1012
1013
1010
1010
1007
1006
1007
1008
1006
1003
1001
1004
1006
1010
1010
1010
1009
1006
1009
1010
1011
1009
1009
1006
1007
1014
1014
1015
1016
1016
1016
1018
1016
1015
1011
1008
1010
1013
1013
1013
1012
1011
1013
1015
1009
1003
996
990
989
986
981
977
970
966
966
966
967
963
962
959
960
965
966
964
962
963
963
965
965
965
964
963
965
969
968
968
968
966
969
969
972
969
967
967
969
973
972
970
969
968
974
977
974
975
973
974
976
977
973
973
968
963
963
964
967
977
997
1020
1043
1068
1084
1098
1112
1135
1164
1193
1216
1233
1246
1259
1268
1270
1271
1264
1254
1236
1209
1186
1162
1138
1119
1092
1063
1032
995
961
932
905
888
875
870
859
855
853
857
860
860
859
858
868
878
885
890
892
894
896
903
909
913
920
919
922
923
926
926
925
921
923
924
926
925
924
921
920
921
923
921
921
919
917
918
919
916
913
912
913
912
916
916
913
911
912
911
915
916
914
914
913
914
918
919
919
919
919
923
927
928
929
929
931
937
940
943
944
945
947
953
958
961
961
962
964
