918
921
920
918
917
917
918
918
917
914
910
910
911
912
911
911
909
907
910
909
908
906
906
902
909
909
910
906
906
906
908
909
911
910
909
906
910
912
912
915
917
916
919
921
924
925
926
927
931
935
935
937
940
939
944
950
951
952
957
957
963
970
972
974
975
978
982
989
992
992
995
996
999
1003
1007
1007
1007
1004
1010
1010
1012
1011
1009
1009
1011
1012
1012
1009
1005
1003
1003
1005
1003
1002
999
996
998
998
999
996
995
995
995
998
1000
998
998
999
1000
1001
1002
998
996
996
999
1002
1004
1005
1004
1006
1008
1008
1009
1007
1005
1003
1002
1001
1001
1001
1001
1000
1003
1005
1005
1004
999
995
993
987
983
977
974
968
967
963
963
961
961
960
959
961
963
960
958
958
960
961
961
963
961
959
960
960
961
959
959
958
962
964
963
961
958
963
965
964
966
966
964
965
966
968
970
968
968
968
968
972
971
972
970
969
971
971
970
966
960
959
962
968
983
1006
1030
1058
1086
1110
1127
1147
1174
1202
1234
1261
1287
1310
1322
1327
1329
1326
1316
1296
1261
1224
1188
1162
1131
1099
1062
1024
984
951
922
898
873
855
845
841
838
838
837
839
840
845
846
852
857
866
875
881
887
886
888
893
899
906
912
914
914
917
917
921
919
920
914
912
913
917
916
916
913
912
913
913
912
912
908
907
907
909
905
904
902
901
903
903
902
899
899
898
899
901
903
901
901
902
905
907
908
911
911
912
916
921
923
923
925
925
931
932
937
941
941
946
951
954
956
959
961
963
966
971
971
974
975
977
982
987
988
989
991
994
996
1000
1001
1001
1002
997
1005
1006
1008
1006
1004
1004
1003
1006
1004
1005
1002
1000
1002
1002
1001
998
996
993
993
991
989
988
986
987
989
993
994
995
992
991
991
996
997
996
993
991
995
1001
1003
1004
1003
1004
1005
1009
1005
1003
1000
998
1002
1002
1003
1003
1000
1003
1004
1004
996
992
982
977
974
970
968
962
958
952
953
957
957
953
953
952
958
959
958
956
955
954
956
961
962
964
961
958
958
960
963
963
962
961
962
963
962
963
960
959
960
963
965
966
962
962
965
966
967
968
968
967
969
969
971
967
961
958
959
966
975
997
1023
1052
1084
1108
1125
1146
1170
1200
1228
1257
1281
1296
1301
1297
1296
1286
1265
1229
1187
1151
1121
1091
1059
1021
978
941
910
886
866
853
841
836
838
843
847
846
845
847
856
864
870
880
881
885
889
896
900
903
905
905
909
914
915
916
913
912
912
915
915
915
911
908
911
912
913
910
910
907
910
909
909
907
902
903
905
905
906
903
902
901
903
905
904
905
906
903
906
910
911
911
910
914
916
921
922
924
928
929
934
937
940
940
944
947
951
955
959
962
962
965
970
976
978
978
978
980
986
988
992
992
992
993
995
998
1000
998
999
998
1001
1003
1002
1002
1000
998
1001
1006
1006
1003
1001
999
1000
1001
1001
997
994
992
994
994
992
990
991
989
992
997
997
994
995
994
995
995
996
994
992
988
994
998
1001
1002
1001
1002
1003
1005
1007
1001
1000
999
999
1002
1005
1002
1001
1001
1004
1004
1002
998
991
984
979
977
973
968
961
959
957
955
956
955
951
951
956
955
955
956
954
953
958
957
960
959
960
958
959
964
963
963
961
963
962
963
964
963
963
963
965
967
966
968
967
965
968
969
971
970
967
968
970
970
972
972
967
964
965
964
962
961
962
971
992
1017
1046
1070
1092
1107
1121
1144
1168
1192
1216
1240
1266
1284
1291
1289
1285
1278
1265
1243
1210
1176
1146
1122
1100
1078
1043
1003
967
942
922
900
882
867
858
852
854
855
855
861
858
856
862
870
879
885
888
891
897
903
905
910
914
916
921
924
926
927
927
927
926
924
922
922
922
922
923
922
920
920
918
916
917
918
919
919
918
912
915
917
918
915
911
911
913
916
915
916
914
914
915
917
918
918
918
916
921
923
924
923
924
926
930
933
933
936
938
939
942
947
951
954
954
955
961
969
969
972
976
977
982
986
988
990
993
993
997
998
1004
1005
1006
1007
1010
1012
1011
1012
1012
1011
1013
1017
1015
1014
1013
1010
1011
1011
1012
1012
1008
1005
1007
1008
1008
1006
1005
1003
1004
1005
1004
1005
1006
1005
1010
1013
1014
1011
1007
1006
1008
1008
1011
1010
1012
1011
1012
1017
1019
1017
1014
1014
1016
1015
1012
1011
1007
1006
1009
1012
1014
1015
1013
1012
1013
1012
1008
1002
993
988
987
982
979
974
970
969
969
970
969
967
965
963
965
969
968
964
966
965
966
967
968
967
966
965
966
968
969
968
969
968
968
970
973
971
971
971
972
975
975
976
975
972
976
976
979
978
978
976
978
981
982
982
978
977
977
977
971
965
964
963
969
986
1009
1036
1061
1082
1101
1117
1140
1168
1196
1224
1254
1278
1296
1301
1300
1297
1288
1275
1240
1206
1174
1149
1127
1101
1073
1034
993
963
937
918
896
877
864
858
859
863
862
864
863
861
871
880
888
894
901
902
905
914
919
927
927
929
933
933
936
934
933
933
932
936
933
934
928
927
928
929
928
927
923
921
921
919
920
919
917
917
918
919
920
920
918
917
920
921
922
922
922
923
927
929
933
932
932
933
937
943
943
944
947
949
952
959
962
965
964
966
971
977
979
979
981
982
990
994
997
999
1001
1001
1008
1010
1016
1014
1015
1017
1020
1023
1022
1022
1023
1021
1023
1027
1025
1023
1021
1021
1022
1022
1018
1017
1016
1012
1013
1012
1013
1010
1009
1006
1008
1011
1013
1012
1012
1011
1015
1015
1016
1014
1011
1011
1013
1017
1017
1018
1017
1019
1022
1023
1024
1022
1021
1016
1018
1020
1019
1018
1015
1014
1015
1018
1019
1017
1014
1009
1008
1001
998
993
989
985
984
982
980
977
975
976
976
979
976
975
974
974
976
978
979
976
976
975
977
978
981
979
977
976
978
979
979
978
976
977
977
979
981
979
977
977
981
984
984
983
981
981
985
988
988
987
986
982
987
987
987
985
981
973
975
973
979
991
1010
1034
1060
1083
1102
1119
1129
1151
1180
1209
1235
1262
1284
1304
1317
1324
1323
1317
1305
1276
1240
1203
1172
1145
1114
1079
1039
1001
968
940
915
891
876
866
864
859
861
860
865
868
868
869
877
886
893
899
904
908
909
913
922
928
931
935
933
936
937
937
936
936
934
931
933
934
934
931
929
930
932
930
930
927
926
922
924
925
926
922
920
919
920
922
921
920
919
920
922
925
926
925
927
926
931
934
935
937
938
939
942
948
952
954
960
961
965
969
972
977
978
980
983
989
991
994
996
997
1002
1008
1010
1009
1011
1010
1017
1020
1023
1021
1024
1022
1026
1025
1026
1024
1023
1021
1023
1023
1020
1020
1020
1018
1017
1018
1017
1016
1013
1010
1012
1014
1015
1013
1015
1013
1014
1016
1014
1013
1014
1014
1019
1015
1019
1020
1019
1022
1024
1026
1026
1026
1023
1018
1021
1022
1022
1023
1020
1019
1023
1026
1024
1019
1013
1006
1001
998
991
988
984
978
975
976
977
977
975
973
973
977
977
977
975
975
978
981
980
978
977
975
977
981
981
981
979
979
980
982
982
979
980
979
981
982
983
983
981
980
981
983
983
983
983
983
987
987
991
989
988
986
989
987
988
984
980
975
974
979
983
998
1019
1041
1067
1098
1115
1127
1141
1164
1193
1219
1245
1270
1293
1311
1326
1329
1332
1327
1315
1292
1261
1226
1195
1169
1140
1110
1080
1044
1003
970
942
918
900
883
873
864
861
858
862
865
869
871
871
877
884
896
901
903
908
909
916
920
925
928
930
931
936
937
940
939
937
935
936
937
939
937
935
933
936
935
934
934
930
926
930
931
933
927
927
924
925
924
926
925
924
921
924
924
926
926
925
923
925
930
929
933
931
932
938
941
944
945
948
950
956
961
965
965
968
969
975
979
981
983
987
987
994
994
999
1002
1002
1002
1007
1009
1012
1016
1014
1013
1017
1021
1023
1023
1022
1021
1024
1024
1024
1025
1025
1024
1025
1026
1026
1025
1020
1020
1020
1020
1021
1020
1015
1014
1014
1016
1016
1016
1016
1016
1017
1019
1022
1020
1016
1014
1016
1016
1018
1017
1016
1015
1018
1023
1026
1026
1024
1021
1025
1027
1027
1024
1021
1020
1021
1022
1021
1022
1020
1020
1023
1024
1024
1019
1012
1006
1000
998
994
990
985
979
979
978
978
975
974
972
973
972
974
973
974
970
972
974
977
977
974
974
975
978
981
979
978
977
979
980
982
981
979
977
979
984
982
982
982
981
982
984
984
984
982
981
983
984
986
983
984
981
984
986
987
985
982
979
979
979
976
975
972
977
993
1013
1038
1064
1086
1105
1121
1139
1160
1186
1210
1234
1259
1285
1308
1322
1326
1325
1327
1325
1316
1289
1251
1213
1186
1159
1131
1101
1065
1023
986
958
934
908
887
871
863
859
857
856
856
858
861
863
865
870
877
883
891
897
902
904
908
909
917
922
925
925
929
930
932
935
938
934
933
931
933
930
932
929
929
927
927
928
930
928
926
924
923
925
925
928
925
921
925
924
924
922
922
919
922
921
920
923
919
919
922
925
926
925
925
924
927
929
932
933
932
933
936
943
947
949
949
949
956
961
965
967
967
973
976
979
983
986
989
989
996
997
1003
1004
1006
1004
1009
1013
1016
1018
1018
1016
1021
1020
1022
1020
1019
1018
1020
1021
1020
1019
1017
1016
1018
1017
1019
1016
1015
1013
1011
1012
1014
1011
1009
1009
1011
1014
1014
1015
1016
1013
1014
1014
1015
1015
1011
1010
1012
1015
1018
1018
1020
1016
1019
1020
1019
1020
1015
1013
1014
1015
1019
1016
1014
1017
1017
1020
1020
1017
1013
1008
1003
1002
995
992
987
982
978
974
975
974
971
971
971
972
971
971
969
967
967
970
971
972
970
969
970
972
971
972
972
971
972
975
976
975
973
973
975
978
977
976
977
973
976
979
979
977
977
977
978
980
979
980
977
978
980
981
984
980
973
972
970
967
966
964
965
970
989
1016
1043
1069
1090
1108
1129
1148
1173
1202
1227
1251
1279
1304
1322
1328
1331
1326
1325
1317
1295
1262
1225
1192
1168
1143
1116
1084
1048
1004
969
939
917
895
873
857
849
844
844
843
845
847
849
852
855
858
863
870
879
886
895
895
899
900
909
913
918
922
921
923
925
929
927
929
927
923
925
928
924
923
920
917
919
921
922
920
916
913
916
913
915
913
913
911
915
916
916
916
913
911
913
916
915
913
912
911
914
915
917
915
916
917
919
922
926
926
925
925
930
934
934
935
936
937
943
947
950
951
951
954
958
964
969
970
972
974
977
982
985
986
987
990
994
999
1001
1003
1003
1005
1009
1010
1012
1011
1010
1011
1012
1015
1017
1014
1013
1010
1012
1012
1012
1009
1007
1005
1005
1006
1005
1001
1000
997
998
1000
1001
1001
999
998
1001
1004
1005
1004
1004
1003
1003
1002
1003
1001
999
999
999
1003
1006
1008
1009
1010
1010
1011
1011
1008
1003
999
1002
1003
1006
1005
1003
1003
1005
1009
1008
1005
1002
998
992
987
985
980
974
971
969
968
966
965
965
961
962
963
965
964
962
960
962
965
964
965
961
960
962
964
966
966
963
960
961
964
967
966
963
964
966
967
971
969
970
968
970
970
971
972
969
971
972
974
974
973
973
969
972
976
977
976
973
973
969
970
965
964
963
968
983
1005
1033
1059
1084
1104
1121
1137
1160
1186
1210
1235
1261
1290
1307
1316
1316
1313
1312
1303
1288
1254
1215
1181
1151
1125
1096
1065
1028
988
952
927
903
880
863
848
845
843
843
844
844
843
847
850
857
864
870
875
882
890
896
898
897
902
908
912
918
919
918
919
924
926
927
926
922
922
921
922
925
921
919
917
919
921
919
915
913
912
912
913
912
911
911
908
907
911
911
910
908
908
908
912
914
913
911
911
914
917
918
917
918
917
921
925
927
927
928
930
932
938
940
941
942
944
949
951
956
957
957
958
963
965
968
972
973
974
978
984
989
990
993
994
995
1000
1001
1002
1006
1003
1008
1010
1013
1012
1010
1009
1010
1013
1012
1013
1010
1008
1011
1012
1012
1010
1007
1005
1004
1006
1004
1000
999
996
998
999
999
1000
998
996
998
999
1004
1004
1002
1001
1002
1004
1004
1003
1003
1000
1005
1007
1011
1011
1010
1008
1011
1012
1014
1011
1006
1003
1005
1006
1006
1007
1005
1003
1006
1007
1005
999
994
984
983
985
979
975
969
964
965
966
967
965
963
961
963
966
965
967
966
963
964
968
968
968
967
962
963
967
967
966
966
964
966
969
968
970
969
967
970
971
974
973
974
972
973
976
976
976
975
975
977
980
981
979
977
974
972
969
967
968
973
986
1010
1039
1067
1089
1107
1121
1146
1177
1205
1235
1258
1278
1291
1298
1300
1293
1288
1269
1241
1209
1182
1154
1130
1101
1071
1037
999
966
939
912
892
876
869
863
856
856
859
861
863
864
868
876
885
895
901
903
905
907
913
923
926
929
932
933
935
938
939
937
936
936
935
936
936
936
934
930
931
933
932
933
930
928
923
925
926
926
924
920
921
923
923
923
922
919
922
926
924
926
924
924
925
926
932
932
931
930
934
936
940
943
942
943
949
952
955
957
960
961
963
967
970
972
974
975
979
984
988
990
993
991
994
999
1003
1005
1008
1011
1012
1014
1017
1019
1019
1016
1019
1020
1023
1023
1021
1018
1018
1021
1020
1019
1018
1017
1017
1017
1017
1015
1012
1009
1009
1011
1008
1009
1007
1003
1002
1004
1005
1005
1007
1010
1010
1014
1016
1013
1011
1009
1014
1015
1018
1017
1017
1014
1019
1022
1023
1022
1019
1016
1016
1015
1017
1017
1016
1012
1016
1016
1018
1014
1010
1004
1000
996
993
989
985
979
978
974
976
974
971
970
969
972
973
971
972
970
971
972
975
975
973
971
973
973
974
975
972
971
969
971
975
973
972
972
974
977
979
978
978
978
978
982
982
983
982
978
979
985
986
984
980
979
975
971
972
968
974
991
1017
1051
1077
1100
1115
1131
1160
1194
1226
1253
1279
1296
1309
1311
1313
1308
1295
1263
1228
1194
1165
1135
1103
1068
1028
988
954
926
898
875
864
861
861
857
859
857
860
863
870
878
884
890
894
899
905
911
915
917
925
929
930
934
933
931
934
932
933
931
927
928
928
928
929
927
925
923
923
923
922
922
919
917
916
919
919
917
915
913
914
916
918
918
918
918
920
923
925
923
925
924
927
934
937
938
939
940
944
948
951
954
955
957
960
966
968
970
973
974
978
981
986
989
989
990
992
998
999
1003
1005
1006
1010
1012
1015
1016
1016
1013
1015
1017
1021
1019
1018
1015
1014
1016
1018
1016
1016
1009
1010
1010
1011
1008
1006
1004
1004
1002
1002
999
997
994
996
998
1003
1003
1004
1002
1004
1005
1006
1005
1006
1005
1008
1011
1013
1014
1013
1013
1012
1015
1017
1015
1010
1008
1007
1012
1012
1015
1013
1009
1010
1011
1009
1006
1002
996
990
988
985
980
976
970
969
969
969
970
966
964
964
964
967
967
967
964
967
967
968
969
968
966
967
969
971
971
970
966
968
967
970
970
967
968
969
973
973
973
971
971
973
974
978
977
978
977
979
980
982
979
978
978
975
972
970
968
968
970
987
1013
1044
1070
1093
1113
1133
1158
1188
1218
1246
1271
1297
1313
1321
1321
1318
1311
1294
1261
1224
1188
1158
1125
1095
1060
1019
978
942
915
889
872
859
853
846
845
847
852
854
854
855
860
868
878
887
891
894
895
902
907
913
916
919
917
921
926
928
927
926
923
925
924
926
924
922
922
921
920
923
921
919
917
917
918
920
919
916
912
910
912
915
912
911
909
910
911
913
911
911
911
913
916
918
917
917
918
921
925
928
929
928
932
934
939
943
944
945
948
951
956
960
960
962
965
971
973
978
980
981
983
984
988
992
994
993
997
1001
1004
1004
1004
1008
1007
1011
1013
1014
1015
1013
1014
1014
1015
1017
1015
1013
1012
1012
1013
1013
1012
1009
1008
1006
1007
1006
1004
1002
999
999
1000
1001
996
995
996
996
1000
1005
1001
1002
1000
1002
1002
1005
1005
1008
1006
1008
1011
1013
1014
1013
1012
1013
1013
1016
1013
1009
1005
1008
1009
1011
1011
1011
1009
1011
1010
1008
1002
996
989
986
982
979
974
967
964
962
963
963
964
963
961
961
963
965
965
965
961
963
966
967
969
967
964
963
966
969
967
967
966
966
970
967
969
969
967
967
968
970
973
968
967
967
968
972
974
973
970
972
975
975
978
976
972
975
978
978
975
971
963
960
963
967
972
983
1006
1038
1066
1092
1107
1124
1141
1173
1205
1233
1264
1288
1307
1320
1325
1324
1320
1304
1273
1235
1199
1173
1144
1115
1082
1043
1005
966
936
909
880
862
853
848
847
845
844
849
851
854
856
862
870
882
888
893
895
898
899
907
914
918
920
922
918
923
924
927
925
924
922
920
921
922
923
918
918
917
918
920
916
915
911
912
913
915
915
911
908
909
910
912
909
907
905
908
909
911
911
909
909
911
917
919
921
923
924
925
930
934
936
937
938
945
951
955
956
959
959
962
969
972
974
977
976
981
987
989
990
993
991
996
999
1000
1003
1005
1005
1008
1011
1012
1012
1014
1010
1013
1015
1017
1015
1013
1011
1010
1009
1013
1012
1010
1005
1006
1006
1003
1004
1002
997
996
999
997
997
996
995
997
998
1002
1002
1000
998
998
1000
1003
1006
1005
1007
1008
1011
1013
1011
1010
1012
1009
1010
1011
1008
1007
1007
1008
1009
1010
1012
1011
1006
1006
1004
999
992
985
977
976
973
969
967
962
962
961
961
962
963
962
960
962
966
966
964
966
960
964
965
968
966
965
966
966
967
970
968
969
965
966
968
970
971
968
966
967
967
971
971
969
966
968
971
972
972
973
970
974
974
976
977
976
974
973
972
970
966
965
962
969
985
1010
1037
1061
1086
1109
1127
1150
1178
1204
1230
1262
1291
1310
1325
1327
1326
1324
1317
1294
1256
1217
1183
1153
1126
1102
1066
1026
986
953
928
907
883
866
851
845
845
846
847
849
848
848
852
860
867
875
882
886
894
898
902
904
908
914
918
921
920
920
919
919
923
925
923
920
919
920
920
919
920
917
915
