970
969
967
963
966
969
970
968
966
968
971
970
968
970
969
968
971
971
969
966
967
968
969
971
971
970
968
968
971
973
972
972
972
971
975
976
978
976
974
976
976
979
980
980
978
977
978
982
979
971
967
964
967
974
983
1006
1028
1054
1083
1102
1116
1129
1154
1178
1208
1234
1255
1273
1283
1287
1290
1291
1286
1277
1259
1231
1197
1169
1146
1122
1095
1066
1036
1002
970
936
910
886
873
864
855
848
847
847
851
856
855
857
862
869
878
886
894
896
897
899
906
911
917
920
922
925
928
931
930
932
927
927
927
927
926
925
925
922
926
926
925
920
921
918
921
923
922
919
916
917
917
920
920
920
916
916
920
919
921
921
920
920
921
924
926
926
928
929
932
936
941
940
942
945
950
955
960
960
964
967
970
975
978
983
984
986
990
998
1001
1001
1000
1000
1006
1011
1012
1012
1013
1013
1018
1020
1019
1021
1020
1018
1020
1023
1025
1022
1022
1020
1020
1022
1021
1019
1015
1013
1014
1015
1014
1013
1011
1009
1009
1009
1008
1006
1005
1001
1001
1004
1001
1001
999
999
1003
1003
1006
1006
1003
999
1000
1006
1008
1007
1008
1007
1010
1014
1013
1015
1011
1012
1015
1017
1016
1013
1012
1012
1016
1016
1017
1016
1014
1013
1011
1010
1008
999
989
985
983
979
976
972
967
964
963
967
965
962
960
960
964
966
967
965
965
966
966
969
970
967
967
968
968
971
971
971
970
968
972
972
972
974
970
969
972
972
975
971
969
969
972
975
973
975
972
972
975
978
977
977
974
971
969
966
965
963
964
971
995
1023
1050
1073
1094
1112
1128
1149
1172
1197
1217
1241
1266
1285
1300
1306
1304
1298
1295
1285
1262
1224
1186
1158
1133
1109
1079
1042
1004
968
942
916
892
872
859
849
846
845
846
846
848
849
851
861
867
877
883
889
892
898
901
904
906
909
915
919
924
923
921
922
925
926
927
922
922
916
918
921
922
920
916
915
918
920
919
916
914
912
913
915
915
914
912
912
911
915
915
912
911
911
913
916
915
916
916
915
919
923
923
924
926
925
930
934
937
938
941
941
947
952
953
956
958
963
967
971
975
979
980
980
987
993
993
996
996
1000
1003
1006
1010
1013
1013
1014
1017
1021
1020
1019
1019
1019
1019
1021
1020
1019
1016
1013
1016
1016
1013
1013
1009
1009
1010
1011
1008
1007
1006
1002
1004
1003
1002
998
997
996
998
1000
1002
1005
1004
1003
1007
1006
1006
1003
1003
1005
1009
1012
1012
1011
1010
1009
1012
1015
1014
1011
1009
1005
1008
1010
1011
1010
1010
1010
1010
1011
1008
1005
998
991
986
984
981
979
969
967
966
967
967
967
963
960
965
965
966
965
961
962
963
966
967
963
963
964
964
966
967
967
965
965
967
970
972
970
968
968
968
972
972
970
974
972
974
975
978
975
976
977
977
976
978
978
974
966
965
963
962
963
970
985
1010
1037
1064
1088
1106
1117
1136
1163
1190
1216
1238
1258
1285
1303
1315
1313
1309
1304
1293
1277
1247
1209
1179
1149
1126
1101
1070
1034
996
961
935
910
884
864
850
844
841
840
844
845
844
846
849
854
859
866
872
877
885
891
894
897
901
905
913
919
918
921
920
923
925
927
927
926
923
920
924
925
925
922
919
918
919
921
917
915
910
909
911
913
912
912
910
907
908
911
912
912
910
907
912
914
914
914
911
912
916
919
923
921
924
927
930
934
936
936
938
942
947
951
956
957
958
961
965
968
972
973
974
979
984
987
993
992
995
998
1003
1006
1009
1010
1008
1011
1015
1017
1021
1020
1020
1019
1023
1025
1023
1024
1020
1019
1021
1021
1023
1019
1017
1016
1015
1014
1011
1009
1007
1005
1005
1006
1005
1002
1000
998
1000
998
1001
996
997
1000
1001
1004
1006
1006
1005
1003
1005
1006
1008
1008
1010
1011
1014
1015
1017
1018
1016
1017
1016
1018
1018
1013
1011
1009
1012
1014
1016
1015
1013
1010
1013
1013
1008
1004
996
988
983
983
979
973
969
965
965
965
967
966
963
962
965
967
967
966
966
964
966
969
970
969
968
964
966
969
968
967
965
964
966
967
970
969
967
966
967
971
970
971
969
970
972
974
972
974
972
973
974
977
977
976
972
971
972
970
967
965
964
969
988
1012
1041
1069
1091
1110
1128
1146
1171
1198
1221
1244
1271
1292
1308
1313
1313
1311
1306
1298
1278
1244
1207
1177
1152
1127
1100
1070
1032
990
956
928
906
879
862
848
842
843
841
838
839
841
842
845
847
855
860
865
874
882
887
888
891
894
902
907
910
911
911
912
914
918
916
918
917
914
914
914
916
912
911
907
911
912
911
909
907
907
908
909
908
907
903
902
903
904
901
902
897
899
902
902
902
902
902
899
903
906
910
908
908
909
917
918
922
922
925
926
931
935
940
942
943
947
951
957
963
963
965
969
975
980
983
986
987
988
996
997
1001
1001
1004
1003
1008
1009
1013
1011
1012
1015
1015
1019
1018
1020
1020
1015
1016
1018
1018
1015
1014
1012
1012
1013
1013
1011
1010
1007
1006
1008
1005
1003
1000
999
997
997
996
994
994
991
996
1000
1000
999
999
998
1001
1003
1003
1004
1008
1008
1010
1015
1015
1013
1012
1014
1011
1014
1012
1011
1012
1011
1013
1016
1017
1014
1011
1011
1006
1002
996
988
982
977
973
972
969
965
964
963
962
964
964
963
963
959
961
965
965
965
963
963
966
966
969
969
968
967
967
969
970
970
968
968
968
971
970
969
968
966
968
970
972
972
970
970
971
974
976
973
970
970
970
965
963
961
961
966
984
1005
1032
1057
1078
1101
1120
1138
1162
1189
1214
1242
1270
1293
1311
1318
1316
1312
1306
1292
1266
1227
1188
1154
1131
1105
1077
1041
1003
967
937
915
890
869
853
843
838
839
840
842
844
841
847
854
862
868
876
881
887
894
896
897
900
905
911
913
917
918
919
917
920
920
919
917
914
913
915
915
914
914
910
909
908
910
910
909
907
906
905
908
908
906
903
902
903
905
909
904
901
902
906
908
907
908
907
904
908
913
913
913
914
913
919
923
926
931
931
932
939
944
948
948
948
951
958
963
967
969
971
975
978
986
987
988
991
991
995
1000
1004
1006
1007
1007
1012
1011
1011
1014
1012
1011
1014
1015
1015
1014
1012
1011
1012
1013
1013
1012
1008
1007
1008
1008
1006
1003
999
1000
1000
1001
999
996
996
993
994
994
995
995
995
993
996
1000
1002
1001
997
998
998
1000
1003
1003
1003
1001
1004
1008
1008
1007
1008
1006
1006
1005
1004
1005
1005
1003
1007
1008
1009
1008
1004
1000
997
994
988
983
976
973
968
966
963
962
959
958
958
957
959
957
956
956
958
961
963
959
960
959
962
965
964
963
961
963
964
965
966
966
966
965
967
968
968
969
969
968
968
971
972
969
966
966
968
969
971
969
967
966
964
961
958
956
956
963
981
1007
1036
1062
1086
1107
1127
1149
1178
1207
1237
1262
1292
1313
1320
1319
1317
1310
1296
1273
1234
1195
1162
1131
1104
1076
1035
987
947
910
887
866
849
838
830
825
826
830
831
833
834
838
847
856
862
868
873
875
880
886
893
898
901
904
910
912
914
914
914
913
913
913
913
910
906
905
908
910
906
906
903
900
901
902
902
901
900
896
898
900
899
898
898
897
899
900
899
899
900
899
902
906
906
908
906
909
911
916
917
918
915
920
922
929
932
934
934
932
941
946
949
954
951
954
957
962
968
971
972
974
979
984
987
990
990
995
996
1001
1002
1003
1005
1006
1007
1011
1012
1010
1009
1008
1012
1014
1012
1009
1008
1006
1005
1006
1006
1004
1002
1000
1002
1000
1001
1000
994
995
994
996
995
992
988
988
988
990
992
990
989
991
993
996
1000
998
997
995
997
999
1002
1001
1002
1000
1003
1006
1006
1007
1006
1004
1004
1004
1002
1000
999
1001
1006
1006
1006
1002
1003
997
991
987
980
977
969
965
961
958
957
960
957
955
956
955
957
957
955
952
954
955
957
955
953
954
957
957
958
957
956
957
960
962
961
961
958
959
960
964
965
961
962
962
965
967
967
967
966
964
966
967
962
956
952
950
954
968
992
1020
1050
1077
1099
1121
1143
1171
1200
1231
1261
1288
1310
1317
1317
1313
1307
1293
1264
1223
1181
1146
1118
1090
1051
1003
959
924
900
877
854
839
830
825
826
828
829
833
832
834
842
855
862
865
871
875
881
888
893
896
901
902
905
910
909
911
910
910
911
911
913
909
907
904
905
908
907
904
899
899
900
899
897
899
894
893
895
897
897
896
895
895
896
896
897
898
896
895
898
901
904
904
905
906
910
912
917
919
920
922
926
930
934
937
938
941
945
950
953
958
959
961
967
969
974
978
977
979
983
989
993
992
994
994
996
999
1004
1003
1002
1003
1006
1009
1011
1009
1009
1008
1010
1006
1010
1006
1006
1003
1001
1003
1000
999
992
990
991
993
992
988
986
984
984
985
986
982
981
979
981
983
984
984
987
986
989
989
989
989
989
991
996
997
999
1001
998
998
1001
1002
1003
999
994
992
992
996
997
998
997
997
997
996
994
988
981
973
970
967
964
958
955
952
952
954
955
952
951
950
952
954
954
954
952
951
954
955
958
954
954
949
955
955
957
955
953
952
954
955
956
957
956
956
959
959
960
960
959
957
961
960
963
961
962
962
965
963
959
955
951
948
955
976
1001
1032
1061
1090
1114
1136
1161
1192
1221
1252
1280
1306
1318
1320
1316
1310
1297
1271
1230
1189
1153
1123
1095
1065
1028
982
941
908
879
856
838
827
819
819
821
824
827
823
828
833
846
854
862
868
865
870
878
885
892
895
897
899
903
906
905
904
902
900
901
899
900
900
896
896
895
897
896
893
893
892
891
892
890
888
885
883
883
888
887
885
885
884
884
888
889
888
888
887
891
895
898
900
903
905
908
913
914
919
917
921
928
930
936
941
942
945
952
956
960
963
964
965
970
974
977
979
980
981
984
990
992
994
993
992
996
1002
1002
1002
1001
999
1002
1003
1003
1002
1003
1002
1003
1002
1004
999
997
997
996
994
996
991
990
987
986
987
982
982
978
977
978
981
981
982
981
982
983
986
987
984
984
984
987
992
993
994
994
995
997
998
999
1000
997
993
995
998
997
998
995
995
996
994
998
989
985
976
973
970
967
962
956
951
950
948
952
949
944
944
945
946
947
949
948
947
948
948
950
949
947
948
950
952
951
952
949
949
953
955
951
952
951
950
952
953
954
953
953
951
953
956
954
954
953
953
955
958
959
957
956
950
950
948
945
947
950
960
981
1015
1041
1068
1090
1107
1127
1153
1180
1210
1236
1265
1289
1307
1318
1319
1314
1306
1294
1273
1236
1197
1161
1130
1099
1070
1033
988
947
914
887
863
843
826
816
812
815
818
819
822
823
822
826
835
845
854
860
864
870
871
876
879
883
885
892
895
898
899
899
900
899
900
900
899
898
897
896
898
895
894
894
891
892
892
891
891
891
887
890
892
890
888
886
885
888
888
888
888
885
886
886
887
889
886
884
887
889
890
892
893
893
893
900
905
906
907
907
911
917
921
923
926
926
930
936
940
943
944
950
952
958
963
965
966
969
971
976
980
985
984
986
986
987
991
993
994
994
993
997
1000
999
1002
998
997
994
999
998
998
997
995
996
998
997
995
991
988
991
992
991
991
987
985
986
986
983
982
979
976
978
977
978
976
973
974
978
978
981
980
980
979
982
982
980
983
982
985
986
991
991
993
991
990
995
996
996
995
991
990
992
992
994
996
995
994
996
998
996
995
990
982
978
972
971
962
960
953
951
951
948
946
943
944
946
945
945
945
943
946
947
948
948
949
947
946
949
952
950
948
947
948
951
952
954
954
951
953
954
957
957
955
952
950
952
956
956
953
951
949
954
957
957
956
957
957
957
957
959
955
957
953
951
948
947
944
947
952
968
992
1019
1043
1068
1091
1110
1128
1150
1174
1202
1227
1257
1285
1308
1321
1327
1326
1324
1321
1308
1281
1244
1207
1175
1148
1120
1090
1058
1014
972
939
914
888
860
838
827
820
817
816
815
816
820
821
824
829
836
843
851
862
868
871
873
877
884
892
896
897
899
899
904
905
904
903
902
897
897
900
900
897
896
894
894
893
895
894
891
889
890
891
891
888
887
884
885
888
888
889
888
887
888
891
892
890
891
889
890
892
896
898
897
898
898
901
905
906
907
908
912
917
920
921
924
927
931
938
940
944
946
949
954
959
961
965
968
967
973
980
984
985
985
990
992
996
1000
999
998
999
1003
1005
1005
1003
1001
999
1002
1003
1004
1003
1001
998
998
998
998
994
993
991
994
993
992
990
989
985
986
987
986
985
983
982
983
982
981
981
980
981
984
988
988
987
987
984
985
985
985
986
988
990
991
992
994
995
995
995
996
1000
1000
994
990
988
993
997
1000
1000
997
998
999
998
997
995
985
978
975
974
971
966
960
956
953
955
956
954
950
944
948
951
951
952
949
947
950
954
953
952
952
952
954
955
955
953
953
953
953
955
956
957
956
956
957
960
960
960
957
957
958
960
961
963
960
958
962
962
962
960
959
958
958
961
958
954
949
947
948
953
964
984
1006
1033
1065
1090
1109
1122
1139
1164
1191
1222
1249
1277
1301
1319
1329
1330
1330
1322
1311
1290
1255
1219
1184
1150
1118
1089
1058
1018
977
939
912
885
861
841
828
821
819
816
817
825
829
828
827
832
842
850
857
863
866
870
874
880
887
891
895
899
902
908
909
909
909
907
907
910
910
906
904
902
900
904
901
900
897
895
894
896
895
895
892
893
893
896
895
891
889
887
888
890
892
892
889
890
891
893
898
897
897
899
900
904
907
909
909
912
911
917
920
923
923
924
931
933
938
941
943
945
951
958
960
962
964
967
971
974
977
980
982
982
989
994
996
998
998
998
1002
1005
1008
1007
1007
1008
1008
1011
1011
1009
1005
1004
1003
1003
1004
1002
1000
997
997
997
996
993
991
988
991
991
990
986
986
982
983
985
985
983
985
985
990
994
993
994
991
992
993
996
998
998
998
998
1001
1004
1003
1001
1000
1001
1001
1003
1000
1000
998
999
1000
1003
1003
1004
1001
996
995
991
984
978
972
966
966
963
962
958
957
955
957
958
958
959
955
954
954
953
955
955
955
950
954
953
955
955
954
954
954
956
959
959
957
956
956
958
960
958
958
959
962
962
966
964
965
962
965
966
966
966
967
965
966
965
963
960
954
949
950
958
968
987
1013
1038
1066
1090
1114
1124
1141
1168
1198
1230
1259
1289
1309
1325
1332
1335
1335
1326
1310
1275
1241
1205
1173
1141
1112
1077
1042
1001
964
933
906
880
855
837
825
823
817
816
819
824
825
825
827
831
840
851
858
865
865
870
873
881
888
893
894
898
903
905
906
906
907
904
904
905
907
904
904
903
903
904
904
902
897
896
892
895
896
893
890
888
890
889
889
889
888
885
887
889
889
889
889
889
889
891
893
893
893
893
898
903
903
907
908
909
913
917
922
923
926
927
931
937
941
942
946
946
950
955
960
962
964
967
972
977
980
984
984
986
990
993
995
998
997
996
999
1002
1004
1005
1004
1002
1004
1007
1004
1004
1003
999
1001
1000
1002
997
996
993
992
991
991
989
985
985
984
984
986
983
981
978
979
982
982
984
986
985
987
991
989
987
987
987
989
992
994
996
995
996
998
1001
1001
1004
999
998
996
1000
999
998
997
993
997
1000
1004
999
995
991
988
981
977
972
970
961
959
956
953
952
950
949
949
949
951
952
950
948
949
951
952
954
952
950
952
954
955
955
950
950
950
953
954
953
954
949
953
955
958
956
955
951
953
954
956
958
956
956
959
959
960
962
961
959
961
963
964
962
958
955
954
952
956
963
979
1002
1035
1064
1088
1107
1126
1144
1171
1203
1232
1256
1284
1306
1327
1337
1339
1335
1329
1316
1292
1257
1216
1183
1149
1116
1085
1052
1010
968
935
906
877
856
840
824
819
813
814
820
823
824
822
826
834
844
854
860
864
867
872
876
880
889
891
897
900
901
904
903
904
901
903
904
904
903
900
897
897
896
898
898
895
894
894
894
894
892
890
888
888
890
888
886
883
881
882
883
886
885
883
882
883
885
888
889
890
890
893
894
899
899
902
903
906
913
916
920
920
925
929
934
938
940
943
947
952
957
961
963
965
968
970
974
977
981
984
982
989
992
994
997
997
998
998
1001
1004
1004
1002
999
1000
1002
1002
1000
1000
998
998
1001
1000
995
994
990
989
991
991
988
984
979
980
983
981
981
977
976
976
978
981
984
983
983
983
985
987
987
986
987
992
995
996
999
1000
998
999
1003
1003
1001
997
997
1000
1000
1003
1003
1001
998
999
997
994
990
982
973
969
967
965
958
955
949
952
954
950
952
948
947
950
954
955
955
954
954
953
956
953
956
954
953
954
957
957
956
955
953
955
956
956
954
955
954
954
957
957
958
956
957
960
961
960
961
962
958
960
963
961
959
955
949
950
952
957
968
992
1016
1048
1077
1104
1122
1138
1162
1195
1229
1259
1290
1314
1330
1338
1343
1341
1331
1314
1282
1241
1201
1167
1135
1103
1065
1022
977
939
909
880
852
836
825
821
818
813
816
820
824
827
830
835
843
853
864
868
873
874
873
882
889
895
896
899
900
900
903
902
905
904
901
900
901
902
901
898
896
898
899
898
895
893
891
891
894
897
894
892
891
890
892
889
892
890
889
890
893
892
891
890
888
890
892
894
895
896
895
900
903
906
910
911
912
919
921
926
930
930
933
937
941
948
950
952
955
961
965
970
971
973
973
979
986
987
990
991
990
992
998
999
1001
998
999
1002
1003
1003
1003
1002
1001
1001
1002
1003
1003
1002
999
998
999
999
998
995
993
992
994
