823
823
823
825
827
830
831
834
840
850
857
865
871
873
873
878
886
892
896
898
901
901
904
907
909
907
905
905
907
909
908
906
903
903
901
902
903
902
898
896
898
898
896
894
896
894
892
895
895
892
894
892
894
896
895
896
896
896
897
901
901
902
902
903
907
910
915
917
917
920
922
928
931
934
936
936
940
947
950
951
952
953
958
964
967
968
973
973
976
979
983
983
987
988
993
996
1000
1000
998
999
1003
1005
1007
1007
1006
1006
1006
1008
1010
1008
1007
1004
1003
1007
1006
1004
1001
999
997
996
996
993
993
990
991
994
991
992
991
988
993
997
996
994
995
994
995
996
996
993
991
992
996
1001
1005
1005
1004
1004
1004
1005
1006
1006
1002
1000
1002
1004
1001
1002
999
999
1003
1005
1004
1000
997
990
984
983
976
971
968
963
962
962
959
955
955
954
954
955
956
955
953
953
953
954
957
955
956
954
956
959
959
958
956
954
957
959
961
958
954
955
957
961
962
962
962
959
960
963
964
965
963
962
965
963
967
966
964
966
968
969
970
970
968
965
962
960
959
961
967
981
1009
1037
1061
1083
1102
1114
1128
1149
1174
1199
1223
1242
1265
1283
1290
1293
1290
1284
1279
1267
1242
1208
1179
1155
1141
1117
1091
1061
1025
989
961
935
909
887
869
854
848
846
846
844
845
843
845
849
856
864
870
877
881
884
891
896
898
903
908
913
916
917
918
917
919
921
922
920
919
917
917
917
917
917
915
912
911
914
915
913
909
910
908
910
909
908
906
904
905
907
908
906
904
907
908
910
910
911
911
913
916
921
922
924
926
927
933
938
940
944
945
947
950
956
960
965
964
969
973
978
981
982
987
987
992
995
996
1000
1000
1004
1007
1010
1013
1014
1011
1013
1014
1016
1018
1017
1015
1010
1013
1014
1013
1014
1013
1009
1010
1010
1010
1010
1007
1005
1005
1005
1003
1003
999
997
998
1003
1004
1004
1004
1003
1003
1005
1005
1004
1005
999
1003
1011
1010
1011
1012
1012
1012
1013
1014
1014
1010
1008
1007
1010
1010
1011
1011
1010
1011
1011
1010
1006
995
987
983
979
974
970
965
961
961
961
962
961
959
956
958
960
960
961
958
959
960
962
964
963
962
961
964
962
963
966
964
963
962
965
968
967
963
962
964
967
966
966
965
965
967
970
969
969
971
968
972
973
972
972
970
965
964
962
963
963
966
982
1009
1034
1062
1087
1105
1120
1145
1174
1204
1233
1253
1276
1297
1308
1312
1312
1308
1297
1280
1252
1219
1187
1161
1135
1108
1081
1049
1011
976
943
914
887
869
856
847
840
841
842
847
848
844
844
854
864
873
877
884
885
891
897
901
902
906
907
913
918
920
919
918
915
916
918
917
915
913
912
913
913
915
912
910
908
909
908
909
908
905
904
905
905
904
907
904
902
904
906
906
906
903
905
908
910
910
912
915
915
915
921
925
927
928
928
935
941
945
945
948
951
955
963
965
969
972
973
979
985
988
992
994
995
998
1002
1004
1005
1006
1007
1007
1011
1012
1012
1012
1010
1010
1011
1011
1012
1010
1008
1008
1006
1006
1003
1003
998
1000
999
999
998
995
995
993
996
1000
999
1000
999
999
998
1000
999
999
993
999
1000
1006
1004
1006
1005
1005
1006
1006
1004
1000
999
1002
1002
1007
1006
1006
1003
1000
1001
996
987
979
974
971
967
963
958
956
954
955
955
954
954
951
952
954
956
959
958
956
955
956
959
958
960
958
958
961
962
963
963
962
958
962
963
967
967
964
963
967
968
968
967
964
967
967
970
970
966
965
959
955
958
961
970
989
1017
1050
1077
1102
1118
1133
1157
1189
1223
1252
1277
1297
1309
1321
1323
1326
1315
1298
1273
1238
1205
1179
1151
1122
1085
1048
1006
969
937
903
874
859
846
839
834
831
831
836
840
839
842
849
858
868
876
881
882
885
888
895
902
909
910
912
910
913
914
915
913
913
909
908
909
911
911
907
903
905
906
906
902
900
898
899
901
902
901
897
894
898
899
898
898
898
896
898
900
902
903
901
899
903
907
911
910
914
914
919
921
925
930
932
932
939
943
948
951
954
956
962
968
971
977
978
980
986
991
995
999
1000
1001
1006
1009
1012
1013
1010
1010
1012
1013
1014
1012
1011
1008
1012
1012
1013
1009
1006
1005
1006
1005
1004
1000
998
996
996
997
997
997
998
997
1000
1002
1003
1001
999
997
999
999
999
1001
1000
1004
1005
1006
1007
1005
1003
1001
1001
1002
1002
1001
1001
1000
1001
1006
1006
1003
998
990
984
982
977
970
966
961
959
959
960
956
955
952
955
954
957
955
956
952
952
955
954
957
954
954
954
955
960
960
959
957
959
960
960
961
961
958
960
960
962
962
961
964
966
967
967
967
968
967
967
969
969
966
962
956
954
955
958
963
980
1004
1032
1064
1090
1111
1126
1144
1177
1213
1244
1274
1296
1314
1325
1332
1335
1325
1314
1292
1253
1214
1184
1156
1126
1093
1056
1016
973
939
904
876
854
844
832
829
823
825
826
832
831
833
837
844
854
865
871
876
879
881
887
896
901
904
905
906
908
910
911
910
909
905
905
906
908
904
901
900
900
901
900
900
899
892
894
897
896
896
894
891
891
892
891
890
892
891
893
896
898
898
895
894
898
900
904
902
907
905
910
915
917
922
920
923
928
932
938
938
943
942
948
956
960
962
966
966
970
975
981
982
982
985
988
993
997
1000
999
1000
1004
1007
1009
1008
1008
1006
1006
1007
1009
1006
1004
1000
1001
1001
1003
1002
998
996
995
996
996
994
990
987
989
992
992
991
991
990
995
994
993
992
990
988
991
993
995
997
997
998
1003
1003
1003
1003
1000
996
996
996
996
996
996
997
999
1000
1001
995
989
980
973
972
968
962
957
955
953
954
954
953
951
948
948
951
954
957
952
952
954
954
955
954
952
952
953
956
957
958
956
954
955
958
960
957
957
956
958
960
962
961
960
959
961
964
966
967
965
964
965
966
970
966
962
958
958
967
978
997
1023
1054
1082
1108
1129
1144
1162
1186
1214
1243
1268
1291
1304
1308
1309
1311
1300
1283
1254
1214
1180
1154
1126
1103
1073
1035
996
961
928
897
871
852
840
833
830
831
830
830
831
834
840
846
853
858
867
874
880
881
884
888
895
901
904
905
908
907
909
913
910
911
909
908
908
909
908
910
906
903
900
906
907
904
905
901
901
903
903
902
901
896
897
899
900
898
899
895
899
901
901
902
901
900
903
904
907
909
911
911
915
922
922
925
927
927
931
933
941
944
944
945
949
954
958
960
960
964
967
971
976
977
979
979
983
991
994
996
993
995
998
1002
1003
1005
1005
1000
1003
1003
1008
1008
1006
1005
1006
1008
1008
1007
1005
1001
1002
1000
1003
1000
996
994
994
993
993
990
989
986
988
992
996
995
993
990
992
993
996
993
993
990
989
993
998
1000
1001
1005
1005
1006
1008
1003
1002
999
1000
1000
1003
1002
1002
998
1001
1004
1004
1002
998
991
985
981
977
972
967
959
957
958
956
958
956
952
954
953
958
955
955
951
955
958
959
959
958
955
959
960
959
959
958
955
959
962
962
961
960
958
959
963
963
963
963
961
961
965
967
967
967
964
969
971
971
971
969
965
970
968
964
964
964
971
984
1009
1035
1062
1085
1103
1117
1132
1151
1176
1199
1219
1241
1260
1274
1277
1280
1274
1269
1259
1244
1211
1181
1154
1133
1117
1091
1064
1029
989
957
931
905
885
870
858
851
847
846
847
847
847
848
849
856
861
867
874
878
883
887
892
894
896
904
910
912
915
914
915
919
923
922
922
920
918
919
920
922
919
918
915
916
919
918
917
915
911
914
915
917
915
912
911
912
912
913
910
909
906
907
910
912
914
913
913
918
919
922
921
922
922
927
929
934
934
937
937
941
947
950
952
952
955
959
963
968
970
971
975
976
985
986
988
988
988
993
996
1000
1002
1002
1002
1007
1010
1014
1012
1013
1013
1016
1017
1017
1019
1017
1014
1014
1018
1017
1015
1013
1011
1011
1011
1012
1010
1010
1006
1008
1007
1007
1006
1004
1002
1004
1004
1005
1004
1004
1000
1007
1007
1009
1008
1004
1002
1001
1006
1008
1005
1007
1006
1010
1013
1016
1016
1013
1012
1013
1013
1014
1011
1008
1008
1011
1011
1015
1014
1013
1012
1010
1010
1009
1002
995
986
983
980
978
972
968
962
962
963
965
963
961
960
960
962
965
963
962
960
960
962
964
965
965
963
965
965
969
967
965
965
967
966
970
968
968
965
967
968
970
971
969
968
969
970
972
972
972
972
974
975
976
975
971
968
963
964
965
966
974
992
1026
1054
1086
1102
1114
1130
1163
1195
1222
1250
1271
1283
1293
1295
1297
1289
1267
1237
1201
1176
1157
1134
1105
1072
1037
1004
972
940
912
887
873
862
855
852
848
847
852
854
856
858
862
866
876
882
889
891
894
896
903
905
913
915
918
917
920
923
925
925
923
921
922
920
921
921
919
915
916
917
917
916
915
912
912
914
915
913
910
908
909
912
913
912
911
909
910
913
914
914
913
908
915
916
921
919
921
921
925
928
931
932
934
935
940
944
947
949
952
954
957
962
967
970
969
973
976
981
985
987
990
990
995
998
1000
1002
1003
1005
1005
1010
1013
1012
1012
1011
1013
1015
1013
1015
1013
1011
1009
1013
1015
1013
1011
1011
1011
1010
1011
1010
1008
1004
1004
1005
1004
1003
1002
999
999
1002
1005
1006
1004
1003
1004
1006
1005
1004
1003
1001
1003
1003
1005
1005
1005
1005
1007
1012
1014
1012
1010
1009
1008
1009
1008
1004
1002
1002
1006
1006
1008
1007
1006
1006
1008
1008
1004
999
994
985
982
980
976
971
968
964
962
961
963
960
959
956
956
960
962
962
959
956
959
960
963
964
959
956
960
962
963
965
963
962
965
965
967
965
966
965
967
968
969
969
965
965
969
971
973
970
972
969
970
972
974
974
970
968
964
965
961
961
964
973
996
1019
1046
1072
1090
1108
1126
1149
1182
1208
1237
1262
1286
1303
1313
1315
1311
1300
1285
1258
1223
1185
1157
1130
1101
1072
1036
995
958
927
902
882
866
853
844
840
843
845
846
848
847
849
861
872
879
887
890
890
897
904
910
915
919
919
921
920
923
924
918
916
919
920
917
916
914
911
912
914
913
914
911
908
909
911
911
909
908
906
907
909
910
908
906
907
907
907
911
912
910
910
913
916
918
917
919
918
922
924
926
931
931
932
936
941
945
947
950
952
955
961
965
969
970
971
976
982
986
989
988
990
996
998
1003
1007
1006
1007
1011
1012
1016
1015
1016
1015
1015
1017
1018
1017
1014
1012
1012
1013
1015
1011
1009
1008
1008
1006
1008
1004
1006
1002
1001
1002
1004
1001
1001
999
1001
1005
1003
1008
1008
1003
1006
1007
1009
1006
1005
1000
1004
1008
1012
1013
1012
1011
1010
1014
1014
1010
1005
1002
1006
1008
1010
1009
1008
1008
1009
1010
1012
1006
999
993
987
985
981
977
973
967
963
964
965
964
961
957
959
960
962
961
959
956
958
960
961
962
959
957
957
960
961
962
961
961
960
964
964
963
963
961
963
965
967
966
967
964
966
968
972
971
968
969
971
972
973
971
970
970
968
970
966
964
960
957
959
969
988
1013
1038
1062
1086
1104
1122
1140
1162
1191
1222
1251
1278
1299
1309
1315
1316
1317
1310
1294
1267
1226
1191
1165
1137
1109
1074
1032
994
958
925
900
873
856
847
842
838
836
835
837
839
841
842
846
854
859
869
876
882
886
888
891
898
902
907
912
911
913
914
914
919
918
917
914
914
915
915
914
910
908
909
910
911
907
905
904
902
904
903
900
899
899
899
900
899
899
897
896
899
900
901
901
902
900
902
908
910
910
910
910
913
917
920
924
926
924
929
932
938
938
939
940
944
947
951
955
954
956
962
966
972
973
975
975
981
987
989
991
993
992
994
999
1000
1005
1003
1003
1002
1006
1006
1004
1004
1000
1006
1007
1007
1005
1004
999
1002
1000
1001
999
998
995
995
994
995
991
989
987
987
988
990
991
991
991
991
993
991
993
993
989
992
991
989
991
989
992
995
1001
1002
1002
1001
995
999
999
999
999
996
993
994
993
992
988
985
982
976
973
968
962
950
939
932
926
926
930
941
956
971
981
986
995
1007
1029
1057
1088
1116
1136
1143
1123
1090
1045
998
940
882
838
811
787
774
764
753
745
737
722
707
703
705
708
713
716
718
719
726
730
737
745
755
761
771
779
792
802
816
827
837
848
859
871
885
896
904
910
923
933
943
949
953
955
957
962
971
973
978
974
978
983
986
987
989
989
991
994
994
995
995
994
995
999
1002
1003
1005
1005
1010
1014
1016
1018
1020
1022
1026
1029
1035
1036
1038
1039
1045
1048
1052
1056
1059
1057
1062
1066
1071
1076
1078
1075
1080
1086
1088
1091
1092
1091
1095
1097
1099
1101
1101
1100
1103
1100
1103
1102
1101
1099
1102
1103
1103
1101
1096
1091
1092
1090
1090
1087
1082
1077
1075
1074
1075
1069
1065
1060
1057
1057
1057
1053
1047
1043
1038
1040
1037
1036
1032
1026
1025
1026
1025
1023
1019
1013
1016
1013
1012
1013
1005
1002
1002
1003
1001
997
993
990
991
995
995
992
989
986
986
987
988
988
983
981
982
982
982
980
979
979
976
980
979
979
978
975
975
977
978
975
977
975
972
975
973
972
973
971
971
975
979
979
979
979
982
984
985
985
983
984
984
989
988
992
994
993
996
1000
1002
1002
999
994
995
996
998
999
998
995
995
998
1000
995
989
980
976
972
971
964
960
954
954
952
956
955
951
949
951
952
954
955
953
950
954
953
953
953
956
951
953
955
957
956
954
953
954
952
955
956
955
954
955
956
958
960
956
956
958
960
961
964
961
959
961
964
964
964
963
959
956
960
965
975
995
1026
1057
1085
1102
1120
1133
1153
1183
1208
1231
1249
1265
1268
1274
1272
1268
1256
1236
1203
1173
1150
1128
1106
1080
1046
1008
975
945
917
890
867
849
839
838
834
832
830
833
836
837
842
845
851
859
865
871
874
875
879
885
892
898
901
901
901
906
906
910
909
908
906
905
906
908
904
904
901
905
905
906
903
901
899
899
901
902
902
900
898
896
899
897
901
898
898
901
900
903
904
902
903
905
908
912
911
911
913
915
919
926
924
923
929
935
938
942
945
946
946
950
957
960
962
964
966
964
971
977
981
980
981
986
992
995
998
998
998
1000
1004
1006
1007
1006
1005
1007
1008
1010
1010
1011
1009
1008
1008
1011
1010
1007
1006
1005
1005
1005
1003
1002
999
1001
1003
1005
1005
1006
1006
1007
1006
1006
1004
1004
1004
1005
1007
1011
1011
1009
1010
1010
1011
1014
1011
1007
1004
1003
1006
1006
1006
1002
1003
1003
1003
999
994
984
974
972
970
966
960
956
950
949
950
951
953
950
948
950
953
955
954
952
951
949
953
955
955
957
953
955
956
958
956
956
954
956
957
959
960
959
957
956
960
965
960
961
958
963
965
966
965
962
958
953
954
956
961
977
999
1032
1062
1083
1098
1118
1142
1175
1206
1235
1253
1268
1272
1274
1272
1266
1245
1210
1176
1148
1128
1102
1064
1023
982
948
917
893
875
860
850
846
847
850
850
851
850
853
862
874
879
885
885
889
893
902
905
906
909
913
916
919
921
918
916
917
920
920
917
916
913
914
916
914
914
915
910
911
911
914
911
911
908
906
908
909
907
909
905
908
908
910
912
911
909
911
915
919
920
919
921
922
927
930
932
933
935
935
942
947
949
953
952
957
963
967
970
972
974
977
982
987
990
991
990
994
997
1000
1003
1000
999
1000
1007
1008
1011
1011
1007
1008
1011
1012
1011
1010
1010
1009
1009
1010
1009
1007
1004
1005
1004
1005
1003
1002
999
1000
998
998
998
994
992
991
994
993
990
988
987
991
992
994
994
996
994
995
995
998
999
998
1000
1002
1005
1008
1010
1012
1009
1011
1013
1015
1013
1009
1006
1010
1012
1014
1017
1014
1012
1010
1007
1004
997
990
981
979
975
975
969
966
964
965
967
967
965
966
963
963
966
969
969
966
965
967
968
969
970
971
966
968
972
973
972
968
969
970
972
974
973
970
967
973
973
975
975
975
973
972
976
977
977
973
969
968
965
964
966
972
987
1016
1047
1078
1102
1116
1134
1161
1193
1222
1251
1272
1290
1302
1306
1306
1300
1288
1271
1241
1205
1178
1154
1127
1098
1064
1031
993
956
925
898
877
864
855
850
847
845
848
852
855
856
861
868
877
884
889
889
895
895
900
909
916
919
920
919
922
925
925
924
923
919
920
919
922
920
920
915
915
918
918
919
916
913
913
913
915
912
912
909
912
911
913
911
913
908
909
912
913
912
913
913
912
914
919
920
919
920
923
929
933
936
936
937
941
947
953
955
954
957
961
964
973
975
976
977
981
986
990
992
992
992
997
1002
1003
1007
1008
1007
1010
1013
1017
1016
1015
1014
1018
1018
1021
1022
1021
1019
1019
1019
1020
1020
1019
1016
1013
1014
1014
1014
1011
1008
1007
1008
1008
1006
1005
1002
1004
1006
1009
1009
1009
1005
1008
1009
1012
1009
1007
1006
1008
1012
1016
1015
1017
1012
1014
1018
1020
1016
1011
1008
1010
1009
1012
1012
1013
1013
1013
1011
1012
1007
999
987
986
981
978
973
966
961
960
963
964
962
959
957
959
961
963
964
964
959
961
963
965
965
964
960
965
968
969
967
968
967
967
971
970
971
968
969
969
969
972
971
968
969
970
973
975
975
972
969
970
968
965
963
964
971
994
1022
1053
1078
1101
1115
1137
1166
1198
1227
1256
1276
1298
1310
1313
1312
1303
1291
1267
1235
1200
1168
1139
1107
1074
1037
995
958
922
894
875
861
850
847
842
840
842
846
849
847
854
861
871
878
888
890
893
896
901
907
912
915
916
915
917
919
922
921
919
915
913
917
916
916
915
911
911
912
913
913
910
907
905
906
909
909
907
905
906
906
908
905
905
904
906
907
911
911
910
908
911
913
918
919
919
918
922
925
930
930
931
932
934
940
945
945
949
950
954
956
962
964
967
965
971
974
