1059
1059
1059
1059
1059
1059
1059
1059
1059
1060
1061
1066
1070
1068
1063
1056
1043
1036
1041
1054
1063
1056
1037
1035
1048
1068
1072
1064
1056
1052
1052
1049
1046
1044
1046
1051
1052
1045
1035
1030
1026
1027
1021
1017
1012
1006
999
999
1002
1002
1002
998
998
997
996
994
989
992
991
990
987
985
988
991
989
984
981
981
987
990
986
978
978
982
989
992
990
986
985
986
991
992
988
986
989
988
989
985
984
988
987
985
982
975
976
987
1008
1029
1046
1058
1064
1065
1071
1090
1109
1131
1144
1150
1146
1139
1134
1131
1128
1122
1113
1102
1090
1078
1068
1059
1043
1020
995
968
943
926
915
910
900
892
884
886
890
892
893
892
896
901
905
906
909
908
908
912
921
927
929
927
927
931
932
932
932
930
929
931
930
927
927
923
923
924
926
926
925
923
918
918
920
924
925
923
920
921
923
923
921
921
920
924
927
925
926
927
928
928
928
933
934
937
935
941
941
943
945
947
947
950
954
954
951
949
954
963
971
973
969
967
968
976
982
981
979
980
976
978
984
986
988
987
985
987
993
992
989
987
987
988
990
990
988
989
991
995
999
999
997
992
987
985
992
995
994
988
982
986
988
987
981
977
976
984
992
995
989
985
984
986
990
987
983
980
981
985
987
985
982
976
971
969
965
960
953
949
943
939
937
934
936
936
936
938
940
938
937
933
930
929
933
932
931
927
927
930
933
934
932
932
934
936
937
933
929
928
929
935
938
930
926
923
927
935
939
938
934
930
931
933
936
932
927
927
925
927
925
925
927
941
961
983
999
1007
1014
1017
1030
1052
1075
1087
1098
1103
1104
1102
1103
1097
1093
1082
1068
1062
1058
1045
1028
1011
990
963
941
913
891
874
863
855
847
842
843
842
839
843
848
854
856
858
858
862
870
872
875
878
882
882
888
886
886
885
885
884
886
885
882
883
881
881
882
880
879
877
877
881
882
880
877
874
873
876
880
878
877
877
876
878
884
882
882
881
880
885
889
891
893
891
892
893
899
903
903
903
903
906
913
917
918
919
918
923
930
933
932
933
934
940
944
944
946
946
946
948
950
951
950
951
953
955
961
961
960
956
955
956
961
962
965
967
970
970
965
962
960
956
952
951
952
952
953
952
952
957
962
962
965
964
966
962
957
951
949
944
944
946
950
947
949
947
946
947
949
942
933
926
917
914
910
906
903
900
900
902
905
901
902
900
901
900
901
896
893
891
891
895
898
898
896
896
897
906
910
910
906
901
899
899
898
898
903
902
903
900
902
906
913
916
916
909
906
900
893
891
888
895
904
900
893
880
876
876
880
891
909
935
956
978
995
1005
1014
1023
1039
1064
1085
1106
1124
1136
1142
1141
1141
1135
1131
1120
1101
1086
1069
1056
1041
1031
1014
987
951
909
872
843
819
802
794
786
783
784
783
788
791
794
799
796
793
791
793
798
805
812
822
828
831
829
828
825
826
827
829
828
832
839
841
842
837
827
823
818
813
812
810
809
808
807
808
813
816
816
819
817
816
818
819
822
822
822
822
825
828
825
823
821
824
834
841
849
847
837
832
833
839
849
857
857
853
851
848
848
850
857
861
864
868
872
876
880
880
882
886
887
889
887
897
904
911
910
905
903
906
913
915
913
912
911
908
910
914
921
931
932
931
925
915
908
910
911
914
922
924
921
908
901
903
912
916
914
904
896
892
896
903
905
909
908
901
898
899
902
904
902
898
900
902
901
897
891
883
877
871
862
861
861
863
865
861
852
847
847
853
858
860
855
850
855
860
863
860
856
851
853
852
854
864
869
870
865
855
850
850
849
846
841
841
846
854
856
853
848
845
844
851
854
853
852
845
842
847
854
858
856
854
852
850
844
838
831
838
858
893
928
952
965
978
984
988
995
1008
1019
1036
1053
1065
1066
1061
1052
1044
1039
1034
1021
1005
989
976
965
953
934
915
890
856
825
798
776
755
732
719
713
709
708
711
715
723
725
731
730
734
738
743
749
759
764
764
765
770
776
783
786
792
793
795
798
804
803
801
800
800
802
804
804
800
801
802
804
805
805
805
804
805
804
805
802
802
802
804
806
808
807
806
806
807
810
812
811
810
810
810
815
820
820
818
820
818
826
831
832
831
833
832
838
844
843
846
847
851
853
857
859
860
861
863
866
872
873
877
876
879
880
884
886
889
889
889
893
897
897
896
895
896
899
901
904
902
902
904
909
910
909
910
909
911
913
912
912
914
909
907
905
902
904
904
906
908
910
914
915
914
911
910
913
916
913
909
907
907
907
910
912
911
908
906
904
901
894
885
877
870
867
866
860
856
852
851
850
848
850
848
847
846
851
853
850
850
850
850
851
853
854
852
854
855
858
856
857
857
858
859
861
861
861
858
861
859
864
865
861
860
862
864
866
865
863
864
864
862
861
861
858
855
858
868
889
908
927
944
954
958
965
974
993
1010
1022
1040
1051
1053
1050
1049
1047
1047
1044
1033
1022
1007
998
992
982
969
947
925
898
874
852
822
801
786
778
778
776
776
775
777
776
776
780
785
790
796
799
804
809
815
816
818
824
834
839
840
841
842
843
845
847
850
848
842
842
845
849
846
847
846
846
850
852
846
846
841
846
850
850
852
847
849
847
848
852
853
851
850
849
852
856
856
860
854
856
860
862
860
864
866
871
873
878
878
879
877
881
884
888
889
888
889
890
894
900
904
902
906
907
908
916
918
917
917
919
922
926
930
931
931
930
934
940
940
938
936
936
939
943
942
942
944
946
948
947
949
947
948
954
953
954
949
947
943
942
946
950
950
948
946
949
952
952
952
948
948
949
948
951
945
947
946
941
946
950
952
951
946
940
937
934
927
922
915
908
905
903
901
900
896
896
898
897
894
892
888
889
890
891
893
892
888
885
887
887
886
889
887
887
887
890
891
892
888
887
888
891
892
888
885
887
891
894
894
893
891
891
893
896
896
894
891
894
894
890
887
881
883
889
905
926
947
967
983
989
996
1009
1028
1045
1062
1076
1088
1099
1100
1096
1094
1089
1087
1084
1070
1053
1035
1023
1013
995
974
942
913
884
861
839
822
808
799
793
792
792
793
793
791
797
804
813
817
821
822
827
832
837
844
845
842
848
851
859
861
862
861
860
859
862
860
859
859
861
860
862
862
861
858
860
862
863
863
861
859
857
860
865
865
863
863
861
865
864
867
868
866
868
870
874
874
873
875
880
886
886
888
887
887
891
896
901
903
902
902
905
905
909
915
917
915
921
924
926
929
932
932
934
937
940
940
939
944
943
944
949
950
948
947
952
951
957
956
958
957
957
962
961
963
960
957
958
962
964
961
958
952
949
950
959
961
961
958
957
962
962
961
963
961
959
960
959
955
952
947
950
953
953
951
951
949
943
937
934
926
917
907
907
905
904
902
901
901
901
900
903
903
900
899
899
899
902
905
902
902
902
904
906
905
906
902
900
904
907
905
903
902
901
903
908
905
905
904
904
905
908
909
908
907
909
911
914
913
911
906
908
911
913
910
909
906
910
923
943
968
994
1024
1047
1053
1052
1054
1059
1065
1074
1088
1106
1116
1120
1119
1118
1120
1119
1112
1094
1075
1058
1042
1031
1013
988
956
927
902
883
861
841
821
812
808
807
807
806
808
809
813
817
819
826
831
839
846
853
857
858
861
868
873
880
884
886
887
889
893
893
895
892
887
888
892
895
894
892
888
885
887
888
889
888
885
881
882
888
888
887
885
883
889
891
888
885
885
887
889
889
891
892
892
893
896
898
900
900
900
902
903
905
906
907
908
910
917
921
922
925
923
929
929
934
937
940
937
942
947
948
949
948
950
952
955
958
959
961
958
963
968
971
972
971
972
975
977
981
982
980
978
981
984
986
986
985
982
982
983
985
983
982
980
978
977
976
978
977
975
975
980
984
984
983
980
980
979
983
982
976
972
971
971
971
972
972
973
972
970
965
960
954
948
942
938
933
933
929
925
923
925
926
926
927
926
925
923
924
922
919
920
922
926
926
926
924
922
921
919
923
923
922
921
922
924
926
924
927
924
923
921
922
926
928
929
929
930
929
928
929
926
925
930
931
933
931
928
925
928
929
931
939
952
975
1003
1031
1052
1071
1080
1085
1090
1100
1112
1127
1137
1155
1167
1170
1168
1161
1151
1141
1130
1115
1093
1072
1056
1038
1018
996
972
946
916
890
868
851
832
811
796
791
790
794
798
798
798
801
806
814
821
821
827
835
842
849
855
859
861
867
873
877
881
885
883
881
883
888
890
886
885
887
889
891
890
887
887
889
889
889
886
888
887
886
887
887
886
886
884
887
888
890
891
890
888
885
886
892
893
893
896
896
900
902
904
906
906
908
911
917
919
918
919
926
932
937
938
940
938
939
945
947
950
952
953
957
960
964
964
965
966
970
973
974
976
977
976
979
983
984
982
982
981
984
987
991
994
992
990
989
988
991
990
987
980
980
982
983
983
984
983
987
988
989
986
984
981
981
979
980
979
976
971
974
976
980
974
966
959
955
955
950
945
937
932
931
930
930
933
931
929
926
930
926
927
928
922
926
929
931
927
924
925
926
925
925
923
921
916
916
920
921
923
925
924
924
928
926
925
927
925
925
930
933
934
939
945
952
954
951
946
936
926
921
922
935
957
982
1006
1030
1047
1060
1062
1073
1082
1090
1096
1106
1109
1111
1104
1097
1096
1092
1084
1067
1055
1042
1033
1021
1006
987
960
935
913
895
874
850
832
827
831
835
835
827
823
825
833
846
856
861
857
854
851
851
857
867
881
893
896
895
890
887
886
891
897
901
901
901
901
900
902
904
905
901
899
897
897
895
901
900
898
897
899
904
905
904
904
904
905
910
910
909
911
915
917
919
918
915
914
916
920
920
923
925
923
926
929
936
937
937
940
944
947
950
953
954
954
957
960
962
968
967
966
969
971
975
976
975
974
974
980
982
982
985
984
987
989
993
991
991
989
993
997
1000
999
995
993
994
994
997
994
992
988
991
995
994
994
997
995
995
997
995
993
990
984
983
983
985
988
985
987
992
992
990
979
970
966
962
962
957
953
946
942
940
937
940
941
936
935
933
937
938
940
937
934
933
935
935
939
937
937
935
938
940
939
938
936
937
941
943
942
941
937
940
942
940
942
936
934
936
943
942
944
942
943
940
940
938
937
935
941
959
987
1010
1024
1029
1031
1043
1061
1084
1101
1111
1110
1111
1110
1110
1105
1096
1079
1066
1056
1047
1033
1015
990
966
942
917
890
869
853
846
841
840
840
845
843
840
844
854
864
868
871
873
880
889
894
895
898
903
906
907
909
909
908
909
912
913
910
907
904
908
909
910
910
909
905
909
912
912
911
909
907
908
911
912
913
910
908
911
913
917
919
914
917
920
922
924
927
925
926
928
931
935
937
941
941
944
947
945
949
954
956
956
963
965
969
968
969
973
975
978
979
978
979
983
984
989
988
989
993
991
996
997
1002
999
1001
1004
1008
1007
1008
1008
1004
1003
1002
1001
1000
1002
1000
1005
1007
1009
1010
1007
1002
1003
1006
1005
1004
1001
997
996
995
996
997
996
993
991
986
982
975
971
964
960
954
953
949
943
943
944
945
944
944
942
940
940
943
942
943
942
938
939
943
946
944
943
939
941
946
944
946
945
944
943
943
944
945
942
939
943
946
948
949
944
943
945
950
951
952
948
945
943
943
941
940
939
949
973
997
1021
1036
1040
1042
1056
1078
1103
1122
1135
1142
1147
1147
1145
1140
1129
1110
1095
1083
1072
1057
1036
1005
973
944
919
894
871
857
850
848
850
848
848
846
848
850
857
865
867
872
878
883
890
894
894
897
903
909
913
914
913
912
916
916
915
915
916
914
912
915
917
918
916
912
914
915
917
918
915
913
913
916
919
921
920
917
919
924
925
926
925
925
925
931
931
934
932
932
937
941
940
943
942
942
948
951
958
959
961
961
961
967
972
976
978
977
977
980
983
987
984
984
988
992
998
1001
1001
997
998
999
1003
1003
1005
1008
1013
1022
1026
1026
1020
1017
1025
1034
1037
1027
1011
994
988
991
995
1001
1003
1005
1009
1011
1011
1008
1008
1010
1010
1012
1012
1012
1009
1003
1001
1001
1001
1002
1002
997
993
989
984
980
975
972
973
972
968
960
954
951
956
971
983
987
979
964
952
943
937
933
929
929
933
935
939
944
945
944
939
938
941
946
947
942
939
939
944
949
953
953
955
958
965
969
972
967
967
964
958
954
954
959
961
958
953
953
959
977
995
1010
1016
1025
1037
1052
1070
1090
1105
1111
1116
1128
1149
1163
1164
1154
1143
1139
1143
1144
1134
1119
1105
1090
1077
1063
1044
1015
981
943
912
886
874
864
854
840
835
833
835
841
838
840
851
862
870
876
881
888
891
900
904
906
907
912
923
928
929
928
926
933
939
941
946
953
952
939
927
919
923
918
912
900
897
898
901
901
903
903
903
902
905
906
905
906
909
911
911
919
921
923
924
925
929
934
936
940
944
957
968
974
970
958
942
935
940
953
967
977
984
983
987
994
995
989
983
987
993
1001
1001
999
1000
994
991
988
985
979
984
993
1013
1034
1039
1038
1027
1014
1008
1008
1012
1018
1027
1035
1040
1043
1046
1053
1045
1019
997
989
995
1002
1000
990
985
994
1003
1012
1018
1013
1011
1008
1003
993
981
968
965
966
967
963
962
960
962
964
968
962
960
964
973
977
967
951
944
943
953
950
943
936
939
944
950
954
954
953
954
956
954
954
950
954
956
957
957
958
960
959
960
961
967
968
966
968
971
976
978
970
964
955
951
952
955
956
957
962
977
1002
1023
1041
1057
1065
1064
1064
1074
1093
1113
1132
1151
1169
1183
1185
1182
1175
1173
1169
1160
1138
1121
1109
1096
1082
1064
1037
1009
981
959
938
918
901
885
875
869
867
864
864
865
865
864
862
867
871
879
885
893
899
903
906
906
906
912
917
922
929
929
932
934
937
940
940
936
937
939
940
937
939
937
936
934
937
938
936
935
932
934
936
938
939
936
934
936
939
939
941
939
936
939
940
942
943
941
942
943
947
952
953
951
951
956
960
963
963
965
966
971
977
979
980
979
976
981
986
992
996
997
997
1000
1005
1008
1009
1009
1009
1013
1018
1018
1018
1021
1021
1023
1027
1031
1031
1031
1030
1035
1039
1043
1044
1045
1043
1045
1047
1046
1045
1039
1037
1037
1040
1043
1043
1046
1043
1044
1046
1043
1042
1040
1036
1038
1037
1036
1037
1036
1035
1036
1040
1039
1035
1028
1021
1014
1011
1006
1002
997
989
985
982
982
982
980
975
974
977
980
978
978
976
975
977
978
977
976
973
974
978
977
976
971
973
972
974
978
977
977
976
978
979
977
976
976
976
980
981
983
982
981
980
979
982
982
982
981
977
973
972
971
971
970
974
993
1016
1034
1054
1067
1079
1088
1102
1122
1143
1162
1180
1196
1211
1218
1220
1214
1212
1207
1200
1184
1161
1141
1123
1106
1087
1064
1038
1004
971
949
928
906
888
874
866
859
858
857
857
858
855
855
860
869
873
878
884
890
894
899
902
903
906
913
921
926
926
928
926
931
933
933
935
934
932
931
932
931
933
929
929
929
932
931
932
929
927
925
927
928
928
924
922
923
926
926
925
925
924
924
927
930
929
930
929
930
934
937
937
937
938
941
942
946
946
947
947
949
951
957
961
962
961
963
967
973
975
977
976
979
981
989
992
995
993
994
997
1000
1000
1002
1002
1004
1008
1012
1014
1015
1013
1016
1016
1022
1027
1028
1027
1024
1026
1029
1029
1028
1027
1027
1029
1027
1023
1019
1017
1019
1024
1029
1030
1027
1023
1021
1023
1023
1023
1018
1017
1017
1017
1018
1017
1012
1011
1014
1016
1015
1012
1005
997
992
988
984
979
971
966
960
959
957
955
952
947
950
952
957
955
955
952
951
954
957
956
953
951
952
955
957
955
952
951
952
954
957
955
954
949
954
956
960
959
957
955
955
956
958
963
961
958
958
962
961
962
959
953
954
963
980
1002
1028
1048
1064
1081
1093
1103
1110
1123
1137
1155
1172
1185
1188
1183
1175
1170
1164
1154
1136
1113
1097
1083
1066
1046
1025
994
963
934
913
892
870
850
839
834
830
832
829
829
834
836
841
845
852
856
860
869
874
880
879
883
887
896
902
902
904
902
909
915
918
918
915
913
912
913
914
915
912
911
911
911
916
912
911
908
911
913
916
914
912
912
915
916
919
917
917
915
917
919
922
923
924
924
929
932
937
937
935
935
940
942
945
947
944
948
950
952
956
960
959
958
961
967
971
973
978
979
982
983
989
989
992
989
990
992
997
996
997
997
1000
1002
1004
1007
1007
1006
1011
1014
1016
1014
1015
1014
1016
1020
1021
1017
1013
1009
1007
1014
1016
1016
1014
1013
1009
1009
1011
1011
1009
1008
1007
1009
1011
1010
1009
1005
1003
1006
1008
1008
1006
1002
998
997
990
987
979
971
966
963
959
956
951
952
953
954
953
952
951
949
951
951
954
952
948
950
950
954
953
949
948
945
948
951
953
957
953
951
951
950
953
952
952
950
952
951
954
954
955
950
951
953
954
955
956
958
959
960
957
952
948
946
951
960
983
1008
1029
1041
1053
1058
1063
1072
1083
1095
1110
1126
1141
1143
1142
1134
1133
1132
1130
1125
1111
1096
1084
1071
1059
1046
1024
999
975
953
931
