1009
1009
1007
1003
1001
1001
1006
1009
1006
1007
1005
1009
1011
1011
1010
1005
1006
1008
1011
1014
1014
1016
1017
1016
1021
1020
1018
1015
1011
1011
1014
1013
1015
1016
1015
1016
1018
1017
1014
1012
1007
1002
998
995
990
984
981
978
973
973
971
971
970
968
969
970
968
969
965
969
969
970
972
972
969
971
975
973
972
971
971
972
972
975
972
972
970
971
974
975
976
972
971
975
978
978
975
977
975
979
979
981
980
980
979
981
982
977
973
969
968
973
984
1005
1029
1052
1074
1101
1117
1130
1148
1172
1199
1229
1255
1279
1295
1303
1306
1309
1307
1299
1279
1247
1211
1183
1162
1141
1113
1083
1048
1014
984
956
933
911
892
878
870
864
860
857
857
861
862
864
863
867
873
882
891
896
897
903
903
909
914
921
923
923
925
929
929
931
931
930
928
929
932
931
929
926
925
924
924
924
922
920
918
920
923
923
920
917
916
917
916
916
917
915
914
915
918
918
917
916
915
916
919
920
920
919
920
923
928
927
931
931
931
935
940
941
942
944
947
950
956
962
961
964
962
966
976
979
980
981
980
988
992
996
995
997
997
1003
1007
1009
1009
1008
1009
1009
1015
1015
1014
1013
1015
1016
1015
1019
1018
1014
1014
1013
1016
1015
1014
1012
1008
1007
1009
1011
1010
1004
1002
1006
1006
1007
1003
1001
998
999
1002
1004
1003
1002
1001
1005
1006
1006
1006
1000
1004
1004
1006
1008
1008
1009
1010
1012
1014
1016
1014
1012
1009
1008
1009
1010
1009
1009
1007
1009
1012
1013
1012
1008
1004
999
995
990
985
980
974
971
971
968
966
963
962
963
964
963
965
964
963
965
967
968
967
964
963
965
968
968
967
966
966
970
969
970
971
969
969
972
971
972
972
972
969
971
975
975
976
974
974
975
976
978
973
973
968
965
964
964
971
987
1013
1040
1068
1094
1108
1123
1146
1178
1209
1241
1267
1287
1303
1313
1312
1309
1301
1279
1244
1208
1177
1149
1122
1086
1049
1008
972
940
910
883
865
855
848
845
844
844
846
847
853
858
864
871
878
884
891
894
897
902
908
912
917
921
921
920
922
922
923
922
921
917
916
917
918
916
917
914
913
912
913
913
911
910
907
909
908
908
906
907
907
904
908
907
907
906
905
905
911
910
909
911
911
917
920
921
923
925
926
929
933
937
939
939
941
947
949
955
957
958
961
966
972
975
976
978
982
984
990
993
994
995
998
1003
1006
1008
1006
1008
1007
1009
1011
1011
1011
1010
1010
1012
1016
1016
1014
1012
1009
1009
1011
1011
1011
1008
1003
1004
1003
1004
1002
999
996
995
998
997
996
995
994
997
1001
1002
1000
1001
1000
1000
1002
1001
1000
998
998
1001
1006
1008
1008
1007
1007
1007
1011
1010
1008
1005
1004
1007
1009
1010
1008
1008
1006
1010
1009
1010
1009
1001
993
989
985
981
977
970
966
967
965
964
965
963
961
962
966
967
964
964
962
963
962
967
967
963
962
964
967
967
967
963
964
966
969
971
968
967
966
967
969
970
969
970
970
971
973
975
974
972
972
971
971
971
966
961
960
968
981
1006
1034
1064
1091
1115
1129
1147
1170
1196
1225
1252
1280
1299
1309
1311
1303
1295
1279
1248
1206
1167
1136
1109
1081
1042
998
957
922
895
872
858
848
842
839
843
846
850
850
850
856
869
877
884
890
891
894
902
908
912
915
916
918
919
923
923
919
915
913
916
919
919
916
913
911
914
912
912
910
908
903
906
906
909
906
903
902
904
904
906
905
904
905
905
907
910
911
912
910
913
917
919
918
922
920
925
928
932
934
937
941
943
948
952
956
959
960
966
968
971
976
978
977
983
985
991
993
993
994
996
1004
1004
1005
1005
1005
1007
1008
1009
1006
1007
1005
1004
1008
1006
1004
1001
999
1001
1003
1000
998
997
994
995
995
992
991
989
987
990
991
990
991
990
990
992
995
996
995
992
992
993
994
993
992
991
991
996
998
1003
1003
1000
1001
1004
1006
1003
1002
1000
998
1001
1002
1003
1003
1002
999
1001
1000
995
987
981
976
975
971
966
962
959
957
958
958
959
960
957
954
956
958
958
958
956
952
958
957
959
959
955
957
960
959
962
958
959
958
958
962
963
964
962
959
963
964
965
963
965
964
965
966
968
969
963
965
966
966
966
961
958
958
966
978
1003
1031
1056
1081
1102
1117
1129
1148
1170
1196
1223
1244
1258
1268
1269
1265
1262
1254
1235
1203
1168
1141
1119
1099
1072
1036
998
960
930
908
885
868
853
846
845
847
851
852
852
853
859
867
878
884
888
888
894
897
904
907
910
912
917
921
924
923
921
920
921
921
923
920
920
918
919
920
921
920
917
913
916
919
916
914
912
911
913
913
911
910
909
908
909
913
911
912
913
910
913
914
918
919
919
920
925
928
931
931
931
933
938
940
945
945
948
946
955
957
960
963
964
966
971
976
980
981
982
983
986
993
994
996
996
998
1001
1004
1006
1007
1008
1007
1011
1012
1013
1012
1011
1009
1011
1013
1013
1011
1008
1003
1005
1006
1004
1002
1000
998
1001
1003
1000
998
993
993
992
993
993
992
992
993
992
999
1000
1002
999
996
999
998
1000
1002
1002
1001
1001
1005
1008
1009
1008
1007
1009
1012
1011
1007
1005
1004
1006
1008
1008
1008
1007
1007
1007
1009
1005
1000
993
984
980
979
973
971
965
961
962
962
963
961
960
957
958
957
958
960
958
956
958
960
960
959
957
956
958
960
961
963
962
960
959
961
963
960
960
959
962
964
964
965
965
963
965
966
968
966
967
966
967
968
972
970
969
966
966
963
960
958
958
967
987
1011
1038
1064
1084
1099
1114
1139
1166
1194
1215
1239
1263
1277
1284
1284
1280
1276
1265
1250
1219
1185
1162
1138
1118
1095
1065
1028
990
957
932
908
887
869
857
850
848
847
847
849
850
849
855
860
871
877
883
886
890
896
899
904
908
911
914
920
922
921
922
923
923
927
926
922
917
915
917
918
916
916
913
913
913
913
912
909
908
905
906
905
907
906
909
906
908
909
910
908
907
908
909
912
913
915
913
916
918
922
927
927
926
926
932
937
941
942
944
944
949
953
957
960
961
964
969
975
978
983
982
983
989
992
993
996
997
998
1001
1006
1008
1008
1007
1006
1008
1012
1013
1011
1010
1009
1009
1012
1010
1008
1007
1003
1004
1005
1006
1003
998
996
997
997
997
995
993
990
991
991
994
995
994
993
997
1001
999
999
996
996
997
1000
1004
1004
1003
1000
1006
1009
1009
1008
1007
1004
1003
1003
1003
1003
1002
1000
1004
1007
1006
1002
1000
995
990
986
982
975
968
963
965
961
960
960
956
958
956
960
959
959
957
958
958
960
961
960
959
960
959
961
963
962
960
957
962
962
963
963
963
959
961
963
965
964
963
964
967
966
969
968
969
966
970
971
972
970
968
967
966
962
959
957
961
965
989
1014
1040
1065
1085
1098
1116
1138
1166
1192
1215
1237
1261
1281
1291
1293
1294
1289
1281
1266
1236
1201
1168
1143
1119
1096
1068
1034
996
961
934
909
885
869
855
846
845
844
845
845
846
846
848
856
862
868
876
880
888
893
894
898
899
905
910
914
918
917
916
917
917
918
920
920
919
915
914
914
916
914
912
910
912
914
913
910
909
905
908
910
908
903
903
901
902
906
905
904
903
902
904
907
907
908
907
908
908
912
915
914
915
914
920
922
926
930
931
934
936
941
943
946
947
948
955
959
963
966
968
966
975
977
984
983
986
986
988
993
996
998
1000
998
1001
1005
1006
1006
1004
1004
1005
1008
1009
1007
1005
1005
1008
1004
1007
1006
1002
1000
1001
1002
1000
999
996
993
993
994
992
992
987
985
988
989
989
993
991
990
994
995
997
994
993
991
994
996
997
998
1000
1001
1003
1004
1005
1004
1000
997
997
1000
999
1002
997
998
1001
1003
999
995
993
986
982
979
977
971
966
959
960
958
959
958
953
951
952
956
954
955
954
954
955
954
955
956
958
957
958
960
959
958
957
954
959
961
961
960
959
959
961
962
963
961
960
959
963
964
964
963
964
962
964
967
965
964
958
955
952
955
957
964
980
1005
1034
1061
1084
1099
1116
1135
1165
1197
1227
1251
1269
1284
1298
1301
1299
1293
1278
1253
1222
1188
1163
1136
1109
1085
1051
1018
980
944
917
890
868
855
846
838
833
831
836
840
842
842
843
850
861
869
873
878
880
883
887
895
899
904
906
906
909
911
913
913
911
909
910
913
913
910
909
907
908
909
909
907
904
904
904
903
906
904
903
898
898
901
900
900
898
896
896
898
898
899
898
898
897
900
901
902
901
901
904
907
911
913
913
912
917
923
924
926
928
929
933
935
943
944
948
949
952
957
962
963
966
967
969
974
977
979
981
981
986
991
993
993
994
996
999
1001
1001
1004
1004
1001
1003
1004
1006
1005
1004
1004
1002
1006
1004
1002
1001
998
998
997
997
995
994
991
992
991
991
990
988
983
985
986
983
984
984
987
987
992
991
989
988
986
988
991
995
992
994
994
999
1001
1000
1000
999
996
997
997
996
997
996
996
997
1001
999
1002
996
993
993
989
985
979
971
965
963
959
958
953
951
948
949
950
951
950
950
949
950
952
953
949
950
949
952
953
954
954
951
950
951
954
954
955
956
955
956
957
959
959
956
955
957
959
958
959
956
958
959
961
962
962
961
961
963
963
963
959
955
952
955
965
977
1001
1025
1050
1078
1099
1117
1128
1149
1174
1204
1233
1257
1278
1295
1304
1310
1310
1306
1293
1272
1236
1198
1168
1142
1114
1082
1046
1012
978
945
919
891
866
850
837
832
827
823
823
827
832
830
832
836
842
854
862
867
870
873
876
881
886
891
896
897
900
902
906
906
905
903
902
902
905
905
904
900
901
899
901
900
899
899
898
898
898
898
896
893
895
895
894
896
894
890
889
892
893
894
893
892
892
896
898
897
898
896
897
899
904
907
906
904
906
909
913
918
922
921
924
927
932
931
937
935
936
944
949
951
954
957
958
962
968
971
972
973
975
979
981
984
986
985
988
991
993
996
996
995
995
997
996
998
999
995
994
995
997
998
994
992
988
989
990
990
988
985
982
983
983
980
982
979
974
975
976
980
981
980
979
982
984
985
985
984
982
983
985
985
984
982
982
982
988
991
992
991
991
993
995
995
989
987
988
989
991
991
992
991
992
992
988
984
977
972
966
960
956
957
950
947
944
947
948
946
947
942
943
946
949
948
946
943
944
944
946
947
947
945
947
946
949
951
951
949
947
947
949
950
952
948
951
951
954
952
953
955
954
955
959
960
958
956
952
954
954
957
953
949
949
953
963
984
1009
1034
1059
1083
1103
1115
1131
1151
1174
1199
1224
1245
1258
1266
1263
1264
1260
1251
1233
1205
1170
1144
1123
1101
1077
1049
1014
977
949
922
898
873
856
846
839
836
835
833
836
837
839
843
848
852
862
869
872
878
883
882
885
896
900
906
908
907
908
910
912
910
911
909
910
911
911
911
911
907
903
905
908
907
906
905
902
902
903
905
904
900
899
902
902
902
901
901
897
899
903
901
903
901
901
901
904
909
908
909
910
913
916
919
919
919
921
922
927
930
932
938
938
942
945
949
951
952
953
958
963
968
971
970
971
976
984
985
988
986
989
991
994
997
998
997
996
998
1001
1003
1003
1002
1000
1004
1006
1004
1004
1002
1000
999
1001
1002
1001
998
995
995
995
994
993
992
990
994
992
990
990
986
985
985
987
988
989
988
988
989
994
997
996
994
990
992
995
995
997
997
997
997
1003
1005
1005
1004
1001
1001
1003
1003
1003
1001
999
997
1002
1002
1002
1003
1001
1000
1001
998
992
984
978
974
973
971
966
961
955
955
955
957
955
953
951
953
956
956
957
952
954
955
957
957
955
954
953
953
954
958
956
954
955
956
959
962
959
959
956
959
960
961
960
959
961
963
964
967
967
965
961
966
966
966
965
960
954
950
953
956
965
982
1006
1036
1058
1081
1095
1106
1124
1152
1179
1206
1228
1248
1262
1272
1275
1274
1269
1257
1236
1204
1173
1147
1125
1104
1074
1040
1007
974
944
917
890
872
858
849
842
836
832
835
840
841
841
843
847
857
867
873
878
880
881
887
893
903
902
907
908
910
912
915
915
911
910
910
914
913
910
909
906
907
908
909
907
905
902
903
904
902
901
901
899
897
899
901
899
896
895
895
899
900
898
897
899
900
904
905
905
905
907
909
913
915
920
918
916
921
926
929
935
933
935
937
940
945
949
949
952
955
961
964
967
968
969
974
976
982
985
984
987
989
993
995
998
996
997
999
1002
1006
1004
1002
1002
1005
1005
1007
1007
1003
999
1001
1002
1002
1003
998
996
995
994
996
994
991
987
988
989
990
988
987
987
988
990
991
992
994
993
993
994
995
995
993
992
993
996
1001
1002
1001
1001
1002
1005
1005
1006
1005
1000
998
1000
1000
1000
1000
998
1000
1003
1003
1000
997
993
990
985
978
974
968
963
959
957
956
955
956
953
953
954
954
954
954
951
953
954
957
955
954
953
955
957
956
956
953
954
955
958
957
959
958
955
956
958
962
961
959
957
961
962
961
965
965
962
964
967
967
967
967
963
966
965
963
960
955
956
963
979
1006
1035
1061
1082
1105
1123
1144
1176
1205
1233
1261
1279
1295
1301
1301
1291
1276
1254
1217
1180
1146
1121
1095
1065
1025
981
945
915
889
870
858
846
841
838
842
845
847
846
850
859
869
877
884
888
889
893
899
906
911
914
914
915
917
920
921
919
917
914
914
916
917
914
911
909
911
912
913
911
909
905
906
907
908
906
903
901
900
904
903
904
903
900
903
904
908
910
910
910
912
917
921
922
924
925
930
931
936
942
944
947
948
952
958
963
965
966
970
971
976
980
981
983
989
993
997
1002
1001
1002
1005
1010
1010
1012
1011
1010
1010
1016
1015
1015
1013
1010
1011
1014
1014
1011
1010
1008
1007
1007
1009
1007
1002
1000
1001
1000
1001
1000
998
993
994
997
999
999
997
996
998
1003
1003
1004
1002
998
999
1004
1005
1005
1007
1005
1008
1009
1011
1011
1009
1006
1005
1007
1009
1008
1007
1007
1008
1012
1011
1012
1008
1002
1000
995
990
983
977
972
967
965
964
961
961
961
958
957
961
962
961
958
962
961
964
965
962
960
961
963
965
967
963
961
962
965
968
968
965
964
965
968
967
967
968
967
968
972
973
972
970
969
972
975
977
975
975
972
973
970
969
965
965
965
980
1006
1037
1064
1087
1108
1123
1144
1173
1202
1230
1259
1285
1306
1317
1319
1313
1307
1294
1269
1234
1197
1167
1139
1108
1079
1041
999
958
925
898
875
860
849
841
835
835
839
845
845
844
845
855
866
873
882
886
888
894
900
906
911
912
914
917
921
922
922
918
918
917
917
920
918
917
914
914
914
915
912
909
908
908
908
909
907
906
905
905
906
905
904
904
901
905
909
912
911
911
914
916
919
919
922
922
925
931
934
940
941
943
945
947
953
960
961
962
964
970
977
980
982
983
985
989
994
997
999
999
1003
1005
1008
1012
1014
1013
1014
1016
1017
1020
1019
1015
1015
1016
1015
1018
1017
1016
1010
1011
1012
1012
1011
1007
1002
1003
1006
1005
1003
1000
997
997
999
1002
1003
1004
1004
1005
1005
1007
1006
1003
1003
1007
1008
1011
1012
1012
1011
1012
1016
1015
1011
1008
1004
1006
1008
1012
1014
1012
1011
1012
1011
1010
1002
995
988
984
982
978
972
968
961
961
962
963
962
960
957
958
960
962
963
961
958
959
963
965
965
963
962
962
965
965
965
966
964
964
968
969
970
970
968
968
970
971
972
968
967
970
972
973
971
974
970
971
970
969
964
960
957
961
974
996
1026
1054
1080
1106
1125
1147
1173
1201
1233
1262
1289
1309
1322
1325
1321
1315
1304
1279
1241
1201
1167
1139
1112
1080
1037
993
953
920
896
872
855
845
836
836
834
839
841
841
840
845
856
865
874
879
880
886
890
896
900
903
906
911
915
916
916
913
911
912
916
916
912
911
909
908
909
911
909
907
904
904
903
902
900
899
898
897
902
901
902
900
896
898
900
900
901
900
901
902
902
904
905
907
903
908
914
916
918
922
921
923
929
931
936
939
938
947
950
953
957
958
961
966
973
976
977
980
981
986
991
994
995
998
996
1000
1004
1004
1007
1007
1004
1009
1010
1011
1012
1009
1007
1009
1009
1010
1006
1004
1000
1001
1001
1002
1001
997
995
996
995
997
994
992
988
986
990
990
991
990
990
992
993
994
996
994
991
992
994
998
995
994
995
1001
1003
1007
1007
1004
1000
1004
1005
1003
1002
1000
999
1003
1004
1005
1005
1006
1003
1001
1000
998
989
983
976
974
969
967
963
959
956
957
960
960
958
956
954
954
957
958
957
955
954
956
957
959
958
956
953
957
958
961
957
958
957
958
960
960
960
959
958
960
964
966
965
964
960
965
968
969
969
967
966
967
970
970
966
964
957
955
956
961
970
986
1013
1043
1073
1102
1120
1135
1149
1173
1200
1223
1249
1270
1290
1306
1314
1313
1309
1300
1284
1261
1226
1195
1164
1139
1111
1081
1050
1012
972
937
906
882
860
847
835
830
828
830
832
837
837
838
839
848
858
866
872
874
877
882
888
893
897
901
903
906
910
912
912
912
909
910
911
913
911
910
907
908
907
908
907
903
901
901
902
904
900
902
899
899
899
899
901
901
897
898
900
900
900
899
899
901
903
906
907
907
907
908
910
912
917
918
919
923
926
929
931
930
935
938
943
949
953
953
952
957
964
968
969
971
972
977
981
985
985
988
987
992
995
1000
1000
1000
1003
1005
1009
1009
1009
1010
1009
1008
1011
1009
1010
1009
1006
1006
1007
1006
1004
1002
1000
1001
1000
999
997
995
994
995
996
996
991
989
988
990
992
996
997
997
995
996
996
998
1000
998
997
1000
1003
1005
1008
1008
1006
1007
