1010
1036
1063
1088
1112
1132
1151
1176
1203
1230
1255
1285
1313
1335
1346
1349
1350
1347
1337
1315
1279
1241
1208
1178
1152
1125
1091
1050
1007
968
937
911
886
863
850
845
841
839
839
840
840
842
846
854
860
868
875
884
889
894
896
901
905
911
917
919
921
920
921
925
927
926
924
921
919
921
922
921
918
916
912
914
915
915
913
909
908
909
909
908
907
906
902
902
908
907
905
905
905
908
911
909
910
908
908
914
915
918
918
920
922
927
930
933
935
935
940
947
951
954
957
962
961
967
972
976
975
977
978
984
990
996
997
999
1001
1006
1008
1010
1011
1014
1014
1017
1019
1019
1020
1018
1018
1020
1020
1020
1019
1014
1015
1014
1018
1015
1013
1010
1006
1006
1008
1007
1004
1002
998
1001
1002
1005
1004
1004
1006
1007
1007
1008
1006
1004
1003
1002
1006
1008
1009
1010
1009
1013
1016
1015
1015
1013
1010
1011
1013
1012
1014
1014
1011
1014
1014
1015
1016
1013
1009
1006
1003
995
986
981
974
973
971
970
967
962
961
963
963
962
963
962
961
965
965
965
966
964
963
964
965
967
968
968
965
969
974
971
973
967
967
971
972
975
971
971
970
973
977
975
971
972
971
973
975
976
976
976
975
977
980
979
977
976
974
972
975
971
969
970
972
986
1009
1035
1061
1083
1108
1132
1150
1167
1194
1220
1245
1274
1296
1320
1332
1336
1336
1337
1335
1326
1307
1277
1239
1205
1178
1150
1121
1090
1059
1021
984
951
923
898
875
858
850
843
843
839
839
842
843
846
845
850
859
868
878
886
888
891
894
899
905
910
913
916
918
923
924
925
927
922
923
922
927
925
924
921
921
920
921
920
917
917
914
916
918
916
913
913
911
913
915
913
910
909
911
912
915
915
915
913
912
915
916
917
916
915
916
919
921
926
925
927
927
931
936
938
942
944
946
950
952
958
960
962
966
971
973
978
977
981
983
989
993
996
1000
998
1001
1007
1012
1014
1014
1016
1013
1017
1020
1023
1020
1022
1019
1022
1023
1025
1023
1020
1017
1014
1015
1016
1016
1013
1010
1012
1011
1011
1009
1006
1005
1005
1008
1006
1005
1006
1002
1005
1007
1009
1008
1008
1008
1010
1011
1013
1011
1009
1011
1014
1016
1019
1020
1020
1020
1024
1024
1022
1024
1020
1017
1017
1016
1017
1019
1018
1015
1018
1022
1020
1016
1014
1009
1006
1002
997
994
988
982
980
977
976
973
970
967
968
973
971
969
969
969
970
972
972
971
971
968
971
973
972
971
969
969
970
973
973
972
970
971
970
973
974
974
974
974
976
978
980
978
975
976
979
979
982
981
980
982
983
983
985
986
981
982
982
982
978
975
974
974
985
1005
1031
1057
1079
1102
1126
1140
1156
1173
1197
1221
1247
1270
1293
1304
1313
1314
1314
1313
1308
1293
1267
1233
1206
1180
1154
1127
1102
1067
1029
995
965
937
914
890
874
866
861
856
855
852
859
861
863
862
862
869
878
889
893
895
901
901
904
911
919
922
923
926
930
931
934
934
937
933
935
935
935
934
933
931
929
930
931
930
929
927
925
928
928
927
925
922
923
925
926
925
922
920
920
923
925
922
921
921
923
925
927
926
925
924
930
931
934
933
933
937
941
943
946
948
949
951
953
957
961
963
964
967
970
974
981
982
984
988
992
996
999
1000
1004
1005
1008
1014
1017
1018
1019
1019
1021
1024
1025
1026
1027
1024
1030
1033
1033
1031
1030
1028
1029
1030
1030
1030
1028
1025
1025
1027
1026
1025
1022
1020
1022
1021
1023
1018
1018
1014
1018
1020
1020
1021
1020
1020
1024
1025
1025
1022
1020
1018
1022
1025
1026
1029
1026
1028
1032
1032
1032
1032
1029
1026
1025
1027
1026
1026
1025
1027
1028
1029
1031
1026
1022
1015
1011
1007
999
997
991
984
982
980
981
979
977
973
975
974
975
973
971
970
974
977
975
977
974
974
978
979
981
977
978
977
977
981
981
980
979
978
982
984
982
980
979
981
983
988
988
983
985
984
987
987
988
988
987
986
986
988
985
981
975
968
971
977
992
1011
1038
1067
1091
1115
1131
1147
1170
1196
1226
1254
1279
1304
1315
1323
1329
1330
1326
1316
1293
1262
1230
1202
1176
1150
1121
1084
1048
1007
970
941
914
888
873
863
859
855
849
852
855
858
859
859
865
874
883
892
896
898
901
905
913
918
923
927
927
929
931
934
934
931
931
931
930
932
932
929
926
923
926
925
924
922
920
918
921
920
918
916
916
915
915
915
917
914
914
912
915
916
916
917
915
914
919
919
923
924
923
923
927
931
932
934
937
937
942
946
949
952
952
955
961
963
968
969
971
971
975
982
985
985
989
989
994
998
1003
1003
1003
1006
1009
1012
1017
1018
1016
1018
1021
1022
1026
1025
1023
1021
1023
1026
1027
1024
1022
1023
1023
1023
1023
1021
1017
1018
1018
1015
1016
1015
1010
1008
1010
1011
1012
1009
1007
1007
1009
1010
1012
1014
1015
1012
1012
1014
1013
1012
1011
1011
1017
1020
1022
1019
1019
1018
1020
1020
1022
1021
1015
1013
1015
1018
1019
1018
1016
1015
1016
1016
1013
1010
1003
995
988
987
984
975
972
967
965
966
966
964
963
962
965
967
966
964
963
960
965
967
964
967
965
964
966
968
970
968
968
968
970
972
970
970
968
968
968
970
971
970
968
969
972
973
974
973
972
972
976
974
976
975
972
967
964
962
963
963
970
990
1021
1048
1077
1102
1120
1137
1168
1199
1232
1261
1288
1312
1331
1338
1338
1333
1321
1292
1250
1212
1179
1145
1115
1078
1036
989
952
920
888
863
847
839
837
837
834
837
839
842
846
855
865
871
878
887
890
894
898
902
907
913
914
915
916
917
919
920
919
916
914
911
913
914
912
912
908
905
905
905
904
906
903
900
900
903
905
900
900
898
902
903
901
903
902
902
903
907
910
908
910
909
913
918
921
922
922
922
929
934
935
939
938
942
947
952
957
958
960
962
965
970
974
976
980
983
986
990
995
996
996
1000
1003
1006
1010
1009
1011
1010
1013
1016
1013
1015
1013
1010
1010
1014
1015
1009
1008
1006
1006
1007
1006
1004
1000
999
999
999
999
999
997
998
1001
1003
1005
1004
1003
1001
999
1002
1004
1002
1001
998
999
1003
1007
1008
1009
1007
1008
1009
1012
1007
1002
1000
1001
1003
1004
1005
1002
1001
1002
1004
1001
996
988
982
978
975
971
965
959
953
952
953
954
953
950
945
949
952
954
953
949
950
951
953
954
953
953
953
954
954
955
953
952
952
956
952
955
957
955
952
955
956
956
958
956
954
956
958
962
960
960
955
958
963
965
964
962
958
954
953
954
956
961
980
1009
1040
1073
1099
1118
1138
1167
1200
1236
1262
1287
1309
1327
1335
1333
1327
1310
1281
1242
1204
1168
1135
1100
1063
1020
978
939
906
874
850
834
823
819
818
818
820
823
826
828
832
838
844
854
863
870
873
872
875
881
886
891
893
893
896
901
903
900
902
899
897
898
899
900
898
897
893
892
895
896
892
891
889
889
892
892
890
887
886
887
889
886
888
887
884
886
885
891
887
889
886
887
891
893
896
895
896
901
903
908
908
910
909
915
920
925
926
928
931
936
945
946
947
948
950
956
960
963
968
967
968
972
978
980
981
980
982
986
990
989
989
989
988
990
991
991
991
989
989
989
989
989
985
985
985
985
984
986
983
981
975
977
978
979
979
976
974
978
983
985
982
981
978
979
982
985
983
978
975
978
983
984
985
986
985
986
989
987
986
983
982
983
984
982
983
982
981
984
987
985
985
980
975
968
964
958
952
950
945
944
943
940
940
937
934
934
937
937
937
937
936
934
936
937
933
935
934
937
938
939
937
935
936
938
940
939
940
937
937
939
940
941
941
939
936
941
944
944
944
943
939
945
947
949
950
951
947
949
951
949
946
943
938
935
939
942
958
982
1013
1043
1068
1092
1105
1121
1140
1167
1196
1221
1243
1263
1277
1285
1288
1286
1277
1260
1236
1200
1165
1136
1108
1080
1049
1014
978
939
905
877
853
833
824
814
811
806
807
812
814
816
819
826
831
843
850
856
858
862
868
874
880
885
886
889
890
895
894
894
893
891
891
892
891
889
888
886
885
887
886
889
886
883
882
882
884
883
882
880
879
880
881
881
881
878
878
882
883
887
885
886
885
890
895
899
901
898
901
904
909
911
915
919
921
926
930
936
940
942
943
947
951
954
958
961
964
969
971
973
973
976
976
980
984
988
987
985
985
987
989
989
989
987
986
986
989
989
988
984
982
983
983
982
981
979
977
980
978
978
980
981
980
985
986
986
985
983
980
980
984
982
982
981
982
988
991
995
994
991
991
991
991
991
987
988
986
990
990
991
990
991
986
984
983
979
971
965
958
955
953
950
947
945
941
942
942
939
937
936
936
935
940
941
940
940
936
940
941
943
945
941
941
942
944
946
943
944
943
946
946
948
947
947
948
950
952
951
950
951
951
953
954
956
955
954
953
955
957
958
954
951
946
943
940
942
950
968
994
1026
1055
1083
1096
1113
1134
1162
1190
1216
1238
1257
1270
1280
1283
1284
1277
1269
1241
1212
1181
1160
1136
1113
1082
1050
1012
974
938
910
880
860
847
838
832
829
828
830
835
835
838
842
848
859
868
873
875
880
881
890
895
900
904
904
904
907
909
912
914
909
906
908
908
909
906
905
901
901
901
901
899
898
895
897
897
898
898
897
893
894
895
896
897
896
895
896
899
901
898
898
898
901
905
909
909
911
912
917
921
923
926
928
930
933
939
942
946
947
950
954
958
962
964
966
969
974
979
984
985
986
988
991
995
1000
1000
996
1001
1004
1005
1005
1007
1007
1006
1004
1009
1008
1004
1004
1003
1001
1005
1005
1000
1000
998
997
995
996
992
991
992
994
996
1000
1001
1001
999
999
998
1001
1001
996
995
999
1003
1005
1006
1003
1002
1006
1006
1004
1004
1001
1001
1002
1004
1004
1004
1004
998
997
994
986
978
972
965
962
956
956
952
948
949
950
950
950
950
949
948
948
950
951
953
952
949
951
955
953
954
953
953
953
954
958
956
955
953
955
957
958
958
955
955
957
960
961
959
960
959
961
961
965
963
961
957
957
953
951
947
950
952
971
996
1025
1052
1078
1095
1109
1134
1163
1192
1221
1248
1276
1297
1307
1308
1305
1295
1286
1262
1230
1194
1161
1134
1111
1087
1048
1006
969
936
909
885
866
847
838
831
831
831
832
834
832
831
837
847
857
865
869
873
875
883
887
893
898
900
900
905
910
911
910
907
909
909
910
906
903
901
903
905
906
902
900
898
899
902
902
900
898
896
895
897
896
893
893
892
893
897
896
896
893
895
896
898
900
901
901
901
904
909
911
911
912
912
914
921
922
924
929
930
936
939
943
945
947
950
956
959
963
966
969
971
978
981
983
984
988
988
992
997
1000
999
1001
1000
1004
1006
1008
1006
1006
1004
1006
1007
1006
1005
1003
1001
1000
1001
1002
999
998
995
996
998
999
997
998
998
999
1000
1002
1003
999
997
998
1000
1003
998
998
998
1001
1008
1009
1007
1008
1003
1003
1007
1003
1001
999
996
999
1001
1000
1002
1000
998
998
997
993
988
977
970
969
967
960
956
950
946
949
950
950
950
947
946
946
950
951
951
949
948
948
949
952
951
949
950
950
952
952
950
949
948
950
951
954
955
955
952
953
957
957
956
955
954
955
959
959
958
958
956
960
961
963
960
958
954
953
951
950
948
952
960
979
1007
1031
1056
1079
1098
1113
1133
1157
1187
1214
1241
1270
1294
1307
1314
1314
1313
1306
1294
1267
1230
1196
1166
1142
1117
1086
1048
1007
967
934
907
880
856
842
827
824
822
821
822
823
823
822
830
837
846
853
857
864
868
873
879
881
884
888
896
900
900
901
902
904
905
906
905
904
901
900
902
902
899
899
896
897
897
898
894
891
891
892
895
894
894
889
887
890
890
889
890
886
887
887
887
889
889
887
887
890
892
894
893
895
893
896
901
903
906
908
907
911
917
919
922
926
926
928
934
936
939
942
943
948
954
959
960
962
964
968
972
976
978
979
981
983
988
992
991
990
992
992
994
997
998
998
998
998
1001
999
1001
999
996
998
999
1000
998
996
994
992
994
993
993
992
987
989
992
993
993
994
995
995
995
994
993
990
991
990
991
992
995
995
996
998
1003
1002
1001
999
996
994
996
994
993
992
990
992
995
999
997
994
988
986
982
977
970
963
958
955
953
949
947
945
942
943
944
946
944
943
941
940
942
945
944
944
941
943
945
947
947
946
946
947
950
950
950
950
948
949
949
952
953
954
951
952
956
956
955
956
954
956
956
960
960
958
956
957
957
956
952
946
941
942
944
951
970
996
1021
1048
1076
1098
1113
1136
1165
1194
1225
1255
1279
1299
1307
1316
1319
1315
1305
1286
1252
1213
1181
1156
1124
1096
1064
1024
986
951
920
891
864
842
829
822
815
811
808
812
814
816
814
815
823
833
844
851
855
858
859
862
869
879
883
885
887
890
892
896
896
895
891
892
896
893
893
891
891
891
892
890
890
889
886
885
886
885
882
881
878
879
880
883
879
879
877
876
877
877
877
879
876
879
881
882
882
881
881
883
884
887
891
890
890
893
896
900
901
903
905
908
915
917
919
920
923
926
931
933
935
936
939
940
945
948
952
950
954
959
961
965
964
966
966
970
977
979
980
980
980
985
985
991
986
986
984
986
988
990
987
987
984
985
985
988
984
982
981
979
982
981
980
978
975
977
976
977
976
975
976
975
978
978
978
976
976
976
974
976
977
973
973
978
982
985
985
984
981
983
984
983
981
981
978
980
981
982
984
982
979
984
982
983
977
970
963
956
952
951
944
938
933
928
929
931
930
930
926
926
928
931
931
929
929
930
932
931
931
931
928
932
932
934
934
933
933
934
936
936
937
935
932
933
936
938
936
936
933
936
936
938
938
939
936
939
940
944
944
941
940
940
938
936
933
930
931
937
949
970
1000
1030
1057
1081
1102
1116
1138
1163
1189
1217
1243
1268
1292
1307
1310
1313
1311
1303
1288
1261
1222
1185
1158
1130
1101
1068
1029
987
946
913
884
854
832
815
808
802
798
794
797
800
804
803
807
812
820
828
836
844
846
846
848
856
864
868
873
874
874
879
883
883
883
881
879
879
879
881
880
877
875
874
875
875
876
873
868
870
871
872
872
868
868
868
870
870
871
868
866
866
868
869
871
870
867
868
873
874
873
874
872
876
880
878
883
883
883
885
890
896
895
896
896
902
907
910
914
917
916
919
922
927
931
931
932
939
943
949
952
952
955
957
963
962
965
965
967
968
974
976
975
977
977
980
980
981
980
980
980
979
979
979
978
976
973
975
976
977
973
970
968
968
969
969
969
966
964
966
970
972
972
970
967
969
970
971
973
971
966
968
967
971
973
972
972
975
980
980
981
982
979
980
976
975
974
972
971
972
974
976
975
974
973
974
974
970
967
958
951
949
945
942
938
931
929
927
928
929
930
928
924
926
926
929
928
926
926
928
930
932
931
928
928
929
932
931
932
931
929
929
932
933
931
930
930
932
933
934
934
934
932
935
936
940
940
939
938
938
941
944
943
940
936
937
939
938
932
931
932
939
954
980
1009
1036
1058
1082
1101
1118
1136
1162
1185
1210
1233
1257
1269
1275
1272
1268
1261
1244
1212
1176
1143
1118
1096
1071
1040
1000
957
924
895
869
847
830
817
813
812
814
816
816
814
821
827
837
843
848
852
857
862
868
873
877
878
884
889
893
894
894
893
893
894
895
894
891
891
891
892
892
890
889
887
886
885
890
889
887
884
884
887
888
884
883
881
883
882
882
881
880
880
882
885
885
888
887
888
890
894
898
899
899
903
907
909
913
916
918
921
925
931
935
937
941
941
944
948
952
955
958
959
964
967
973
975
974
972
976
981
985
985
986
984
984
989
991
989
989
987
990
992
991
992
991
987
987
989
987
988
986
981
983
984
986
985
982
983
984
988
990
992
992
988
986
991
992
993
990
986
987
991
992
996
998
996
994
996
999
997
992
990
992
994
996
994
993
990
993
996
1000
996
990
985
980
977
974
968
962
955
954
951
949
947
946
943
943
942
945
943
943
941
943
946
947
947
944
943
946
946
948
950
947
945
947
950
951
952
950
948
951
950
954
953
954
952
951
954
956
954
953
953
956
958
960
960
959
955
955
957
957
955
950
942
943
945
953
966
987
1010
1042
1070
1092
1106
1126
1153
1185
1213
1240
1263
1281
1289
1294
1297
1295
1285
1262
1224
1189
1161
1139
1112
1083
1050
1006
969
938
908
880
855
843
833
831
831
829
830
830
833
839
846
856
862
867
873
879
880
883
887
897
900
906
908
905
903
903
906
906
905
903
899
902
902
902
901
901
896
896
897
898
896
896
894
893
894
895
895
890
891
894
894
894
895
893
894
894
897
898
899
900
900
902
908
910
912
911
914
918
925
928
933
934
934
939
943
948
952
954
955
960
964
969
970
974
974
979
985
987
989
993
991
994
997
1001
1000
1001
997
998
1000
1000
1001
998
996
996
997
998
996
993
988
990
991
992
993
987
988
988
991
995
995
992
992
992
996
999
994
994
991
993
996
999
999
1000
998
999
1000
998
998
993
990
991
994
993
995
992
994
995
996
996
991
981
971
967
966
963
957
954
947
945
946
950
949
946
946
946
949
949
947
947
944
947
949
949
951
946
945
945
947
950
950
948
946
947
950
952
954
952
950
951
952
954
955
954
953
954
956
958
957
957
957
962
963
964
962
959
953
952
950
950
953
964
983
1013
1041
1069
1092
1107
1125
1155
