976
977
980
984
989
992
992
995
995
1001
1004
1006
1006
1006
1008
1011
1013
1015
1013
1012
1012
1012
1014
1013
1013
1009
1007
1010
1010
1008
1007
1003
1002
1003
1003
1002
1000
998
998
999
1002
1007
1003
1005
1004
1006
1008
1005
1005
1002
1000
1005
1005
1008
1009
1008
1010
1010
1009
1013
1011
1008
1006
1005
1008
1009
1010
1007
1007
1010
1010
1008
1004
998
993
991
985
981
976
971
964
964
962
962
958
958
957
959
959
958
959
957
957
960
961
960
958
959
958
961
962
963
960
961
959
959
963
964
961
962
961
959
961
961
962
961
961
964
967
966
967
965
966
970
971
968
971
971
968
974
972
970
965
959
956
960
971
985
1003
1027
1054
1077
1100
1117
1130
1151
1181
1213
1241
1267
1289
1305
1317
1321
1324
1317
1307
1282
1248
1212
1183
1159
1132
1100
1065
1027
992
962
934
905
879
865
855
845
842
838
836
842
845
848
846
849
855
862
872
877
881
886
887
892
899
904
905
907
911
914
917
919
919
918
915
918
918
917
916
914
911
914
915
915
914
909
909
909
913
911
909
907
903
903
909
906
903
900
902
900
902
902
903
900
903
904
904
907
907
906
909
911
916
919
919
922
920
925
929
932
935
935
938
943
949
951
957
956
959
965
968
973
975
976
978
981
984
986
988
990
991
997
1000
998
1001
1003
1004
1007
1011
1011
1012
1010
1010
1011
1015
1016
1013
1013
1012
1012
1016
1014
1012
1013
1009
1011
1011
1012
1010
1006
1004
1006
1003
1006
1004
1001
1002
1003
1006
1005
1006
1004
1002
1003
1004
1005
1003
1002
1001
1003
1007
1009
1012
1013
1009
1011
1014
1015
1013
1010
1005
1006
1007
1008
1007
1005
1005
1009
1013
1011
1011
1008
1003
1000
998
994
986
981
976
974
968
965
962
959
955
958
960
958
957
955
952
959
960
962
961
959
959
959
961
963
965
962
960
965
967
967
964
962
964
964
965
966
965
964
964
966
967
969
968
968
968
968
967
970
969
971
969
972
972
973
972
969
971
969
969
966
961
965
967
984
1009
1037
1063
1087
1111
1130
1144
1162
1188
1209
1233
1258
1282
1302
1318
1322
1321
1318
1311
1296
1267
1232
1197
1171
1147
1120
1091
1057
1018
978
946
921
892
870
857
846
841
837
835
836
839
843
846
850
856
860
868
875
883
886
890
891
892
899
905
910
910
911
912
914
916
915
917
915
911
910
914
911
912
909
908
911
908
912
909
907
905
904
907
907
906
905
903
904
907
905
904
906
905
906
906
905
906
904
907
911
915
914
918
917
919
924
927
930
933
933
934
939
947
950
953
953
957
961
966
971
973
974
978
981
986
990
992
993
994
997
1002
1003
1002
1003
1004
1009
1012
1012
1011
1010
1009
1010
1012
1012
1011
1010
1008
1009
1009
1008
1008
1006
1004
1005
1004
1003
1003
999
998
997
999
1001
1000
1003
999
1001
1004
1004
1002
1000
997
1000
1000
997
995
996
1002
1003
1008
1008
1009
1009
1006
1006
1008
1007
1004
1002
1002
1004
1004
1004
1005
1006
1005
1006
1003
998
990
983
979
975
972
966
962
959
956
956
957
958
955
954
951
951
956
956
955
955
953
957
958
959
957
958
954
957
960
962
962
960
961
961
962
965
964
964
963
965
969
968
965
965
965
964
966
968
967
969
966
969
971
973
971
968
967
963
966
967
964
969
976
998
1021
1048
1073
1094
1114
1126
1141
1159
1187
1210
1233
1255
1269
1277
1276
1272
1266
1259
1247
1228
1201
1170
1150
1130
1115
1093
1069
1036
1003
971
943
918
892
872
861
856
851
847
848
849
850
853
855
857
863
869
872
880
889
892
893
896
899
905
911
916
919
919
920
922
924
927
925
923
921
921
923
923
920
921
915
916
918
919
917
915
913
915
916
916
913
913
909
912
915
914
913
910
910
913
916
914
915
913
916
917
919
924
924
925
924
929
933
936
937
939
943
945
950
957
958
959
961
966
972
973
976
978
980
983
989
992
995
995
996
1000
1005
1005
1006
1006
1010
1012
1015
1016
1018
1014
1014
1016
1017
1016
1016
1014
1013
1012
1014
1013
1010
1009
1008
1008
1008
1006
1005
1001
998
1003
1005
1007
1008
1008
1008
1006
1010
1010
1008
1008
1006
1007
1010
1011
1013
1013
1011
1012
1015
1016
1014
1010
1008
1005
1008
1010
1007
1010
1009
1011
1011
1009
1005
997
991
987
983
978
974
969
965
963
963
962
962
960
956
959
961
962
961
957
959
961
962
963
960
961
959
964
965
964
967
965
965
967
964
969
968
966
966
968
969
972
972
970
971
969
971
974
974
971
969
972
972
972
971
966
960
958
960
965
974
991
1017
1046
1070
1090
1103
1116
1136
1165
1193
1215
1236
1251
1262
1267
1274
1274
1269
1257
1238
1209
1181
1161
1139
1116
1091
1062
1029
994
961
934
909
889
878
868
860
854
850
850
854
857
855
855
859
869
879
885
888
889
893
898
904
911
912
915
917
922
922
923
926
923
920
920
922
921
920
919
915
916
916
917
917
912
910
910
912
913
910
908
906
909
910
911
911
909
906
908
911
911
912
908
910
914
915
919
918
918
919
922
927
930
933
933
934
940
941
946
948
949
952
956
963
966
969
969
970
976
982
986
986
989
991
996
997
1002
1004
1006
1007
1010
1013
1012
1012
1014
1013
1017
1015
1016
1017
1015
1011
1014
1012
1012
1011
1008
1006
1005
1006
1006
1004
1001
1001
999
1002
1004
1004
1004
1004
1006
1007
1009
1009
1005
1004
1008
1008
1011
1011
1012
1012
1012
1015
1015
1014
1013
1007
1006
1006
1008
1008
1004
1004
1007
1006
1009
1005
998
992
986
984
980
973
970
966
963
961
962
962
958
957
955
961
959
961
960
955
957
958
960
959
958
958
959
959
963
961
960
960
965
967
966
966
965
962
963
967
969
968
966
965
966
968
969
972
969
970
972
971
972
970
966
964
959
957
959
959
974
995
1023
1051
1074
1090
1103
1118
1145
1174
1203
1232
1253
1273
1288
1293
1294
1290
1280
1263
1236
1202
1172
1151
1126
1097
1067
1028
991
957
927
899
880
868
858
848
843
841
845
848
849
849
850
854
866
876
884
887
887
889
895
900
906
909
912
911
913
917
921
918
915
915
919
919
919
918
915
911
914
914
914
913
909
904
904
907
906
906
904
901
903
905
905
904
902
902
903
906
905
907
904
905
910
910
912
914
915
918
921
925
929
931
932
934
939
942
947
948
949
952
957
961
963
966
970
969
977
982
985
987
988
992
995
1000
1000
1003
1004
1004
1007
1011
1012
1014
1012
1012
1014
1020
1018
1019
1015
1013
1013
1014
1013
1012
1008
1006
1006
1006
1004
1003
1001
998
999
1002
1004
1005
1005
1003
1006
1006
1007
1008
1005
1002
1007
1009
1012
1012
1014
1011
1010
1014
1013
1011
1007
1004
1005
1009
1010
1009
1010
1007
1006
1002
1001
992
983
978
972
971
967
960
958
957
958
959
958
958
958
956
956
958
962
959
960
959
959
961
962
960
961
959
958
960
961
961
958
959
958
963
964
964
964
961
963
966
967
968
966
965
967
971
971
971
970
965
961
959
960
962
972
988
1014
1045
1073
1094
1108
1125
1153
1185
1216
1243
1265
1285
1298
1306
1307
1298
1286
1259
1223
1190
1162
1137
1111
1075
1038
1003
965
934
906
880
864
855
850
847
845
842
848
851
851
852
858
862
873
882
887
890
889
896
901
907
913
914
916
912
915
920
922
918
918
914
916
915
915
913
911
909
910
912
910
910
908
908
907
909
906
904
905
902
902
902
903
905
904
901
903
905
909
910
908
906
910
914
915
920
918
920
925
927
930
934
936
937
942
945
950
953
955
957
961
968
970
975
976
977
981
985
987
991
992
995
997
1000
1001
1005
1004
1005
1006
1010
1009
1012
1013
1009
1012
1013
1015
1010
1011
1008
1009
1010
1011
1009
1007
1005
1004
1005
1004
1004
1001
1000
1000
1000
1001
1004
1004
1001
1004
1004
1004
1003
1002
1000
1002
1004
1008
1009
1008
1006
1010
1010
1012
1011
1010
1003
1004
1005
1009
1007
1007
1004
1005
1009
1009
1008
1003
998
993
986
983
977
971
961
960
957
958
956
956
952
951
953
956
955
953
952
953
955
959
958
954
952
954
958
963
959
960
959
960
963
962
962
962
956
960
962
962
963
963
962
963
964
965
967
966
965
966
967
968
965
959
954
952
955
961
974
995
1022
1054
1081
1104
1118
1135
1160
1194
1225
1252
1278
1296
1306
1310
1314
1308
1294
1268
1228
1189
1161
1133
1103
1065
1020
977
942
912
888
866
849
842
839
837
837
840
840
841
845
852
859
867
872
879
886
889
893
895
898
902
907
910
914
914
912
911
917
917
914
911
911
910
910
910
908
906
903
901
906
905
904
904
902
904
903
904
903
903
899
899
901
902
903
900
900
901
903
904
906
904
904
908
911
913
918
917
918
923
926
932
933
936
938
943
948
953
953
957
957
960
966
970
975
977
979
981
987
989
994
994
994
997
1000
1005
1003
1005
1003
1006
1006
1007
1009
1008
1008
1007
1010
1010
1009
1005
1006
1005
1006
1005
1006
1002
1000
999
1000
1002
996
997
994
994
997
1000
999
1000
997
1001
1002
1001
1000
998
995
995
997
999
998
1000
997
1001
1007
1009
1008
1005
1003
1002
1001
998
1001
1000
998
999
1001
1004
1003
1001
1000
999
997
993
983
975
970
966
967
961
960
954
952
953
953
954
953
954
951
953
954
956
955
954
950
953
955
957
960
957
953
954
955
956
958
959
956
956
958
960
961
962
960
962
964
964
964
963
960
963
964
965
965
965
963
961
962
959
959
959
967
989
1021
1053
1083
1107
1122
1142
1165
1194
1222
1245
1274
1295
1308
1312
1306
1293
1270
1233
1194
1160
1129
1100
1063
1022
980
941
910
883
860
844
835
831
833
833
833
837
839
845
849
857
864
872
878
882
886
890
894
901
906
907
911
910
911
910
911
913
911
910
907
908
907
907
906
904
902
902
904
903
905
902
897
898
899
899
899
897
894
900
901
901
901
901
900
903
904
909
909
910
909
912
913
918
922
925
925
933
934
937
941
942
942
948
953
958
961
963
962
968
972
976
981
982
983
986
991
994
998
998
997
1002
1003
1005
1005
1004
1003
1003
1004
1008
1007
1004
1000
1001
1001
1001
1002
999
996
996
996
997
995
994
989
991
990
994
995
992
993
996
1000
1002
1002
999
995
996
999
1001
997
997
999
1001
1003
1008
1007
1005
1004
1004
1006
1003
1003
1000
999
1000
1000
1004
1003
1002
1001
1000
1002
996
989
983
976
973
970
969
963
959
955
957
958
957
956
955
953
953
954
956
955
954
953
954
955
956
956
955
953
955
958
959
961
958
957
957
959
962
962
962
956
961
963
967
966
967
963
962
965
969
969
969
967
967
966
967
964
959
953
956
963
973
993
1018
1045
1075
1099
1115
1127
1145
1167
1194
1220
1244
1261
1273
1274
1271
1271
1267
1251
1223
1187
1160
1138
1119
1094
1060
1026
990
959
930
905
881
862
851
847
845
843
846
847
847
851
859
866
872
879
885
890
892
898
903
907
911
916
919
922
921
919
919
923
923
922
918
916
917
915
916
914
913
910
911
913
911
911
909
908
906
909
911
909
910
907
910
912
913
911
911
910
913
916
917
919
919
919
923
928
932
933
933
933
939
944
947
950
950
952
956
961
967
967
969
973
976
979
986
988
989
990
994
998
1003
1004
1005
1003
1006
1009
1013
1013
1014
1011
1014
1016
1018
1018
1016
1011
1011
1011
1012
1011
1008
1004
1008
1003
1005
1005
1002
997
1000
999
1001
1003
1001
1002
1004
1005
1007
1008
1006
1001
1005
1010
1011
1014
1012
1010
1013
1014
1019
1018
1019
1016
1014
1013
1012
1010
1010
1008
1009
1009
1014
1013
1010
1005
1004
1001
995
990
983
976
973
972
969
964
961
958
958
961
962
962
960
958
960
963
964
963
963
960
962
964
963
963
962
961
962
962
964
962
963
962
962
966
966
967
966
965
970
970
972
970
968
966
968
970
971
973
973
971
973
972
972
975
968
961
960
961
963
965
978
996
1025
1051
1075
1092
1104
1116
1142
1170
1200
1226
1246
1264
1282
1289
1296
1294
1288
1277
1259
1231
1203
1176
1157
1132
1107
1079
1049
1012
978
944
918
893
879
865
853
845
841
844
846
846
845
843
849
856
866
874
876
884
885
892
896
898
903
904
910
914
917
920
918
913
918
919
920
919
916
913
915
916
913
914
913
911
910
912
912
911
906
905
906
907
907
907
905
903
904
904
905
906
905
906
908
907
910
911
912
912
914
918
920
921
920
921
923
927
934
934
938
937
941
947
950
953
953
953
958
963
968
972
973
971
976
982
986
989
989
991
992
996
1002
1002
1004
1004
1007
1010
1012
1012
1012
1008
1010
1014
1016
1015
1014
1012
1015
1014
1015
1014
1012
1009
1009
1010
1010
1009
1008
1004
1004
1004
1002
1003
998
997
1000
1004
1004
1007
1003
1001
1003
1005
1007
1006
1004
1003
1004
1008
1010
1011
1012
1010
1012
1015
1015
1016
1014
1012
1009
1007
1010
1011
1010
1007
1008
1011
1010
1010
1008
1003
1000
999
995
991
985
977
974
971
969
965
963
961
961
964
963
961
959
961
960
964
964
963
963
961
964
966
966
965
965
963
964
966
967
966
966
963
963
968
968
967
967
964
964
968
970
971
968
969
969
972
973
974
971
972
973
974
977
978
978
975
975
973
971
968
965
965
966
979
999
1025
1048
1070
1093
1107
1123
1137
1160
1185
1215
1242
1264
1284
1303
1308
1310
1313
1308
1299
1287
1263
1233
1205
1183
1159
1140
1114
1088
1055
1021
985
955
925
901
883
868
858
848
840
843
846
849
850
849
848
855
863
872
879
880
883
888
894
898
902
906
907
914
919
923
924
923
923
924
926
923
924
922
920
921
921
922
920
918
914
914
917
919
915
914
910
912
914
915
914
911
907
908
909
912
911
909
907
909
910
914
916
913
912
912
918
917
922
924
923
927
929
935
936
939
938
941
945
951
956
955
957
963
966
971
974
975
978
983
988
991
993
992
996
999
1003
1007
1005
1008
1007
1013
1014
1017
1019
1018
1017
1019
1022
1022
1022
1019
1018
1018
1019
1021
1021
1016
1015
1015
1016
1017
1015
1011
1008
1006
1009
1006
1007
1006
1002
1005
1006
1008
1010
1007
1006
1008
1006
1008
1010
1010
1005
1010
1011
1014
1014
1017
1015
1018
1018
1018
1016
1014
1013
1012
1014
1015
1017
1014
1011
1015
1016
1015
1012
1006
998
994
987
986
982
972
966
965
965
967
964
962
960
959
961
964
965
963
959
962
963
965
966
965
963
965
967
968
969
968
965
966
969
970
970
970
968
969
969
970
970
967
966
967
969
971
975
973
971
974
975
979
977
976
974
972
970
966
966
968
975
997
1025
1054
1083
1105
1118
1134
1157
1187
1214
1236
1258
1283
1304
1321
1326
1323
1314
1302
1276
1238
1199
1164
1138
1111
1080
1043
1003
963
929
901
881
864
852
845
840
841
842
846
848
847
846
854
862
874
880
883
887
890
893
898
903
907
907
913
914
921
919
920
917
918
921
920
916
916
913
912
914
916
916
913
911
911
913
911
911
909
907
908
909
910
911
905
905
906
906
908
906
906
903
906
909
909
911
908
909
913
918
922
924
923
924
928
932
936
937
940
942
947
949
954
958
962
961
966
969
975
977
979
980
982
987
990
993
995
997
999
1004
1006
1005
1007
1006
1010
1010
1014
1012
1011
1011
1014
1014
1017
1016
1015
1011
1010
1013
1010
1010
1007
1005
1003
1004
1005
1003
1001
1002
1003
1003
1005
1005
1006
1004
1004
1006
1008
1006
1001
1000
1000
1002
1002
1002
1003
1005
1006
1011
1014
1014
1007
1006
1007
1008
1007
1008
1006
1002
1004
1004
1006
1009
1011
1005
1001
1001
999
990
984
981
979
974
973
967
963
959
957
959
959
960
956
956
958
959
961
960
959
960
957
963
962
964
962
959
960
963
966
966
965
965
964
964
969
969
966
966
967
970
970
970
969
967
968
970
972
973
974
971
972
970
969
966
967
969
986
1012
1044
1074
1099
1118
1136
1157
1183
1213
1238
1262
1283
1295
1300
1299
1292
1277
1258
1227
1193
1163
1134
1109
1082
1051
1014
976
942
911
887
869
857
845
841
839
841
844
848
846
851
858
867
877
886
888
891
897
901
907
912
915
917
918
917
920
919
917
917
917
913
915
915
914
910
909
907
909
910
908
905
905
907
906
909
906
906
905
905
906
909
907
906
907
909
909
914
911
911
913
915
919
919
919
922
925
926
931
934
939
940
941
947
954
957
958
961
962
966
971
975
976
979
979
983
987
991
995
998
997
998
1002
1006
1007
1008
1008
1009
1011
1011
1010
1011
1007
1007
1009
1010
1010
1006
1005
1006
1007
1006
1003
1002
999
998
1000
997
993
992
991
987
993
996
1001
1000
998
1002
1001
1002
1000
999
996
997
998
1001
1005
1004
1002
1003
1006
1006
1009
1005
1002
1000
998
1002
1004
1002
1001
1001
1004
1007
1007
1004
997
989
986
981
976
972
966
962
961
959
959
958
956
954
955
956
956
955
951
953
954
957
956
955
952
951
957
958
960
958
953
956
958
960
960
957
957
955
963
964
965
964
960
961
964
969
965
965
964
966
967
968
967
966
962
959
958
959
961
967
984
1011
1044
1070
1093
1108
1116
1137
1162
1189
1214
1235
1249
1261
1265
1264
1259
1247
1226
1197
1169
1148
1127
1104
1074
1042
1006
971
938
907
879
863
852
848
842
841
841
842
846
850
855
862
867
876
885
889
891
893
896
901
910
916
918
919
916
918
918
918
920
916
912
913
915
914
914
912
907
908
908
909
907
904
903
901
903
907
904
902
901
902
905
906
909
907
906
907
909
911
913
914
915
917
923
925
926
926
926
931
932
936
939
941
943
947
954
957
959
961
963
967
971
977
982
981
983
987
990
994
995
998
997
1000
1004
1008
1009
1006
1006
1008
1010
1012
1012
1011
1008
1009
1008
1012
1009
1006
1001
1003
1003
1003
1004
1001
997
996
996
998
999
998
998
999
1000
1004
1006
1004
1000
1001
1003
1002
1004
1003
1003
1007
1010
1013
1014
1013
1011
1011
1014
1015
1012
1006
1003
1003
1003
1005
1005
1005
1004
1006
1005
1003
999
992
982
978
976
973
