947
946
945
949
951
952
953
954
955
959
963
965
965
968
972
974
979
983
985
983
988
992
997
998
1001
1003
1002
1009
1014
1018
1019
1021
1020
1025
1030
1031
1032
1033
1035
1036
1041
1042
1039
1038
1037
1039
1043
1043
1042
1040
1038
1040
1040
1042
1039
1037
1039
1037
1037
1037
1035
1033
1030
1032
1032
1031
1031
1026
1027
1027
1027
1029
1028
1025
1025
1029
1031
1033
1032
1031
1030
1031
1032
1031
1033
1033
1033
1035
1038
1039
1039
1037
1035
1038
1040
1039
1037
1037
1036
1037
1039
1041
1041
1037
1037
1038
1041
1036
1031
1025
1018
1015
1014
1008
1002
999
995
992
990
993
991
987
987
991
993
992
991
988
989
991
989
992
991
988
989
991
993
995
994
994
994
997
1000
999
993
996
996
996
1001
1003
998
998
998
999
1000
999
999
999
997
1000
1003
1002
1001
1001
998
996
995
991
985
985
988
1005
1030
1056
1084
1103
1123
1143
1162
1186
1214
1239
1265
1293
1314
1329
1333
1331
1330
1327
1314
1287
1250
1213
1183
1159
1132
1103
1064
1020
984
955
929
906
887
875
870
869
867
875
875
875
877
885
895
903
910
912
915
920
925
930
935
938
940
943
946
949
949
947
946
946
949
947
946
944
942
943
945
944
942
939
938
937
938
940
937
936
933
935
937
938
936
935
931
936
937
936
936
935
934
935
938
939
939
936
935
939
942
945
949
946
947
951
956
957
958
961
964
966
968
973
978
977
979
985
989
996
996
999
1000
1004
1006
1009
1011
1013
1015
1014
1018
1022
1023
1025
1023
1028
1031
1034
1034
1034
1031
1034
1037
1037
1040
1036
1034
1035
1039
1039
1039
1037
1032
1035
1037
1037
1035
1033
1029
1032
1032
1032
1030
1026
1025
1022
1024
1025
1023
1021
1017
1020
1025
1026
1026
1025
1024
1025
1030
1027
1025
1026
1028
1031
1034
1037
1037
1037
1035
1035
1038
1038
1037
1034
1031
1031
1034
1037
1036
1034
1032
1037
1038
1038
1037
1031
1024
1021
1016
1011
1008
1003
995
995
992
991
990
988
984
984
986
988
986
984
984
988
989
989
988
986
985
988
990
990
990
990
990
991
992
995
994
993
990
991
995
994
992
991
989
992
995
996
994
991
992
995
995
997
997
997
996
998
999
1000
998
997
993
993
990
988
987
989
991
1007
1033
1059
1087
1108
1128
1147
1168
1196
1225
1252
1280
1309
1325
1335
1334
1332
1326
1315
1286
1252
1215
1184
1154
1129
1094
1057
1014
979
951
927
906
889
878
872
868
867
869
871
872
875
873
882
890
899
905
911
910
916
923
929
931
936
939
942
945
948
948
947
944
945
946
946
944
943
940
942
944
943
943
940
939
939
940
941
937
935
934
933
935
933
934
932
930
932
934
935
935
935
932
932
936
938
938
938
938
943
947
949
950
951
953
956
962
966
967
968
973
976
979
984
985
987
988
990
994
998
1000
1002
1002
1007
1010
1014
1016
1016
1021
1021
1024
1024
1027
1027
1029
1031
1031
1033
1030
1031
1031
1033
1034
1035
1033
1035
1034
1034
1034
1034
1032
1031
1027
1026
1026
1022
1023
1020
1018
1019
1019
1020
1020
1016
1016
1016
1021
1021
1019
1020
1019
1021
1023
1024
1022
1021
1020
1025
1027
1032
1032
1033
1034
1035
1036
1036
1036
1033
1029
1028
1031
1031
1026
1029
1028
1031
1033
1032
1030
1026
1021
1018
1012
1009
1005
1000
993
991
990
985
983
982
983
983
984
984
984
983
982
985
984
988
985
984
984
985
988
987
987
985
986
985
989
989
988
987
986
988
988
989
988
988
988
989
990
993
991
989
990
991
993
994
993
995
992
997
997
998
998
995
991
992
988
988
983
981
983
1002
1027
1057
1084
1105
1119
1140
1163
1192
1223
1250
1276
1305
1324
1332
1335
1331
1326
1316
1292
1257
1219
1187
1156
1128
1095
1054
1013
974
948
923
902
882
871
863
863
863
867
868
867
868
871
881
890
898
904
908
910
915
922
928
930
932
933
939
943
945
944
943
941
945
946
944
946
942
941
940
940
942
938
937
935
935
938
935
934
933
931
932
932
933
931
929
929
930
932
933
931
932
931
933
935
937
939
939
941
943
946
947
949
949
947
954
956
960
960
963
963
965
972
974
978
977
978
982
988
991
995
995
996
1002
1005
1009
1011
1013
1013
1018
1021
1024
1027
1026
1027
1031
1035
1036
1037
1038
1035
1039
1041
1042
1040
1036
1033
1035
1037
1036
1035
1033
1028
1030
1032
1032
1030
1028
1025
1024
1025
1026
1025
1022
1018
1020
1020
1021
1023
1023
1022
1028
1030
1030
1030
1029
1026
1026
1028
1031
1033
1033
1031
1035
1037
1037
1037
1037
1035
1033
1035
1033
1033
1028
1029
1034
1035
1034
1036
1035
1031
1031
1031
1027
1023
1014
1008
1006
1004
1001
999
994
989
990
988
991
989
988
985
986
986
988
987
988
983
986
986
986
988
987
987
989
990
991
989
989
988
990
991
991
990
987
987
990
994
996
993
995
992
995
996
997
996
994
994
997
999
1001
1001
996
996
996
997
997
992
989
983
983
985
986
998
1016
1043
1073
1103
1127
1145
1158
1180
1212
1239
1267
1291
1316
1332
1342
1348
1346
1340
1327
1298
1257
1222
1190
1158
1124
1087
1046
1004
970
940
912
886
868
864
863
860
861
865
866
870
875
881
888
896
904
911
916
919
923
927
933
939
944
945
942
942
941
942
943
939
938
933
934
936
939
935
933
929
930
930
931
929
927
925
926
926
927
927
925
923
924
926
930
927
926
925
929
931
929
929
931
931
935
939
941
945
944
946
948
953
957
960
959
963
967
968
973
976
978
980
985
990
993
997
998
1001
1007
1008
1012
1015
1014
1016
1018
1019
1022
1023
1020
1022
1021
1025
1027
1027
1025
1024
1026
1027
1028
1026
1024
1021
1021
1023
1021
1019
1019
1017
1017
1017
1017
1017
1016
1014
1013
1015
1012
1015
1012
1012
1013
1015
1018
1016
1014
1014
1015
1016
1015
1017
1017
1016
1017
1022
1023
1023
1025
1023
1024
1026
1024
1023
1022
1018
1019
1022
1028
1027
1028
1024
1025
1026
1023
1018
1011
1002
997
997
995
988
985
980
977
981
980
980
976
974
975
978
979
978
975
976
977
981
980
980
978
978
978
979
983
983
982
980
983
983
984
985
981
981
983
985
986
987
985
982
983
982
986
985
986
984
985
986
991
990
988
988
990
989
990
986
982
979
979
984
989
1005
1027
1052
1080
1105
1126
1141
1156
1173
1201
1227
1253
1275
1294
1305
1309
1309
1307
1297
1279
1251
1216
1185
1160
1134
1106
1075
1037
1002
975
944
919
895
878
869
865
864
863
862
866
870
871
874
880
886
895
901
907
908
911
916
921
927
931
934
935
933
937
936
936
936
936
933
936
938
938
937
932
931
931
931
932
932
931
927
929
929
930
928
926
924
926
926
926
924
923
922
922
923
926
926
928
928
929
932
931
934
936
937
942
944
949
951
951
952
958
964
967
968
970
973
978
983
987
988
990
992
993
995
1001
1002
1004
1005
1008
1012
1015
1015
1018
1017
1021
1023
1024
1025
1025
1025
1026
1029
1028
1027
1026
1025
1026
1027
1029
1029
1026
1023
1021
1023
1024
1023
1020
1015
1017
1015
1016
1014
1010
1008
1011
1012
1016
1016
1016
1016
1018
1020
1020
1021
1017
1018
1021
1023
1025
1026
1029
1030
1031
1033
1034
1035
1033
1030
1029
1029
1032
1031
1030
1030
1028
1032
1031
1029
1026
1020
1017
1012
1010
1002
998
993
988
988
985
985
985
982
983
983
985
984
984
984
983
986
988
987
984
984
987
988
990
990
990
986
986
986
989
988
986
986
988
991
990
992
989
988
989
994
994
993
990
992
992
995
996
1000
996
994
996
998
999
1000
996
993
992
988
988
986
982
987
1003
1026
1053
1075
1096
1113
1130
1150
1175
1200
1225
1251
1275
1295
1305
1309
1308
1305
1299
1290
1262
1228
1196
1168
1145
1121
1094
1057
1019
980
954
932
909
893
879
870
871
870
873
873
873
873
875
882
892
899
906
906
912
917
922
926
930
933
936
942
945
946
946
942
945
947
950
948
946
944
944
943
944
940
938
937
935
936
937
936
934
931
933
935
934
931
929
928
929
936
937
935
933
931
934
937
938
938
939
937
941
947
949
950
949
952
956
961
965
965
965
967
970
974
978
983
984
982
988
993
996
1000
1002
1003
1010
1013
1015
1018
1019
1019
1024
1026
1032
1032
1031
1030
1033
1035
1035
1037
1035
1033
1034
1033
1034
1031
1028
1025
1026
1025
1024
1025
1023
1018
1019
1017
1016
1016
1013
1013
1012
1016
1018
1016
1020
1017
1020
1023
1025
1023
1022
1020
1024
1025
1030
1031
1030
1027
1028
1030
1031
1031
1025
1023
1024
1028
1025
1026
1026
1024
1027
1026
1026
1023
1014
1005
1002
998
996
992
988
985
985
985
986
985
981
980
981
982
985
982
981
979
978
982
983
981
981
980
980
984
985
986
983
981
982
983
985
984
984
983
983
986
986
988
988
986
989
991
994
993
992
991
993
994
996
993
991
989
990
985
982
981
977
981
994
1019
1046
1070
1090
1108
1123
1140
1167
1196
1223
1248
1278
1302
1314
1320
1317
1311
1307
1287
1256
1219
1182
1153
1128
1098
1064
1021
984
951
926
904
886
872
862
858
859
862
866
868
869
867
873
883
891
898
900
904
910
917
923
928
932
933
937
941
939
941
941
937
938
935
937
938
935
933
932
933
932
930
929
925
926
927
927
926
924
923
923
923
924
925
922
920
923
926
927
927
929
923
928
930
932
933
932
932
932
937
942
941
942
942
945
950
952
958
957
958
963
965
971
976
977
976
981
987
992
993
995
997
1000
1005
1006
1012
1009
1010
1017
1018
1022
1023
1022
1022
1024
1025
1027
1026
1026
1023
1024
1027
1026
1025
1024
1019
1018
1019
1019
1019
1016
1012
1013
1013
1014
1014
1011
1009
1008
1010
1013
1011
1008
1010
1013
1012
1017
1015
1015
1010
1010
1012
1014
1014
1016
1015
1018
1023
1023
1022
1022
1018
1021
1018
1018
1019
1019
1019
1021
1022
1023
1020
1020
1017
1012
1008
1004
997
991
985
983
980
978
977
975
971
969
968
973
973
970
967
971
972
972
971
971
967
971
972
976
976
976
974
976
978
979
980
978
978
979
980
983
982
979
978
980
980
980
980
982
978
980
980
982
985
983
980
979
979
979
972
969
965
968
981
1008
1034
1061
1088
1112
1132
1153
1180
1208
1234
1262
1289
1311
1324
1324
1323
1320
1311
1290
1252
1212
1177
1147
1117
1086
1042
997
957
929
905
882
864
849
847
847
851
855
856
856
858
866
876
887
892
897
899
903
907
913
918
922
922
925
929
930
931
930
927
927
929
927
928
927
924
924
924
925
925
922
919
919
921
922
920
919
915
917
919
919
918
915
914
916
917
918
916
914
912
913
917
919
919
921
916
919
924
928
930
928
931
934
940
944
943
944
950
951
958
963
967
969
969
973
976
982
983
986
988
991
995
999
1001
1000
999
1001
1005
1009
1010
1010
1011
1009
1014
1017
1018
1018
1017
1019
1020
1021
1020
1020
1016
1017
1016
1020
1019
1019
1015
1016
1017
1014
1012
1012
1009
1007
1006
1009
1006
1001
999
1001
1001
1002
1003
1003
1003
1005
1008
1008
1008
1005
1000
1003
1010
1013
1014
1010
1013
1012
1014
1017
1020
1017
1015
1014
1015
1015
1016
1015
1014
1015
1019
1018
1018
1014
1008
1009
1002
998
995
987
982
979
975
974
971
972
966
968
969
968
968
967
967
968
970
972
972
970
968
971
974
975
973
975
971
971
972
976
976
974
969
970
972
974
974
974
971
974
975
976
977
975
974
974
977
977
979
976
977
976
979
981
980
979
978
977
977
975
974
970
968
968
976
991
1014
1039
1064
1090
1111
1127
1144
1166
1193
1220
1247
1275
1301
1317
1321
1324
1321
1319
1300
1270
1231
1197
1166
1141
1115
1082
1044
1002
970
944
917
896
873
862
856
852
852
852
851
852
855
857
859
864
867
874
884
889
895
896
898
905
910
917
921
922
923
924
928
930
929
926
925
926
925
928
929
926
924
924
927
926
924
921
920
921
923
921
918
916
915
911
914
915
916
913
909
911
911
915
913
913
911
914
915
915
915
913
916
916
920
924
925
925
925
928
933
936
937
939
938
941
948
951
954
955
954
959
960
963
967
968
968
971
976
979
981
983
983
987
990
993
997
1001
999
1001
1006
1009
1009
1010
1009
1012
1013
1017
1016
1017
1018
1019
1019
1020
1022
1020
1019
1019
1019
1020
1020
1016
1012
1013
1014
1015
1012
1011
1006
1005
1006
1005
1005
1005
999
999
1002
1003
1003
998
998
1000
1004
1006
1005
1006
1005
1003
1008
1008
1008
1008
1006
1011
1014
1015
1015
1014
1018
1017
1020
1022
1018
1018
1011
1012
1012
1015
1019
1015
1016
1013
1017
1019
1017
1014
1008
1004
1000
997
992
988
982
978
978
975
976
975
972
974
975
975
976
972
972
973
976
976
975
976
971
974
975
977
977
975
975
975
976
979
977
972
973
974
979
976
979
978
976
977
979
980
980
979
978
981
983
986
987
985
983
984
985
988
988
983
978
977
973
972
970
972
978
1002
1027
1051
1077
1098
1114
1128
1150
1179
1209
1231
1256
1282
1303
1316
1319
1319
1315
1306
1282
1248
1209
1176
1145
1117
1087
1049
1007
968
935
909
885
871
858
852
849
851
854
856
856
855
856
864
875
884
891
894
896
901
907
912
918
922
922
927
932
933
935
933
933
933
935
936
936
931
927
927
928
928
926
924
921
924
924
922
925
921
916
916
919
918
920
919
914
917
919
920
919
918
916
921
920
926
925
925
925
927
929
934
935
934
932
937
940
943
944
944
942
950
955
956
959
960
961
963
967
972
973
975
978
982
985
991
992
993
993
999
1001
1004
1003
1006
1008
1013
1016
1017
1019
1020
1019
1019
1021
1023
1023
1021
1019
1019
1022
1021
1021
1018
1016
1016
1019
1018
1017
1016
1013
1011
1012
1012
1012
1010
1006
1006
1008
1007
1008
1005
1005
1004
1006
1009
1010
1011
1007
1010
1013
1012
1013
1009
1009
1009
1015
1015
1018
1016
1016
1015
1016
1020
1020
1020
1015
1014
1012
1016
1016
1018
1014
1016
1021
1021
1020
1021
1016
1014
1013
1011
1006
998
991
988
986
984
979
976
972
974
972
974
971
969
967
968
970
973
973
970
969
971
973
974
975
971
971
970
974
975
977
974
973
975
977
979
980
979
977
977
980
981
982
980
979
981
979
982
980
980
977
978
981
982
983
982
978
980
976
976
970
963
963
968
978
994
1019
1042
1064
1088
1112
1131
1149
1174
1201
1230
1260
1289
1309
1319
1322
1321
1319
1309
1282
1245
1204
1174
1145
1114
1082
1039
994
958
934
913
888
867
855
848
850
849
853
853
853
854
862
868
879
884
889
895
898
906
910
915
917
919
923
927
926
927
926
923
925
927
924
922
919
920
921
923
920
919
915
916
918
917
916
914
912
912
913
915
914
916
912
912
914
914
915
915
914
914
913
915
912
914
915
917
920
925
925
927
927
928
934
938
942
942
941
945
950
957
959
961
963
964
971
975
979
982
983
985
987
990
998
999
998
1000
1004
1006
1005
1008
1007
1009
1016
1015
1018
1016
1016
1015
1017
1019
1017
1015
1013
1013
1015
1015
1014
1014
1009
1011
1013
1014
1013
1008
1008
1006
1007
1007
1007
1005
1001
1000
1000
999
1000
998
996
999
1001
1003
1005
1002
1003
1004
1003
1005
1006
1008
1010
1012
1015
1016
1017
1015
1015
1015
1017
1017
1016
1016
1017
1015
1017
1019
1019
1019
1017
1014
1012
1010
1005
997
990
985
984
984
978
974
970
967
968
971
970
968
968
969
970
972
971
968
967
966
970
972
973
974
973
973
974
975
977
974
974
973
975
976
977
975
974
970
975
975
975
974
972
974
975
977
977
977
976
979
978
981
980
979
979
977
979
982
980
977
972
969
968
971
979
993
1017
1044
1072
1101
1117
1133
1151
1181
1212
1241
1270
1293
1312
1323
1327
1328
1323
1304
1272
1233
1199
1169
1137
1106
1070
1026
988
955
927
899
876
863
856
852
848
850
852
850
854
858
862
870
877
885
893
897
899
903
907
912
918
925
924
925
926
928
929
928
927
927
924
923
924
926
924
924
921
920
923
923
923
919
916
913
913
916
915
912
909
908
911
912
913
912
908
911
912
915
915
913
912
914
916
922
922
923
922
925
929
934
934
940
940
944
948
953
951
953
955
959
965
967
968
971
972
977
977
983
985
986
986
993
996
1000
1002
1005
1006
1004
1009
1013
1015
1014
1013
1013
1015
1021
1022
1020
1018
1017
1019
1021
1020
1019
1016
1014
1014
1013
1013
1010
1007
1005
1005
1008
1005
1004
1002
999
998
1001
1003
999
997
998
1001
1005
1003
1003
1004
1003
1005
1010
1011
1012
1014
1014
1017
1020
1019
1016
1017
1018
1018
1021
1016
1013
1010
1011
1015
1018
1019
1018
1015
1013
1014
1014
1010
1005
995
992
989
987
982
978
974
973
972
975
972
971
969
971
973
978
975
973
972
973
972
977
973
972
972
972
973
972
973
971
969
971
974
974
975
974
973
973
975
977
977
975
975
975
975
979
980
980
978
978
982
983
982
983
982
984
984
983
981
978
973
968
967
971
980
995
1019
1046
1075
1101
1123
1139
1159
1187
1219
1247
1275
1299
1315
1323
1330
1329
1321
1305
1267
1225
1189
1161
1128
1093
1052
1010
973
942
915
887
868
855
851
852
854
851
856
855
859
864
873
880
888
894
899
906
910
914
920
923
929
933
933
933
930
931
932
934
929
930
926
925
927
925
925
923
920
919
920
921
919
918
916
914
915
918
918
916
914
914
917
920
919
920
917
919
920
923
925
925
926
926
930
933
937
938
938
940
945
949
951
951
955
959
962
969
969
971
974
975
980
987
988
989
992
995
1001
1007
1008
1008
1009
1012
1015
1020
1020
1019
1018
1017
1019
1021
1021
1019
1016
1016
1017
1019
1018
1014
1012
1010
1011
1013
1011
1009
1007
1005
1005
1005
1003
1002
1002
1001
1000
1002
1005
1004
1004
1003
1006
1008
1010
1008
1004
1004
1006
1009
1010
1011
1011
1014
1014
1017
1017
1016
1015
1012
1013
1014
1014
1014
1013
1014
1017
1019
1018
1019
1013
1006
1003
997
993
990
984
980
977
975
975
972
969
968
970
971
970
968
967
970
971
973
971
971
969
970
972
975
974
974
972
972
973
976
978
979
975
975
978
980
980
979
977
978
980
983
982
978
977
978
978
981
980
977
976
979
981
983
981
979
975
972
970
970
968
972
983
1002
1031
1055
