993
997
997
997
997
997
998
1001
1002
1000
1000
998
998
999
1000
997
995
992
993
994
992
990
988
986
986
988
987
986
984
985
986
990
991
990
990
989
990
991
991
990
988
988
988
995
994
995
996
999
1001
1006
1004
1001
1003
998
999
999
997
999
994
996
997
1001
999
998
996
993
992
987
980
975
968
965
965
963
959
953
951
952
953
954
955
952
951
951
952
956
956
955
952
955
956
960
961
959
960
958
962
965
963
962
961
958
963
964
963
963
963
962
961
965
965
963
963
963
965
965
965
966
966
964
969
970
971
969
968
966
967
965
962
958
955
957
963
972
992
1013
1040
1062
1086
1104
1119
1133
1153
1180
1206
1230
1256
1277
1292
1303
1308
1306
1304
1294
1276
1247
1218
1193
1167
1144
1117
1092
1058
1026
985
954
927
900
881
864
853
847
842
842
844
850
850
852
850
854
862
872
879
884
887
890
896
900
904
908
908
912
917
920
921
924
923
923
926
928
928
924
920
920
922
923
922
921
918
917
918
921
919
916
916
914
917
919
916
918
916
913
917
918
917
915
915
915
915
918
918
917
917
917
918
922
920
920
921
921
924
928
932
930
934
930
938
942
946
949
948
950
954
958
964
964
966
964
971
972
978
980
982
984
990
995
999
998
999
1002
1005
1011
1010
1012
1011
1012
1014
1016
1020
1019
1016
1017
1018
1021
1021
1018
1017
1017
1016
1020
1017
1015
1016
1012
1013
1014
1013
1011
1009
1004
1007
1008
1010
1008
1007
1008
1009
1013
1015
1016
1012
1012
1013
1017
1016
1018
1014
1016
1019
1021
1020
1020
1018
1017
1020
1022
1019
1016
1014
1013
1017
1018
1017
1015
1012
1012
1014
1015
1013
1010
1005
997
994
988
985
982
979
972
972
972
971
971
969
967
969
971
969
972
968
969
970
973
970
968
970
968
969
970
972
970
970
969
972
973
973
973
971
970
973
974
973
972
971
972
975
975
977
977
976
976
979
981
981
981
981
980
981
979
979
974
966
962
963
968
982
1001
1026
1051
1078
1099
1116
1130
1150
1179
1208
1236
1259
1283
1298
1309
1313
1317
1312
1304
1286
1253
1220
1194
1165
1136
1109
1077
1044
1002
966
937
910
885
872
861
855
850
846
848
852
851
854
855
859
866
876
883
887
892
892
894
899
905
910
913
914
918
921
923
924
926
923
924
926
927
925
924
923
919
920
919
920
920
917
915
917
916
914
915
911
909
909
911
910
908
908
906
908
907
909
908
907
906
908
911
908
909
909
909
914
915
917
919
920
920
926
929
932
934
934
938
943
949
951
950
953
956
959
963
966
967
968
969
974
978
981
982
983
985
987
991
993
993
995
996
1000
1005
1005
1006
1004
1005
1008
1012
1012
1010
1008
1007
1009
1011
1011
1009
1009
1005
1009
1010
1010
1006
1004
1003
1003
1003
1001
1000
998
994
997
1000
1001
1000
1001
1000
1002
1002
1003
1000
998
997
1000
1003
1002
1003
1005
1006
1008
1008
1011
1009
1006
1003
1004
1006
1006
1006
1004
1003
1006
1008
1006
1005
1001
998
996
990
982
979
973
967
966
961
959
955
956
954
956
955
957
954
951
953
954
958
957
957
956
953
957
960
959
958
960
958
962
964
964
961
962
960
962
964
965
963
964
963
963
966
965
965
965
962
964
967
967
967
966
964
964
962
962
957
950
951
953
964
982
1007
1029
1052
1079
1098
1115
1138
1165
1196
1231
1265
1291
1306
1312
1309
1307
1290
1257
1213
1174
1139
1108
1076
1036
989
947
914
890
869
850
837
832
828
828
834
833
832
832
841
850
861
869
872
876
879
885
894
895
902
904
903
905
907
911
911
909
907
906
907
905
904
902
900
903
902
902
902
894
894
896
898
899
895
893
892
893
894
894
891
891
890
895
896
895
893
893
894
897
900
901
900
901
901
904
908
907
909
910
912
918
923
925
926
926
929
934
940
942
944
944
947
952
957
960
962
963
966
970
973
976
978
979
981
983
990
991
993
992
993
999
999
1000
1000
999
998
1000
999
1000
998
997
995
996
996
996
994
992
991
991
991
991
991
986
985
986
988
988
988
989
988
991
993
993
992
990
988
990
994
997
995
993
994
998
1001
1001
999
998
995
997
996
995
990
990
990
993
995
995
993
991
989
989
985
979
973
967
960
959
957
954
949
945
945
946
949
948
946
944
941
947
946
947
947
946
944
948
949
948
947
946
946
947
948
950
948
946
945
948
950
948
948
950
946
948
951
950
952
949
949
951
954
954
954
954
954
956
959
956
953
948
943
944
944
949
960
981
1007
1038
1065
1084
1097
1115
1140
1173
1201
1230
1255
1275
1291
1299
1305
1305
1296
1279
1246
1207
1174
1141
1110
1076
1040
998
957
926
896
869
847
833
827
823
820
820
822
823
826
828
828
838
842
856
861
869
868
870
872
882
885
889
892
889
894
895
901
899
899
899
896
898
900
899
897
895
893
896
894
896
895
893
891
890
894
892
887
886
886
887
888
886
884
885
883
884
887
885
883
882
882
884
886
887
887
887
888
892
895
897
899
898
901
906
911
914
914
915
918
922
927
930
931
933
939
943
948
951
950
952
957
960
963
966
968
966
968
974
975
981
981
978
982
982
985
986
986
986
985
987
988
987
987
985
983
986
988
986
988
984
981
982
980
984
980
980
975
977
980
976
979
978
979
981
981
980
979
978
977
978
980
982
979
977
981
984
987
986
985
984
982
987
985
986
984
983
980
983
985
987
987
986
986
987
987
984
976
968
961
960
957
954
949
943
938
938
940
940
935
934
934
937
939
941
938
937
934
937
940
939
940
937
935
939
941
941
939
939
936
941
942
943
943
941
942
944
946
945
944
945
945
946
947
949
947
947
945
944
945
948
945
941
934
935
938
948
963
991
1020
1054
1079
1103
1123
1153
1184
1218
1250
1276
1298
1306
1306
1304
1293
1266
1221
1177
1137
1103
1072
1032
984
942
905
878
856
836
820
809
808
807
811
817
817
817
817
828
839
848
851
857
859
864
871
878
881
886
886
892
895
898
896
895
893
893
895
893
890
889
888
887
888
886
887
884
882
882
881
882
880
880
878
880
880
882
880
878
876
877
882
880
882
882
881
886
886
890
890
889
892
892
897
900
903
905
906
909
911
914
917
917
922
927
932
934
936
937
939
946
952
954
956
958
958
965
969
971
972
972
973
978
982
985
985
985
986
990
993
991
989
990
989
991
992
992
990
986
985
984
984
983
982
981
977
978
979
978
976
976
974
976
979
983
980
979
978
978
980
979
978
977
977
979
982
983
986
986
986
989
992
991
991
988
986
986
989
989
988
985
986
988
988
990
986
984
979
975
971
967
961
957
951
949
949
947
943
941
939
942
942
943
943
942
940
942
945
946
945
944
943
945
946
947
947
945
945
946
947
949
949
943
943
946
949
949
948
947
945
948
951
950
951
949
949
952
953
956
952
953
953
953
955
953
948
945
943
946
955
971
999
1024
1056
1084
1107
1124
1147
1174
1205
1234
1264
1285
1300
1303
1304
1300
1295
1277
1243
1203
1166
1139
1108
1078
1040
993
951
918
892
867
847
833
826
826
830
833
835
834
833
839
851
859
867
870
874
877
882
887
893
895
896
901
904
909
908
908
907
910
907
906
907
903
901
903
904
901
900
897
895
898
899
897
897
896
893
896
898
897
895
894
896
894
894
899
894
893
895
894
897
900
900
900
900
904
909
908
911
911
913
919
924
926
927
930
930
937
941
944
948
948
952
957
962
964
968
970
973
975
983
983
984
987
986
991
994
998
999
994
993
995
999
1000
1000
999
996
1000
999
998
995
993
991
994
994
996
993
990
988
987
988
991
990
990
991
992
996
999
998
996
995
995
1000
997
998
997
996
999
1000
1003
1004
1002
1000
1002
1003
1002
999
995
993
997
997
999
997
998
997
994
996
994
985
979
971
969
966
966
960
957
955
955
955
956
954
952
951
951
954
954
952
950
949
951
952
952
953
949
950
951
955
957
956
953
952
954
958
955
955
953
952
953
958
959
958
955
954
957
961
961
962
960
961
962
964
966
965
965
962
963
962
956
952
947
948
951
965
987
1014
1036
1063
1087
1101
1118
1138
1171
1199
1230
1258
1283
1299
1305
1308
1311
1308
1293
1266
1230
1194
1165
1138
1112
1077
1035
991
953
920
892
866
847
837
836
834
836
836
836
835
841
848
858
865
870
873
877
885
889
892
898
899
904
908
910
909
910
910
913
914
914
910
908
908
908
908
906
906
904
900
901
902
901
897
892
891
894
895
895
893
894
893
894
897
896
898
897
895
897
901
903
904
905
906
911
916
920
924
923
927
932
936
940
941
945
945
952
955
961
961
962
964
970
976
977
979
980
983
987
990
992
994
994
995
996
998
1000
1000
1000
997
998
999
1000
1000
999
999
1001
999
999
996
996
991
995
996
994
991
989
989
991
994
995
995
993
991
992
992
994
993
990
990
994
996
997
999
999
997
1000
1001
998
995
992
993
996
999
999
999
998
997
997
997
994
986
976
972
969
968
964
957
951
949
950
952
952
949
946
947
948
951
950
950
949
950
950
954
952
951
951
952
953
953
953
955
954
954
955
957
960
958
957
956
958
960
962
960
958
957
956
960
962
960
960
960
961
963
963
961
957
956
951
951
949
951
958
974
1001
1031
1057
1080
1099
1118
1144
1176
1206
1234
1260
1283
1302
1312
1318
1315
1304
1293
1266
1230
1192
1158
1129
1094
1062
1023
982
945
917
889
868
853
842
833
831
829
830
834
836
835
836
841
852
861
870
875
878
881
885
896
900
904
905
905
910
911
912
909
908
907
906
908
907
906
903
900
902
903
900
899
896
895
896
897
896
893
893
892
891
894
893
893
892
890
891
896
896
895
896
895
897
898
904
904
904
906
910
914
913
916
920
921
925
929
934
935
936
938
944
948
951
955
956
958
964
969
971
974
977
979
982
985
990
992
992
993
998
999
1001
1001
1000
999
1001
1004
1003
1001
997
997
997
997
998
997
994
991
990
993
992
990
989
988
991
994
993
996
994
991
993
992
994
991
993
993
994
1001
1003
1003
1003
1000
1001
1001
999
997
995
994
996
996
997
997
997
998
998
996
994
983
976
971
967
965
958
957
951
951
951
953
954
951
949
949
950
954
953
954
954
954
954
957
959
957
954
954
958
956
957
957
954
954
958
956
960
958
955
959
960
962
961
958
958
958
958
961
964
964
963
963
964
966
966
964
963
957
956
955
955
956
971
991
1018
1047
1071
1092
1108
1124
1150
1176
1207
1233
1260
1286
1307
1317
1319
1318
1308
1293
1267
1230
1193
1158
1127
1095
1061
1021
978
943
913
888
869
855
842
834
834
830
832
837
842
839
837
845
854
865
873
875
878
880
887
893
898
900
902
903
907
912
911
912
910
907
908
909
911
909
905
903
905
906
905
903
900
900
901
902
904
901
902
899
900
901
901
901
900
897
898
900
900
895
897
894
895
899
901
900
900
900
904
907
908
909
911
911
916
921
925
925
925
929
933
939
941
946
947
950
955
960
965
966
968
969
973
976
979
982
983
982
987
991
992
994
991
994
998
1001
1003
1003
1001
1002
1003
1006
1004
1003
1002
1000
1001
1004
1003
998
997
994
996
996
996
996
994
994
994
999
997
1000
997
997
999
998
1002
999
998
995
996
996
994
996
994
998
1001
1004
1004
1005
1003
1002
1004
1000
1004
1001
997
997
1001
999
1000
998
997
1001
999
1001
1000
995
988
983
979
976
974
970
965
960
959
961
962
959
957
955
957
957
955
954
957
952
954
958
960
958
955
958
957
960
959
959
957
955
958
961
962
960
960
960
964
964
965
966
964
964
965
967
969
967
967
968
970
972
972
972
969
971
973
973
975
972
973
968
966
966
963
962
963
967
980
1003
1029
1052
1077
1099
1119
1139
1161
1185
1212
1234
1266
1292
1311
1322
1327
1327
1327
1322
1306
1273
1232
1194
1164
1139
1111
1077
1041
1001
966
940
917
893
872
854
847
840
837
835
833
835
840
843
844
847
852
859
869
877
883
885
887
889
895
901
906
909
911
912
916
919
921
921
920
918
920
922
919
917
920
916
916
916
917
914
912
907
910
910
907
904
906
905
906
904
904
903
903
900
902
903
903
901
902
902
904
906
905
907
905
906
909
911
913
915
915
916
921
923
928
927
927
930
934
936
939
940
942
944
949
952
957
958
959
961
965
970
971
974
976
978
982
987
990
991
990
992
996
998
1000
1001
1002
1000
1005
1009
1012
1010
1010
1010
1012
1013
1015
1014
1011
1007
1011
1014
1013
1010
1009
1007
1008
1007
1008
1003
1002
998
1000
1002
1003
1004
1003
1002
1004
1006
1006
1004
1002
1003
1002
1003
1000
998
998
1000
1002
1006
1008
1011
1010
1009
1011
1012
1014
1011
1008
1008
1007
1011
1012
1012
1011
1011
1012
1014
1013
1011
1002
994
991
988
984
978
973
970
966
966
964
964
962
961
962
964
965
964
965
961
965
966
964
964
965
966
967
969
969
969
970
968
971
973
972
972
972
969
972
972
974
972
970
971
973
972
975
973
974
974
977
976
978
977
976
976
978
976
977
974
966
963
967
973
987
1009
1035
1060
1090
1115
1132
1150
1173
1202
1228
1254
1278
1301
1318
1323
1325
1326
1322
1311
1290
1253
1218
1187
1160
1133
1104
1069
1033
993
959
930
902
880
867
860
855
851
851
851
857
860
861
864
872
878
890
896
899
902
902
905
915
920
924
927
928
928
928
932
934
930
929
929
930
931
930
928
929
924
925
927
923
921
920
918
921
922
921
919
919
917
917
922
921
920
919
918
920
921
920
919
919
919
923
925
925
923
921
923
926
930
933
932
933
937
941
946
949
950
953
951
959
961
964
965
967
968
974
978
982
984
985
988
993
999
1001
1002
1004
1006
1010
1013
1011
1016
1013
1015
1018
1021
1021
1020
1018
1020
1020
1023
1023
1021
1019
1017
1019
1022
1021
1019
1017
1017
1018
1017
1016
1013
1010
1010
1010
1013
1014
1013
1013
1013
1019
1019
1020
1018
1018
1017
1018
1018
1018
1018
1017
1017
1020
1023
1025
1026
1023
1022
1023
1025
1023
1020
1017
1016
1017
1019
1021
1019
1018
1018
1021
1022
1019
1016
1009
1003
997
996
993
986
982
976
976
977
976
977
974
973
974
977
977
977
975
973
973
978
977
976
976
975
975
978
977
976
975
975
977
978
980
977
978
974
979
980
981
980
980
981
982
983
984
984
985
983
986
988
989
990
988
986
985
988
983
980
974
973
974
981
998
1021
1047
1073
1097
1117
1135
1153
1179
1211
1244
1275
1300
1318
1328
1327
1330
1324
1307
1269
1229
1189
1161
1133
1098
1056
1009
965
939
913
892
875
864
857
859
861
863
863
861
864
870
882
891
897
899
901
906
913
919
924
928
928
933
937
936
936
935
933
934
937
937
933
933
932
933
934
931
933
928
928
926
926
926
922
922
920
922
923
921
922
921
919
921
923
925
922
923
923
928
929
930
932
933
935
939
944
946
950
948
953
957
963
966
969
968
971
975
981
985
985
984
986
990
998
998
1000
1002
1004
1006
1010
1012
1014
1011
1014
1016
1022
1023
1022
1021
1020
1021
1022
1024
1022
1021
1018
1021
1024
1023
1025
1023
1020
1021
1022
1019
1018
1015
1011
1015
1017
1016
1015
1016
1015
1018
1018
1016
1017
1016
1012
1015
1016
1015
1012
1008
1011
1014
1019
1023
1021
1018
1020
1021
1021
1021
1019
1016
1015
1017
1018
1019
1019
1018
1018
1019
1025
1022
1019
1015
1007
1003
999
995
991
984
979
976
976
975
976
972
969
969
973
970
973
969
969
972
973
974
974
974
972
974
976
977
975
977
977
981
981
980
979
980
978
979
982
981
981
980
980
980
983
983
982
981
980
983
984
985
984
983
980
980
979
975
970
969
976
995
1022
1052
1084
1105
1123
1146
1174
1205
1237
1266
1295
1318
1335
1340
1337
1331
1314
1286
1245
1208
1172
1138
1105
1068
1022
981
946
916
893
872
862
858
855
854
854
859
859
861
865
871
879
890
899
902
905
908
911
919
926
929
931
933
932
934
936
936
931
929
930
929
931
929
927
926
924
922
924
923
921
918
917
917
921
917
918
915
916
916
918
919
919
919
916
923
923
923
922
924
925
926
929
930
931
930
930
935
939
940
943
944
945
949
956
958
959
963
964
967
972
973
977
979
979
986
991
992
994
996
997
1002
1007
1009
1013
1014
1013
1016
1020
1022
1022
1020
1019
1021
1025
1025
1023
1021
1020
1020
1022
1020
1017
1017
1012
1017
1017
1017
1014
1011
1006
1007
1010
1011
1010
1011
1010
1012
1013
1017
1012
1011
1010
1012
1013
1015
1012
1012
1013
1019
1022
1023
1024
1023
1021
1022
1023
1020
1018
1014
1015
1016
1018
1016
1015
1016
1014
1014
1015
1012
1008
999
990
990
988
982
978
975
969
972
973
973
972
970
969
973
973
975
975
971
971
973
976
977
976
974
972
975
977
978
976
977
976
976
977
976
977
976
974
975
978
979
979
979
977
979
981
982
980
980
981
984
982
985
985
983
983
982
979
975
970
974
980
999
1026
1052
1077
1100
1118
1137
1166
1197
1231
1262
1292
1317
1335
1338
1337
1331
1319
1292
1257
1219
1187
1154
1120
1087
1049
1002
963
930
903
880
865
856
851
850
851
854
859
861
862
870
878
889
896
901
905
906
912
918
924
925
929
928
926
927
928
929
927
925
923
922
924
923
922
920
918
920
922
920
918
917
915
915
918
916
915
914
912
914
914
914
915
914
914
916
917
921
920
920
920
924
926
929
931
932
933
937
942
946
947
948
952
959
964
967
970
973
975
981
984
986
989
993
994
998
1001
1005
1006
1004
1007
1013
1012
1016
1017
1015
1013
