967
973
974
975
978
981
983
989
993
991
997
999
1002
1005
1005
1008
1009
1008
1013
1016
1017
1015
1018
1014
1016
1016
1018
1016
1016
1014
1018
1018
1016
1012
1011
1010
1011
1014
1012
1011
1007
1005
1010
1012
1011
1011
1013
1012
1013
1014
1014
1013
1011
1009
1011
1010
1012
1011
1011
1010
1015
1018
1019
1016
1016
1014
1014
1015
1013
1010
1008
1010
1010
1009
1011
1012
1012
1011
1012
1011
1009
1004
996
990
988
984
981
977
968
967
967
968
967
965
963
961
964
964
966
964
964
964
963
966
966
965
963
962
968
963
965
968
965
965
967
969
969
969
967
968
968
972
972
971
970
969
970
974
974
972
972
970
972
975
975
973
969
965
963
962
961
966
978
1002
1034
1059
1086
1101
1112
1134
1163
1195
1221
1245
1262
1277
1291
1298
1294
1284
1263
1233
1199
1168
1143
1110
1076
1032
992
957
925
896
871
856
851
850
850
849
851
851
853
858
866
874
880
885
890
894
898
901
905
908
914
915
920
922
921
923
924
924
925
922
919
920
921
919
921
918
917
916
917
917
915
915
911
911
914
916
915
914
910
911
910
913
912
910
910
911
915
916
916
915
916
918
921
923
926
925
926
929
932
937
937
940
940
943
947
952
957
956
957
962
967
969
972
975
978
980
983
987
990
992
994
995
999
1003
1005
1005
1005
1008
1011
1012
1013
1010
1013
1012
1015
1014
1019
1015
1016
1013
1011
1016
1017
1010
1010
1007
1009
1010
1009
1006
1004
1002
1005
1006
1009
1009
1007
1006
1008
1009
1009
1008
1006
1003
1005
1005
1006
1007
1007
1007
1012
1016
1016
1013
1010
1010
1009
1010
1008
1007
1004
1003
1004
1008
1007
1006
1004
1004
1000
1002
996
987
984
976
975
975
972
966
961
959
960
963
962
960
958
956
959
959
960
959
957
956
959
960
960
960
959
960
962
963
962
961
961
960
962
963
964
962
959
963
965
965
966
965
968
964
966
968
969
968
966
968
967
970
971
969
967
961
959
959
959
960
969
990
1020
1048
1073
1092
1105
1121
1151
1182
1210
1234
1254
1275
1292
1298
1298
1294
1286
1265
1239
1207
1177
1151
1125
1100
1070
1036
999
960
928
904
880
866
855
847
845
845
848
852
853
852
856
862
873
880
885
890
890
895
901
905
912
913
914
915
916
918
921
919
916
916
914
917
918
917
912
911
913
913
912
913
911
908
909
909
911
908
904
902
907
909
910
907
904
903
906
909
909
908
908
905
909
913
915
913
915
915
919
921
925
925
926
929
933
938
941
944
945
947
952
957
960
963
965
968
972
977
979
980
983
984
989
995
996
998
997
1000
1005
1004
1007
1008
1007
1005
1009
1011
1010
1009
1008
1008
1009
1011
1009
1008
1006
1004
1007
1008
1009
1005
1003
1000
1004
1007
1009
1007
1007
1005
1006
1009
1008
1007
1006
1005
1005
1005
1005
1007
1005
1008
1012
1014
1012
1008
1007
1004
1005
1006
1004
1004
1003
1003
1005
1006
1009
1008
1004
1002
999
994
987
982
976
971
969
968
965
961
960
958
959
961
959
957
953
955
958
959
958
959
958
956
959
962
962
957
957
956
960
961
958
958
959
957
959
963
964
962
961
962
962
962
964
963
962
963
966
966
971
967
967
968
971
970
969
966
963
959
957
959
963
970
986
1013
1045
1072
1095
1114
1127
1148
1177
1203
1227
1248
1269
1290
1307
1314
1317
1311
1301
1282
1257
1223
1191
1163
1137
1108
1079
1048
1007
966
933
906
881
864
848
838
829
826
827
830
834
833
832
835
842
851
864
868
871
875
880
886
889
892
894
899
903
906
909
909
907
907
909
911
910
909
904
904
906
906
907
904
901
900
900
903
903
899
898
895
896
897
897
896
896
895
898
897
898
896
895
896
897
901
901
902
900
901
904
906
909
909
911
911
912
918
920
922
923
927
929
933
938
938
940
941
947
951
954
956
957
957
964
965
967
970
971
974
979
982
986
987
987
989
994
994
997
997
996
996
997
1001
1000
1000
1000
1000
1002
1002
998
1000
1000
997
996
997
997
994
993
990
991
993
992
990
987
987
991
994
997
995
994
992
992
993
994
992
987
988
987
991
992
996
995
996
999
998
999
998
997
993
994
995
994
995
991
993
995
998
996
997
994
991
993
990
987
978
973
969
968
964
964
960
956
950
951
954
956
955
951
949
952
953
954
952
951
950
954
953
953
952
953
951
952
955
956
955
954
952
954
956
956
956
957
951
957
959
958
958
956
955
957
960
962
960
958
957
962
963
961
962
959
959
959
958
957
957
957
962
976
992
1019
1042
1064
1086
1104
1116
1130
1145
1165
1190
1214
1234
1249
1258
1262
1258
1257
1252
1238
1213
1181
1152
1130
1110
1087
1061
1036
1001
969
944
918
895
874
859
848
844
841
841
841
839
841
844
846
848
852
856
865
873
878
880
884
885
893
897
902
904
907
909
913
916
916
915
913
912
914
912
913
912
908
910
912
911
912
909
907
906
908
910
909
908
906
905
907
908
908
909
907
901
905
907
907
906
907
905
907
908
911
909
911
910
914
916
918
921
923
923
928
933
935
937
937
938
942
948
951
953
953
956
961
964
967
972
973
973
977
983
985
985
989
989
994
996
999
999
999
999
1001
1006
1005
1003
1003
1002
1003
1005
1005
1005
1004
1001
1002
1002
1001
999
998
994
997
996
997
996
995
995
998
1001
1001
1001
998
997
998
1000
999
997
995
994
998
1003
1007
1007
1006
1003
1005
1006
1006
1004
1001
1001
1000
1001
1005
1005
1005
1001
1003
1003
1001
996
987
979
978
974
969
967
961
957
959
957
960
957
956
953
957
958
959
958
956
956
958
959
962
961
959
959
960
960
962
960
959
959
962
964
964
962
963
962
964
965
966
963
966
965
967
970
971
969
966
966
967
967
963
961
958
959
966
982
1009
1035
1059
1077
1095
1109
1129
1153
1178
1202
1223
1239
1253
1256
1254
1250
1242
1229
1204
1171
1148
1129
1109
1085
1052
1015
978
947
922
899
882
869
858
854
855
854
859
859
858
857
865
871
880
883
886
888
893
897
903
906
911
914
920
924
925
924
923
922
924
925
926
926
922
922
921
923
921
920
916
916
918
917
920
916
914
914
915
917
917
916
915
913
917
917
917
915
915
913
919
919
922
921
922
923
926
927
933
932
934
932
936
942
947
949
949
949
955
959
962
966
967
967
969
975
979
981
984
985
989
993
993
996
997
999
1002
1005
1008
1012
1011
1009
1014
1016
1016
1018
1016
1014
1016
1018
1017
1015
1016
1014
1013
1012
1015
1011
1009
1006
1008
1007
1011
1013
1013
1011
1013
1015
1016
1015
1013
1010
1012
1013
1014
1015
1015
1018
1021
1022
1020
1023
1019
1016
1014
1014
1015
1015
1012
1011
1014
1018
1015
1013
1009
1002
998
994
990
983
979
974
972
970
971
971
969
967
964
967
969
969
966
964
968
971
971
970
969
967
969
970
972
968
969
967
971
971
972
973
969
967
972
973
974
977
973
972
976
975
978
978
976
977
978
979
977
973
970
964
966
969
983
1003
1031
1060
1086
1103
1119
1144
1176
1205
1231
1257
1274
1282
1286
1281
1271
1255
1224
1186
1157
1132
1104
1074
1034
996
960
928
905
887
877
868
861
857
863
867
865
865
867
874
885
893
900
901
905
909
913
919
925
927
928
927
931
932
931
928
928
925
927
929
929
926
924
922
923
924
924
922
917
917
920
920
920
918
917
911
913
913
916
916
913
913
917
919
922
920
921
921
924
929
931
933
934
932
937
940
945
947
950
952
953
960
962
965
967
970
972
979
982
982
986
987
991
994
998
1001
1000
1002
1005
1008
1011
1010
1013
1011
1013
1017
1018
1018
1017
1018
1020
1021
1019
1018
1016
1015
1014
1015
1018
1013
1011
1009
1011
1011
1010
1011
1010
1011
1014
1017
1016
1013
1011
1009
1013
1012
1010
1010
1009
1008
1011
1013
1019
1018
1016
1013
1015
1016
1018
1012
1011
1008
1011
1012
1015
1014
1015
1013
1012
1013
1010
1004
995
989
985
983
980
977
970
967
967
969
969
967
965
965
966
970
969
971
966
968
969
970
973
972
968
969
970
975
974
974
972
972
972
975
975
975
974
973
974
978
978
976
974
973
976
979
980
979
976
973
971
972
970
968
971
984
1009
1037
1063
1087
1103
1118
1139
1168
1203
1231
1257
1278
1298
1306
1310
1308
1296
1276
1243
1211
1180
1151
1120
1085
1042
999
964
932
903
880
866
856
853
851
850
851
851
856
858
863
870
877
886
893
895
903
906
909
913
920
924
927
924
925
925
926
927
926
924
922
922
924
923
922
922
917
920
920
919
919
915
910
913
916
915
912
912
909
911
914
914
913
913
911
915
915
918
918
918
920
922
926
927
929
931
929
934
939
941
942
944
943
950
957
960
962
965
966
971
974
977
979
981
984
990
995
998
999
999
1001
1005
1008
1011
1014
1015
1014
1018
1021
1023
1026
1022
1021
1023
1025
1024
1024
1018
1021
1020
1022
1021
1019
1017
1016
1018
1016
1017
1016
1012
1012
1014
1019
1020
1020
1015
1015
1018
1019
1019
1017
1014
1013
1015
1017
1019
1022
1020
1021
1023
1022
1025
1021
1020
1016
1016
1017
1019
1017
1014
1014
1018
1019
1021
1016
1009
1003
1001
994
993
988
983
977
977
976
974
972
971
969
969
973
974
971
970
970
970
973
974
973
973
971
972
975
974
973
972
972
976
978
978
978
977
976
976
979
980
980
978
978
981
983
984
983
982
981
984
984
985
982
980
973
972
972
976
984
1004
1030
1065
1092
1115
1132
1156
1185
1222
1254
1283
1306
1319
1321
1322
1317
1304
1271
1229
1187
1156
1131
1095
1054
1007
963
931
905
884
870
860
850
850
857
856
857
856
860
870
878
889
893
896
900
908
913
918
922
924
926
929
933
932
931
931
929
929
928
931
929
927
924
926
927
927
923
922
920
922
924
922
921
919
917
918
917
920
919
916
916
919
918
921
919
921
921
918
926
930
931
932
931
934
940
942
945
947
947
952
955
958
961
962
968
970
975
979
981
982
983
990
993
996
997
998
997
1003
1010
1011
1012
1012
1012
1017
1019
1020
1023
1020
1020
1022
1025
1025
1023
1019
1019
1021
1022
1023
1019
1016
1014
1013
1017
1015
1014
1012
1011
1013
1017
1015
1018
1017
1013
1015
1012
1017
1017
1013
1010
1012
1012
1015
1016
1017
1016
1021
1020
1020
1017
1018
1013
1017
1018
1018
1016
1016
1016
1016
1018
1022
1021
1021
1015
1011
1011
1008
998
993
991
990
987
985
981
977
974
976
978
978
976
973
973
972
974
975
975
974
973
974
977
976
975
975
974
973
978
977
977
975
973
978
978
981
980
976
975
978
980
980
979
980
977
979
982
982
981
980
980
983
983
984
984
980
977
975
976
976
978
986
1002
1030
1064
1094
1117
1137
1147
1170
1200
1229
1254
1278
1299
1318
1327
1328
1321
1312
1291
1266
1229
1195
1164
1134
1104
1075
1042
1001
964
933
905
886
871
859
853
846
843
850
855
857
856
856
860
871
879
889
891
897
898
904
911
915
920
922
921
924
928
927
928
926
923
925
925
925
922
920
920
920
921
921
919
918
916
918
917
916
915
914
912
911
912
917
917
914
912
912
913
920
918
917
916
918
919
923
923
926
923
927
931
934
934
937
938
941
947
951
952
954
952
959
963
967
969
969
971
975
979
983
989
988
990
992
997
1001
1003
1004
1005
1007
1012
1014
1016
1015
1013
1017
1018
1019
1018
1016
1013
1015
1018
1018
1018
1013
1010
1013
1014
1014
1012
1010
1007
1008
1010
1010
1009
1008
1007
1009
1011
1012
1011
1009
1010
1011
1009
1009
1006
1003
1004
1006
1009
1010
1014
1014
1013
1013
1016
1015
1016
1013
1011
1009
1011
1011
1011
1009
1010
1012
1017
1018
1015
1014
1008
1007
1001
997
993
987
980
977
975
975
973
972
969
971
972
970
967
969
968
967
969
973
970
968
967
969
973
973
972
970
969
971
973
974
972
971
967
972
973
976
975
973
973
972
977
977
977
977
977
977
980
981
981
981
979
981
984
985
984
983
980
981
981
978
974
976
978
988
1009
1038
1063
1087
1108
1125
1135
1149
1171
1192
1212
1236
1258
1275
1283
1285
1283
1281
1276
1265
1247
1220
1188
1165
1147
1130
1108
1084
1054
1022
988
960
933
908
886
873
865
860
858
857
857
860
864
864
869
872
879
888
893
899
903
905
907
913
917
924
925
926
926
930
934
934
933
931
931
929
933
932
930
929
926
928
927
928
927
923
922
924
924
923
921
921
920
919
922
919
922
918
916
920
923
922
924
921
921
926
929
930
929
930
930
935
938
941
942
941
945
949
954
959
959
963
963
969
973
979
976
981
980
985
988
994
993
1000
999
1004
1009
1010
1010
1010
1012
1015
1018
1018
1022
1017
1017
1018
1021
1022
1021
1019
1017
1019
1020
1021
1021
1020
1014
1015
1016
1014
1016
1013
1012
1014
1014
1017
1017
1017
1015
1017
1018
1019
1018
1015
1011
1013
1014
1018
1020
1021
1019
1026
1026
1023
1024
1021
1020
1021
1019
1021
1020
1018
1019
1021
1023
1024
1022
1018
1013
1011
1007
1002
996
992
986
984
982
979
977
976
974
975
976
976
976
974
974
975
976
977
975
975
974
977
976
977
979
974
973
975
981
980
980
978
978
980
980
981
981
977
979
979
980
985
982
980
980
981
984
983
983
983
982
984
987
987
986
983
978
975
975
975
976
981
997
1022
1051
1073
1090
1102
1112
1130
1153
1183
1207
1226
1248
1267
1284
1290
1291
1288
1281
1272
1250
1225
1195
1171
1151
1129
1108
1081
1049
1011
982
956
936
914
896
884
872
869
866
864
867
867
863
864
871
881
887
893
897
901
906
909
913
915
918
923
928
932
929
930
930
932
936
933
932
929
927
930
931
932
930
925
922
926
925
927
925
923
919
921
924
921
920
919
916
920
920
920
920
918
916
919
920
922
922
922
923
924
929
930
931
933
935
936
940
944
945
946
949
955
958
963
965
967
968
973
979
982
982
986
988
992
998
1003
1001
1005
1005
1009
1013
1015
1017
1016
1014
1019
1022
1023
1024
1023
1019
1021
1024
1021
1021
1022
1020
1021
1022
1021
1020
1019
1016
1018
1015
1016
1018
1018
1016
1017
1018
1020
1017
1017
1016
1016
1018
1017
1013
1013
1012
1014
1018
1022
1024
1022
1020
1022
1023
1024
1023
1021
1017
1015
1017
1020
1020
1020
1016
1020
1023
1020
1017
1011
1004
999
997
994
989
982
980
979
977
978
977
977
974
975
976
975
976
975
973
973
977
979
978
974
973
974
977
977
979
973
973
976
977
977
976
977
975
976
979
981
981
979
978
981
982
984
983
984
984
985
988
987
985
983
978
975
973
974
972
975
984
1007
1035
1064
1086
1103
1117
1137
1165
1196
1221
1248
1271
1293
1308
1316
1315
1307
1299
1280
1252
1218
1192
1167
1141
1114
1083
1046
1002
966
935
912
892
880
869
862
857
857
859
862
861
860
864
874
884
892
898
900
903
906
915
919
922
927
926
931
933
936
935
936
933
931
934
935
932
929
928
930
930
930
929
927
926
924
925
925
922
924
920
920
922
922
924
920
916
919
917
922
923
920
922
922
926
928
928
926
926
930
933
937
938
938
937
943
947
950
948
953
955
958
963
966
969
970
972
975
981
984
986
988
987
993
997
1001
1002
1003
1003
1009
1014
1015
1017
1018
1018
1021
1022
1024
1026
1025
1023
1024
1028
1030
1025
1026
1025
1024
1027
1027
1024
1022
1020
1021
1022
1021
1020
1019
1016
1020
1022
1026
1022
1020
1016
1021
1021
1020
1021
1018
1015
1015
1018
1018
1018
1021
1021
1025
1025
1025
1024
1027
1024
1020
1024
1023
1024
1022
1020
1020
1023
1029
1028
1025
1023
1019
1015
1010
1004
998
994
989
988
984
980
980
975
978
979
978
979
977
975
978
980
980
979
979
975
979
980
983
981
980
978
979
980
980
982
981
980
980
984
984
983
982
980
984
987
986
986
985
983
985
989
989
985
988
987
990
990
990
989
986
981
981
980
978
977
979
990
1014
1041
1065
1090
1106
1120
1136
1160
1190
1216
1241
1266
1292
1311
1321
1326
1323
1313
1306
1289
1255
1220
1190
1162
1140
1113
1082
1044
1005
971
948
926
903
888
875
867
863
860
861
862
863
863
862
868
873
880
890
893
898
903
909
910
916
918
923
928
931
932
933
932
934
936
936
937
934
932
934
934
932
932
929
924
927
927
929
926
926
923
922
924
924
922
920
919
919
921
922
921
918
916
920
922
924
924
921
921
923
923
930
929
928
930
933
936
938
940
942
942
944
949
951
957
961
960
966
970
973
975
976
977
982
987
990
992
994
993
999
1002
1006
1007
1008
1009
1009
1015
1016
1018
1018
1016
1021
1024
1026
1025
1024
1022
1023
1023
1023
1021
1019
1019
1019
1021
1020
1017
1017
1014
1013
1017
1017
1017
1016
1013
1017
1018
1017
1014
1015
1013
1013
1014
1011
1010
1011
1008
1011
1016
1019
1020
1020
1018
1018
1019
1020
1019
1016
1011
1015
1019
1019
1018
1018
1017
1018
1019
1019
1013
1008
998
993
993
987
984
981
977
975
976
978
977
973
970
974
974
974
975
974
973
972
975
977
977
974
973
975
975
976
975
975
972
974
975
977
978
978
976
975
979
980
980
976
979
978
982
983
983
983
982
982
984
984
980
978
976
975
975
979
992
1012
1039
1072
1100
1126
1142
1158
1179
1209
1242
1271
1299
1315
1326
1328
1328
1319
1300
1271
1225
1191
1163
1137
1106
1072
1029
991
956
929
903
878
860
854
851
850
850
851
854
855
862
869
877
884
890
897
902
906
913
916
919
922
925
927
930
929
928
930
927
927
924
924
921
922
925
922
921
918
915
919
921
921
920
917
916
916
916
919
918
918
914
916
919
921
921
920
919
921
925
928
926
928
929
933
938
942
941
943
941
947
953
955
959
958
961
967
972
975
980
980
983
987
992
998
1000
1004
1002
1007
1008
1013
1016
1015
1015
1018
1020
1021
1022
1023
1020
1022
1024
1022
1023
1021
1017
1021
1021
1022
1020
1020
1017
1017
1017
1020
1016
1014
1015
1017
1018
1021
1022
1017
1015
1017
1016
1016
1011
1010
1006
1010
1012
1017
1019
1018
1017
1017
1019
1021
1020
1021
1016
1016
1017
1021
1018
1018
1017
1023
1025
1027
1022
1015
1007
