837
831
830
826
827
829
836
835
839
842
850
858
868
878
881
883
887
889
895
902
907
909
910
912
910
916
914
912
912
910
912
911
912
911
907
905
909
909
906
905
905
902
906
903
906
903
904
902
903
906
905
905
902
902
903
907
905
906
905
906
907
908
910
910
910
909
914
920
919
922
922
926
931
934
936
940
942
944
950
952
954
955
959
963
968
974
977
979
981
984
986
992
993
995
996
999
1001
1003
1005
1006
1007
1008
1010
1012
1012
1012
1011
1010
1011
1015
1014
1014
1011
1008
1009
1012
1009
1006
1004
1002
1004
1005
1002
1002
1001
999
1003
1006
1006
1005
1004
1006
1007
1007
1007
1006
1005
1001
1001
999
996
995
996
999
1002
1005
1006
1005
1004
1005
1008
1011
1011
1009
1006
1004
1006
1009
1007
1004
1005
1006
1009
1011
1005
1000
992
990
987
983
976
971
964
961
960
962
962
960
958
957
958
959
959
955
955
953
954
956
955
956
953
955
957
961
959
959
957
957
959
962
962
961
960
959
963
966
965
964
963
964
967
968
968
970
967
967
971
974
971
972
969
967
965
967
964
961
959
962
967
984
1004
1031
1060
1088
1114
1129
1145
1163
1189
1211
1237
1259
1275
1283
1283
1280
1275
1267
1250
1222
1189
1163
1140
1121
1095
1063
1032
994
958
928
897
873
857
844
840
836
837
838
837
835
839
844
852
859
867
873
876
883
887
891
894
902
908
911
916
917
917
916
919
923
920
919
918
915
917
917
916
912
911
911
912
913
912
910
908
906
909
906
908
908
905
907
905
908
910
909
910
913
913
916
915
917
917
917
919
927
929
930
930
931
934
938
941
940
943
944
948
953
954
957
958
959
964
971
972
975
976
979
985
990
991
992
993
995
1001
1005
1009
1011
1009
1011
1015
1020
1020
1021
1021
1019
1020
1023
1023
1023
1020
1020
1019
1021
1020
1017
1014
1012
1014
1014
1011
1011
1009
1008
1007
1008
1009
1009
1011
1009
1010
1014
1013
1012
1009
1011
1010
1015
1010
1007
1003
1004
1006
1013
1013
1015
1016
1018
1016
1016
1019
1018
1019
1018
1018
1018
1018
1017
1013
1015
1019
1023
1021
1018
1014
1004
1004
1000
995
988
983
977
974
974
971
968
967
968
968
970
970
967
967
968
971
973
970
971
969
970
972
973
971
971
970
970
970
974
972
970
970
970
974
974
974
973
975
974
974
977
976
976
974
975
978
981
981
977
979
977
982
985
983
980
978
976
974
974
971
973
979
998
1025
1054
1080
1100
1111
1122
1142
1166
1190
1210
1232
1252
1273
1283
1284
1286
1283
1276
1265
1247
1216
1186
1165
1143
1124
1104
1073
1041
1009
978
954
931
906
890
876
867
864
864
863
864
864
863
865
873
881
887
894
898
902
908
914
916
922
927
931
936
935
935
934
934
937
938
937
934
931
933
933
937
935
934
932
932
933
934
934
931
929
930
929
929
931
927
926
925
927
929
930
929
927
931
930
935
935
937
936
935
938
941
944
948
948
950
954
958
962
965
966
970
977
980
984
985
986
990
995
1001
1003
1001
1004
1004
1009
1015
1018
1019
1018
1022
1023
1028
1027
1028
1027
1028
1032
1034
1035
1033
1033
1031
1036
1038
1034
1032
1031
1029
1033
1035
1033
1033
1028
1026
1029
1030
1030
1027
1026
1027
1028
1029
1029
1027
1026
1029
1026
1028
1024
1022
1018
1020
1024
1028
1030
1030
1029
1030
1030
1031
1031
1028
1028
1026
1029
1030
1030
1031
1029
1031
1036
1038
1034
1028
1020
1012
1007
1004
998
991
984
982
982
981
978
979
975
974
975
976
976
977
976
974
976
977
978
975
976
975
977
979
979
979
978
981
983
986
985
984
982
982
982
986
985
983
983
983
984
987
985
985
983
983
987
987
988
988
988
983
986
983
977
971
969
969
980
997
1019
1045
1068
1092
1112
1133
1153
1182
1210
1241
1270
1292
1309
1316
1318
1317
1315
1309
1293
1267
1232
1203
1181
1162
1136
1106
1069
1028
995
965
934
908
885
867
859
857
853
850
849
852
853
855
861
866
875
882
892
899
901
904
908
912
919
925
926
931
930
930
931
935
933
931
930
928
930
933
930
927
925
925
927
929
929
926
920
923
922
924
923
924
920
919
920
923
923
922
920
921
923
926
924
924
924
923
924
929
930
929
930
930
934
938
938
936
940
942
947
951
954
957
955
958
963
968
971
973
974
980
980
985
989
990
994
995
1003
1007
1008
1012
1014
1015
1021
1024
1026
1025
1026
1027
1031
1034
1032
1029
1029
1029
1031
1033
1032
1030
1030
1029
1030
1029
1026
1026
1024
1024
1025
1024
1025
1022
1018
1020
1024
1027
1028
1025
1023
1022
1026
1027
1026
1026
1023
1020
1019
1022
1024
1024
1023
1024
1027
1030
1030
1027
1023
1022
1027
1027
1025
1023
1022
1021
1022
1023
1030
1026
1028
1023
1024
1022
1013
1007
999
993
990
987
981
979
975
974
978
979
976
974
973
972
974
975
976
974
973
970
974
976
975
972
971
972
974
977
976
973
972
976
977
979
977
978
973
976
978
979
978
979
977
979
982
985
983
985
982
983
986
989
990
987
986
985
986
982
977
971
969
969
979
1000
1024
1047
1070
1094
1117
1130
1150
1176
1204
1234
1263
1292
1312
1325
1331
1331
1331
1326
1313
1290
1254
1220
1195
1173
1150
1121
1087
1050
1012
977
948
920
893
870
859
851
847
843
843
842
843
849
850
853
859
868
877
885
889
891
892
897
903
908
913
919
921
923
924
928
929
929
928
927
930
929
930
928
926
925
924
925
923
923
920
920
920
922
920
918
914
916
915
915
915
913
913
911
913
917
915
914
912
916
916
919
920
918
917
920
924
927
929
931
931
935
937
942
946
949
949
953
958
962
965
967
968
971
974
980
984
984
986
988
993
998
1000
1003
1004
1007
1009
1013
1016
1019
1019
1020
1022
1024
1025
1025
1024
1028
1028
1029
1029
1027
1027
1026
1027
1029
1027
1024
1022
1021
1021
1021
1017
1014
1015
1015
1017
1019
1021
1019
1018
1018
1020
1023
1023
1020
1015
1013
1014
1017
1018
1019
1018
1022
1023
1024
1024
1022
1023
1022
1022
1024
1022
1022
1021
1023
1025
1028
1027
1023
1017
1012
1007
1001
996
989
981
978
975
977
976
973
970
970
970
972
973
970
969
971
973
974
974
971
972
972
974
975
974
975
974
972
973
975
975
973
971
972
974
975
976
974
974
975
975
977
977
977
978
978
979
982
983
978
978
976
973
969
968
967
977
994
1023
1059
1088
1113
1133
1155
1183
1218
1251
1280
1308
1331
1347
1351
1352
1346
1330
1303
1263
1225
1188
1159
1122
1087
1046
1004
961
927
894
871
852
842
836
833
833
835
840
845
846
849
856
867
877
883
888
889
893
898
907
912
916
915
916
919
919
924
923
921
917
917
917
919
917
914
915
911
912
914
913
909
910
909
911
913
911
908
909
907
906
909
909
908
905
905
906
908
908
908
904
906
909
912
913
915
913
915
919
925
928
929
929
933
935
945
944
949
950
951
960
967
970
970
971
976
980
988
989
992
991
996
997
1004
1005
1004
1004
1006
1011
1012
1013
1013
1014
1013
1015
1019
1017
1014
1013
1013
1014
1015
1015
1013
1010
1010
1010
1010
1009
1009
1005
1003
1009
1012
1013
1009
1010
1008
1010
1011
1012
1009
1005
1001
1000
1001
1002
1000
1002
1006
1008
1008
1008
1006
1005
1008
1009
1009
1010
1006
1003
1005
1009
1013
1014
1011
1005
997
995
991
986
979
971
968
964
965
963
963
960
956
957
960
957
958
955
955
956
958
958
958
955
956
956
960
958
958
954
956
957
962
961
961
960
961
964
967
966
964
966
964
968
970
970
972
970
969
969
970
967
964
961
959
964
971
989
1017
1050
1082
1111
1132
1152
1177
1206
1238
1267
1295
1306
1307
1304
1294
1283
1259
1219
1180
1151
1122
1094
1060
1013
967
929
899
874
857
841
829
828
827
831
832
833
834
840
848
858
869
874
875
879
884
896
904
907
910
910
910
913
913
916
912
913
912
912
912
909
907
903
903
905
905
904
903
897
899
900
901
898
899
898
897
897
898
899
897
897
896
900
905
907
907
908
910
913
915
918
918
919
922
926
929
935
935
935
938
942
946
951
952
952
958
963
968
968
971
973
973
980
985
987
989
989
990
995
1000
1000
1003
1002
1004
1007
1009
1008
1009
1007
1007
1008
1011
1010
1006
1005
1004
1003
1006
1003
1000
996
995
994
997
995
993
991
993
993
998
999
996
996
994
996
998
996
993
988
987
992
994
1001
1002
1005
1005
1008
1007
1008
1006
1005
1002
1003
1003
1004
1004
1000
1002
1005
1008
1006
999
988
986
980
976
969
966
959
958
956
956
956
953
950
951
953
957
955
954
953
952
956
960
958
958
955
955
957
958
957
957
955
955
960
959
959
958
957
957
961
962
962
959
961
962
962
967
965
962
962
964
968
968
967
962
958
956
962
975
997
1026
1056
1084
1107
1121
1137
1160
1184
1209
1234
1254
1266
1265
1265
1262
1255
1245
1220
1186
1159
1137
1119
1095
1065
1027
987
953
925
899
877
861
851
846
845
849
849
849
845
850
856
865
874
878
882
885
891
898
902
907
911
913
917
923
923
922
920
920
921
923
923
922
919
918
920
922
921
919
921
919
920
919
917
916
914
914
917
918
916
914
911
911
914
915
917
915
913
914
918
922
923
922
922
925
927
931
934
935
937
938
943
947
951
953
953
957
963
969
973
974
975
978
986
990
990
993
992
995
999
1002
1006
1007
1005
1009
1012
1015
1015
1015
1016
1018
1018
1021
1021
1021
1019
1020
1020
1021
1020
1020
1017
1016
1018
1020
1018
1016
1014
1013
1013
1015
1017
1014
1012
1015
1017
1018
1019
1020
1016
1016
1015
1019
1017
1016
1014
1014
1016
1019
1025
1022
1024
1026
1026
1027
1026
1023
1019
1016
1020
1021
1020
1021
1018
1021
1026
1027
1024
1019
1011
1007
1003
999
995
985
979
975
975
974
972
971
967
966
966
967
969
967
968
968
969
971
970
968
968
968
970
969
972
973
969
970
971
975
976
973
972
974
976
977
977
977
976
975
978
980
978
977
976
976
980
982
982
979
977
975
971
967
964
964
968
986
1016
1049
1081
1102
1117
1140
1168
1203
1233
1259
1281
1298
1306
1308
1303
1290
1266
1229
1195
1171
1143
1113
1073
1031
992
955
924
896
872
858
848
847
848
847
851
849
852
859
869
878
880
891
896
903
907
910
915
919
924
930
928
928
929
928
928
931
929
926
922
924
924
925
925
920
918
918
918
919
919
915
913
912
913
915
915
916
912
910
915
917
916
917
915
917
920
922
925
926
922
922
929
931
933
933
935
936
942
946
948
949
952
956
960
962
967
966
970
971
976
983
986
986
988
990
995
1001
1003
1004
1005
1009
1012
1018
1019
1018
1017
1017
1022
1025
1027
1025
1023
1024
1026
1028
1025
1024
1022
1019
1020
1023
1023
1019
1016
1015
1016
1018
1018
1014
1012
1012
1011
1014
1014
1012
1013
1014
1019
1019
1016
1016
1016
1017
1017
1018
1017
1016
1016
1020
1024
1026
1025
1026
1023
1022
1025
1024
1022
1021
1017
1015
1018
1018
1020
1016
1020
1020
1022
1023
1022
1015
1006
1001
997
995
992
986
979
975
973
972
975
971
969
969
971
972
972
970
968
971
972
973
974
973
972
971
972
976
973
972
970
970
973
975
977
974
969
970
975
974
975
977
971
974
975
979
978
977
975
976
979
982
983
983
980
981
983
984
983
977
970
966
968
973
979
996
1019
1047
1077
1101
1121
1135
1158
1188
1220
1246
1274
1298
1311
1319
1322
1322
1316
1303
1276
1240
1205
1180
1155
1125
1092
1054
1010
972
941
909
886
865
854
849
844
844
842
844
847
847
854
857
866
874
881
888
889
895
897
901
909
916
920
923
920
923
927
930
930
929
925
926
925
927
927
926
923
923
923
924
923
920
916
919
919
918
917
913
911
910
912
915
912
912
912
913
912
916
916
914
913
913
917
919
921
920
917
923
929
930
933
936
937
941
944
950
952
953
955
956
961
967
969
970
974
976
981
984
987
990
989
991
995
1000
1003
1006
1005
1008
1013
1017
1018
1018
1019
1019
1021
1023
1024
1027
1023
1024
1028
1029
1028
1027
1026
1027
1029
1030
1029
1026
1022
1023
1024
1025
1022
1018
1018
1016
1016
1019
1018
1018
1017
1017
1019
1023
1020
1019
1019
1018
1020
1016
1015
1012
1011
1015
1018
1021
1020
1023
1022
1022
1021
1024
1023
1022
1021
1020
1020
1022
1023
1020
1021
1020
1023
1027
1026
1023
1018
1014
1009
1003
996
992
984
981
979
976
975
969
967
967
968
970
969
966
968
966
969
971
971
970
967
967
968
971
972
969
972
971
974
975
974
974
974
971
974
980
975
972
971
976
976
975
977
973
973
972
975
978
978
976
975
976
978
979
981
977
974
975
975
972
969
963
961
964
973
986
1011
1034
1057
1082
1106
1124
1143
1162
1191
1224
1255
1282
1307
1324
1328
1332
1334
1330
1318
1292
1254
1219
1190
1167
1141
1112
1075
1036
994
959
929
898
872
855
842
839
840
836
837
839
841
846
849
855
863
869
879
888
892
894
895
901
906
913
916
917
918
918
922
924
923
919
918
917
918
918
918
914
912
910
911
913
912
909
908
907
907
910
909
908
907
905
909
910
911
908
908
907
909
911
913
913
910
912
918
920
920
920
920
925
928
932
935
936
937
940
948
950
952
955
956
959
965
969
974
974
975
979
985
990
993
996
998
998
1003
1009
1010
1011
1010
1013
1015
1015
1018
1018
1016
1017
1018
1020
1020
1016
1014
1015
1016
1019
1015
1014
1012
1010
1013
1013
1012
1008
1005
1005
1006
1006
1006
1009
1006
1009
1013
1015
1014
1011
1009
1010
1009
1008
1008
1005
1003
1008
1009
1013
1016
1017
1012
1012
1012
1014
1013
1010
1006
1006
1009
1011
1012
1013
1008
1012
1013
1013
1011
1008
1001
992
988
986
981
979
972
968
967
968
967
966
966
962
964
964
964
962
959
959
962
964
967
964
962
961
963
962
962
962
959
960
962
967
966
964
962
961
966
967
967
966
964
968
970
972
971
971
970
973
972
975
974
973
973
971
972
971
966
962
957
957
961
976
992
1017
1042
1071
1100
1121
1136
1153
1175
1204
1236
1265
1288
1312
1327
1335
1337
1337
1329
1310
1279
1237
1203
1173
1146
1113
1077
1038
996
960
927
898
870
849
836
828
823
823
821
824
830
832
833
836
843
854
862
868
874
878
880
882
891
896
902
904
905
907
910
914
915
915
914
913
915
914
914
911
908
907
906
907
907
903
903
901
903
901
900
899
896
895
897
898
896
894
892
895
896
897
896
895
894
896
900
901
903
905
904
905
910
915
916
919
919
923
926
934
932
935
934
937
944
949
951
954
954
959
964
968
969
971
973
977
981
985
988
987
989
991
996
1001
1002
1001
1002
1002
1007
1008
1011
1009
1009
1010
1012
1013
1014
1008
1004
1003
1006
1007
1004
1002
1000
1000
1003
999
998
995
992
993
995
999
1000
998
996
996
999
1001
998
994
992
991
994
998
997
1000
1002
1006
1007
1009
1009
1008
1007
1007
1008
1008
1006
1006
1003
1005
1005
1010
1011
1007
1003
998
993
988
982
975
971
967
962
961
961
958
956
954
954
956
957
954
957
957
961
960
963
960
957
959
962
963
963
962
960
959
961
961
960
959
958
959
960
964
965
963
962
963
964
967
969
965
964
964
968
969
969
968
968
967
971
971
965
962
958
963
965
979
1004
1032
1057
1087
1110
1130
1147
1170
1196
1223
1251
1277
1298
1306
1307
1305
1300
1291
1272
1238
1199
1169
1144
1120
1094
1060
1017
977
946
922
894
873
853
843
839
840
839
838
838
840
843
849
854
862
866
873
880
890
892
892
897
902
909
913
917
916
916
917
919
923
922
918
917
916
919
919
918
915
915
914
916
918
916
914
913
915
913
914
915
912
909
907
909
910
911
909
910
909
911
914
913
914
913
914
915
918
919
920
922
923
926
927
931
932
934
937
941
947
949
950
953
955
963
967
971
971
973
977
982
986
988
989
991
994
997
1002
1003
1006
1005
1008
1011
1017
1016
1017
1017
1018
1020
1022
1020
1020
1017
1018
1019
1018
1018
1015
1013
1014
1018
1016
1015
1012
1010
1011
1013
1013
1013
1010
1008
1009
1010
1014
1010
1011
1012
1015
1015
1018
1017
1015
1012
1014
1014
1018
1017
1018
1017
1019
1022
1023
1021
1019
1018
1018
1016
1019
1018
1014
1014
1015
1018
1022
1021
1023
1020
1018
1016
1014
1003
998
990
989
981
982
976
973
969
970
970
972
971
970
968
966
970
972
972
970
969
967
970
970
969
967
966
966
970
970
970
970
968
971
975
975
975
974
973
972
977
977
978
975
975
975
977
980
981
981
977
978
979
979
981
978
975
969
967
966
964
964
971
991
1019
1045
1073
1099
1114
1133
1159
1192
1222
1251
1276
1299
1315
1325
1325
1322
1314
1300
1275
1244
1210
1182
1156
1127
1101
1067
1027
990
955
926
902
879
861
847
841
839
841
843
843
843
843
848
857
867
878
882
887
888
896
904
908
915
916
919
921
926
927
927
927
926
923
924
924
924
922
922
924
923
923
920
917
914
916
914
915
911
912
910
911
912
913
911
908
906
909
911
913
911
913
912
916
919
919
917
917
919
922
925
923
925
926
930
932
937
939
942
943
948
951
954
958
958
959
962
970
974
975
975
977
980
984
988
991
995
995
998
1002
1008
1011
1010
1013
1014
1018
1021
1023
1021
1022
1024
1026
1026
1026
1026
1026
1026
1025
1027
1026
1024
1021
1021
1023
1022
1020
1017
1014
1011
1013
1013
1013
1010
1010
1012
1014
1016
1016
1014
1015
1014
1015
1018
1016
1012
1011
1015
1020
1024
1024
1024
1020
1020
1024
1023
1020
1018
1016
1014
1017
1017
1020
1019
1020
1017
1016
1015
1008
1000
992
986
985
984
980
974
971
968
972
971
971
970
968
968
971
974
972
970
971
973
974
977
974
976
973
971
974
974
976
975
972
971
973
976
973
973
972
971
974
977
979
975
976
978
977
982
982
982
981
982
981
980
973
970
964
966
975
993
1021
1049
1079
1101
1121
1144
1168
1199
1228
1259
1292
1317
1329
1332
1328
1323
1314
1294
1255
1216
1182
1151
1126
1096
1055
1007
965
932
906
884
863
851
844
841
844
847
850
850
849
854
864
874
883
888
889
892
