912
913
914
914
912
908
909
910
910
906
908
905
907
907
909
909
905
904
903
905
908
909
908
907
908
912
914
917
919
919
923
929
931
935
933
935
939
944
949
951
953
953
959
963
967
969
972
972
977
981
988
990
991
989
993
996
999
1002
1000
1000
1004
1006
1007
1009
1009
1007
1008
1011
1010
1011
1010
1008
1007
1009
1008
1009
1006
1001
1001
1001
1002
999
997
994
995
995
996
994
989
990
993
995
997
997
994
993
991
995
996
999
1001
1003
1004
1006
1011
1008
1009
1009
1010
1009
1010
1006
1006
1002
1006
1009
1011
1010
1010
1007
1006
1000
994
986
980
976
970
967
966
961
960
959
959
961
960
961
958
959
960
963
966
964
964
962
962
965
966
967
965
962
963
964
967
966
966
963
965
965
967
966
965
963
965
968
966
966
967
966
967
970
971
972
971
970
973
974
975
974
971
966
965
965
966
973
978
998
1027
1055
1082
1109
1127
1142
1168
1191
1221
1247
1271
1296
1316
1325
1332
1332
1330
1317
1301
1270
1236
1204
1174
1142
1114
1083
1051
1009
970
937
911
890
869
856
845
837
837
838
841
843
843
842
844
854
864
871
877
879
886
891
893
897
901
904
908
913
917
919
917
914
916
918
917
915
915
914
914
916
916
914
914
912
913
914
914
911
908
906
906
907
909
909
905
903
902
904
907
904
901
899
901
901
902
904
902
904
904
907
911
911
910
911
913
918
922
926
926
928
932
936
940
940
944
945
947
953
959
964
964
966
968
972
978
978
980
980
986
988
994
994
992
990
996
999
1001
1002
1002
1002
1002
1006
1006
1005
1007
1006
1004
1006
1008
1007
1007
1002
1002
1003
1002
1001
998
993
995
994
996
993
993
989
988
989
990
990
989
987
989
992
994
994
994
990
989
994
998
999
1000
1000
1003
1006
1009
1008
1009
1007
1003
1003
1005
1005
1005
1003
1004
1007
1009
1008
1009
1004
1002
1000
995
990
980
976
972
969
967
963
959
954
958
958
959
960
955
956
956
960
959
959
962
959
958
962
965
965
962
960
960
963
964
965
964
961
962
963
965
966
965
960
964
965
964
966
964
962
963
964
966
968
967
965
966
972
970
970
969
966
968
969
967
966
959
954
959
962
975
991
1013
1037
1064
1090
1108
1126
1143
1168
1193
1224
1250
1271
1290
1297
1301
1305
1305
1299
1286
1262
1230
1202
1176
1149
1123
1097
1067
1033
995
961
933
907
884
867
858
846
842
838
840
843
846
848
846
849
856
865
874
878
882
885
889
893
901
903
905
907
912
915
917
918
917
917
916
919
918
914
917
914
916
916
918
914
915
911
913
913
914
913
910
907
907
909
909
909
906
904
904
907
907
907
905
902
903
905
905
906
904
903
905
905
909
911
911
913
915
917
923
924
925
928
929
937
939
942
945
945
950
952
957
959
960
961
966
971
975
978
979
980
984
987
992
993
993
991
994
1000
1001
1004
1002
1001
1003
1005
1009
1008
1005
1003
1007
1006
1006
1007
1007
1002
1002
1004
1005
1001
1002
998
996
999
998
997
994
992
990
994
995
995
993
993
993
998
999
998
996
996
997
1000
1006
1007
1007
1007
1009
1010
1011
1011
1011
1005
1002
1004
1009
1009
1010
1009
1008
1010
1009
1008
1004
994
989
986
980
976
970
962
961
960
961
961
958
956
956
959
960
960
958
956
957
960
963
963
961
960
961
963
965
963
964
961
963
963
967
966
965
962
962
965
967
963
963
960
963
964
966
966
966
964
966
968
970
969
969
967
969
970
970
966
961
959
956
961
966
975
993
1014
1041
1068
1092
1109
1124
1140
1168
1199
1225
1252
1280
1297
1310
1315
1320
1319
1310
1292
1261
1226
1198
1170
1139
1110
1082
1051
1012
977
947
920
896
877
863
851
845
839
841
843
843
845
844
841
846
855
866
870
875
878
883
888
896
899
900
903
908
911
915
916
915
912
915
917
918
915
914
909
912
915
915
915
913
910
909
911
910
909
910
908
906
907
907
907
903
903
904
904
905
902
900
899
901
903
905
902
901
900
901
905
906
904
903
903
909
912
916
917
918
919
922
928
933
934
936
937
940
948
949
952
953
954
958
965
968
973
974
973
976
984
987
987
989
991
993
997
999
1002
998
999
1003
1005
1008
1007
1008
1006
1007
1011
1012
1011
1009
1008
1009
1010
1012
1010
1005
1004
1003
1006
1006
1003
1000
999
1000
1000
999
1000
997
993
994
996
999
1000
998
997
995
998
998
997
995
997
999
1002
1007
1004
1007
1004
1008
1010
1014
1012
1007
1004
1005
1007
1009
1009
1010
1008
1008
1011
1010
1007
1001
993
988
984
983
976
972
965
961
961
965
963
959
956
955
956
959
959
957
957
959
962
963
963
962
960
961
965
965
966
966
963
965
967
969
969
964
965
967
969
971
969
967
967
968
971
969
970
969
966
966
970
972
971
971
968
970
970
972
971
969
962
959
963
964
972
986
1006
1035
1062
1086
1109
1122
1141
1169
1199
1227
1253
1280
1302
1317
1325
1331
1329
1322
1310
1285
1252
1218
1188
1158
1127
1096
1063
1020
978
943
914
893
873
857
848
840
840
840
843
847
847
847
851
857
868
877
882
886
889
891
897
904
907
911
910
913
916
919
919
919
916
916
920
921
919
916
915
914
916
918
916
915
911
911
912
914
913
911
908
906
908
910
908
907
905
906
905
908
908
906
905
905
907
909
908
908
908
908
911
914
916
917
917
920
925
927
929
930
931
936
938
944
945
949
950
955
960
963
964
965
969
973
977
982
984
985
985
988
994
996
1000
1002
1001
1005
1007
1008
1009
1009
1008
1008
1011
1013
1013
1012
1009
1008
1010
1013
1014
1011
1007
1008
1009
1009
1007
1005
1002
1002
1003
1003
1002
999
996
997
999
1002
1000
1000
1000
1001
1004
1005
1003
999
997
1001
1002
1009
1010
1009
1008
1010
1012
1016
1013
1013
1010
1009
1007
1010
1013
1010
1009
1012
1015
1014
1014
1010
1004
999
994
989
984
976
973
970
970
966
965
961
962
961
960
961
963
959
959
960
961
964
965
964
961
966
965
967
969
967
965
968
967
969
969
968
967
969
971
975
973
972
969
970
973
973
972
971
970
971
974
975
977
971
968
969
967
965
962
962
965
984
1011
1046
1076
1099
1118
1140
1167
1200
1236
1264
1292
1317
1334
1340
1337
1331
1314
1286
1249
1211
1178
1146
1112
1075
1035
992
953
921
891
867
852
845
839
839
837
839
843
845
850
857
863
873
882
887
890
894
896
901
908
915
918
916
917
916
917
918
920
916
915
914
915
913
914
911
910
910
911
910
911
909
904
906
905
908
906
906
900
900
903
904
905
902
899
903
903
905
903
904
904
904
906
911
910
912
912
914
918
923
923
926
927
929
935
939
942
947
948
952
955
960
963
965
966
972
975
980
983
985
984
987
993
998
997
999
999
1002
1004
1007
1005
1006
1004
1006
1009
1011
1011
1009
1007
1008
1009
1009
1011
1009
1004
1002
1003
1001
1003
1000
1000
998
998
999
998
996
993
993
994
996
994
994
994
996
1000
1001
998
995
993
996
1001
1004
1003
1003
1003
1005
1007
1006
1008
1004
1003
1002
1002
1005
1006
1004
1004
1006
1009
1009
1005
1002
996
986
984
982
976
970
967
962
962
963
961
958
958
955
958
958
956
956
954
956
957
958
960
958
956
958
961
963
960
962
957
959
962
964
965
963
962
963
963
967
966
966
964
965
966
968
969
966
966
965
967
971
967
967
964
964
964
964
959
956
955
962
976
1004
1033
1064
1091
1115
1137
1161
1194
1223
1253
1281
1310
1328
1337
1334
1329
1318
1292
1252
1213
1174
1138
1101
1066
1025
977
935
900
873
852
840
830
825
821
826
830
835
834
837
844
852
862
872
877
877
881
888
897
900
906
906
904
908
911
909
907
904
902
903
903
905
901
899
898
897
898
901
900
898
897
895
898
897
896
893
892
892
893
893
893
892
891
892
895
898
898
898
895
898
901
904
906
903
905
908
915
918
921
921
922
925
931
938
940
944
946
951
955
959
961
963
965
968
974
978
979
983
982
985
992
996
998
997
994
998
998
999
1000
996
996
994
996
997
996
994
989
991
993
994
993
991
988
989
989
988
986
985
981
982
983
985
986
984
985
987
988
990
989
986
988
991
992
994
994
995
994
994
998
999
1001
998
995
994
995
998
998
998
995
994
1000
999
995
990
984
977
973
969
967
959
954
952
947
951
949
948
945
942
948
949
949
947
946
945
947
948
950
948
943
947
949
953
952
952
951
950
953
956
953
953
953
953
955
956
958
957
956
957
960
961
959
961
960
960
960
961
962
960
958
957
958
957
956
951
948
953
966
991
1019
1049
1073
1099
1120
1139
1162
1191
1216
1246
1275
1298
1308
1306
1304
1297
1288
1268
1231
1193
1157
1127
1096
1066
1026
981
940
905
881
860
843
829
822
824
824
831
832
832
832
837
847
858
866
870
872
875
882
888
892
896
897
900
903
908
910
905
905
903
904
904
902
901
896
897
898
898
898
895
890
892
893
896
895
893
888
891
893
893
894
893
889
890
890
892
891
891
889
890
893
897
896
896
894
898
899
903
903
905
904
908
912
915
918
919
922
925
929
935
936
939
938
945
951
952
956
960
961
967
972
974
978
976
978
980
985
986
989
990
988
992
993
994
995
996
991
993
994
996
993
992
988
991
991
993
990
990
985
986
985
987
986
983
982
981
982
983
986
982
980
983
985
987
990
990
986
984
988
991
992
991
990
993
996
999
999
999
996
995
997
997
995
995
990
991
993
995
996
996
995
995
996
994
990
985
976
971
969
968
962
958
951
948
951
954
951
951
948
949
952
951
951
951
947
949
949
952
953
948
948
948
951
954
953
952
949
952
955
958
956
956
955
958
958
957
961
958
957
955
958
959
963
962
958
960
964
964
967
965
964
962
963
962
959
951
947
947
948
953
971
992
1013
1037
1063
1083
1099
1114
1132
1160
1190
1218
1244
1270
1286
1297
1304
1304
1305
1297
1277
1246
1211
1182
1152
1127
1095
1065
1028
991
959
930
902
876
859
848
838
834
832
833
836
838
839
843
848
857
866
876
881
884
884
888
895
903
907
908
910
912
917
917
918
916
913
911
913
913
912
913
911
909
909
911
908
905
904
901
903
903
902
900
896
896
898
900
900
899
898
899
899
901
902
900
898
900
902
906
908
907
904
908
911
916
918
918
922
923
927
931
934
937
935
938
944
949
951
954
956
958
963
968
972
975
974
980
984
989
991
990
991
995
997
1000
997
1001
1000
1003
1007
1007
1010
1008
1004
1004
1007
1006
1006
1001
1001
1000
1000
1001
999
997
991
993
994
995
994
992
989
991
992
998
997
996
997
997
1000
1000
999
999
998
1001
1004
1008
1007
1007
1006
1004
1008
1008
1005
1001
997
999
1000
1004
1004
1004
1000
999
1000
998
994
988
980
973
972
972
966
961
957
954
954
956
956
954
952
950
952
955
954
953
953
953
954
956
957
954
953
953
954
957
955
955
953
954
956
959
956
957
957
956
958
960
961
962
958
956
962
961
965
963
962
962
963
966
966
966
963
963
966
967
964
961
952
951
953
954
961
969
993
1020
1047
1072
1092
1109
1125
1151
1187
1217
1243
1270
1292
1307
1315
1317
1315
1309
1294
1264
1232
1199
1168
1137
1107
1076
1039
999
966
935
909
884
865
852
840
834
827
826
827
829
832
830
829
834
843
853
861
865
869
873
877
883
888
893
895
900
906
909
911
910
905
910
909
912
910
908
905
905
905
905
904
903
899
900
900
899
900
897
894
894
894
897
896
893
890
889
892
893
893
892
889
890
893
895
896
893
893
896
900
903
903
904
905
906
909
914
915
916
916
919
925
930
930
932
932
937
942
944
951
950
951
954
960
962
966
967
969
973
975
982
984
986
988
990
991
998
997
998
998
999
1002
1004
1004
1003
1001
1000
1003
1004
1004
1003
999
998
1002
1001
999
995
993
991
991
992
990
988
985
984
986
990
993
992
992
993
995
997
995
993
993
995
996
999
1001
1000
999
1000
1003
1004
1002
1003
999
998
999
1000
1000
998
996
998
1000
999
997
993
986
979
975
971
966
960
956
953
953
954
954
952
949
952
950
952
952
950
950
951
952
955
953
953
952
952
956
957
956
954
952
953
954
956
955
953
951
954
954
959
957
956
955
957
959
962
962
961
960
960
964
967
966
963
961
961
961
957
955
952
948
955
974
1001
1029
1054
1079
1099
1118
1140
1166
1193
1221
1252
1279
1302
1314
1320
1315
1317
1313
1305
1279
1242
1207
1176
1150
1119
1085
1044
1000
958
928
906
877
855
839
831
824
827
828
830
827
828
833
840
845
854
858
865
868
875
879
882
885
891
897
901
904
906
906
905
909
911
911
908
907
906
907
907
905
904
901
902
902
903
902
898
896
895
898
899
897
894
892
890
890
892
892
890
888
888
890
892
892
889
889
888
891
897
896
896
895
898
902
906
907
908
909
911
914
918
921
922
923
925
930
935
939
940
942
944
947
950
954
956
957
958
965
969
973
973
973
976
980
985
985
985
987
989
995
994
995
996
998
1000
1002
1005
1003
1000
1000
1000
1000
1002
1002
999
997
995
995
995
994
992
990
988
988
988
988
984
985
984
988
992
991
990
989
989
993
995
996
994
995
998
1000
1002
1004
1002
1001
998
1000
1000
999
996
997
997
1000
1002
1003
1001
998
993
992
987
980
972
967
961
961
960
954
953
948
948
949
951
949
948
948
947
950
953
952
951
950
947
953
953
953
954
952
952
952
955
952
951
950
953
953
955
956
953
951
954
955
957
956
957
954
956
960
961
963
961
959
959
961
965
963
963
959
958
955
954
950
947
949
959
975
1001
1026
1054
1079
1098
1117
1141
1169
1199
1227
1254
1283
1306
1318
1323
1325
1327
1318
1304
1271
1232
1197
1165
1137
1108
1069
1029
986
946
913
890
865
844
831
823
823
822
823
825
824
824
828
837
842
850
854
860
866
872
876
877
880
888
893
896
898
901
901
901
906
907
907
903
903
901
905
906
903
900
899
897
898
902
899
896
893
894
894
897
895
893
890
889
892
892
892
890
886
885
886
887
890
888
888
888
891
893
892
894
893
894
898
903
902
907
906
910
914
918
918
921
922
924
929
934
937
937
939
942
946
949
955
955
955
957
963
967
970
970
971
973
978
983
982
984
983
987
991
996
999
997
995
998
999
1001
999
998
1000
999
996
1001
998
998
994
995
996
994
993
991
990
985
987
990
988
984
982
982
987
987
988
986
987
988
986
988
986
988
988
988
993
997
998
997
997
997
999
1000
1002
997
993
992
994
996
999
999
997
997
998
997
992
982
972
964
961
959
954
948
945
943
944
946
946
944
942
943
946
950
949
947
944
945
947
946
948
946
944
946
946
949
951
947
947
949
948
953
951
950
947
947
950
953
953
952
947
951
952
956
956
954
955
955
956
958
958
954
951
950
946
948
949
955
974
1002
1031
1062
1087
1103
1119
1142
1175
1206
1235
1262
1288
1310
1325
1330
1329
1324
1313
1292
1254
1214
1177
1143
1109
1071
1034
992
950
914
885
858
837
826
817
812
806
808
812
818
816
818
820
828
840
850
857
859
860
863
870
878
881
883
886
887
891
895
896
894
892
892
894
896
895
892
890
888
888
892
887
887
884
882
884
886
886
884
880
879
880
884
883
882
880
878
877
879
878
878
875
874
877
878
880
879
880
880
884
887
888
889
892
895
896
901
900
902
899
905
911
917
919
919
921
923
928
932
935
938
937
942
946
952
953
954
955
959
963
967
970
970
971
973
975
980
981
980
980
978
984
987
988
987
986
986
988
990
992
987
985
984
986
986
985
983
980
979
981
982
979
978
974
973
974
977
976
975
973
973
976
978
978
977
974
972
975
977
977
976
976
979
988
990
990
989
989
988
988
987
988
985
986
985
987
987
988
986
985
981
981
982
973
966
959
953
952
948
942
939
935
936
938
936
936
936
934
935
938
940
939
940
936
937
941
942
943
943
938
940
941
945
943
942
942
942
944
948
946
942
940
942
944
946
947
943
941
943
947
948
948
946
948
949
952
953
951
949
944
941
940
946
947
957
980
1008
1037
1067
1091
1111
1125
1147
1175
1203
1229
1254
1280
1296
1308
1313
1308
1301
1286
1257
1220
1185
1150
1117
1086
1051
1015
971
933
900
872
851
836
828
820
817
815
816
821
826
824
826
829
842
851
862
864
866
868
871
880
886
889
891
893
894
897
900
901
899
897
896
896
900
897
895
894
891
894
894
893
892
892
889
891
893
891
890
889
887
888
888
889
887
885
885
888
888
886
886
883
881
884
887
887
886
885
889
894
896
897
900
902
904
907
912
913
914
917
918
923
928
930
932
934
938
941
946
949
951
952
955
959
964
968
969
969
971
972
980
979
980
982
982
984
985
990
988
988
986
989
993
994
990
990
988
992
994
990
991
990
985
986
988
987
987
984
981
983
984
983
984
985
985
989
989
990
986
984
984
985
990
989
990
991
990
994
997
997
997
999
996
996
999
995
993
995
994
995
999
997
996
995
991
993
990
981
973
965
960
958
956
951
947
944
941
943
945
944
942
940
941
942
945
944
945
944
943
945
949
948
947
948
945
947
952
951
952
948
949
952
954
952
950
949
950
952
955
955
953
951
953
952
954
954
953
950
952
955
956
955
954
953
947
945
943
941
944
954
976
1006
1035
1061
1085
1102
1125
1157
1192
1226
1254
1281
1298
1312
1315
1314
1309
1286
1248
1207
1170
1137
1103
1066
