1009
1011
1011
1007
1003
1005
1003
1006
1005
1005
1005
1007
1009
1007
1002
995
987
983
980
979
973
968
964
960
960
962
960
958
954
957
960
959
959
960
956
960
960
962
961
958
957
958
961
961
961
961
960
962
963
964
965
961
959
962
963
967
968
967
964
967
969
972
970
970
969
970
973
972
971
967
959
958
961
967
984
1003
1029
1058
1084
1105
1120
1131
1151
1180
1207
1234
1258
1276
1286
1292
1292
1291
1282
1270
1244
1208
1180
1155
1130
1105
1076
1039
1005
969
933
905
880
864
852
847
843
842
839
845
848
850
853
861
871
877
883
887
891
895
896
900
908
915
916
919
916
919
921
921
921
919
917
917
918
922
920
917
914
913
916
916
915
910
909
908
912
911
911
908
905
904
907
907
907
904
904
905
906
908
908
907
906
907
909
915
917
916
917
919
924
927
927
928
931
935
940
942
944
944
946
948
956
960
964
964
965
971
974
978
983
983
983
986
990
994
995
999
998
1003
1006
1008
1010
1010
1010
1014
1017
1018
1016
1017
1014
1018
1020
1020
1020
1017
1015
1013
1015
1013
1011
1010
1008
1007
1009
1009
1007
1005
1002
1001
1004
1004
1000
999
997
999
1000
1004
1004
1003
1002
1004
1007
1010
1008
1006
1006
1007
1010
1014
1014
1013
1013
1015
1017
1018
1021
1016
1012
1013
1013
1016
1016
1016
1014
1015
1018
1018
1017
1011
1005
1002
997
993
985
980
974
971
969
969
968
965
963
963
961
963
964
964
963
961
962
965
964
962
964
965
967
967
967
964
961
964
966
969
969
967
965
965
968
970
969
969
965
970
973
975
975
973
971
973
977
978
977
978
974
975
974
973
966
960
961
966
983
1010
1038
1066
1088
1107
1127
1150
1178
1207
1239
1266
1294
1310
1319
1320
1313
1308
1292
1261
1218
1185
1154
1130
1099
1061
1018
976
940
913
888
871
860
849
843
842
843
846
849
846
847
856
865
874
878
885
884
892
899
903
908
911
913
917
922
924
925
924
923
923
925
925
923
918
917
918
917
918
917
917
914
914
915
915
913
912
908
910
911
913
912
913
910
909
912
913
913
912
913
915
917
917
919
920
922
925
927
932
935
935
936
940
944
950
950
954
953
958
965
968
970
973
973
979
980
986
990
990
992
995
1001
1004
1008
1008
1009
1011
1013
1017
1018
1019
1019
1020
1022
1024
1023
1022
1021
1024
1021
1022
1021
1021
1019
1018
1019
1020
1019
1015
1013
1014
1014
1014
1011
1010
1007
1006
1006
1008
1004
1004
1003
1003
1004
1009
1010
1010
1010
1011
1013
1013
1013
1009
1009
1011
1015
1016
1018
1018
1016
1017
1019
1022
1020
1022
1018
1015
1016
1016
1017
1016
1014
1017
1022
1020
1020
1019
1015
1012
1009
1003
998
991
987
985
980
978
972
970
967
969
969
969
968
967
966
967
971
971
969
968
966
968
971
972
970
971
968
971
972
973
974
973
971
972
975
975
975
973
970
973
977
977
979
977
976
977
979
984
982
979
979
977
981
979
978
972
966
968
971
981
1003
1029
1057
1086
1113
1134
1149
1174
1202
1233
1264
1292
1311
1330
1339
1342
1340
1336
1319
1291
1249
1212
1182
1157
1124
1091
1045
1000
963
931
904
879
860
850
846
844
845
847
846
846
850
859
867
875
882
885
895
899
904
908
910
917
923
926
927
928
927
928
930
930
929
927
924
924
924
927
925
923
918
920
920
921
922
918
915
916
917
919
918
915
913
912
916
915
912
910
912
913
916
916
918
915
916
920
923
926
927
926
926
931
936
941
945
948
946
950
955
961
962
964
965
967
977
982
983
983
984
989
995
999
1002
1002
1004
1008
1012
1013
1016
1017
1021
1022
1022
1025
1026
1028
1027
1027
1032
1033
1030
1032
1026
1028
1031
1033
1030
1030
1026
1027
1025
1026
1026
1023
1022
1020
1019
1021
1019
1016
1015
1013
1011
1013
1012
1010
1009
1011
1014
1015
1017
1015
1014
1015
1017
1020
1019
1021
1018
1021
1023
1025
1025
1024
1023
1026
1028
1028
1029
1024
1019
1020
1022
1025
1025
1023
1023
1023
1025
1027
1023
1016
1009
1002
998
994
993
986
980
976
973
973
974
972
969
971
971
970
971
970
968
969
967
972
972
970
968
970
973
973
974
972
971
971
974
977
976
976
974
975
975
979
979
979
975
975
978
981
979
978
979
981
982
986
984
982
981
979
978
975
971
968
967
976
999
1030
1059
1086
1109
1132
1155
1181
1213
1245
1273
1306
1332
1349
1354
1355
1347
1333
1311
1271
1230
1195
1161
1125
1086
1039
990
949
914
886
865
849
844
837
835
834
842
845
845
849
858
867
880
886
892
894
897
902
911
918
919
921
919
923
926
929
925
924
920
920
923
923
923
919
917
916
917
920
917
912
911
911
913
913
912
911
908
909
909
913
910
911
907
909
910
914
915
914
912
916
919
922
924
923
927
930
934
938
942
942
943
949
950
955
959
962
963
967
969
976
979
983
984
989
994
999
1002
1000
1004
1008
1013
1016
1017
1018
1018
1022
1025
1026
1028
1028
1026
1026
1026
1027
1028
1028
1027
1028
1027
1027
1026
1026
1023
1023
1024
1024
1020
1017
1015
1013
1013
1014
1012
1010
1006
1008
1011
1014
1014
1016
1013
1015
1018
1017
1015
1012
1013
1016
1017
1020
1021
1018
1017
1020
1023
1025
1025
1023
1019
1018
1016
1020
1020
1021
1020
1018
1021
1024
1021
1017
1014
1013
1010
1006
999
992
984
981
979
976
974
970
967
968
969
971
970
967
966
967
968
972
968
967
969
968
969
971
970
969
967
967
969
971
972
972
969
970
973
972
973
974
973
972
977
976
975
975
973
974
979
979
977
978
976
974
978
979
981
975
968
965
969
970
977
989
1007
1039
1072
1102
1127
1143
1158
1184
1218
1251
1281
1307
1329
1348
1358
1361
1357
1346
1325
1294
1252
1214
1182
1149
1113
1077
1035
994
956
923
888
867
854
843
833
829
824
828
832
837
839
840
846
858
868
878
881
885
887
894
901
908
910
911
915
917
920
922
919
916
913
912
914
912
913
910
908
908
907
908
908
905
904
902
903
905
903
901
899
901
903
902
902
900
899
901
903
904
906
906
904
907
911
913
914
916
917
921
925
929
932
932
935
938
941
947
951
954
953
959
965
970
973
974
978
978
982
990
991
992
994
998
1002
1005
1006
1009
1008
1010
1015
1015
1016
1015
1013
1015
1017
1018
1020
1018
1015
1014
1013
1012
1013
1012
1010
1010
1010
1011
1007
1004
1001
1001
1003
1004
1003
998
997
998
999
1002
999
1005
1002
1003
1006
1002
1003
1001
999
1002
1006
1009
1011
1012
1010
1010
1011
1015
1015
1013
1010
1008
1009
1010
1011
1011
1006
1008
1011
1013
1011
1007
1003
995
992
987
984
978
970
966
963
963
959
960
956
956
958
961
960
958
956
956
961
962
961
961
958
958
959
963
961
961
960
961
961
963
963
962
961
964
963
968
966
966
964
964
968
971
970
970
969
971
975
977
975
973
970
971
970
967
965
965
964
975
994
1024
1054
1088
1115
1139
1153
1173
1199
1225
1249
1278
1303
1323
1328
1330
1325
1319
1307
1289
1255
1215
1185
1159
1137
1109
1076
1035
990
952
923
892
870
850
836
831
828
831
831
834
837
837
842
849
856
866
869
875
880
888
893
896
898
905
911
915
916
917
916
917
919
920
921
920
916
913
916
915
918
914
910
911
911
910
909
907
903
906
905
906
908
905
902
902
903
906
904
906
903
903
905
909
910
910
908
913
919
920
922
924
925
928
933
939
941
943
941
948
953
959
961
963
965
970
975
979
980
984
987
991
997
1002
1004
1006
1007
1009
1014
1018
1022
1018
1018
1020
1021
1024
1024
1023
1022
1021
1023
1025
1024
1021
1017
1017
1017
1018
1016
1013
1010
1011
1011
1013
1010
1009
1006
1007
1012
1015
1014
1012
1015
1014
1015
1017
1016
1017
1017
1018
1021
1023
1026
1025
1024
1025
1026
1024
1025
1022
1021
1020
1023
1025
1024
1023
1021
1016
1014
1011
1003
998
991
986
981
978
975
972
969
971
972
972
971
969
968
968
973
975
973
972
971
969
972
975
974
973
970
970
972
976
973
974
972
972
976
979
976
976
972
976
978
981
980
978
978
980
981
983
985
981
978
977
974
971
970
974
982
1006
1037
1070
1100
1120
1135
1155
1184
1219
1249
1274
1297
1317
1330
1333
1332
1325
1314
1293
1260
1228
1197
1172
1143
1113
1081
1045
1002
965
932
903
881
867
856
846
838
839
846
850
850
850
853
861
872
882
888
891
893
897
907
913
918
922
923
924
928
931
931
927
927
926
926
927
928
925
922
923
924
925
924
921
918
917
917
918
915
914
911
912
912
915
915
912
909
913
916
917
917
916
915
917
921
922
927
924
924
928
933
938
940
944
942
945
949
957
960
962
965
968
975
978
983
984
986
990
996
999
1002
1002
1005
1010
1013
1019
1020
1021
1023
1023
1028
1030
1033
1032
1030
1031
1033
1036
1033
1031
1030
1029
1031
1030
1029
1026
1023
1024
1020
1022
1021
1021
1014
1013
1014
1014
1014
1015
1014
1016
1020
1021
1022
1017
1016
1017
1019
1022
1026
1025
1021
1025
1028
1030
1031
1030
1028
1026
1025
1024
1023
1024
1023
1023
1025
1027
1026
1020
1013
1006
1001
1000
990
986
976
974
975
975
975
973
969
970
972
974
973
971
971
972
976
976
976
975
973
973
977
978
977
975
975
975
978
979
981
977
975
976
977
980
980
980
978
978
980
983
984
984
983
983
981
981
978
972
968
969
985
1009
1042
1070
1101
1127
1146
1172
1205
1234
1266
1298
1326
1346
1356
1358
1354
1345
1327
1297
1256
1218
1182
1152
1123
1085
1036
989
948
915
888
868
855
844
837
834
837
844
844
848
847
859
870
882
888
891
891
898
904
907
912
917
918
921
922
927
927
924
920
921
923
922
923
920
916
915
917
921
918
916
914
912
915
917
916
912
911
909
911
912
913
910
907
909
913
913
914
914
914
914
918
919
922
923
924
926
930
934
936
938
941
943
949
955
956
959
959
966
970
977
981
984
984
988
995
999
1004
1005
1005
1006
1013
1016
1018
1021
1020
1023
1026
1029
1029
1029
1025
1030
1031
1033
1034
1031
1027
1029
1030
1033
1032
1027
1026
1024
1023
1024
1025
1025
1019
1018
1019
1019
1020
1017
1014
1013
1014
1017
1022
1017
1017
1018
1021
1019
1021
1019
1017
1019
1025
1027
1028
1029
1026
1025
1029
1033
1031
1027
1022
1020
1021
1026
1027
1027
1026
1024
1024
1025
1020
1012
1003
998
995
993
989
980
975
972
972
973
973
971
967
970
971
976
973
971
969
971
974
976
976
973
970
971
973
975
974
976
973
974
976
978
979
979
975
977
979
979
979
977
979
978
981
984
984
982
980
981
985
983
986
983
979
973
972
971
970
972
984
1008
1036
1070
1098
1120
1135
1159
1185
1217
1250
1278
1305
1328
1352
1362
1367
1365
1354
1343
1321
1286
1245
1209
1179
1144
1112
1076
1034
988
950
921
894
874
854
842
832
830
829
834
838
838
836
838
847
859
867
873
875
883
887
894
899
907
905
912
915
920
922
921
920
921
923
923
922
922
918
916
917
916
917
914
911
913
913
916
915
910
906
906
908
910
909
906
904
903
906
908
907
906
904
905
905
908
908
907
905
909
912
914
915
917
916
919
922
928
932
932
933
937
942
947
951
951
955
958
962
967
972
974
973
977
983
988
992
996
998
999
1005
1010
1013
1014
1015
1017
1019
1025
1026
1026
1025
1027
1028
1030
1028
1028
1027
1028
1029
1029
1031
1030
1027
1028
1025
1030
1025
1024
1021
1020
1020
1021
1021
1019
1016
1016
1016
1017
1018
1017
1016
1019
1022
1023
1023
1021
1019
1018
1019
1024
1027
1023
1024
1024
1028
1030
1029
1028
1027
1030
1031
1032
1028
1023
1021
1021
1023
1025
1025
1024
1022
1023
1023
1025
1023
1015
1009
1002
999
997
992
988
980
976
977
977
975
970
968
969
971
973
972
970
968
969
972
973
973
970
968
969
971
973
973
972
967
972
974
977
976
976
972
974
977
978
978
977
975
976
976
979
979
979
978
979
980
982
983
982
979
981
982
982
978
968
964
965
970
978
999
1026
1055
1087
1114
1136
1153
1174
1197
1232
1262
1293
1319
1339
1353
1364
1368
1370
1362
1348
1323
1286
1248
1218
1188
1159
1123
1082
1036
990
948
913
883
858
846
839
835
832
832
838
841
840
848
852
860
869
880
883
887
891
894
897
904
911
914
916
915
918
921
924
922
921
919
918
920
920
919
915
914
911
914
915
912
910
907
908
908
908
908
907
905
903
905
906
907
903
900
904
904
906
907
907
906
907
911
914
914
916
916
920
925
929
933
930
933
938
944
949
952
952
956
958
965
970
973
973
976
978
985
988
992
995
996
1000
1006
1010
1012
1012
1012
1015
1021
1022
1024
1024
1023
1024
1026
1031
1030
1027
1026
1023
1027
1028
1024
1026
1021
1021
1023
1020
1022
1016
1014
1013
1014
1015
1014
1011
1009
1009
1010
1014
1013
1012
1013
1015
1017
1018
1017
1016
1014
1014
1016
1020
1020
1020
1020
1023
1025
1027
1029
1025
1024
1023
1022
1023
1021
1020
1018
1018
1020
1023
1025
1021
1018
1016
1011
1012
1005
997
989
986
984
981
977
970
967
968
971
970
970
968
966
967
967
966
968
968
964
965
968
971
971
969
966
968
968
970
971
968
968
970
974
974
974
972
971
970
974
975
975
973
971
972
976
979
978
976
975
977
978
983
981
980
976
976
973
971
969
968
972
988
1016
1045
1075
1100
1121
1142
1160
1188
1220
1246
1274
1302
1329
1352
1366
1370
1370
1368
1360
1345
1317
1276
1238
1206
1176
1145
1107
1062
1013
968
934
904
878
855
838
831
828
828
828
832
833
833
836
845
855
862
869
874
880
886
891
890
897
903
910
912
915
917
914
916
918
919
918
914
911
914
913
914
913
910
908
908
908
909
908
902
903
902
903
905
902
902
901
899
899
901
900
900
900
900
900
906
907
904
907
909
912
915
916
916
918
922
927
932
933
938
940
942
950
953
958
960
962
969
972
980
983
983
985
990
995
998
1001
1003
1005
1008
1014
1016
1018
1020
1021
1021
1025
1027
1027
1026
1025
1024
1027
1029
1026
1026
1022
1021
1022
1023
1021
1021
1018
1018
1016
1018
1014
1012
1009
1008
1012
1012
1012
1014
1012
1013
1017
1018
1018
1012
1013
1013
1018
1022
1023
1023
1023
1023
1026
1029
1031
1026
1020
1020
1023
1023
1024
1024
1023
1022
1025
1027
1022
1014
1008
1002
996
993
990
984
979
975
971
974
971
968
968
967
971
971
972
970
969
968
971
975
975
973
970
969
973
974
974
973
972
972
974
976
976
974
975
974
979
980
981
978
978
978
979
981
981
979
979
978
981
984
983
983
981
979
979
977
974
969
967
969
980
1001
1031
1059
1088
1113
1137
1159
1179
1205
1235
1266
1295
1325
1347
1363
1371
1376
1378
1375
1361
1334
1293
1255
1222
1192
1161
1124
1086
1041
997
959
924
893
867
850
839
833
829
828
829
830
832
836
839
844
853
862
874
881
884
884
887
893
901
908
911
912
912
915
917
918
916
916
914
914
916
915
914
910
910
910
911
912
908
905
903
903
906
906
905
904
901
901
903
904
900
899
895
896
898
901
901
900
901
902
907
908
911
910
912
912
919
924
928
928
930
935
940
945
949
951
953
956
961
970
971
974
976
979
985
992
994
996
994
1000
1005
1009
1013
1011
1013
1013
1017
1019
1019
1022
1017
1021
1022
1023
1023
1022
1021
1018
1019
1020
1020
1016
1015
1011
1013
1014
1013
1010
1006
1005
1006
1006
1007
1004
1001
999
1004
1007
1006
1007
1005
1007
1010
1010
1010
1005
1006
1009
1012
1016
1014
1015
1018
1015
1018
1020
1022
1017
1014
1013
1012
1018
1017
1014
1014
1016
1018
1019
1017
1013
1009
1005
997
994
988
985
977
974
974
970
970
966
966
963
963
965
966
965
964
965
967
970
969
964
962
964
969
970
970
969
967
966
970
969
970
968
969
969
973
974
975
973
972
972
976
977
976
973
972
972
975
978
977
977
974
976
975
978
977
973
972
970
972
975
985
1004
1031
1066
1099
1128
1151
1167
1187
1213
1248
1278
1307
1327
1345
1358
1367
1370
1366
1356
1339
1308
1273
1233
1201
1169
1134
1098
1058
1015
974
937
902
874
857
846
836
828
827
826
833
835
835
835
837
847
857
867
872
877
880
883
889
897
905
907
907
911
914
916
919
917
915
913
914
917
917
913
910
907
911
912
911
908
906
902
905
906
905
905
901
901
901
904
902
899
898
896
901
903
902
900
899
901
906
910
911
912
911
912
916
920
924
925
926
930
935
942
945
947
948
951
960
966
968
968
970
975
979
986
988
992
994
997
1002
1007
1010
1010
1011
1011
1017
1018
1021
1021
1017
1016
1018
1020
1018
1018
1015
1015
1015
1017
1014
1011
1008
1006
1005
1010
1010
1006
1003
1000
1001
998
1001
999
999
999
1004
1006
1005
1005
1005
1005
1007
1009
1011
1011
1011
1012
1015
1018
1021
1019
1018
1019
1019
1020
1015
1014
1012
1013
1017
1019
1018
1018
1016
1012
1010
1007
1001
991
986
982
979
977
973
967
963
966
966
966
963
964
962
964
965
966
966
966
963
963
966
968
968
966
967
963
967
970
971
970
968
967
970
973
971
969
973
971
971
974
975
974
974
975
976
981
979
977
977
977
975
974
969
965
965
966
980
1004
1035
1067
1093
1119
1136
1158
1186
1213
1241
1271
1297
1320
1335
1337
1338
1336
1328
1312
1277
1236
1200
1171
1147
1117
1083
1035
991
956
925
898
874
855
845
835
836
836
838
837
836
837
844
857
867
870
873
879
886
890
896
900
904
908
914
920
920
921
919
921
923
922
919
918
916
916
917
918
918
913
907
910
911
913
912
909
907
906
907
908
908
906
903
902
905
907
908
904
905
906
908
908
910
911
911
911
917
920
919
921
924
924
932
935
936
938
941
942
949
955
958
960
961
966
970
975
978
980
982
988
994
998
1002
1000
1003
1007
1010
1016
1017
1016
1018
1020
1023
1026
1027
1027
1024
1024
1027
1029
1028
1024
1024
1020
1021
1023
1021
1018
1015
1012
1014
1016
1015
1011
1006
1007
1005
1010
1007
1008
1008
1008
1011
1013
1012
1013
1014
1011
1016
1018
1020
1022
1020
1023
1024
1028
1027
1028
1024
1021
1023
1021
1021
1022
1020
1020
1024
1025
1024
1021
1016
1010
1005
1001
996
988
982
976
975
974
972
972
970
968
