997
997
999
997
997
995
992
993
994
994
993
989
988
987
988
988
988
986
983
985
990
992
993
992
990
990
989
993
991
991
987
992
994
997
999
1000
999
1001
1002
1003
1004
1001
1000
997
998
999
998
997
998
1001
1002
1005
1005
1000
993
991
984
978
974
970
961
959
958
956
956
954
951
952
951
954
953
951
951
950
953
954
953
952
952
954
953
957
956
955
952
954
957
960
959
956
955
956
958
961
961
959
958
959
962
962
962
961
959
961
963
966
965
965
963
966
966
964
960
955
951
952
957
973
997
1029
1056
1086
1108
1127
1149
1175
1203
1236
1266
1292
1308
1316
1318
1317
1312
1298
1269
1227
1190
1166
1141
1114
1081
1040
996
956
928
901
876
852
836
832
828
832
832
832
832
834
843
851
862
869
872
876
882
890
894
896
898
904
908
911
911
911
909
909
910
911
910
908
905
907
906
908
906
902
900
903
902
903
901
899
896
897
899
898
898
897
893
896
897
898
898
896
895
898
899
902
902
901
901
903
905
911
908
911
910
915
920
923
926
927
930
932
939
941
944
945
950
952
958
961
963
966
968
971
974
979
983
985
983
990
994
998
998
998
1001
1002
1007
1011
1010
1011
1010
1010
1010
1013
1011
1011
1011
1010
1011
1011
1011
1010
1006
1008
1008
1006
1004
1002
998
1000
999
998
997
996
993
995
999
997
999
1001
999
1002
1003
1004
1002
1002
999
1002
1002
1004
1004
1006
1004
1008
1011
1014
1012
1009
1009
1010
1009
1008
1007
1007
1006
1008
1010
1010
1009
1010
1008
1008
1007
1005
996
989
982
981
979
976
971
967
963
963
963
966
963
961
956
958
959
962
962
960
960
959
963
964
963
962
961
962
962
963
963
964
962
964
966
966
967
965
961
964
966
969
970
969
968
969
971
972
972
970
968
970
974
975
974
973
970
968
969
967
963
959
958
962
975
998
1023
1050
1071
1100
1116
1132
1156
1184
1213
1242
1270
1294
1315
1329
1332
1333
1330
1319
1292
1253
1215
1187
1159
1131
1095
1052
1006
963
934
907
880
857
843
836
834
836
840
839
839
837
845
853
861
869
876
881
886
892
896
898
901
907
912
916
916
916
915
918
918
920
917
915
911
912
912
910
912
909
903
903
908
908
907
903
900
900
903
904
902
901
900
901
901
904
904
905
903
902
905
907
910
907
907
911
917
921
922
924
923
926
933
936
937
938
941
945
951
955
957
959
958
964
967
974
974
977
979
982
989
992
995
995
997
1001
1006
1009
1008
1007
1006
1009
1015
1015
1014
1014
1013
1015
1015
1015
1016
1014
1011
1011
1013
1013
1013
1011
1006
1005
1005
1006
1003
1002
999
1002
1000
1000
1004
1002
1000
1003
1004
1006
1008
1007
1004
1005
1007
1008
1005
1009
1006
1008
1012
1015
1018
1014
1014
1014
1018
1018
1017
1011
1010
1011
1013
1014
1017
1015
1012
1014
1014
1014
1011
1009
1001
996
992
989
986
980
975
973
970
968
968
967
965
966
966
969
969
966
966
965
966
969
969
967
965
965
970
972
968
967
965
967
968
970
971
966
966
966
970
969
971
967
966
968
971
972
971
971
971
972
973
975
972
973
975
973
976
977
976
973
968
967
963
964
966
972
987
1015
1044
1073
1096
1115
1129
1148
1174
1204
1230
1258
1283
1307
1327
1340
1344
1343
1336
1329
1308
1274
1234
1202
1172
1145
1112
1080
1039
996
957
931
906
882
865
849
841
835
835
832
839
839
838
840
844
855
862
869
875
880
884
889
895
898
900
905
909
914
917
915
918
918
919
919
917
915
914
913
914
916
913
909
908
909
907
909
906
903
902
901
903
904
902
900
899
897
900
900
899
899
900
901
901
903
904
904
903
904
906
912
912
914
913
918
921
926
926
930
930
936
941
945
947
948
951
953
960
963
967
967
967
970
976
983
986
986
989
991
996
999
1000
1003
1002
1006
1011
1013
1014
1014
1015
1015
1018
1018
1017
1016
1015
1016
1018
1019
1019
1016
1013
1015
1014
1013
1012
1009
1007
1008
1009
1008
1007
1005
1000
1002
1005
1008
1006
1008
1007
1010
1010
1010
1009
1009
1006
1007
1008
1009
1011
1011
1009
1013
1016
1017
1019
1016
1013
1014
1014
1014
1014
1013
1011
1012
1015
1016
1017
1018
1015
1013
1011
1006
1000
993
988
983
979
980
975
970
965
966
969
969
967
965
963
963
967
967
969
966
963
964
966
968
967
965
966
964
970
970
970
967
965
969
971
972
970
971
967
969
971
972
974
970
968
970
971
975
974
973
972
974
978
980
979
976
973
973
973
971
968
965
961
967
979
999
1028
1052
1076
1100
1122
1139
1160
1186
1214
1246
1275
1302
1328
1338
1343
1345
1344
1337
1320
1288
1248
1214
1188
1162
1125
1089
1048
1003
969
938
908
883
861
852
843
841
837
835
836
839
840
843
845
850
855
863
873
880
886
888
890
894
902
908
912
912
912
914
919
919
921
919
917
917
919
920
918
915
913
915
912
916
913
911
908
908
909
911
910
906
904
904
904
906
904
904
903
902
904
906
905
904
903
905
907
909
911
910
912
914
919
922
925
924
926
930
934
939
944
945
945
948
955
958
961
960
963
966
973
977
981
984
985
987
991
997
1001
1003
1002
1004
1008
1013
1014
1012
1014
1017
1018
1018
1020
1017
1019
1019
1017
1021
1020
1017
1014
1014
1015
1014
1011
1011
1007
1008
1008
1008
1005
1004
1004
1008
1011
1014
1012
1011
1006
1007
1009
1011
1010
1009
1005
1011
1011
1015
1017
1016
1014
1016
1017
1016
1012
1012
1012
1012
1013
1016
1017
1017
1014
1015
1013
1012
1007
999
990
987
984
983
977
973
968
970
970
971
969
968
964
967
968
971
970
967
966
966
970
969
970
970
965
966
969
972
972
970
967
969
971
975
976
973
972
972
975
977
977
978
974
977
978
982
980
979
978
979
978
979
975
971
964
965
971
978
996
1022
1050
1080
1105
1128
1144
1164
1192
1228
1255
1291
1318
1337
1345
1351
1353
1347
1331
1297
1255
1217
1184
1153
1121
1084
1035
988
949
919
890
866
853
843
838
840
838
838
839
840
843
849
856
862
870
875
879
888
891
893
895
902
910
917
917
920
916
921
921
921
921
917
915
913
913
914
915
913
908
907
910
909
907
907
904
901
902
903
902
901
899
901
902
902
904
902
901
902
904
906
906
906
906
909
912
914
917
919
919
922
927
932
936
936
937
941
946
952
954
959
959
965
970
974
975
979
979
982
987
992
994
996
998
1001
1004
1008
1012
1013
1011
1015
1019
1020
1021
1019
1020
1021
1022
1022
1021
1019
1016
1018
1017
1019
1016
1012
1010
1009
1010
1011
1009
1006
1004
1006
1006
1012
1012
1014
1012
1011
1010
1012
1012
1011
1008
1010
1012
1016
1018
1018
1018
1019
1022
1021
1018
1017
1014
1016
1017
1020
1019
1018
1016
1017
1019
1021
1015
1007
998
992
988
986
982
976
971
968
973
973
973
968
967
968
971
973
972
973
968
969
971
973
972
970
971
972
974
973
975
973
971
973
977
978
979
978
976
977
979
981
982
978
979
980
981
984
984
982
980
980
975
974
972
971
975
992
1021
1055
1083
1111
1130
1150
1179
1213
1244
1278
1305
1330
1350
1359
1360
1351
1333
1300
1257
1221
1185
1148
1110
1066
1019
973
935
904
875
857
847
842
839
836
839
844
847
849
854
862
870
880
886
891
896
899
902
909
915
915
921
920
919
921
923
925
923
920
916
919
920
919
919
915
913
914
913
914
913
911
909
906
908
909
910
906
904
902
905
908
908
909
907
908
909
914
914
915
913
914
918
925
926
927
929
932
938
942
943
945
945
950
957
963
966
966
966
971
976
981
982
985
985
989
995
1000
1002
1004
1007
1011
1014
1018
1016
1019
1020
1023
1026
1026
1027
1025
1022
1023
1024
1026
1026
1025
1022
1023
1024
1025
1022
1021
1017
1016
1016
1017
1016
1012
1012
1012
1013
1019
1019
1017
1015
1014
1017
1019
1017
1015
1010
1015
1019
1024
1025
1027
1023
1025
1023
1024
1023
1020
1017
1021
1023
1026
1024
1023
1021
1023
1024
1024
1020
1013
1003
996
995
992
987
981
978
972
976
977
974
973
969
971
974
975
975
975
970
971
974
975
976
975
971
972
975
977
978
976
974
976
979
979
979
977
977
979
978
984
981
981
980
980
984
985
985
985
981
983
985
984
984
982
975
971
972
974
978
987
1009
1039
1070
1099
1124
1141
1158
1186
1220
1254
1284
1311
1334
1350
1361
1364
1360
1349
1321
1283
1242
1211
1177
1144
1106
1065
1023
984
948
913
885
869
855
848
842
840
836
836
844
846
847
849
856
865
876
885
889
892
892
899
907
911
915
916
918
923
927
928
926
923
920
920
921
923
920
917
917
916
915
918
915
913
911
911
913
912
910
908
906
906
906
907
908
905
903
904
905
907
905
907
906
909
909
910
914
914
915
917
921
924
928
928
929
933
935
943
945
946
946
953
957
962
964
968
970
974
979
986
988
991
992
996
1001
1004
1006
1006
1009
1011
1013
1017
1020
1020
1019
1018
1021
1024
1023
1023
1020
1021
1025
1025
1025
1023
1021
1019
1020
1023
1021
1018
1017
1016
1014
1015
1013
1012
1008
1012
1014
1016
1016
1015
1013
1015
1013
1015
1014
1014
1010
1012
1011
1014
1015
1014
1016
1017
1022
1022
1022
1020
1019
1020
1019
1020
1018
1017
1017
1019
1020
1021
1022
1021
1016
1013
1010
1007
1001
995
990
986
983
981
976
972
970
973
973
972
971
970
968
970
972
974
974
972
972
970
973
973
974
972
972
973
975
977
975
973
972
973
976
979
977
975
974
977
980
981
981
981
979
981
982
985
985
985
983
981
981
982
979
974
971
972
982
999
1027
1058
1089
1120
1147
1169
1190
1220
1248
1282
1313
1339
1358
1365
1364
1359
1351
1332
1294
1248
1211
1175
1145
1110
1069
1024
978
943
911
889
867
850
837
833
834
839
843
844
843
848
860
872
879
884
886
892
899
907
913
915
917
919
922
924
924
924
920
921
920
921
921
917
916
916
917
914
913
910
909
910
912
913
911
909
907
906
909
910
909
906
905
906
908
908
908
907
907
910
913
914
916
919
918
920
924
928
931
933
934
937
942
947
949
950
954
956
961
965
968
971
972
976
980
987
989
990
993
996
1002
1007
1007
1009
1008
1014
1016
1019
1019
1021
1020
1023
1023
1025
1022
1022
1018
1018
1021
1021
1020
1019
1013
1014
1016
1017
1013
1012
1010
1009
1011
1013
1013
1011
1012
1014
1016
1018
1015
1015
1012
1012
1014
1014
1011
1012
1013
1016
1020
1025
1025
1026
1022
1022
1023
1022
1021
1017
1016
1018
1018
1022
1021
1021
1019
1020
1017
1015
1008
1001
993
988
989
986
983
978
973
975
972
975
971
973
969
969
970
972
974
974
972
972
974
974
974
973
970
970
973
975
974
973
972
974
976
977
978
976
973
976
974
980
979
979
977
979
979
984
982
981
980
982
984
985
985
982
981
976
976
973
974
975
978
999
1025
1057
1086
1112
1131
1147
1170
1203
1231
1260
1287
1311
1330
1338
1340
1336
1322
1306
1278
1240
1203
1171
1141
1106
1074
1032
988
953
921
894
875
863
851
847
841
844
847
851
853
851
854
863
873
883
888
892
894
899
904
911
916
920
919
920
925
929
928
928
923
924
925
924
924
922
917
919
919
921
919
916
910
912
910
913
915
914
910
909
913
913
910
909
909
908
910
912
913
914
912
914
916
919
924
924
923
926
929
933
936
937
939
943
948
953
958
958
961
964
972
974
979
981
982
984
989
995
998
999
1000
1002
1010
1013
1015
1016
1013
1017
1019
1023
1024
1023
1022
1024
1023
1026
1025
1025
1022
1022
1023
1023
1022
1020
1017
1018
1019
1021
1018
1019
1017
1022
1022
1023
1020
1018
1020
1020
1022
1021
1021
1018
1018
1022
1026
1030
1028
1025
1022
1023
1025
1022
1021
1020
1021
1021
1021
1025
1026
1022
1021
1020
1017
1016
1010
1003
995
993
991
988
985
978
975
973
975
976
972
971
970
973
974
976
975
974
973
972
974
975
975
975
973
974
975
977
977
975
972
976
976
978
979
978
976
979
979
983
981
982
979
979
980
982
983
982
981
984
985
987
986
982
979
980
975
976
971
969
971
978
993
1018
1043
1064
1087
1108
1128
1145
1166
1191
1219
1246
1275
1299
1323
1335
1341
1345
1344
1339
1322
1295
1254
1218
1190
1164
1134
1101
1061
1018
980
950
922
894
872
862
853
849
846
844
844
848
848
852
860
864
866
879
886
894
899
898
901
906
915
920
922
922
922
926
927
928
929
928
923
923
925
926
924
922
918
917
917
919
918
918
913
913
913
912
915
911
908
910
911
913
910
910
908
908
911
913
913
912
914
916
918
921
922
924
924
927
932
935
937
938
940
944
949
952
954
957
957
963
969
972
977
978
982
987
988
996
998
999
1001
1004
1010
1014
1017
1017
1016
1018
1021
1025
1025
1024
1023
1024
1025
1028
1029
1025
1022
1025
1025
1027
1025
1021
1018
1020
1017
1022
1019
1018
1013
1013
1019
1021
1021
1021
1019
1020
1020
1023
1021
1020
1018
1018
1018
1021
1023
1025
1026
1025
1029
1030
1029
1028
1024
1023
1024
1025
1023
1023
1020
1022
1021
1026
1026
1025
1019
1018
1018
1017
1011
1002
996
993
990
988
986
979
976
973
976
977
975
974
971
975
976
976
976
977
974
975
977
979
977
977
972
975
977
978
979
976
976
976
981
980
980
978
977
978
979
982
981
980
979
980
979
982
982
982
981
979
983
985
986
983
982
984
983
982
977
972
970
973
981
997
1018
1042
1070
1097
1118
1131
1147
1167
1193
1223
1250
1278
1302
1324
1337
1345
1349
1349
1344
1329
1302
1265
1229
1203
1171
1142
1108
1072
1031
994
958
926
895
874
861
853
845
840
838
840
842
846
847
848
852
860
869
880
885
889
890
894
899
905
912
912
915
917
921
924
925
925
922
924
923
924
922
921
917
917
919
920
918
917
914
912
912
916
913
912
909
911
911
911
909
907
903
906
909
908
910
908
907
906
910
913
914
916
915
916
919
921
926
928
929
932
936
942
943
944
949
951
955
962
963
966
969
970
980
981
985
986
988
991
996
1002
1004
1004
1000
1007
1014
1019
1019
1016
1016
1021
1023
1025
1023
1022
1020
1019
1021
1023
1021
1018
1016
1015
1016
1015
1014
1013
1009
1011
1015
1018
1018
1017
1016
1011
1014
1017
1013
1012
1009
1009
1012
1016
1017
1016
1016
1017
1019
1021
1021
1019
1014
1013
1016
1015
1017
1015
1015
1017
1020
1020
1018
1015
1008
1006
1000
996
991
986
981
975
974
973
973
969
968
964
968
967
966
966
962
963
967
971
969
968
966
964
966
969
971
970
967
969
971
971
971
971
968
970
975
976
975
972
970
973
974
978
975
976
975
977
980
980
979
979
977
976
978
979
976
971
966
969
974
982
1000
1025
1054
1083
1109
1132
1146
1158
1173
1199
1226
1250
1275
1296
1313
1323
1329
1331
1326
1314
1298
1270
1238
1206
1176
1148
1118
1089
1060
1022
981
947
915
891
870
858
848
842
835
836
840
842
846
844
843
848
858
867
874
878
878
884
889
894
899
902
906
908
916
918
920
921
919
920
921
924
922
920
917
920
922
921
920
916
915
915
914
914
914
911
908
909
912
912
910
910
908
907
911
914
911
911
909
910
911
915
914
915
913
914
916
919
921
924
924
924
927
929
932
936
938
940
945
950
952
951
954
957
966
969
972
974
973
979
983
988
992
989
990
994
1001
1006
1007
1009
1008
1010
1014
1016
1018
1016
1016
1018
1020
1020
1019
1018
1017
1016
1017
1017
1015
1012
1011
1009
1011
1011
1012
1011
1008
1011
1013
1016
1014
1012
1011
1011
1011
1012
1010
1006
1004
1006
1011
1015
1017
1016
1017
1014
1017
1017
1021
1016
1014
1012
1014
1015
1013
1013
1013
1015
1019
1018
1016
1013
1005
999
995
993
989
982
976
975
975
973
972
971
967
967
970
969
967
968
966
966
970
969
971
970
967
969
970
972
975
971
970
971
972
974
975
972
970
970
970
974
974
975
972
975
976
977
979
977
976
978
979
981
981
981
980
980
982
982
978
977
974
973
976
982
993
1013
1039
1068
1097
1121
1133
1141
1156
1182
1205
1230
1250
1266
1275
1279
1277
1277
1270
1260
1237
1206
1180
1157
1135
1113
1089
1062
1028
996
967
941
914
891
880
868
862
857
854
856
859
861
864
862
865
873
883
889
894
897
898
903
907
915
920
921
922
924
927
930
929
929
929
928
927
930
929
929
924
924
925
927
926
923
921
924
923
925
924
921
919
919
921
923
920
919
915
916
919
921
920
920
919
919
922
924
923
926
925
928
932
935
937
936
940
942
947
949
954
953
955
957
965
969
969
973
974
978
979
984
990
991
992
994
998
1002
1005
1006
1006
1011
1014
1017
1020
1018
1019
1021
1023
1024
1026
1026
1024
1022
1024
1029
1028
1026
1024
1024
1025
1024
1025
1023
1020
1020
1020
1023
1022
1026
1024
1026
1028
1026
1024
1023
1024
1024
1025
1027
1025
1027
1024
1028
1030
1033
1032
1030
1028
1027
1028
1028
1025
1025
1024
1024
1028
1027
1030
1027
1025
1023
1021
1016
1008
1003
995
994
992
990
986
982
978
977
981
981
980
977
973
975
975
978
977
977
976
974
979
983
982
980
978
978
982
983
983
982
980
980
983
987
986
984
982
984
984
987
989
988
986
988
990
992
991
988
984
981
978
979
975
978
990
1015
1044
1073
1096
1109
1122
1144
1175
1206
1236
1257
1277
1293
1302
1304
1300
1295
1279
1255
1225
1198
1178
1154
1126
1097
1060
1024
986
951
918
895
883
872
866
862
859
862
867
869
871
878
885
891
897
904
909
911
914
919
927
932
936
937
934
937
939
941
938
936
934
933
933
937
935
934
928
929
930
930
931
926
924
925
925
928
926
921
919
921
922
925
922
923
922
924
923
927
930
924
926
928
931
936
937
939
940
941
946
949
952
953
952
958
964
967
970
973
973
977
982
987
990
991
993
996
1003
1006
1007
1007
1012
1013
1018
1023
1024
1023
1022
1022
1028
1031
1031
1030
1028
1029
1030
1031
1033
1029
1029
1027
1026
1030
1027
1024
1022
1021
1022
1022
1023
1025
1020
1023
1026
1028
1026
1024
1026
1024
1024
1023
1024
1025
1025
1028
1032
1035
1032
1031
1027
1028
1026
1028
1026
1026
1024
1022
1025
1031
1029
1028
