1030
1015
993
980
963
936
901
864
833
812
803
802
804
803
810
822
835
851
865
877
890
904
915
927
936
945
954
964
971
979
986
991
999
1003
1011
1014
1021
1026
1029
1037
1045
1050
1057
1060
1063
1068
1073
1077
1079
1078
1079
1082
1085
1086
1085
1081
1081
1086
1089
1087
1087
1086
1086
1089
1089
1088
1091
1087
1088
1092
1094
1094
1095
1092
1093
1096
1099
1099
1099
1096
1099
1100
1103
1101
1103
1100
1101
1100
1103
1104
1104
1102
1100
1100
1102
1102
1099
1098
1099
1094
1098
1098
1097
1093
1093
1092
1093
1094
1094
1089
1085
1086
1087
1086
1084
1079
1078
1078
1078
1076
1075
1072
1068
1070
1070
1068
1067
1065
1058
1062
1063
1062
1058
1055
1054
1054
1056
1057
1055
1050
1049
1051
1054
1053
1053
1051
1051
1051
1052
1050
1050
1052
1049
1052
1052
1054
1051
1051
1052
1055
1057
1057
1061
1059
1058
1061
1063
1062
1058
1056
1057
1055
1058
1057
1057
1055
1052
1055
1058
1057
1058
1059
1054
1056
1056
1055
1055
1054
1053
1054
1057
1055
1057
1055
1054
1055
1057
1059
1059
1057
1057
1059
1059
1059
1059
1056
1055
1056
1056
1056
1055
1053
1054
1054
1057
1055
1055
1052
1053
1054
1056
1055
1054
1055
1051
1054
1053
1053
1053
1053
1050
1051
1055
1054
1055
1052
1051
1054
1055
1052
1054
1050
1052
1052
1054
1053
1053
1054
1051
1055
1057
1059
1066
1066
1071
1074
1078
1077
1070
1060
1045
1032
1018
1003
987
972
951
926
899
873
846
825
812
810
815
817
823
831
841
859
872
886
902
910
920
932
946
960
966
971
977
986
997
1001
1006
1009
1013
1018
1027
1033
1039
1043
1048
1055
1061
1065
1068
1070
1074
1077
1083
1085
1085
1085
1084
1088
1089
1088
1089
1088
1086
1088
1090
1092
1092
1089
1090
1091
1095
1095
1096
1093
1093
1096
1100
1100
1101
1097
1099
1100
1103
1102
1103
1103
1102
1103
1107
1107
1106
1104
1102
1104
1108
1107
1107
1104
1105
1106
1105
1106
1103
1103
1100
1102
1104
1103
1099
1096
1095
1097
1097
1096
1094
1092
1090
1091
1093
1090
1086
1085
1083
1083
1084
1082
1079
1076
1075
1075
1077
1073
1072
1068
1065
1065
1067
1066
1061
1060
1055
1060
1057
1057
1056
1054
1052
1053
1057
1053
1054
1051
1050
1055
1053
1056
1056
1054
1053
1052
1057
1057
1058
1057
1055
1058
1062
1064
1064
1061
1060
1061
1061
1059
1060
1058
1055
1055
1058
1059
1059
1058
1059
1059
1060
1059
1058
1058
1052
1056
1059
1060
1061
1057
1056
1059
1061
1061
1061
1059
1058
1060
1063
1062
1060
1059
1055
1062
1061
1060
1059
1056
1055
1055
1056
1059
1059
1055
1053
1054
1058
1057
1055
1054
1052
1058
1057
1059
1055
1054
1054
1054
1060
1055
1057
1052
1051
1053
1054
1056
1058
1056
1053
1054
1056
1055
1059
1054
1054
1057
1062
1063
1066
1071
1072
1077
1079
1078
1067
1054
1039
1023
1008
992
973
946
914
881
852
826
812
804
808
811
820
831
842
855
868
884
897
908
921
932
940
955
966
972
980
986
994
1002
1009
1016
1018
1019
1024
1034
1041
1047
1051
1056
1059
1066
1070
1075
1079
1080
1080
1085
1088
1092
1093
1090
1090
1093
1092
1094
1094
1092
1091
1093
1095
1098
1095
1094
1093
1096
1099
1099
1100
1098
1098
1102
1103
1106
1103
1100
1102
1105
1109
1107
1109
1106
1105
1108
1109
1109
1110
1108
1109
1107
1109
1110
1110
1109
1107
1108
1111
1107
1105
1106
1102
1102
1104
1104
1102
1101
1098
1100
1103
1098
1099
1095
1090
1095
1092
1093
1091
1089
1087
1083
1086
1082
1082
1079
1074
1076
1075
1073
1075
1071
1066
1068
1067
1067
1063
1062
1061
1060
1062
1060
1060
1057
1059
1058
1063
1059
1061
1058
1058
1059
1060
1061
1062
1057
1058
1059
1060
1066
1062
1064
1062
1067
1069
1071
1072
1068
1066
1066
1067
1069
1068
1065
1064
1064
1067
1069
1069
1065
1064
1064
1070
1069
1067
1065
1064
1066
1069
1071
1070
1067
1065
1067
1069
1073
1071
1070
1068
1072
1074
1071
1070
1070
1066
1069
1072
1071
1072
1070
1069
1066
1068
1069
1070
1067
1067
1068
1068
1070
1068
1067
1065
1067
1066
1068
1070
1066
1066
1067
1068
1068
1068
1064
1064
1067
1067
1068
1068
1065
1065
1066
1070
1068
1069
1068
1067
1073
1076
1083
1087
1089
1088
1088
1081
1070
1055
1039
1019
1004
989
966
936
899
864
836
825
820
820
822
829
841
856
871
887
899
911
923
938
950
961
971
978
988
996
1001
1011
1014
1018
1023
1030
1035
1039
1046
1050
1058
1066
1070
1076
1078
1079
1086
1091
1095
1096
1098
1097
1099
1103
1104
1103
1101
1099
1102
1105
1105
1104
1100
1102
1104
1107
1107
1109
1109
1106
1108
1111
1112
1110
1111
1108
1112
1113
1115
1114
1113
1114
1116
1119
1119
1116
1117
1117
1118
1120
1121
1121
1117
1119
1117
1117
1120
1120
1115
1114
1113
1117
1115
1114
1110
1110
1111
1113
1112
1110
1106
1103
1104
1106
1105
1103
1101
1098
1097
1097
1097
1094
1091
1089
1089
1089
1087
1087
1080
1079
1080
1082
1081
1075
1074
1072
1071
1073
1071
1070
1067
1064
1064
1065
1065
1065
1059
1059
1060
1062
1062
1060
1058
1058
1059
1062
1060
1062
1059
1059
1059
1062
1062
1061
1062
1059
1064
1065
1068
1066
1066
1068
1069
1072
1071
1068
1066
1064
1066
1067
1066
1065
1062
1061
1061
1064
1067
1067
1065
1066
1066
1067
1065
1066
1060
1059
1061
1068
1065
1066
1061
1063
1066
1066
1067
1067
1066
1063
1065
1071
1070
1070
1063
1063
1064
1066
1065
1066
1064
1063
1063
1067
1068
1064
1062
1062
1063
1063
1064
1065
1062
1062
1064
1062
1065
1062
1060
1060
1060
1064
1063
1063
1062
1059
1063
1063
1064
1062
1059
1061
1060
1061
1065
1062
1060
1060
1059
1062
1061
1061
1059
1058
1061
1064
1068
1074
1074
1076
1084
1084
1081
1072
1060
1049
1033
1018
1003
989
971
941
915
884
854
830
813
807
810
809
815
824
832
846
862
876
890
902
912
921
933
946
959
966
971
976
986
998
1002
1008
1012
1014
1021
1029
1034
1037
1041
1046
1055
1061
1068
1072
1074
1076
1082
1087
1089
1094
1091
1094
1095
1098
1099
1097
1096
1094
1096
1098
1098
1098
1096
1097
1100
1102
1103
1102
1100
1099
1103
1105
1107
1108
1106
1104
1105
1107
1110
1110
1111
1111
1110
1113
1113
1113
1112
1111
1112
1116
1118
1113
1114
1112
1114
1115
1116
1116
1115
1114
1114
1116
1116
1114
1112
1110
1110
1110
1110
1108
1107
1107
1108
1108
1107
1107
1102
1098
1102
1103
1101
1100
1099
1094
1094
1095
1094
1093
1092
1089
1088
1087
1088
1085
1083
1079
1079
1079
1079
1076
1071
1068
1072
1072
1069
1070
1063
1063
1063
1064
1064
1063
1060
1058
1058
1059
1061
1059
1057
1057
1056
1060
1060
1059
1055
1055
1058
1059
1058
1059
1057
1057
1058
1060
1062
1063
1061
1059
1064
1067
1067
1067
1067
1067
1066
1069
1069
1065
1064
1061
1063
1065
1065
1065
1062
1060
1062
1065
1065
1064
1064
1064
1062
1064
1062
1064
1062
1061
1060
1064
1064
1065
1061
1061
1062
1064
1063
1064
1063
1062
1064
1065
1067
1067
1063
1059
1061
1062
1062
1061
1061
1059
1058
1063
1061
1061
1059
1058
1058
1057
1060
1059
1058
1058
1058
1057
1061
1060
1058
1057
1058
1060
1059
1059
1056
1055
1057
1059
1059
1059
1057
1054
1056
1059
1058
1059
1057
1057
1056
1060
1063
1064
1065
1069
1076
1078
1083
1082
1071
1063
1051
1039
1019
1004
986
968
944
915
883
850
825
806
802
802
806
810
817
827
843
862
877
888
901
911
924
940
950
963
969
973
983
992
1002
1008
1010
1013
1020
1027
1034
1039
1044
1048
1055
1062
1070
1073
1075
1078
1083
1087
1092
1094
1094
1094
1095
1097
1100
1098
1095
1095
1097
1098
1102
1100
1099
1097
1100
1103
1105
1103
1103
1101
1104
1104
1109
1106
1106
1103
1107
1110
1110
1109
1110
1108
1108
1112
1114
1113
1112
1110
1112
1114
1116
1114
1112
1112
1111
1115
1113
1113
1110
1106
1109
1110
1110
1106
1106
1103
1103
1103
1103
1102
1098
1098
1098
1100
1098
1097
1095
1091
1090
1090
1089
1087
1086
1081
1082
1082
1082
1080
1075
1072
1071
1072
1071
1071
1066
1063
1063
1063
1066
1063
1059
1057
1058
1057
1058
1058
1057
1053
1055
1055
1057
1058
1051
1053
1052
1056
1057
1055
1054
1052
1054
1057
1057
1059
1055
1055
1057
1058
1063
1062
1062
1061
1062
1066
1064
1063
1060
1057
1061
1063
1062
1059
1057
1059
1059
1060
1064
1063
1059
1061
1061
1062
1063
1058
1057
1058
1059
1060
1060
1064
1058
1057
1058
1060
1061
1060
1061
1060
1059
1062
1063
1064
1061
1059
1060
1060
1065
1062
1060
1058
1059
1061
1059
1060
1057
1056
1057
1059
1059
1058
1058
1058
1058
1059
1060
1060
1060
1057
1059
1059
1061
1059
1057
1055
1057
1058
1060
1060
1058
1057
1056
1060
1060
1058
1057
1056
1058
1060
1062
1061
1063
1063
1067
1075
1079
1082
1080
1073
1063
1053
1040
1021
999
983
960
935
899
859
832
814
807
810
812
819
826
842
860
879
891
908
915
926
939
955
963
973
978
984
993
1002
1010
1012
1015
1021
1027
1034
1041
1047
1052
1055
1062
1068
1074
1078
1081
1082
1088
1091
1095
1095
1096
1091
1093
1097
1097
1098
1097
1095
1097
1098
1100
1101
1100
1098
1101
1101
1102
1105
1103
1103
1105
1107
1109
1109
1105
1105
1108
1110
1112
1110
1110
1111
1112
1112
1112
1115
1112
1112
1110
1113
1116
1111
1110
1107
1108
1111
1113
1111
1108
1104
1105
1106
1106
1103
1100
1099
1097
1100
1099
1096
1097
1090
1092
1092
1093
1089
1087
1082
1081
1080
1082
1078
1075
1071
1070
1070
1072
1069
1064
1063
1063
1063
1064
1062
1059
1055
1058
1060
1059
1057
1056
1057
1055
1060
1059
1057
1056
1053
1055
1058
1059
1057
1057
1055
1057
1059
1061
1062
1062
1062
1061
1067
1065
1066
1063
1060
1064
1064
1064
1063
1063
1060
1060
1063
1061
1062
1062
1061
1063
1066
1066
1063
1061
1060
1061
1062
1061
1063
1062
1061
1062
1064
1062
1063
1062
1059
1062
1063
1065
1069
1062
1060
1063
1064
1063
1065
1061
1058
1061
1063
1063
1063
1059
1060
1058
1061
1063
1062
1060
1058
1059
1061
1063
1061
1060
1056
1057
1059
1059
1060
1058
1057
1056
1059
1059
1060
1057
1056
1056
1058
1059
1059
1057
1055
1057
1061
1062
1062
1063
1064
1073
1080
1082
1083
1076
1065
1052
1039
1021
999
980
955
926
893
858
830
810
804
807
812
819
831
843
856
872
886
904
915
923
932
945
960
970
977
982
988
997
1005
1011
1016
1020
1023
1032
1041
1049
1054
1056
1061
1068
1073
1078
1080
1082
1084
1087
1092
1093
1095
1094
1091
1092
1094
1096
1096
1095
1094
1096
1098
1098
1100
1096
1096
1101
1102
1105
1105
1102
1103
1102
1108
1107
1107
1108
1106
1108
1109
1113
1113
1110
1110
1108
1111
1113
1113
1112
1108
1111
1114
1113
1111
1107
1107
1108
1109
1109
1110
1105
1103
1105
1106
1104
1103
1102
1097
1098
1098
1099
1098
1093
1091
1089
1092
1091
1088
1086
1083
1081
1080
1080
1080
1076
1072
1071
1073
1072
1071
1067
1063
1063
1067
1066
1063
1060
1058
1057
1059
1059
1059
1057
1054
1054
1056
1057
1058
1055
1052
1053
1058
1059
1058
1057
1055
1054
1059
1061
1060
1058
1059
1061
1064
1067
1067
1065
1063
1063
1063
1066
1066
1061
1060
1060
1060
1062
1061
1058
1059
1059
1064
1065
1063
1061
1056
1059
1063
1061
1062
1059
1056
1060
1061
1060
1061
1057
1058
1059
1061
1063
1064
1063
1059
1061
1061
1062
1063
1059
1058
1057
1060
1060
1062
1057
1057
1058
1059
1060
1058
1056
1056
1055
1057
1058
1057
1056
1053
1055
1057
1057
1058
1056
1053
1056
1056
1060
1058
1056
1054
1055
1056
1056
1056
1054
1053
1055
1058
1056
1057
1059
1059
1062
1068
1074
1080
1079
1076
1070
1063
1050
1037
1013
994
977
960
932
897
858
825
811
804
807
810
815
824
839
857
872
886
899
907
922
935
950
959
968
975
981
992
1001
1007
1011
1016
1021
1030
1037
1042
1049
1054
1058
1067
1073
1076
1079
1079
1086
1088
1092
1092
1091
1088
1091
1093
1095
1094
1094
1091
1093
1095
1097
1099
1096
1097
1098
1102
1101
1104
1102
1101
1104
1106
1106
1107
1104
1104
1106
1109
1112
1112
1110
1106
1109
1112
1114
1114
1113
1108
1110
1114
1113
1110
1106
1105
1105
1109
1107
1107
1105
1100
1101
1102
1101
1102
1098
1096
1093
1096
1093
1094
1091
1088
1088
1087
1088
1084
1081
1078
1076
1077
1078
1075
1072
1069
1070
1070
1070
1068
1064
1061
1059
1061
1061
1060
1059
1056
1057
1056
1058
1056
1052
1049
1054
1053
1057
1056
1053
1051
1052
1056
1058
1059
1056
1055
1055
1061
1061
1063
1063
1062
1063
1063
1065
1061
1060
1059
1060
1060
1060
1059
1054
1055
1058
1059
1061
1061
1059
1058
1055
1057
1057
1058
1058
1054
1056
1059
1060
1060
1059
1056
1056
1059
1060
1062
1060
1058
1058
1059
1060
1062
1059
1056
1059
1058
1060
1062
1059
1056
1058
1056
1057
1056
1056
1056
1056
1059
1060
1057
1053
1051
1054
1054
1055
1057
1055
1053
1055
1055
1055
1058
1054
1052
1052
1053
1055
1055
1053
1054
1050
1054
1054
1055
1052
1052
1056
1060
1063
1069
1071
1074
1076
1076
1071
1056
1047
1032
1010
994
981
963
937
903
869
840
818
808
803
802
809
818
831
843
856
871
886
901
914
924
935
947
957
970
977
984
990
994
1001
1010
1016
1020
1026
1030
1036
1044
1050
1056
1059
1061
1068
1072
1078
1080
1082
1081
1083
1086
1089
1089
1088
1086
1086
1087
1089
1091
1088
1086
1089
1093
1092
1095
1094
1091
1095
1096
1097
1098
1097
1097
1099
1099
1102
1102
1100
1098
1101
1104
1106
1106
1103
1102
1104
1106
1107
1105
1103
1102
1102
1104
1107
1105
1101
1098
1099
1101
1101
1102
1097
1093
1093
1097
1096
1096
1095
1090
1088
1088
1090
1086
1083
1083
1083
1083
1082
1081
1077
1074
1074
1072
1073
1069
1063
1063
1062
1062
1063
1059
1058
1058
1056
1057
1055
1055
1053
1051
1050
1051
1054
1052
1049
1048
1051
1051
1052
1053
1050
1049
1048
1051
1053
1053
1051
1053
1054
1059
1061
1060
1058
1056
1055
1057
1059
1057
1056
1053
1054
1057
1057
1057
1053
1054
1055
1056
1060
1059
1057
1055
1054
1052
1055
1058
1054
1052
1053
1056
1057
1056
1054
1051
1054
1056
1059
1057
1056
1055
1056
1057
1058
1057
1055
1053
1055
1055
1056
1057
1054
1052
1053
1054
1054
1056
1053
1051
1051
1052
1054
1054
1052
1050
1050
1052
1054
1053
1051
1052
1050
1052
1053
1051
1050
1049
1052
1050
1055
1053
1053
1051
1050
1053
1055
1055
1054
1052
1057
1056
1065
1067
1069
1074
1074
1074
1071
1059
1046
1032
1013
997
986
971
946
915
878
850
830
814
806
805
809
817
829
842
854
868
881
896
908
921
926
937
946
962
969
974
980
985
992
1002
1005
1009
1016
1016
1024
1031
1041
1043
1049
1052
1057
1062
1069
1074
1074
1077
1081
1084
1088
1089
1089
1087
1085
1089
1091
1088
1088
1088
1088
1092
1094
1094
1093
1092
1093
1096
1098
1098
1097
1097
1099
1099
1102
1102
1100
1097
1100
1102
1105
1105
1103
1103
1103
1107
1108
1107
1106
1106
1106
1107
1108
1107
1106
1103
1104
1103
1102
1105
1101
1099
1098
1103
1102
1100
1099
1095
1095
1094
1096
1096
1090
1090
1090
1088
1088
1084
1083
1079
1081
1078
1077
1076
1073
1069
1069
1069
1069
1066
1063
1060
1058
1057
1061
1058
1056
1054
1052
1054
1055
1051
1051
1048
1049
1050
1052
1052
1049
1049
1050
1053
1055
1054
1050
1053
1051
1055
1057
1059
1057
1057
1058
1059
1062
1059
1057
1055
1055
1056
1057
1058
1055
1051
1053
1057
1059
1060
1058
1056
1056
1055
1057
1056
1055
1056
1055
1056
1058
1057
1058
1055
1054
1058
1060
1061
1059
1056
1059
1059
1061
1059
1057
1056
1054
1055
1057
1058
1055
1055
1054
1059
1058
1056
1055
1052
1053
1055
1058
1055
1054
1050
1052
1053
1055
1053
1053
1051
1051
1053
1056
1053
1051
1050
1053
1054
1054
1053
1053
1050
1051
1053
1054
1053
1055
1054
1055
1061
1065
1068
1074
1076
1076
1074
1068
1057
1043
1024
1006
993
978
956
925
892
860
833
819
809
806
806
807
817
828
838
852
866
879
893
910
916
927
935
945
958
969
975
978
986
994
1000
1007
1011
1016
1020
1026
1031
1038
1043
1049
1053
1058
1065
1071
1073
1073
1077
1083
1085
1090
1089
1089
1089
1090
1093
1093
1093
1092
1090
1091
1094
1098
1096
1093
1094
1095
1099
1100
1099
1100
1100
1100
1103
1106
1103
1103
1103
1102
1102
1106
1106
1106
1107
1106
1110
1111
1111
1110
1110
1111
1110
1114
1114
1110
1110
1109
1109
1112
1113
1111
1107
1109
1108
1107
1109
1106
1103
1101
1102
1105
1102
1101
1099
1096
1100
1099
1098
1094
1093
1090
1092
1091
1089
1088
1082
1083
1084
1082
1082
1077
1075
1075
1075
1073
1073
1068
1066
1065
1064
1066
1065
1064
1059
1060
1060
1061
1059
1055
1055
1057
1058
1058
1056
1056
1056
1056
1059
1059
1060
1057
1059
1059
1064
1068
1068
1065
1065
1065
1064
1065
1064
1061
1062
1060
1061
1064
1061
1059
1062
1060
1063
1064
1063
1063
1059
1059
1061
1065
1061
1060
1059
1061
1062
1065
1063
1063
1063
1060
1064
1065
1066
1066
1064
1063
1065
1066
1064
1061
1061
1061
1063
1062
1061
1059
1059
1056
1061
1064
1061
1059
1059
1057
1059
1061
1059
1059
1059
1056
1060
1060
1059
1057
1057
1057
1061
1060
1059
1057
1057
1058
1057
1063
1057
1056
1056
1057
1058
1061
1061
1062
1062
1062
1072
1075
1079
1080
1080
1077
1070
1063
1049
1034
1015
999
985
968
940
904
867
837
819
816
813
812
811
823
834
851
863
877
888
900
914
928
938
947
956
965
977
983
991
997
1002
1009
1015
1020
1025
1030
1034
1040
1050
1055
1058
1062
1068
1067
1076
1082
1084
1085
1085
1087
1092
1094
1095
1094
1092
1092
1095
1098
1095
1096
1094
1096
1098
1101
1099
1097
1098
1099
1099
1103
1103
1104
1101
1102
1105
1108
1106
1104
1106
1105
1107
1112
1109
1110
1109
1111
1111
1113
1113
1113
1109
1111
1113
1115
1116
1114
1110
1110
1112
1113
1111
1111
1109
1107
1109
1109
1108
1105
1103
1102
1104
1105
1101
1101
1096
1097
1099
1099
1097
1095
1092
1091
1089
1092
1089
1088
1084
1083
1082
1083
1078
1079
1075
1073
1074
1075
1072
1069
1067
1065
1067
1068
1066
1062
1062
1061
1063
1061
1063
1059
1058
1058
1059
1063
1060
1059
1058
1057
1058
1062
1060
1060
1059
1059
1062
1065
1066
1066
1064
1067
1068
1071
1068
1065
1064
1063
1066
1065
1062
1061
1061
1059
1064
1067
1065
1067
1063
1065
1067
1068
1065
1064
1060
1062
1065
1066
1066
1064
1062
1061
1067
1065
1065
1065
1064
1065
1066
1068
1067
1064
1063
1062
1064
1066
1063
1063
1062
1062
1064
1065
1064
1064
1059
1058
1063
1064
1062
1062
1058
1057
1060
1064
1061
1060
1058
1058
1058
1063
1059
1059
1058
1059
1060
1061
1060
1057
1058
1058
1060
1062
1060
1059
1057
1057
1059
1061
1061
1059
1059
1059
1063
1069
1068
1070
1075
1078
1084
1085
1076
1065
1051
1039
1021
1005
989
973
947
916
883
855
827
809
802
803
804
813
819
827
839
853
871
886
899
911
922
931
944
955
961
966
973
981
989
999
1004
1007
1008
1015
1022
1028
1031
1037
1042
1048
1056
1061
1064
1068
1071
1076
1081
1088
1089
1090
1090
1092
1096
1098
1094
1095
1093
1094
1097
1098
1097
1099
1096
1097
1098
1101
1102
1100
1099
1100
1102
1105
1104
1102
1103
1103
1106
1110
1110
1110
1106
1107
1109
1110
1110
1110
1111
1109
1111
1114
1113
1112
1110
1111
1111
1113
1111
1113
1109
1108
1111
1111
1112
1108
1106
1104
1107
1110
1105
1107
1104
1100
1101
1102
1103
1097
1096
1095
1098
1096
1095
1092
1091
1091
1091
1090
1089
1084
1084
1082
1083
1083
1078
1078
1075
1073
1075
1076
1073
1071
1066
1065
1065
1066
1065
1062
1059
1060
1058
1062
1059
1056
1056
1054
1055
1057
1055
1055
1051
1055
1055
1057
1058
1056
1055
1054
1057
1058
1058
1055
1056
1056
1059
1062
