1012
1012
1010
1013
1015
1013
1015
1011
1005
1000
994
991
984
980
975
974
971
966
966
963
960
963
963
963
964
962
962
965
966
967
967
963
965
966
965
967
967
966
963
967
966
968
967
966
967
970
972
974
973
972
972
970
974
973
971
970
971
970
973
974
974
971
968
971
970
967
961
957
957
956
964
982
1004
1029
1058
1083
1104
1120
1138
1165
1198
1230
1260
1286
1308
1321
1328
1330
1331
1324
1309
1280
1245
1214
1191
1161
1134
1099
1059
1020
979
945
914
886
864
852
841
838
834
833
835
840
839
839
847
852
860
869
877
880
884
887
891
900
908
910
909
912
912
915
918
919
918
916
914
912
915
914
913
907
907
907
910
908
906
905
903
904
905
903
902
898
900
899
901
904
900
901
897
902
903
903
904
905
905
907
910
911
912
913
913
916
921
924
926
928
927
931
935
939
941
942
945
950
956
958
960
962
965
970
975
978
980
980
984
989
996
995
999
998
1002
1007
1011
1014
1015
1016
1015
1018
1020
1021
1023
1020
1017
1020
1023
1019
1021
1019
1017
1016
1016
1017
1015
1011
1008
1008
1009
1010
1005
1005
1004
1004
1005
1006
1004
1005
1005
1010
1012
1013
1012
1007
1007
1010
1012
1012
1008
1008
1008
1012
1017
1020
1019
1019
1019
1018
1020
1019
1012
1009
1009
1012
1016
1014
1016
1013
1012
1013
1013
1014
1010
1003
997
993
991
986
982
977
974
973
972
971
973
966
965
968
969
968
968
965
964
967
966
969
968
967
964
966
968
968
966
964
965
967
967
970
969
967
968
968
973
973
970
972
970
971
974
974
972
973
975
975
978
976
976
973
975
975
977
974
967
963
966
975
992
1017
1045
1073
1099
1122
1140
1161
1189
1218
1246
1277
1305
1329
1340
1345
1343
1341
1332
1311
1275
1232
1196
1168
1140
1108
1073
1032
988
953
927
897
873
852
840
833
834
832
833
834
832
835
839
845
854
858
866
874
882
885
887
890
894
901
907
910
913
914
914
917
920
918
917
915
913
916
918
917
915
913
913
911
913
913
911
909
906
907
908
907
904
904
903
904
899
903
899
900
898
898
904
905
902
901
900
903
907
909
907
907
908
912
914
918
920
922
925
928
932
935
940
941
944
947
952
956
958
960
962
967
972
973
974
976
980
984
989
992
993
991
995
1000
1004
1006
1007
1007
1008
1011
1013
1014
1015
1013
1012
1015
1016
1017
1015
1014
1011
1012
1010
1013
1011
1008
1006
1006
1008
1005
1004
1001
998
1001
1004
1004
1003
1003
1001
1002
1003
1002
1002
998
996
999
998
1001
1004
1008
1009
1013
1013
1013
1013
1010
1008
1009
1010
1012
1011
1011
1012
1014
1018
1017
1012
1007
997
989
987
982
977
972
968
966
965
966
966
961
960
962
962
964
961
963
962
962
964
965
965
962
962
965
969
970
970
967
968
968
972
970
971
970
968
969
971
971
970
969
967
971
971
972
971
972
971
972
976
976
975
971
965
966
969
971
984
1004
1040
1072
1109
1136
1157
1172
1197
1231
1259
1290
1317
1336
1342
1343
1342
1329
1305
1270
1227
1192
1160
1127
1091
1052
1004
961
928
899
873
852
838
832
830
833
833
837
835
842
846
854
861
868
876
883
887
892
894
901
904
911
916
920
917
917
916
919
917
918
914
914
912
915
915
914
913
911
910
912
911
912
911
908
907
908
910
909
906
907
905
908
911
909
907
909
908
910
914
916
914
914
913
914
917
919
922
922
925
929
932
934
937
939
941
945
949
955
958
960
964
965
971
974
977
978
977
984
990
994
995
996
997
1003
1007
1008
1009
1011
1012
1016
1016
1018
1018
1015
1013
1014
1015
1016
1014
1011
1011
1014
1014
1011
1009
1008
1005
1006
1006
1003
1002
1000
1000
1002
1007
1006
1006
1003
1005
1007
1007
1006
1004
1005
1002
1004
1005
1005
1006
1008
1008
1012
1015
1018
1015
1013
1012
1013
1012
1011
1010
1009
1010
1012
1012
1016
1016
1013
1008
1005
999
995
990
984
980
978
976
973
971
968
966
969
966
967
967
966
965
966
968
966
964
962
962
967
967
968
965
965
964
968
970
968
967
967
968
969
972
973
973
971
972
974
976
979
977
978
976
980
982
981
979
980
975
976
973
974
974
985
1010
1048
1085
1115
1138
1156
1177
1209
1242
1270
1295
1307
1313
1310
1304
1294
1270
1234
1195
1168
1142
1115
1083
1045
999
962
932
904
879
862
849
846
845
848
853
850
852
858
866
873
881
886
891
896
901
908
914
917
919
924
926
928
927
926
923
925
927
928
925
923
923
924
924
926
921
918
916
918
917
917
915
914
913
915
917
915
916
913
913
915
918
918
918
918
918
922
926
928
929
930
931
935
940
944
946
946
949
957
962
964
968
967
971
975
978
982
984
986
988
992
995
1001
1002
1002
1004
1009
1013
1015
1017
1018
1020
1021
1025
1025
1025
1026
1023
1025
1026
1028
1027
1026
1021
1022
1024
1026
1023
1021
1017
1019
1020
1020
1018
1015
1013
1013
1015
1015
1014
1013
1017
1017
1019
1018
1017
1015
1017
1019
1021
1025
1025
1024
1026
1026
1029
1029
1031
1027
1023
1024
1027
1026
1026
1026
1025
1027
1028
1030
1028
1024
1018
1011
1007
1001
995
990
984
981
979
980
977
976
975
972
974
976
976
975
976
978
981
978
979
977
976
979
982
984
983
981
982
984
983
985
986
983
983
984
988
987
984
983
983
984
986
987
985
986
986
988
989
988
986
983
979
976
975
979
985
1006
1035
1066
1097
1117
1133
1150
1179
1213
1244
1270
1292
1307
1315
1320
1320
1316
1299
1271
1234
1205
1180
1155
1124
1090
1049
1005
973
944
914
890
872
865
861
860
857
858
858
861
865
874
881
888
893
899
904
909
913
918
921
928
929
933
934
935
931
933
933
934
933
929
926
927
928
929
929
925
924
923
926
925
924
919
919
921
922
923
922
920
918
920
922
923
924
920
920
922
925
927
927
927
930
930
932
934
937
936
940
942
947
952
956
954
957
965
967
972
974
975
977
982
988
993
990
998
1000
1004
1009
1011
1013
1015
1016
1022
1027
1026
1027
1025
1027
1029
1032
1031
1031
1027
1027
1029
1029
1030
1029
1028
1025
1024
1026
1027
1024
1022
1021
1020
1020
1019
1017
1016
1014
1016
1018
1019
1019
1022
1025
1027
1026
1025
1023
1021
1021
1024
1027
1027
1026
1027
1027
1030
1030
1031
1028
1027
1023
1023
1024
1025
1025
1023
1022
1028
1029
1029
1027
1022
1019
1015
1011
1005
998
993
989
986
983
983
978
976
976
976
978
978
975
976
975
975
976
976
974
972
972
973
975
976
975
974
971
973
977
978
977
976
974
976
978
981
979
979
976
979
982
983
983
983
982
984
987
988
986
986
984
987
986
983
973
971
970
975
988
1015
1042
1070
1093
1116
1138
1160
1194
1227
1258
1286
1311
1326
1332
1332
1326
1318
1299
1265
1227
1193
1167
1140
1109
1065
1017
975
938
910
889
873
860
853
850
853
857
860
857
859
869
879
890
896
900
904
909
917
925
928
930
930
929
932
933
934
933
930
930
931
932
930
929
927
925
926
928
926
925
921
918
919
919
914
917
914
913
914
916
918
918
916
914
917
921
921
921
921
922
925
928
932
932
934
936
941
946
949
948
951
955
959
964
966
968
972
974
979
984
985
987
987
991
995
1002
1005
1008
1007
1010
1013
1017
1021
1021
1020
1022
1025
1029
1028
1028
1029
1027
1030
1032
1032
1031
1031
1030
1032
1031
1033
1029
1027
1026
1025
1028
1025
1021
1019
1014
1016
1018
1016
1016
1014
1014
1016
1019
1020
1023
1021
1018
1020
1022
1023
1021
1020
1019
1024
1027
1030
1030
1031
1030
1031
1033
1035
1033
1027
1024
1028
1028
1032
1030
1028
1028
1030
1035
1034
1031
1026
1020
1015
1009
1004
999
990
988
986
984
982
980
976
975
977
978
978
977
976
974
975
980
978
976
976
976
979
980
981
980
979
977
979
982
983
983
980
980
982
983
983
983
980
980
980
982
983
984
983
984
985
987
987
987
984
986
990
990
989
987
983
980
975
976
972
976
986
1004
1031
1061
1087
1109
1124
1141
1161
1191
1221
1249
1275
1301
1327
1342
1352
1352
1349
1339
1324
1296
1258
1225
1197
1170
1142
1113
1075
1035
994
958
929
905
880
864
852
845
844
846
849
848
849
848
856
865
878
885
888
893
898
903
910
914
918
921
926
927
930
929
927
927
929
927
930
927
926
924
924
924
925
924
920
919
920
918
918
918
915
915
916
915
916
916
914
913
914
918
918
916
914
914
913
917
919
917
917
918
922
920
923
926
928
930
933
936
939
940
942
943
945
952
957
960
961
962
972
975
977
980
980
981
986
989
995
996
998
1000
1005
1013
1016
1017
1017
1017
1021
1024
1026
1027
1024
1027
1028
1028
1029
1031
1027
1028
1029
1030
1030
1028
1029
1027
1029
1027
1026
1023
1023
1022
1020
1020
1017
1019
1018
1016
1018
1021
1022
1024
1024
1022
1027
1026
1025
1026
1023
1023
1023
1025
1024
1025
1025
1025
1029
1031
1031
1029
1030
1027
1028
1027
1026
1026
1023
1023
1027
1028
1031
1030
1030
1027
1027
1025
1024
1019
1010
1003
1000
998
993
988
986
981
983
985
984
981
979
977
979
980
980
979
977
975
977
979
978
978
977
974
975
980
981
980
980
977
980
981
983
982
982
981
983
984
983
982
981
982
982
987
988
987
987
985
988
987
992
990
989
987
988
989
986
978
973
970
973
977
991
1012
1034
1057
1085
1111
1129
1144
1162
1190
1222
1253
1282
1309
1330
1347
1358
1362
1364
1357
1346
1325
1293
1260
1229
1200
1169
1136
1101
1064
1020
980
945
916
892
872
858
847
837
832
833
836
839
837
836
837
844
853
862
869
873
879
886
891
896
902
905
910
915
919
920
923
923
922
923
925
927
924
922
919
921
922
921
920
917
915
917
919
914
913
909
907
909
909
911
909
908
907
906
907
909
909
908
907
909
911
915
914
915
915
918
921
924
922
925
927
932
937
940
941
941
947
950
953
959
960
961
961
967
971
975
976
978
981
987
992
996
996
1001
1001
1006
1012
1013
1015
1017
1020
1022
1027
1030
1030
1028
1030
1030
1031
1033
1032
1031
1030
1030
1032
1030
1027
1026
1024
1026
1025
1023
1022
1014
1015
1014
1017
1014
1016
1013
1014
1017
1018
1017
1016
1016
1012
1013
1014
1015
1014
1018
1020
1022
1028
1026
1029
1027
1027
1026
1026
1026
1027
1025
1023
1026
1026
1030
1030
1029
1025
1022
1020
1011
1005
998
994
992
989
987
982
978
975
975
976
977
975
971
973
976
978
978
978
976
975
977
978
978
977
976
976
979
980
983
980
979
977
979
981
982
980
980
978
977
982
982
980
979
980
986
987
987
986
987
985
987
989
989
988
983
981
977
981
984
994
1015
1043
1076
1108
1137
1157
1171
1188
1213
1241
1268
1293
1317
1342
1362
1374
1377
1371
1362
1348
1322
1283
1246
1209
1176
1142
1111
1079
1038
993
954
921
895
872
856
843
836
831
831
835
838
842
840
842
849
858
868
875
880
886
892
896
901
904
910
914
918
921
922
924
924
923
924
926
924
923
921
920
921
923
923
922
917
917
917
919
917
915
914
910
915
915
917
914
913
911
914
915
916
914
913
911
916
916
916
916
915
911
915
920
923
925
924
924
927
934
937
938
938
939
944
950
954
957
957
961
968
971
974
975
976
978
987
992
998
1000
1001
1004
1010
1013
1015
1019
1020
1021
1023
1024
1026
1026
1025
1024
1022
1023
1025
1024
1024
1025
1025
1024
1026
1023
1021
1018
1017
1020
1018
1017
1014
1014
1014
1014
1015
1014
1014
1015
1020
1021
1021
1020
1017
1018
1018
1017
1015
1014
1012
1016
1019
1023
1025
1024
1021
1021
1022
1023
1023
1022
1018
1019
1023
1023
1023
1025
1024
1020
1018
1019
1016
1008
1001
993
991
990
983
978
975
975
977
978
976
973
973
970
970
973
972
971
969
968
969
971
974
974
971
970
974
974
977
974
975
971
976
977
976
974
974
974
978
981
981
983
981
981
983
985
986
986
982
983
982
984
983
978
976
975
979
993
1019
1053
1084
1118
1145
1164
1181
1204
1228
1254
1284
1311
1329
1338
1337
1330
1323
1310
1283
1246
1207
1175
1151
1127
1097
1064
1021
976
939
913
886
861
847
836
830
833
835
835
838
838
841
845
856
862
869
875
884
888
890
897
899
905
911
919
919
920
919
921
923
923
925
923
918
919
923
923
923
919
917
917
916
916
916
914
911
908
907
910
910
908
908
905
908
907
910
909
909
908
910
913
915
915
914
914
917
924
924
924
925
929
932
938
941
942
943
945
952
957
959
962
965
964
969
974
977
981
979
981
987
992
995
999
999
1003
1007
1012
1015
1016
1015
1015
1020
1024
1026
1026
1025
1024
1027
1027
1029
1029
1027
1026
1029
1030
1027
1026
1025
1024
1024
1025
1022
1021
1018
1017
1017
1017
1017
1014
1013
1016
1018
1019
1020
1020
1018
1017
1017
1019
1020
1016
1018
1020
1024
1029
1032
1031
1031
1031
1028
1031
1031
1029
1027
1025
1026
1029
1029
1031
1031
1030
1029
1028
1023
1018
1006
999
999
996
993
986
981
974
977
978
978
976
974
975
976
979
979
978
975
972
976
979
980
977
979
977
979
984
984
982
979
981
982
980
984
984
984
982
983
983
985
984
981
980
982
984
984
985
983
983
985
986
987
986
983
981
979
976
974
973
978
988
1011
1037
1065
1091
1112
1123
1141
1165
1193
1223
1249
1276
1302
1318
1326
1327
1324
1318
1306
1281
1246
1212
1187
1164
1138
1111
1074
1030
990
958
931
906
888
872
862
852
850
852
854
857
855
854
860
868
878
882
890
893
900
905
907
912
916
922
928
929
933
933
930
929
931
933
932
930
930
926
924
926
929
925
922
921
920
923
922
920
919
917
919
921
919
918
917
915
916
918
919
916
918
916
919
922
921
922
920
920
924
928
930
928
930
931
935
940
943
945
944
949
953
956
960
963
965
968
973
978
981
984
986
988
992
996
999
1001
1006
1006
1013
1018
1021
1021
1022
1023
1026
1029
1031
1030
1029
1027
1029
1033
1032
1034
1032
1029
1030
1030
1032
1027
1028
1025
1027
1027
1026
1023
1022
1019
1018
1023
1022
1022
1021
1018
1022
1029
1030
1027
1026
1025
1025
1027
1026
1023
1023
1024
1029
1032
1032
1030
1030
1031
1031
1032
1029
1026
1023
1023
1024
1025
1025
1024
1025
1025
1027
1026
1023
1017
1007
1001
996
993
990
985
980
977
977
978
978
975
973
973
977
978
978
976
974
974
975
975
975
977
973
974
976
978
978
976
974
973
977
979
980
978
975
977
978
982
984
982
982
982
984
985
987
986
984
986
989
986
989
984
978
972
972
975
983
1006
1034
1061
1089
1112
1128
1151
1176
1210
1243
1273
1300
1319
1327
1330
1329
1321
1303
1270
1228
1194
1168
1141
1108
1070
1027
986
952
923
897
878
861
851
849
849
850
850
849
848
855
863
874
882
887
889
895
902
908
913
916
918
921
925
927
927
928
929
929
929
930
929
925
924
923
926
925
922
921
919
919
920
919
914
914
912
914
916
915
913
913
911
914
916
917
914
913
916
918
919
924
925
925
925
930
935
936
939
943
943
948
951
955
958
961
964
968
971
975
978
978
984
985
989
992
994
996
1000
1006
1010
1013
1015
1017
1016
1021
1026
1026
1028
1026
1029
1031
1032
1033
1032
1029
1029
1030
1031
1030
1029
1025
1023
1021
1022
1021
1017
1017
1014
1016
1016
1016
1014
1014
1014
1017
1022
1022
1021
1018
1017
1019
1020
1019
1020
1019
1021
1025
1030
1031
1030
1028
1027
1028
1029
1028
1025
1023
1024
1025
1026
1028
1027
1024
1023
1021
1018
1013
1007
999
990
988
986
983
979
976
973
975
975
975
974
971
970
972
977
979
978
975
973
975
979
980
978
977
976
979
980
980
978
976
973
975
977
980
980
977
978
978
982
982
981
978
980
982
984
986
984
983
983
984
984
984
978
972
966
970
977
992
1019
1050
1078
1104
1124
1145
1164
1191
1222
1258
1288
1315
1333
1345
1346
1345
1341
1326
1295
1254
1215
1190
1166
1136
1098
1053
1008
970
935
904
878
859
845
840
838
841
841
843
842
847
854
865
874
877
883
890
896
899
903
906
910
914
919
923
923
925
921
922
923
923
923
920
917
918
920
918
918
915
913
914
914
915
914
911
910
911
910
914
911
908
910
911
912
911
912
910
910
911
916
918
919
920
921
925
929
932
935
937
938
946
948
954
957
961
963
970
974
978
982
986
989
992
999
1000
1005
1006
1009
1012
1016
1019
1020
1018
1020
1021
1025
1027
1027
1026
1026
1026
1029
1029
1028
1025
1023
1023
1023
1021
1020
1020
1016
1017
1018
1016
1015
1013
1013
1016
1020
1021
1019
1015
1012
1014
1014
1014
1012
1010
1012
1016
1021
1023
1023
1021
1021
1023
1027
1024
1020
1017
1019
1021
1022
1023
1025
1024
1025
1023
1024
1019
1013
1005
998
994
990
988
982
974
970
973
977
975
971
970
966
969
972
973
970
968
969
971
971
973
974
972
970
973
975
975
976
977
973
976
980
981
979
979
977
980
980
982
982
981
977
979
983
981
979
980
978
979
981
981
978
974
966
967
970
975
987
1010
1040
1070
1098
1124
1141
1159
1183
1217
1253
1283
1308
1330
1344
1355
1358
1354
1339
1312
1271
1229
1194
1161
1126
1088
1044
997
959
926
892
865
843
832
827
828
828
828
830
833
836
842
852
859
867
873
881
888
892
897
901
908
913
917
918
915
915
918
917
916
914
911
909
908
910
909
906
906
903
905
905
904
903
902
902
902
903
903
902
900
898
900
903
900
902
902
901
906
909
908
910
909
911
915
920
920
923
923
923
929
932
935
939
939
941
949
951
958
961
964
967
973
976
981
984
986
988
992
998
1002
1003
1007
1007
1011
1015
1017
1018
1019
1017
1019
1021
1021
1020
1018
1017
1019
1019
1017
1017
1014
1012
1012
1011
1011
1011
1009
1007
1005
1008
1008
1006
1002
1003
1006
1006
1009
1008
1006
1003
1008
1009
1007
1008
1002
1002
1004
1005
1009
1010
1011
1011
1010
1013
1014
1012
1010
1010
1009
1011
1008
1010
1010
1011
1014
1015
1018
1013
1011
1006
1001
994
992
986
981
977
972
971
972
970
967
965
968
968
970
967
968
967
969
971
969
966
967
964
966
967
968
966
965
964
965
969
967
967
964
964
969
970
971
971
971
969
972
970
972
971
968
971
974
973
975
