1022
1019
1015
1009
1005
999
992
987
983
984
980
977
976
975
977
979
978
977
976
975
978
981
979
978
977
979
978
980
979
978
980
981
982
983
983
981
981
980
982
985
984
984
982
985
986
990
990
986
986
987
989
990
990
987
983
979
978
978
979
983
999
1024
1053
1080
1104
1121
1136
1162
1194
1228
1259
1282
1303
1316
1323
1322
1317
1299
1266
1225
1196
1173
1143
1115
1076
1031
990
959
928
898
878
866
862
859
859
859
860
859
860
870
878
888
892
898
905
909
913
914
920
923
929
933
936
936
934
934
936
937
933
932
929
928
930
932
930
927
923
923
925
926
926
923
920
921
921
922
921
923
918
919
921
923
923
923
921
922
926
929
931
931
932
935
939
944
946
949
949
951
960
964
968
968
970
975
979
985
989
991
991
996
1001
1008
1011
1009
1011
1016
1019
1021
1025
1025
1023
1026
1030
1031
1029
1028
1027
1031
1031
1034
1031
1030
1028
1027
1026
1027
1028
1026
1024
1025
1027
1029
1031
1030
1028
1027
1028
1032
1031
1029
1023
1024
1025
1031
1032
1032
1030
1031
1032
1033
1032
1028
1025
1023
1025
1028
1029
1028
1026
1026
1028
1028
1023
1019
1010
1003
1002
999
996
988
983
980
982
982
982
980
979
978
979
981
983
979
977
979
978
982
981
981
979
979
982
984
984
983
982
983
984
985
986
986
984
984
987
988
987
985
986
987
987
991
991
992
990
989
991
992
991
985
980
977
978
981
993
1015
1041
1072
1099
1117
1132
1150
1176
1205
1233
1262
1287
1309
1320
1328
1331
1325
1315
1291
1255
1218
1186
1161
1132
1096
1055
1013
975
945
918
893
875
862
857
857
854
854
856
858
861
865
873
879
886
891
898
904
909
911
915
921
928
932
933
933
933
931
935
938
934
932
931
929
929
931
930
930
927
926
926
926
923
922
921
919
920
922
922
916
917
917
918
917
921
919
916
919
920
921
925
924
922
926
929
933
935
934
935
940
944
947
948
950
952
953
959
964
967
968
969
974
982
984
986
988
989
993
999
1002
1007
1008
1009
1012
1017
1020
1021
1020
1020
1022
1024
1025
1027
1027
1025
1026
1027
1032
1029
1027
1025
1027
1026
1026
1025
1022
1022
1020
1022
1024
1024
1022
1023
1021
1025
1026
1024
1022
1022
1019
1021
1023
1021
1019
1018
1021
1024
1029
1029
1026
1024
1025
1027
1028
1024
1021
1021
1021
1022
1023
1022
1022
1022
1022
1021
1021
1012
1004
997
995
993
991
984
981
976
974
974
976
977
975
972
972
973
976
975
975
974
975
978
977
976
977
976
974
977
978
980
979
976
977
977
981
980
979
979
978
979
982
981
982
979
980
984
987
987
985
984
984
985
990
988
985
982
980
979
976
977
980
990
1012
1041
1072
1098
1118
1133
1148
1168
1195
1222
1244
1267
1294
1315
1329
1336
1333
1323
1315
1299
1271
1233
1202
1174
1148
1123
1097
1061
1023
985
952
928
905
880
865
854
845
845
844
846
847
847
846
848
861
868
875
880
886
890
897
903
905
910
911
919
920
924
922
919
922
926
925
925
922
921
920
922
920
919
918
915
915
917
918
917
913
914
911
913
914
914
911
910
910
913
915
914
910
908
909
915
917
917
917
917
917
921
923
924
924
923
929
931
938
938
936
941
947
949
956
957
960
961
965
969
976
978
980
984
986
992
997
997
997
998
1002
1006
1011
1012
1013
1012
1013
1017
1020
1019
1020
1018
1016
1018
1019
1020
1017
1019
1015
1014
1019
1017
1016
1012
1011
1011
1014
1013
1012
1010
1011
1012
1018
1014
1013
1012
1012
1012
1012
1010
1010
1009
1008
1011
1016
1019
1019
1018
1015
1017
1020
1019
1017
1013
1012
1015
1018
1016
1015
1015
1016
1020
1018
1015
1007
999
995
992
988
984
980
973
973
972
975
974
972
967
967
970
973
974
971
969
968
969
971
969
970
969
970
971
972
975
972
970
969
971
972
972
973
970
970
971
976
974
974
973
973
975
978
979
978
977
978
981
983
983
979
977
973
973
974
975
977
986
1007
1036
1065
1088
1108
1122
1131
1149
1173
1197
1216
1237
1256
1271
1280
1281
1276
1271
1262
1250
1230
1199
1170
1147
1128
1110
1089
1059
1026
986
954
926
902
881
867
854
848
846
849
852
852
849
851
857
865
872
879
881
887
891
899
901
906
909
911
917
922
923
924
923
923
923
925
926
925
922
921
921
926
923
922
921
918
919
922
920
919
917
918
918
919
919
918
915
913
916
917
916
915
914
913
918
921
922
920
920
922
925
927
927
928
928
931
934
939
940
943
944
948
954
958
957
960
963
964
969
973
976
979
979
981
987
992
995
995
993
998
1002
1007
1009
1010
1009
1009
1012
1019
1020
1018
1018
1019
1023
1025
1024
1024
1023
1021
1024
1024
1020
1020
1019
1018
1017
1019
1020
1018
1016
1015
1016
1018
1018
1018
1016
1019
1020
1022
1022
1020
1018
1019
1021
1020
1019
1018
1020
1023
1025
1031
1029
1028
1024
1024
1027
1027
1025
1019
1021
1021
1024
1025
1026
1026
1023
1020
1018
1014
1006
999
994
988
987
985
981
975
975
976
974
976
974
973
971
971
973
974
976
974
973
975
976
975
978
976
976
975
978
980
979
979
976
978
979
981
981
980
978
979
983
985
984
982
981
981
985
987
988
986
983
980
984
982
976
971
971
975
991
1016
1043
1066
1089
1106
1119
1141
1166
1195
1221
1245
1266
1282
1288
1288
1285
1275
1261
1233
1199
1175
1149
1125
1097
1067
1029
989
957
929
906
891
878
870
864
863
866
869
868
867
871
877
886
898
902
906
908
913
916
922
927
927
929
931
936
941
940
939
939
940
940
940
939
937
935
933
934
936
935
932
930
929
929
932
929
928
927
925
928
929
929
928
926
925
929
931
929
929
927
927
929
933
934
934
934
937
938
944
946
945
946
947
950
957
961
960
963
963
971
975
975
977
980
983
988
992
994
994
998
1000
1004
1010
1012
1011
1014
1016
1018
1022
1025
1025
1027
1026
1029
1034
1033
1033
1030
1031
1033
1035
1033
1033
1030
1030
1030
1033
1030
1029
1027
1022
1024
1028
1025
1023
1023
1024
1026
1030
1029
1030
1029
1027
1027
1029
1027
1026
1024
1023
1025
1031
1030
1033
1032
1032
1035
1037
1032
1031
1026
1025
1028
1030
1027
1026
1025
1026
1027
1032
1025
1022
1017
1011
1007
1005
1000
993
988
985
983
981
985
982
978
977
979
984
982
984
979
980
981
982
981
979
979
979
981
984
984
982
981
982
984
986
986
984
982
982
983
989
987
987
987
988
990
991
991
993
991
989
992
994
993
991
983
980
978
980
980
985
1000
1019
1047
1077
1095
1109
1120
1138
1165
1197
1222
1247
1267
1289
1303
1310
1312
1304
1296
1279
1252
1220
1186
1164
1135
1108
1078
1046
1009
974
945
920
902
888
878
867
862
857
859
866
867
866
866
869
877
888
895
899
903
904
911
916
921
923
927
930
933
937
938
938
938
936
939
941
939
938
936
934
935
936
935
932
930
929
929
929
928
924
924
924
926
928
926
923
923
921
924
925
926
924
922
923
925
928
930
928
928
929
933
936
938
938
936
940
944
948
948
952
952
954
959
962
965
966
966
971
975
981
982
985
986
986
992
996
999
1002
1003
1004
1010
1012
1016
1016
1018
1021
1023
1028
1026
1028
1027
1027
1031
1033
1033
1030
1031
1030
1033
1033
1031
1030
1030
1029
1030
1031
1030
1026
1025
1022
1022
1022
1021
1020
1017
1019
1021
1023
1023
1022
1023
1023
1024
1024
1023
1023
1019
1022
1021
1022
1024
1027
1029
1028
1031
1033
1032
1031
1029
1028
1026
1027
1026
1026
1024
1023
1027
1031
1029
1025
1023
1019
1016
1012
1004
999
993
988
983
986
981
979
976
978
978
978
976
978
978
975
978
980
979
977
977
976
978
982
981
980
979
980
982
982
982
982
978
979
982
985
982
981
980
981
984
986
985
985
986
985
988
988
989
989
986
982
980
978
977
978
984
1007
1037
1069
1094
1114
1125
1148
1178
1212
1242
1269
1292
1306
1319
1323
1320
1310
1293
1261
1227
1197
1171
1142
1115
1080
1043
1005
969
940
913
889
877
867
860
856
854
855
859
862
863
866
871
879
890
898
900
904
907
912
920
925
927
930
933
932
935
936
936
933
932
930
932
935
932
932
928
929
929
931
928
927
925
924
928
929
926
924
924
923
923
926
925
919
921
920
922
927
927
925
924
924
924
930
928
928
932
933
937
941
939
942
943
948
952
956
958
959
959
963
968
973
972
976
978
982
986
992
993
996
995
1000
1006
1006
1009
1012
1012
1014
1017
1022
1021
1023
1022
1023
1025
1027
1027
1025
1028
1028
1029
1029
1027
1027
1024
1024
1028
1029
1028
1024
1021
1022
1023
1023
1021
1019
1018
1016
1018
1019
1021
1021
1018
1020
1022
1024
1022
1021
1019
1020
1019
1020
1020
1021
1021
1024
1025
1028
1027
1026
1025
1024
1025
1028
1025
1021
1023
1022
1024
1026
1025
1025
1026
1024
1024
1025
1017
1012
1005
999
996
995
990
985
980
977
978
980
978
977
976
975
977
979
978
976
976
977
977
979
981
978
978
976
979
981
982
980
978
979
982
983
983
981
979
981
984
984
986
987
983
982
984
987
986
989
986
986
987
990
987
983
976
971
972
977
986
1004
1028
1054
1084
1106
1122
1140
1162
1196
1226
1257
1282
1303
1318
1326
1330
1326
1315
1295
1256
1216
1185
1164
1129
1097
1059
1015
982
950
918
892
875
858
853
854
852
852
853
856
857
863
868
880
886
893
901
905
906
910
913
918
923
929
929
929
930
930
932
933
933
930
927
925
928
927
925
924
921
922
921
924
920
920
918
915
918
920
918
914
915
915
917
918
916
918
916
913
917
920
918
918
919
920
924
925
927
929
929
931
934
938
941
941
944
945
949
955
956
956
959
962
967
971
975
976
977
978
985
991
994
994
997
997
1003
1004
1008
1009
1010
1012
1016
1019
1019
1021
1018
1018
1023
1025
1023
1021
1019
1018
1019
1020
1022
1020
1017
1015
1016
1018
1014
1013
1011
1010
1011
1013
1012
1010
1008
1009
1015
1017
1015
1013
1008
1008
1011
1012
1010
1010
1011
1012
1014
1019
1020
1020
1020
1018
1018
1022
1017
1015
1015
1013
1013
1015
1016
1016
1015
1012
1016
1014
1005
999
991
988
986
986
980
972
968
969
969
971
970
967
966
966
965
970
971
968
968
967
969
972
971
969
969
968
971
972
972
971
969
968
972
973
975
974
972
971
974
976
977
976
972
973
977
981
978
977
977
974
979
982
979
976
970
968
973
978
987
1008
1034
1063
1091
1120
1139
1154
1176
1205
1236
1264
1288
1311
1325
1328
1328
1324
1310
1283
1248
1206
1175
1145
1113
1078
1039
991
951
918
888
866
849
842
840
842
843
845
847
845
850
859
865
872
880
885
889
896
898
903
906
911
915
920
921
921
918
918
920
922
921
919
917
914
918
920
917
915
914
911
913
915
913
910
906
907
909
910
909
907
902
905
907
911
910
909
909
910
915
917
918
919
921
919
925
933
933
936
937
941
947
950
952
953
956
960
966
967
974
975
978
978
982
988
991
992
994
997
1000
1004
1006
1005
1006
1007
1008
1010
1014
1012
1012
1012
1014
1016
1013
1013
1010
1011
1010
1012
1008
1007
1005
1004
1004
1006
1005
1001
1000
999
1001
1004
1007
1005
1003
1003
1003
1003
1005
1000
998
996
1000
1003
1005
1006
1008
1008
1011
1013
1011
1009
1009
1004
1009
1009
1008
1008
1006
1009
1009
1011
1009
1007
1003
995
993
990
984
976
971
968
968
967
966
964
963
958
962
963
964
962
960
961
964
967
966
963
964
962
964
966
968
965
963
965
967
970
968
970
969
967
969
972
972
971
969
968
973
974
972
974
972
970
977
974
977
973
969
966
969
971
979
996
1025
1054
1086
1110
1125
1139
1155
1181
1208
1234
1254
1272
1280
1281
1282
1277
1268
1248
1218
1183
1156
1136
1110
1084
1052
1011
973
944
912
886
869
853
847
846
847
849
849
848
852
858
865
871
878
882
889
892
897
900
904
909
914
919
923
923
922
921
924
926
923
924
921
918
921
924
921
916
917
916
917
919
919
917
914
913
914
915
915
913
913
911
914
917
917
916
917
916
920
924
925
926
925
925
931
937
936
939
940
942
946
952
954
956
958
962
966
973
976
978
979
982
987
992
993
995
993
996
1002
1007
1008
1007
1009
1010
1013
1017
1019
1017
1016
1016
1020
1021
1019
1016
1016
1015
1015
1017
1015
1014
1011
1008
1010
1011
1008
1008
1005
1004
1005
1008
1009
1010
1011
1011
1014
1014
1012
1009
1011
1009
1012
1016
1017
1017
1017
1017
1021
1021
1020
1019
1015
1014
1016
1018
1018
1016
1015
1015
1017
1020
1015
1010
1003
996
993
990
985
979
975
971
969
972
971
970
968
966
970
970
970
970
967
967
969
971
970
971
967
970
971
973
973
972
971
971
972
975
976
974
972
974
975
977
977
977
975
975
977
979
981
980
977
974
974
974
967
964
965
975
992
1017
1042
1066
1083
1096
1112
1133
1162
1191
1215
1235
1253
1268
1273
1273
1270
1260
1246
1219
1188
1159
1134
1111
1084
1053
1014
981
950
923
902
888
877
867
861
858
860
865
864
864
866
874
883
889
895
895
899
904
907
916
919
920
923
924
927
930
932
930
926
926
928
927
926
927
925
921
923
922
920
921
918
917
917
920
920
919
917
914
915
916
919
915
914
913
914
918
918
918
917
919
923
924
926
926
924
929
930
931
937
939
939
940
944
949
952
954
957
959
965
968
973
973
975
976
984
989
988
991
990
995
997
1004
1009
1006
1008
1008
1011
1016
1017
1016
1018
1016
1017
1020
1022
1020
1017
1018
1021
1020
1018
1018
1015
1016
1014
1016
1014
1011
1009
1008
1009
1011
1008
1006
1004
1008
1011
1013
1015
1012
1009
1008
1009
1012
1012
1009
1007
1006
1013
1017
1017
1018
1017
1014
1014
1020
1016
1014
1010
1010
1011
1014
1013
1013
1013
1014
1015
1016
1015
1009
1004
996
992
990
985
982
975
969
970
971
970
969
966
963
965
967
968
966
965
965
967
972
968
967
966
966
968
969
970
970
967
969
971
972
972
972
972
971
972
974
975
975
969
972
972
976
977
976
973
971
977
978
977
978
974
974
973
971
967
966
963
966
981
1006
1030
1057
1078
1096
1108
1125
1151
1178
1203
1229
1257
1280
1292
1296
1295
1293
1287
1270
1239
1205
1175
1152
1130
1104
1072
1034
993
955
927
908
886
869
857
851
848
851
850
851
852
851
854
862
868
873
878
885
892
897
899
902
905
909
914
919
923
924
922
923
923
923
922
919
918
918
919
922
920
915
916
913
912
914
916
912
911
909
909
912
911
910
908
904
907
909
910
909
908
908
906
910
911
911
910
913
916
915
914
917
916
918
922
925
928
928
929
932
936
940
944
945
947
947
953
957
959
960
962
965
967
973
975
979
980
982
987
990
995
993
997
1000
1003
1005
1008
1006
1008
1009
1012
1013
1014
1014
1014
1012
1012
1015
1018
1014
1011
1012
1011
1011
1013
1009
1009
1004
1007
1008
1007
1005
1002
1000
1002
1002
1002
1001
1004
1002
1006
1008
1008
1006
1002
1005
1005
1006
1004
1001
1000
1000
1007
1011
1013
1014
1012
1010
1010
1013
1011
1010
1008
1005
1007
1009
1008
1009
1007
1008
1012
1013
1012
1006
999
990
986
984
979
975
969
966
965
966
966
962
960
959
961
961
963
963
962
961
961
964
962
961
961
961
963
964
966
966
962
961
963
966
969
967
966
966
969
970
970
969
969
968
970
974
974
973
971
971
975
977
976
974
969
966
964
963
962
963
970
991
1018
1045
1067
1088
1102
1117
1142
1172
1202
1230
1254
1279
1296
1309
1310
1306
1298
1285
1262
1225
1196
1167
1141
1110
1081
1045
1004
964
932
903
883
865
854
845
838
837
837
843
844
843
844
851
862
873
877
880
882
885
893
897
902
905
910
910
913
917
919
915
916
916
917
916
916
914
913
910
912
912
912
911
909
908
908
907
908
907
905
902
904
905
903
901
898
899
902
906
903
902
901
900
905
909
908
908
907
908
912
915
917
919
920
919
924
927
930
932
935
934
940
943
947
948
951
953
958
961
964
967
967
971
974
980
983
985
985
986
991
993
994
996
996
997
1000
1004
1005
1005
1003
1005
1008
1011
1010
1010
1008
1006
1006
1008
1010
1008
1007
1005
1007
1006
1005
1002
1000
998
996
999
997
993
993
995
997
998
998
999
998
996
997
998
1000
998
994
992
993
996
997
999
1000
1001
1005
1007
1006
1004
1002
1001
1000
1000
1002
1003
999
998
1000
1005
1007
1006
1006
1002
1001
998
992
984
980
976
973
971
969
962
960
959
960
961
959
962
958
958
960
961
959
962
958
958
960
962
962
961
960
958
961
961
962
962
960
960
959
964
967
963
962
963
963
963
966
966
962
962
965
967
968
968
966
968
969
970
971
968
966
960
961
962
967
979
1003
1033
1064
1090
1113
1129
1144
1169
1201
1228
1250
1271
1288
1299
1302
1304
1298
1285
1256
1222
1188
1159
1130
1101
1075
1042
1005
968
937
908
884
864
852
843
838
834
833
835
840
842
843
846
853
861
869
877
882
884
887
891
902
909
912
914
913
913
914
915
915
914
912
911
910
909
909
911
905
907
906
907
907
906
903
902
901
906
905
903
903
900
901
904
904
903
902
902
902
905
905
906
905
905
909
910
913
911
913
915
918
923
925
927
928
933
935
941
944
947
950
953
959
961
964
966
967
969
977
980
982
983
986
989
991
996
999
997
997
999
1002
1005
1002
1004
1000
999
1001
1003
1004
1003
999
999
1001
1001
1000
1000
995
993
994
995
994
992
992
987
990
991
992
993
991
992
991
994
995
992
991
990
989
991
990
992
994
994
997
1001
1003
1000
1000
998
1001
1001
999
997
995
995
996
997
998
999
995
996
1000
1001
997
991
987
983
979
976
973
967
965
958
957
959
958
956
954
954
955
957
958
958
955
951
954
957
956
955
955
955
955
957
958
959
957
954
957
961
961
957
957
957
961
963
964
964
963
962
965
967
968
965
964
965
967
971
971
971
967
966
967
968
964
959
960
963
976
998
1024
1051
1074
1095
1109
1124
1141
1166
1188
1210
1233
1253
1263
1263
1259
1253
1245
1228
1204
1169
1142
1121
1099
1077
1050
1012
