1082
1101
1118
1134
1161
1190
1221
1248
1278
1301
1320
1330
1330
1328
1321
1302
1274
1239
1202
1170
1139
1108
1077
1040
998
961
932
906
885
871
858
850
847
846
849
856
858
857
860
866
877
888
892
897
898
903
906
913
919
921
922
924
926
927
931
929
926
924
926
925
924
922
920
919
921
922
919
919
915
915
915
915
914
914
912
910
908
913
913
911
909
909
909
912
910
908
907
910
911
913
913
915
915
917
920
922
925
925
925
929
935
941
941
943
946
948
956
961
963
966
966
968
976
981
982
986
987
986
989
995
996
998
999
998
1002
1007
1007
1010
1008
1008
1011
1016
1014
1012
1010
1008
1011
1012
1012
1011
1009
1008
1008
1011
1007
1006
1006
1003
1002
1005
1002
999
997
996
998
996
995
994
993
995
999
998
1000
998
996
996
1000
1002
1003
1003
1004
1004
1011
1013
1010
1011
1011
1013
1015
1015
1013
1013
1011
1012
1015
1018
1017
1016
1013
1010
1009
1005
999
989
984
980
979
978
974
970
966
966
967
970
970
967
966
966
968
970
969
969
970
967
970
974
971
972
971
970
973
975
975
974
973
973
974
975
973
972
971
971
972
974
973
973
974
973
976
978
978
977
975
973
976
980
979
979
978
978
979
978
974
972
967
968
975
989
1011
1039
1064
1088
1112
1129
1146
1161
1183
1207
1232
1257
1282
1300
1312
1317
1322
1320
1313
1299
1269
1231
1195
1169
1140
1107
1076
1036
996
962
933
905
883
863
854
849
847
847
849
850
852
855
853
859
867
873
883
889
893
896
897
901
908
915
917
920
919
921
924
925
925
923
919
919
921
921
921
920
919
917
918
920
917
917
913
911
912
913
913
910
907
906
907
908
908
908
906
904
909
909
907
907
907
909
911
913
916
917
916
916
920
925
927
932
930
934
938
943
946
948
949
952
956
957
960
963
965
966
971
977
976
976
981
981
988
993
993
994
994
994
999
1005
1002
1003
1004
1002
1009
1011
1009
1008
1007
1004
1008
1009
1007
1007
1006
1002
1004
1002
1001
997
994
991
995
993
991
990
988
992
991
992
993
991
990
991
994
998
998
998
997
999
1005
1010
1010
1010
1007
1007
1010
1014
1010
1009
1006
1004
1006
1008
1008
1008
1006
1007
1006
1006
1004
998
992
982
980
981
977
972
967
963
965
967
967
965
963
962
965
968
967
964
965
964
965
966
964
964
962
962
966
967
967
966
965
965
965
967
968
968
966
966
967
971
971
969
971
968
972
976
977
975
973
973
978
977
979
977
974
971
972
970
966
960
960
958
967
985
1009
1033
1056
1084
1105
1124
1146
1173
1200
1225
1258
1284
1301
1308
1307
1306
1302
1291
1263
1228
1195
1163
1140
1114
1083
1044
999
957
932
909
884
865
853
847
845
845
849
850
849
849
856
864
871
877
883
886
890
897
901
905
909
913
917
923
924
924
925
924
927
928
928
925
923
921
922
923
922
919
916
914
915
916
916
912
910
910
912
911
912
910
907
905
907
910
909
908
909
908
912
913
915
914
912
915
920
921
922
921
922
925
927
932
932
936
935
936
941
945
949
950
950
953
960
963
965
966
970
971
976
981
983
984
985
986
991
997
998
1001
1002
1005
1008
1011
1011
1011
1010
1008
1012
1014
1012
1010
1009
1008
1008
1008
1008
1007
1004
1002
1002
1004
1003
1001
998
997
998
999
998
993
994
992
996
999
997
997
998
996
1000
1001
1003
1000
999
999
1005
1007
1008
1008
1005
1006
1008
1012
1009
1004
1002
1001
1005
1008
1010
1008
1006
1006
1006
1006
998
992
987
982
978
978
974
972
963
963
966
966
963
960
958
957
961
960
960
961
960
961
961
965
964
964
962
962
963
966
965
964
966
966
967
970
967
969
966
967
968
973
973
970
969
968
968
971
972
969
969
967
970
971
975
972
968
965
962
962
958
955
958
974
1000
1029
1058
1081
1100
1117
1139
1168
1198
1227
1255
1282
1305
1320
1321
1318
1312
1297
1269
1234
1198
1165
1132
1099
1064
1024
978
943
915
890
870
856
847
841
838
835
841
843
847
845
850
857
871
879
884
889
891
893
900
906
909
913
914
915
918
924
923
921
920
916
917
918
917
916
915
913
916
916
918
912
910
909
910
913
911
907
907
906
908
910
906
906
907
906
906
908
908
907
905
906
908
910
911
910
909
909
913
916
920
918
920
923
926
931
931
934
935
936
942
948
951
952
954
954
960
967
969
970
972
978
981
986
990
988
991
991
996
998
1000
999
1002
1001
1007
1010
1008
1007
1008
1008
1009
1012
1011
1009
1010
1010
1011
1012
1012
1009
1010
1005
1007
1009
1009
1006
1002
1002
1006
1007
1005
1001
999
997
997
995
996
993
993
992
998
999
1000
999
998
998
1001
1002
1004
1004
1006
1005
1010
1012
1013
1012
1009
1010
1011
1013
1011
1010
1007
1007
1010
1012
1015
1013
1013
1011
1015
1015
1010
1004
996
990
986
983
979
973
969
967
967
967
966
963
959
962
964
967
965
967
964
966
967
969
970
966
966
967
970
971
971
968
970
970
972
973
972
971
971
967
969
971
972
972
970
970
972
973
975
974
972
971
973
974
975
975
976
973
976
977
978
980
977
975
977
974
970
967
965
966
977
993
1017
1039
1065
1087
1107
1123
1139
1160
1187
1212
1239
1268
1293
1313
1321
1322
1324
1323
1318
1298
1265
1227
1195
1167
1134
1103
1075
1034
998
966
939
914
890
864
854
851
848
845
844
846
849
852
852
856
860
869
879
885
888
891
894
897
904
909
914
915
919
918
921
925
926
924
923
920
921
923
923
921
919
920
921
922
920
920
916
914
916
918
917
915
913
911
912
913
912
910
908
908
908
911
911
907
907
906
909
912
913
910
911
910
912
914
919
918
919
919
923
928
930
930
931
931
939
942
941
945
944
946
950
957
958
959
958
962
965
968
972
972
972
973
979
983
984
989
987
988
993
997
1001
999
1001
1002
1008
1010
1011
1010
1009
1010
1011
1016
1016
1016
1014
1013
1016
1018
1017
1015
1015
1011
1011
1015
1012
1007
1005
1004
1003
1005
1006
1003
1000
997
996
998
998
996
995
993
995
998
995
997
998
998
1003
1004
1004
1003
1004
1004
1007
1008
1012
1011
1011
1013
1017
1017
1017
1017
1016
1013
1013
1014
1009
1010
1007
1007
1010
1015
1013
1013
1011
1009
1010
1010
1004
998
991
985
983
981
977
974
970
966
969
970
969
970
967
969
969
971
972
971
969
969
969
970
969
969
967
967
967
971
972
969
971
969
973
973
974
972
972
971
973
976
975
974
974
975
976
978
976
978
976
979
980
982
983
980
980
979
980
980
975
974
968
963
965
972
982
1003
1025
1053
1081
1106
1124
1139
1159
1188
1218
1247
1276
1298
1317
1327
1332
1334
1333
1322
1297
1260
1221
1192
1159
1125
1091
1050
1006
966
937
911
885
863
851
848
846
846
847
849
851
854
854
859
865
872
882
889
894
899
899
906
914
921
924
926
924
925
928
929
930
928
925
924
926
926
923
921
919
915
915
918
918
915
912
911
914
913
914
912
910
909
909
911
913
910
908
906
912
912
913
913
912
912
911
917
916
918
919
920
923
928
928
927
926
931
935
937
942
942
945
946
951
955
958
960
962
962
967
971
976
976
977
980
985
990
992
995
998
997
1002
1007
1009
1010
1010
1012
1012
1013
1016
1014
1014
1011
1013
1014
1014
1015
1010
1011
1012
1013
1012
1010
1009
1004
1008
1008
1008
1006
1004
1001
1002
1003
1003
1000
998
996
1001
999
999
996
999
1000
1001
1003
1005
1006
1002
1001
1002
1004
1003
1006
1007
1007
1011
1013
1013
1013
1012
1011
1014
1015
1012
1010
1008
1010
1012
1015
1016
1014
1012
1013
1014
1015
1013
1007
1001
992
990
988
985
980
975
970
970
969
970
967
967
964
967
968
970
968
965
964
967
970
969
968
968
968
968
972
971
970
970
967
972
974
976
975
974
974
977
976
975
977
976
976
977
977
979
980
977
977
979
980
983
982
981
980
983
983
983
979
974
970
968
970
972
981
999
1027
1060
1086
1107
1128
1144
1171
1205
1238
1270
1298
1319
1330
1335
1333
1330
1316
1281
1238
1199
1168
1135
1099
1060
1014
972
944
916
891
870
855
851
849
850
847
850
851
856
860
865
872
878
889
897
901
906
909
912
917
921
926
927
929
927
929
930
931
930
928
925
923
924
926
926
923
920
918
921
920
920
920
918
916
917
917
918
919
915
915
917
917
917
915
912
909
913
917
918
919
917
919
922
924
927
928
927
931
933
937
940
943
944
947
952
957
958
962
965
963
971
974
977
978
980
982
989
992
993
996
995
996
1002
1006
1009
1010
1012
1010
1013
1015
1017
1015
1015
1016
1017
1018
1018
1015
1014
1014
1016
1017
1016
1015
1011
1009
1010
1007
1006
1004
1003
1001
1002
1002
1001
1001
996
995
996
999
1001
998
999
999
1003
1004
1003
1003
1005
1003
1009
1009
1011
1012
1012
1012
1017
1021
1020
1019
1014
1013
1012
1014
1017
1016
1018
1015
1016
1016
1013
1009
1000
996
992
989
985
982
976
971
969
972
971
971
969
963
968
970
969
970
969
968
972
973
974
974
971
971
973
976
976
972
973
972
975
976
974
972
972
971
972
975
974
973
973
973
975
976
975
977
975
973
975
980
980
977
977
980
980
982
981
975
971
967
967
971
979
997
1024
1050
1079
1106
1123
1143
1171
1202
1236
1268
1296
1318
1329
1330
1334
1331
1317
1283
1244
1206
1177
1146
1113
1077
1034
990
953
924
898
872
854
844
843
841
844
844
844
844
850
857
868
873
880
886
891
897
901
906
908
911
918
922
924
922
919
921
923
924
924
923
920
919
918
919
919
916
916
913
914
913
912
909
908
904
907
908
908
909
905
904
904
908
908
904
905
904
907
910
909
910
911
910
916
920
921
925
924
925
930
934
938
939
939
941
944
949
952
956
955
958
962
966
970
973
973
974
979
984
988
988
990
992
996
1001
1002
1002
1005
1003
1006
1013
1013
1014
1012
1012
1013
1015
1016
1013
1013
1009
1011
1010
1010
1009
1005
1005
1003
1004
1003
1002
997
998
998
999
997
997
994
991
994
993
996
993
994
994
998
1003
1001
1001
999
1000
1003
1008
1008
1009
1009
1009
1011
1013
1013
1011
1010
1008
1009
1009
1008
1010
1010
1010
1010
1011
1014
1006
1007
1002
996
991
987
982
976
970
972
970
970
968
966
964
965
964
964
966
965
963
964
964
964
965
964
963
964
966
966
967
964
963
965
966
967
967
966
966
967
970
969
967
968
968
970
974
974
976
972
971
976
976
976
976
974
973
974
975
977
973
971
967
965
961
962
962
971
991
1018
1049
1076
1102
1117
1137
1166
1197
1226
1258
1288
1310
1325
1332
1332
1328
1316
1287
1253
1215
1180
1148
1112
1076
1032
987
949
917
890
866
852
844
840
838
840
841
847
847
852
861
868
877
885
891
896
900
906
909
916
922
922
922
922
921
921
921
920
916
916
917
914
915
915
914
912
910
908
910
910
910
906
905
905
907
908
908
905
905
908
908
910
907
907
909
911
912
912
910
911
910
912
917
921
922
923
924
929
933
935
937
938
940
946
951
952
955
958
960
965
970
975
977
978
978
984
986
992
991
992
994
997
1001
1001
1000
1002
1001
1002
1006
1006
1006
1005
1004
1005
1006
1007
1007
1004
1002
1003
1004
1001
998
996
996
996
997
998
998
997
994
994
993
994
993
993
991
990
994
994
994
994
992
994
995
997
999
998
998
1000
1005
1007
1006
1006
1005
1005
1006
1003
1003
1003
1002
1007
1008
1008
1007
1007
1003
1002
998
991
985
978
973
968
966
964
962
959
959
959
960
960
959
958
957
960
962
961
961
961
961
961
963
962
966
965
962
962
968
969
970
967
964
967
968
970
969
970
967
967
969
969
970
967
968
969
970
972
972
969
968
971
972
975
975
973
971
970
967
965
964
963
966
978
1003
1030
1060
1083
1108
1127
1146
1165
1190
1218
1245
1274
1299
1317
1323
1322
1316
1310
1295
1265
1224
1184
1153
1122
1095
1058
1010
966
928
905
883
863
847
837
836
838
842
845
847
848
849
857
869
875
880
883
885
890
896
900
905
909
911
916
919
921
919
916
916
920
919
919
916
916
912
915
916
916
914
910
911
910
912
913
908
907
907
908
908
902
903
902
902
902
904
906
906
903
903
908
907
909
910
913
913
914
918
923
922
925
924
929
937
941
944
944
945
949
955
956
957
959
958
964
969
971
975
975
976
982
985
988
988
989
991
993
997
1001
1002
1002
1002
1002
1005
1007
1005
1003
1005
1005
1008
1008
1006
1005
1002
1002
1004
1005
1000
1000
995
993
996
995
993
989
989
988
989
990
988
988
989
992
995
995
996
993
993
996
998
1002
1003
1004
1006
1009
1009
1011
1009
1012
1009
1006
1008
1008
1006
1005
1004
1007
1006
1008
1006
1004
1000
997
995
990
983
978
973
969
966
964
961
959
958
963
963
964
964
964
962
964
967
967
966
966
962
964
966
965
963
963
960
960
964
966
966
963
964
965
967
969
968
965
965
967
968
971
970
970
967
969
975
976
974
974
973
975
975
979
977
974
972
971
968
963
960
958
959
973
994
1020
1044
1068
1091
1109
1125
1146
1172
1199
1226
1255
1285
1302
1313
1315
1313
1310
1303
1277
1239
1204
1172
1146
1118
1088
1052
1009
968
942
918
894
873
853
840
838
838
838
839
839
840
843
846
854
860
870
876
882
888
893
896
902
907
912
914
916
919
921
922
921
924
922
922
920
919
918
918
917
913
912
908
910
909
910
908
907
905
904
905
905
905
904
901
903
903
906
905
902
903
906
907
911
909
908
911
912
914
917
918
919
919
923
927
929
930
930
930
934
940
944
944
946
948
949
958
963
965
967
968
974
980
982
983
986
987
993
994
997
999
1003
1003
1006
1008
1009
1009
1007
1008
1009
1008
1007
1010
1008
1006
1005
1007
1007
1007
1003
1002
1000
1001
1000
998
997
995
994
994
995
996
994
990
996
998
1000
1002
1002
1001
1000
1002
1004
1005
1004
1003
1007
1007
1011
1012
1008
1008
1011
1009
1008
1005
1005
1003
1008
1008
1010
1009
1008
1007
1006
1002
996
988
981
977
975
973
972
970
966
963
964
963
966
965
960
961
963
964
965
964
964
962
964
968
967
967
967
964
966
968
969
969
969
967
968
971
973
973
973
969
972
975
975
975
973
972
974
977
978
976
973
973
974
977
976
976
972
970
968
968
966
963
963
965
981
1003
1030
1056
1080
1102
1121
1140
1164
1194
1222
1249
1278
1302
1318
1325
1323
1322
1323
1316
1294
1259
1221
1182
1155
1127
1100
1065
1025
985
952
928
903
877
858
844
840
841
840
841
841
843
845
849
856
863
869
874
881
890
894
896
899
901
912
912
917
918
916
916
919
922
922
920
918
916
918
917
919
917
915
912
910
912
914
911
910
907
909
910
911
908
907
905
906
910
911
909
906
905
906
910
908
907
908
903
904
906
910
908
910
910
911
916
917
917
919
920
924
927
931
935
937
936
942
947
949
954
955
959
963
968
970
973
974
976
979
984
986
989
989
990
993
995
999
1000
1001
1001
1002
1006
1009
1009
1008
1007
1006
1007
1009
1011
1010
1006
1007
1008
1007
1007
1007
1005
1005
1006
1005
1004
999
996
999
998
999
997
995
993
996
1000
1002
1001
999
997
1000
1003
1005
1006
1009
1009
1010
1013
1014
1014
1014
1013
1011
1012
1014
1014
1012
1012
1013
1017
1021
1015
1016
1011
1007
1002
995
989
984
976
974
971
970
968
966
963
966
967
967
967
966
964
966
970
970
969
969
966
968
970
974
972
971
969
970
972
973
973
972
968
972
972
975
973
971
970
971
972
974
973
974
971
976
977
979
978
979
978
977
981
982
979
976
976
973
972
971
970
971
982
1004
1031
1060
1082
1104
1120
1140
1163
1194
1223
1250
1277
1304
1321
1327
1327
1326
1320
1310
1284
1246
1211
1180
1147
1118
1092
1055
1010
971
939
915
890
871
858
849
845
846
849
852
852
851
851
855
865
875
880
886
889
891
898
904
908
911
913
915
921
924
927
925
922
925
925
925
924
923
919
921
923
925
920
920
916
916
918
917
917
913
910
912
912
908
908
908
907
908
908
909
910
908
906
907
909
913
910
911
910
913
914
916
919
918
918
922
929
930
933
935
935
937
943
945
947
949
950
954
957
960
961
962
962
966
971
974
976
977
978
984
986
992
994
993
993
998
1001
1004
1006
1005
1007
1009
1014
1014
1018
1016
1011
1015
1017
1019
1017
1017
1014
1012
1014
1013
1011
1008
1004
1004
1005
1007
1001
1002
997
999
1000
1001
999
999
999
997
1004
1003
1004
1004
1002
1004
1004
1008
1007
1007
1009
1012
1016
1017
1015
1014
1013
1015
1017
1017
1014
1009
1010
1012
1014
1014
1013
1013
1012
1012
1012
1014
1008
1006
997
992
990
987
983
977
972
969
969
970
967
969
966
965
966
967
967
966
964
966
968
971
967
965
964
964
966
967
967
966
964
967
968
970
969
966
965
967
969
970
971
972
967
970
972
974
973
972
973
974
977
979
977
976
976
975
979
981
981
979
976
975
974
970
967
963
961
965
980
999
1023
1048
1073
1096
1118
1135
1153
1180
1205
1236
1264
1291
1314
1324
1326
1330
1329
1326
1311
1279
1244
1208
1180
1150
1117
1084
1043
1002
968
942
917
892
869
854
846
842
842
838
839
843
845
848
848
851
859
867
875
883
888
892
894
899
907
910
915
916
919
923
926
930
927
924
922
922
926
926
924
922
920
921
919
918
917
914
913
912
913
913
910
908
909
910
911
910
910
907
906
906
910
911
908
907
906
910
912
912
912
914
910
915
916
918
919
918
920
920
925
925
928
927
927
932
937
938
942
940
943
947
951
953
955
957
958
961
966
970
975
974
974
978
983
985
986
989
991
994
998
1004
1004
1004
1006
1009
1012
1012
1013
1011
1014
1014
1013
1015
1014
1013
1012
1010
1013
1014
1013
1009
1009
1008
1011
1011
1010
1007
1000
1006
1005
1007
1006
1002
998
999
999
1001
1002
1001
1002
1004
1007
