922
923
926
926
928
934
939
941
944
944
946
952
957
960
960
961
965
969
973
977
979
981
985
988
989
993
996
996
997
1000
1004
1005
1005
1004
1003
1006
1009
1006
1006
1005
1003
1003
1006
1005
1004
1000
1000
1001
1003
1004
1001
996
995
996
999
995
993
993
995
997
1002
1001
1000
999
998
1000
1001
1000
999
997
995
998
1004
1004
1005
1005
1005
1009
1009
1008
1006
1001
1000
1001
1003
1003
1004
1003
1002
1005
1008
1004
1003
996
992
986
984
977
973
969
966
964
962
961
959
959
956
955
958
958
958
958
957
959
961
961
959
957
958
958
961
962
960
960
960
964
963
964
963
962
961
963
966
966
965
963
962
966
970
970
970
967
965
969
973
971
971
968
966
961
963
957
955
956
965
987
1014
1040
1066
1085
1101
1120
1144
1173
1204
1229
1253
1274
1288
1290
1288
1278
1265
1237
1203
1169
1140
1114
1085
1052
1015
973
940
906
882
865
853
848
844
842
841
846
850
851
854
864
870
881
888
891
892
896
903
911
914
918
915
916
919
919
921
920
917
917
917
915
917
917
915
910
908
910
914
909
907
906
905
905
906
905
904
901
900
903
905
906
903
902
902
907
911
908
911
909
911
914
921
920
922
925
926
930
936
939
942
942
949
953
956
960
962
963
965
971
976
979
981
982
984
990
995
997
996
997
999
1003
1008
1007
1008
1005
1005
1007
1011
1008
1007
1007
1003
1006
1007
1005
1003
1001
999
997
1000
997
994
993
989
990
991
991
988
988
989
993
997
993
993
992
992
994
998
995
995
995
995
999
1003
1005
1004
1004
1002
1005
1008
1005
1001
1000
999
1001
1003
1004
1001
1001
999
1003
1002
996
989
980
977
975
975
969
964
961
960
961
961
962
960
955
955
958
961
960
957
956
959
959
961
961
960
959
960
963
965
963
961
960
960
962
964
965
964
962
961
963
967
968
966
965
966
967
969
969
967
968
968
970
971
973
968
962
958
958
964
971
988
1013
1042
1070
1096
1113
1127
1149
1179
1208
1238
1264
1285
1297
1299
1298
1296
1286
1264
1227
1186
1156
1131
1102
1071
1029
987
950
921
894
869
853
840
839
840
840
842
842
842
847
857
864
872
875
881
887
894
894
899
902
904
910
916
916
913
914
914
913
916
914
911
910
908
908
910
910
908
903
904
904
907
905
904
900
900
902
902
899
898
897
896
898
900
899
899
897
897
903
907
905
906
907
909
912
914
917
920
920
921
927
933
933
935
938
940
944
949
953
955
957
960
967
971
971
974
976
979
986
987
988
991
992
992
996
997
1001
1000
1000
1001
1001
1004
1005
1003
1002
1000
1003
1004
1005
1000
997
996
998
998
997
993
991
989
989
993
992
988
983
983
984
987
986
987
986
988
986
987
988
986
987
986
988
988
986
984
983
987
992
997
998
997
994
994
997
998
998
992
993
992
994
998
998
995
996
997
996
999
993
986
977
974
970
968
962
956
953
951
952
953
952
949
949
951
951
952
953
952
951
949
951
953
954
953
952
953
955
957
957
956
954
954
957
957
959
958
956
956
960
960
960
957
956
957
959
962
963
960
960
960
963
965
965
963
958
958
961
960
955
955
955
962
980
1008
1040
1067
1091
1114
1130
1150
1172
1195
1215
1241
1265
1286
1298
1301
1297
1289
1283
1273
1246
1207
1172
1141
1116
1091
1062
1029
987
951
920
894
871
852
838
826
824
828
830
830
831
830
834
840
850
856
863
868
875
882
885
886
890
896
899
903
905
907
905
906
907
910
907
906
903
901
904
905
906
900
899
898
900
901
900
898
896
894
894
897
896
895
894
893
892
896
897
895
896
896
897
900
899
898
900
902
907
908
913
913
913
915
919
924
928
929
929
933
940
946
946
950
954
956
960
965
967
966
969
972
976
981
985
985
987
987
991
996
995
996
996
998
1001
1002
1003
1001
1000
1001
1000
1001
1000
998
993
995
993
996
997
992
990
991
991
991
988
988
985
986
986
987
987
983
983
984
987
992
993
991
988
989
992
994
992
988
987
989
992
999
1000
1001
998
999
1001
1002
1002
999
996
994
998
1001
998
998
997
1000
1004
1004
1002
997
990
985
980
980
975
970
964
961
958
963
960
959
958
956
957
959
958
955
956
954
955
959
956
955
954
954
956
959
957
958
955
955
959
962
959
958
958
958
962
962
964
962
960
959
962
965
965
962
962
962
965
969
969
968
968
966
970
969
968
964
962
958
959
962
962
966
975
997
1021
1046
1066
1087
1101
1115
1137
1163
1186
1208
1229
1251
1268
1279
1280
1280
1275
1268
1258
1237
1205
1176
1149
1130
1110
1086
1058
1022
988
957
932
910
885
869
854
848
846
846
848
845
847
847
848
854
858
864
871
874
882
887
890
893
893
899
906
912
913
914
915
915
917
922
918
916
914
912
913
917
914
914
913
912
910
913
912
909
907
906
907
907
908
906
901
903
903
906
903
902
901
902
905
906
909
905
903
905
907
909
909
910
910
910
916
919
922
921
923
924
929
932
936
936
939
943
947
950
951
956
955
958
963
967
969
969
973
975
979
981
987
987
987
990
994
996
998
999
998
1000
1005
1005
1005
1005
1002
1005
1005
1008
1009
1005
1002
998
1003
1002
1000
1002
997
996
995
995
995
993
990
990
990
992
990
988
986
987
990
993
996
995
994
993
994
997
996
992
994
994
996
1001
1003
1003
1002
1002
1005
1006
1004
1003
999
998
1000
998
1002
999
999
1000
1002
1001
1002
997
992
989
983
982
976
967
965
962
961
960
958
955
954
956
955
957
953
952
954
954
954
955
958
956
955
956
957
958
958
956
956
956
957
960
958
957
956
957
958
960
961
957
956
958
959
961
960
960
960
959
961
965
963
964
960
964
966
968
968
964
963
962
958
959
957
953
954
965
987
1011
1036
1060
1081
1098
1111
1135
1160
1185
1208
1231
1255
1278
1289
1289
1288
1286
1281
1272
1246
1211
1180
1153
1134
1114
1086
1053
1011
971
942
918
894
872
855
842
839
838
835
836
836
836
842
845
849
855
862
867
873
880
882
885
884
888
898
905
906
906
908
908
912
915
915
913
911
909
910
912
910
909
906
905
908
910
907
906
904
904
902
905
903
902
900
900
901
902
899
900
898
899
900
902
900
900
898
896
901
903
901
901
902
903
905
908
908
910
910
913
917
920
923
922
926
929
933
939
940
941
944
947
952
959
959
962
965
967
973
977
980
979
981
984
991
992
995
996
995
995
998
1001
1002
1003
1000
1001
1002
1005
1004
1003
1002
1000
1000
1006
1004
1001
1000
999
1000
1000
998
994
994
994
996
993
991
986
985
985
987
988
991
990
989
991
992
993
991
992
990
989
992
992
993
993
994
998
1001
1003
1001
1002
997
996
996
998
1000
995
996
996
1000
1003
1004
1001
999
997
993
988
982
977
969
968
966
964
961
956
953
955
956
956
956
955
952
953
954
955
957
956
951
952
956
957
960
956
955
956
955
961
961
958
957
960
960
963
962
962
961
961
965
964
964
963
963
963
965
967
967
966
964
965
967
967
967
963
959
955
951
957
960
969
987
1015
1044
1071
1089
1105
1119
1140
1169
1197
1223
1244
1268
1286
1298
1303
1300
1297
1288
1272
1246
1216
1184
1156
1128
1101
1074
1042
999
961
930
903
880
862
847
840
832
830
833
837
839
839
837
844
852
861
868
872
875
877
884
889
894
898
902
905
909
914
914
914
913
912
913
915
915
910
909
908
909
909
909
906
903
903
904
904
905
900
900
897
898
901
899
899
897
898
898
899
901
898
898
898
900
902
901
902
900
899
903
907
908
909
910
913
915
921
922
922
923
927
929
934
936
936
939
940
948
952
953
956
958
961
967
970
974
975
975
976
982
986
989
991
992
994
999
1001
1002
1002
1003
1005
1005
1008
1009
1007
1007
1006
1007
1008
1005
1005
1001
1000
1000
1004
1003
999
997
995
994
995
994
992
989
989
990
992
991
992
992
991
995
997
992
993
992
993
996
995
993
992
990
991
998
999
1001
1002
1000
999
1001
1003
1001
998
996
996
996
1000
999
1002
1001
999
1000
997
992
984
976
972
970
971
966
961
957
957
958
959
958
956
953
955
956
959
958
958
954
953
956
955
957
956
957
956
957
958
958
957
956
957
959
962
961
963
960
960
962
966
964
962
961
963
964
966
967
966
966
966
969
970
968
967
962
958
958
961
967
979
1003
1033
1062
1088
1109
1128
1146
1173
1204
1230
1260
1280
1298
1306
1307
1306
1299
1279
1246
1201
1169
1139
1105
1075
1036
995
961
929
902
875
854
840
834
835
833
832
832
836
840
846
852
860
867
871
879
883
887
889
894
899
904
907
909
909
911
911
914
913
912
911
907
907
908
909
907
905
903
903
904
905
903
900
898
896
898
898
900
897
893
892
894
895
893
893
894
893
895
897
899
900
900
899
903
906
903
907
910
912
916
921
921
921
923
924
932
935
939
940
939
946
951
954
957
958
961
963
968
971
975
976
978
980
984
987
990
991
993
994
996
1002
1001
1000
997
998
1000
1002
999
1001
995
996
996
999
998
993
991
991
993
992
992
989
986
986
987
989
988
986
980
984
987
990
989
988
986
985
987
992
987
987
983
983
985
989
991
993
994
994
995
996
996
993
991
991
993
995
993
992
991
991
994
997
995
990
985
980
977
975
969
965
957
957
954
956
953
953
950
950
951
953
953
951
949
951
950
953
954
952
952
951
954
955
956
953
952
953
953
955
956
954
952
953
955
960
959
955
955
954
956
960
960
957
958
958
960
961
962
961
959
959
960
960
959
953
949
952
958
976
999
1027
1052
1075
1097
1115
1134
1156
1180
1209
1233
1257
1275
1283
1285
1283
1283
1277
1264
1233
1196
1163
1139
1115
1086
1055
1016
977
946
922
898
870
854
843
838
839
835
837
839
840
844
847
853
859
866
871
878
884
888
890
893
896
900
908
910
910
909
910
911
912
910
911
907
909
910
909
907
905
904
903
905
906
904
904
901
899
900
902
903
900
896
898
898
900
900
897
894
897
897
901
902
901
900
901
905
907
908
909
908
911
915
918
924
925
927
931
934
938
941
943
943
947
951
957
960
962
964
967
971
976
979
979
980
981
986
990
992
992
992
993
996
1000
1001
1001
998
1000
1000
1004
1005
1002
1001
999
1001
1001
1000
998
997
997
995
996
995
993
992
989
991
993
992
991
988
988
992
992
993
995
992
991
991
994
994
990
987
989
989
994
994
996
997
999
1000
1000
1000
998
996
995
997
998
997
997
994
995
998
1000
998
995
992
989
987
983
977
971
965
960
959
959
956
951
950
950
951
951
951
948
949
948
951
953
952
951
949
949
951
955
953
953
953
953
953
958
956
954
953
954
955
957
957
959
954
957
958
960
961
961
958
956
957
962
963
961
958
957
961
964
962
960
953
950
951
951
957
968
987
1014
1041
1069
1089
1105
1124
1152
1186
1217
1247
1267
1283
1291
1291
1290
1277
1257
1220
1179
1146
1119
1086
1048
1004
963
934
907
881
858
841
835
833
834
835
838
837
839
845
857
865
869
874
878
883
889
894
898
900
904
908
912
913
911
910
907
907
908
907
904
903
902
903
903
904
901
899
899
901
898
898
897
895
894
894
897
896
895
892
892
894
897
899
899
896
898
902
905
905
906
905
906
912
914
920
919
920
923
929
934
938
937
939
943
948
953
957
959
958
963
968
974
974
977
976
985
988
992
993
995
994
996
1000
1001
1001
1002
1001
1003
1002
1004
1004
1003
999
1000
1001
1001
1002
999
996
996
997
995
994
994
991
990
990
991
990
987
986
988
992
993
995
992
988
989
991
994
992
991
987
988
994
997
1000
1000
996
996
997
998
996
994
991
991
995
995
994
996
996
997
996
999
995
987
980
974
972
969
966
962
956
954
955
956
955
952
950
949
953
954
953
953
950
951
952
953
954
953
951
950
953
954
955
952
951
954
954
959
957
958
955
954
958
960
959
960
958
955
959
962
961
961
960
959
962
965
964
964
959
960
960
956
954
951
948
956
969
996
1024
1050
1074
1097
1115
1139
1170
1198
1223
1249
1275
1294
1302
1303
1300
1295
1286
1264
1229
1187
1155
1127
1097
1069
1030
987
947
917
888
866
848
833
828
828
830
834
834
834
835
842
853
863
872
874
875
880
888
895
900
902
903
905
905
910
910
909
907
906
907
907
908
906
903
903
905
904
903
900
897
895
898
898
898
896
893
893
892
896
895
895
893
893
895
898
898
896
897
899
902
905
909
907
908
910
914
916
918
920
922
926
929
937
939
940
939
946
950
955
958
960
962
964
970
976
979
980
981
983
988
992
995
993
995
998
998
1004
1003
1003
999
1001
1002
1004
1003
1003
999
1000
1000
1001
999
997
991
991
991
992
991
988
986
984
987
991
992
992
990
990
991
993
992
988
990
987
990
993
995
997
996
998
1001
1001
1003
998
992
995
994
996
999
998
997
996
998
997
995
989
980
974
971
969
966
960
955
953
954
955
956
954
952
951
953
952
957
955
953
951
954
957
959
955
953
956
955
959
960
957
956
957
958
961
961
961
957
955
961
960
961
960
958
956
961
963
964
961
960
962
963
968
966
966
962
960
959
957
956
955
956
964
986
1012
1040
1067
1087
1106
1124
1153
1182
1210
1236
1262
1285
1305
1311
1311
1306
1301
1289
1260
1222
1183
1149
1119
1091
1063
1026
983
943
913
889
865
850
834
830
828
832
834
839
837
837
843
853
863
869
875
879
882
886
894
900
901
901
906
908
911
913
912
910
911
911
911
911
909
905
905
906
906
906
905
902
903
899
902
902
899
896
894
897
899
898
895
892
894
893
895
897
898
894
896
898
903
903
903
904
907
911
913
915
918
916
922
927
931
934
936
938
941
945
950
951
953
954
959
966
970
973
974
976
977
983
984
988
989
990
990
998
996
998
999
998
999
1002
1003
1004
1002
1000
1000
1000
1003
1001
998
996
995
998
998
996
993
991
990
988
989
988
986
986
988
988
993
993
990
992
992
991
992
992
991
988
987
990
994
997
994
995
996
999
1000
1000
998
996
995
996
997
999
995
994
996
999
1000
1001
998
993
990
987
982
975
970
964
963
962
959
958
954
954
955
953
955
953
954
951
950
954
954
955
952
951
952
956
957
955
956
954
954
957
958
957
957
957
956
957
959
960
959
958
959
962
963
962
960
961
960
964
966
965
964
962
967
968
967
965
964
960
957
956
955
954
957
968
987
1015
1044
1067
1089
1105
1122
1147
1176
1207
1236
1261
1287
1303
1313
1313
1308
1301
1287
1265
1231
1200
1167
1137
1108
1082
1056
1015
976
943
914
892
869
851
840
831
829
831
835
835
836
834
837
843
852
861
864
871
876
881
886
888
890
892
899
907
912
913
914
913
914
915
917
915
912
912
911
910
910
911
906
903
904
906
907
905
902
898
899
899
900
900
899
894
895
894
897
896
896
894
895
897
898
898
900
895
898
899
905
907
908
906
908
912
918
916
916
919
924
929
933
936
936
938
942
946
950
953
955
957
959
964
970
975
976
977
980
984
988
990
992
992
994
998
1000
1001
1003
999
1003
1005
1007
1008
1006
1005
1003
1003
1005
1004
1001
997
998
1000
1000
998
994
991
991
995
995
995
996
993
993
998
1001
1001
997
994
994
997
999
996
995
995
997
1001
1006
1005
1004
1001
1002
1000
1004
1001
999
995
997
1000
1001
1002
1001
1000
1000
1000
999
996
984
979
977
973
970
966
960
955
957
956
957
958
953
952
953
955
956
956
952
952
957
956
959
957
957
954
955
956
958
958
955
957
956
957
960
961
957
958
960
961
963
962
961
959
962
965
968
966
966
962
965
968
969
970
969
966
965
967
967
961
956
952
951
960
972
993
1018
1040
1069
1092
1111
1126
1140
1164
1191
1217
1242
1268
1290
1306
1317
1319
1319
1315
1308
1285
1255
1219
1186
1159
1127
1095
1063
1030
994
958
925
898
875
856
843
834
829
826
826
831
835
837
835
837
847
855
864
870
874
873
878
883
889
892
896
898
900
906
911
911
911
911
911
913
915
914
910
909
908
909
910
908
907
906
901
906
907
907
903
899
900
901
902
901
899
897
895
895
901
900
898
895
896
897
900
898
900
897
897
901
904
905
905
906
908
912
914
916
917
917
920
921
928
929
933
933
935
941
945
948
949
951
955
958
964
967
968
969
974
977
982
985
985
988
989
995
997
998
1000
997
999
1005
1004
1007
1005
1005
1006
1007
1010
1011
1010
1007
1006
1010
1012
1009
1007
1002
1003
1002
1006
1005
1002
997
997
1000
1000
1000
997
994
997
1000
1003
1002
999
998
996
998
999
998
995
993
994
997
1000
1004
1006
1007
1005
1009
1011
1010
1006
1002
1004
1006
1008
1006
1004
1004
1002
1005
1006
1008
1007
1001
1001
996
992
986
981
976
975
970
969
966
965
962
961
962
963
962
961
960
962
964
964
966
963
963
963
965
968
968
968
965
963
967
967
969
967
965
966
968
971
971
967
966
966
968
971
971
971
968
970
971
974
976
973
973
972
977
978
978
975
970
971
967
967
966
967
973
990
1014
1045
1071
1096
1116
1136
1153
1176
1208
1234
1260
1286
1314
1330
1337
1331
1330
1323
1312
1286
1248
1208
1174
1146
1118
1092
1059
1023
983
952
927
906
881
861
844
838
834
835
837
838
838
841
844
849
855
861
867
877
884
890
893
895
897
905
910
915
919
920
918
920
923
925
924
925
921
919
921
922
921
918
916
916
917
917
916
915
913
910
913
