997
1000
1005
1007
1004
998
992
986
980
975
973
965
957
953
952
952
951
949
947
946
948
949
950
947
946
946
950
952
950
950
948
949
951
952
951
949
946
948
950
951
952
950
949
949
949
950
951
949
945
945
950
951
951
950
949
952
954
957
957
955
954
957
958
957
953
952
944
945
943
946
954
967
987
1016
1045
1067
1089
1102
1124
1152
1184
1213
1239
1261
1277
1290
1295
1299
1295
1290
1275
1255
1223
1188
1156
1128
1098
1070
1037
999
959
924
894
870
850
836
825
816
811
817
821
824
824
826
827
835
846
853
857
863
861
869
874
880
884
890
889
890
893
895
896
894
893
895
899
901
900
896
892
892
895
892
893
889
888
888
889
889
888
887
883
883
884
885
884
882
879
881
883
883
883
882
880
882
886
888
889
888
889
893
897
903
903
904
907
908
914
919
924
925
926
932
935
941
940
943
944
946
951
954
958
959
958
960
963
971
972
975
972
976
980
981
981
978
982
984
987
989
990
988
985
987
986
986
985
985
981
983
988
986
986
984
981
985
986
987
987
986
983
981
979
979
976
976
972
971
975
981
982
981
978
978
982
985
985
981
980
981
980
981
983
982
983
984
983
981
976
966
961
958
953
949
943
939
933
933
934
933
933
931
927
927
930
931
931
931
928
931
934
935
935
936
934
934
936
938
935
935
932
935
936
937
936
936
934
935
937
941
940
937
936
939
940
942
942
940
937
937
939
941
942
941
938
938
938
941
939
939
942
956
982
1010
1036
1063
1080
1094
1110
1130
1153
1174
1195
1219
1239
1251
1255
1251
1247
1245
1235
1217
1190
1156
1129
1108
1090
1067
1038
1007
967
937
910
888
866
843
829
820
819
819
819
821
819
820
825
830
836
843
848
853
860
867
868
872
875
881
887
891
891
891
891
890
894
893
890
889
890
889
893
893
892
890
888
889
890
893
891
889
886
888
889
891
887
887
885
887
887
890
889
888
887
887
892
893
893
892
892
891
897
897
898
899
900
902
905
909
910
911
911
917
920
927
929
932
931
936
940
944
948
949
953
953
956
961
964
965
966
969
974
977
979
978
977
978
983
987
987
986
985
984
984
988
990
986
984
985
988
989
989
986
986
987
988
990
988
986
984
987
990
990
990
988
987
988
990
988
992
988
985
985
987
986
986
984
983
985
988
988
990
987
986
986
988
991
990
988
986
987
988
992
990
990
991
993
995
995
992
986
978
975
971
972
965
959
954
952
952
951
950
948
946
944
945
947
947
945
943
944
947
947
947
941
942
945
947
949
950
948
947
950
951
952
954
953
952
951
955
956
956
953
954
956
955
958
958
957
956
956
961
961
962
962
960
960
962
965
963
960
959
955
951
950
948
948
951
966
985
1013
1037
1059
1075
1090
1106
1129
1154
1178
1198
1219
1238
1251
1257
1256
1255
1254
1247
1237
1215
1185
1157
1134
1120
1100
1076
1046
1013
980
952
926
902
879
863
852
844
843
840
837
840
842
845
847
849
853
857
867
876
881
882
887
885
891
897
903
906
908
908
910
913
916
919
914
912
911
915
916
914
910
908
906
907
908
905
903
902
902
903
905
901
899
901
901
901
904
903
901
899
900
902
904
903
903
902
901
904
906
907
906
905
910
911
914
914
919
917
922
924
926
927
929
928
930
936
940
943
942
944
947
953
954
957
959
959
964
970
975
976
978
977
979
986
988
990
994
990
993
998
1002
1002
1004
1002
1004
1008
1010
1007
1005
1006
1005
1006
1008
1009
1004
1000
1001
1004
1004
1000
1001
999
997
999
1002
1000
999
997
1001
1003
1006
1004
1003
1001
1002
1005
1009
1005
1001
998
998
999
1000
1003
1004
1004
1006
1009
1011
1007
1004
1002
1004
1003
1003
1001
998
998
997
1000
1007
1007
1006
1000
1000
997
989
987
980
974
969
966
961
959
956
955
953
958
957
957
952
951
953
953
956
956
955
954
952
953
955
955
952
951
952
955
956
959
955
954
956
958
958
960
958
957
959
961
962
963
963
961
963
964
967
965
964
965
964
964
966
963
960
953
949
948
948
955
966
985
1009
1034
1059
1079
1092
1108
1130
1156
1186
1211
1233
1254
1271
1282
1286
1287
1280
1269
1252
1224
1193
1162
1133
1107
1078
1045
1008
970
938
906
885
866
852
846
838
833
836
838
840
841
842
841
850
858
868
876
878
878
886
889
897
902
903
904
907
911
912
913
914
912
911
915
913
913
910
906
906
910
908
907
905
900
903
901
906
901
900
898
898
899
899
901
899
896
898
901
904
904
903
901
903
907
909
908
908
908
911
914
918
920
920
920
926
928
933
936
936
937
939
945
949
949
953
953
955
962
963
965
968
966
974
977
983
987
987
986
987
991
997
998
999
999
1002
1003
1006
1007
1006
1005
1007
1008
1010
1010
1007
1003
1004
1007
1008
1006
1003
999
996
998
999
998
996
993
996
998
1000
1003
1001
1000
1001
1003
1004
1004
1002
1000
996
998
998
998
1000
1001
1004
1006
1008
1008
1006
1003
1004
1005
1005
1002
1001
998
998
999
1000
1001
1002
998
997
996
994
988
980
973
969
968
967
962
957
955
953
956
956
954
954
951
953
953
957
954
952
953
954
955
954
955
955
953
954
956
956
956
955
953
955
953
954
956
957
955
956
959
964
964
962
961
963
965
967
967
967
966
966
967
967
964
960
955
951
954
959
970
989
1015
1044
1068
1088
1104
1120
1144
1173
1204
1230
1255
1279
1290
1297
1299
1299
1287
1265
1227
1188
1156
1127
1098
1057
1012
967
934
908
882
859
841
833
833
832
836
834
834
836
844
854
862
866
870
874
881
888
892
898
900
907
910
910
912
912
912
911
912
914
910
909
906
905
908
908
906
903
900
900
902
904
903
897
895
895
897
899
900
895
895
895
896
900
902
903
904
905
907
912
913
914
915
919
924
927
929
933
934
936
940
944
949
948
950
954
957
963
967
964
967
972
977
978
982
984
981
985
987
993
997
996
997
999
1000
1005
1004
1003
1002
1003
1004
1005
1003
1001
998
999
1000
1000
1001
997
994
993
997
996
994
994
991
993
994
993
994
993
989
990
988
989
991
992
991
993
998
1003
1003
1000
996
997
998
999
996
996
993
990
994
995
997
995
994
994
993
992
984
977
968
966
960
958
955
951
948
947
948
950
951
950
947
947
950
954
952
951
949
949
951
950
953
952
949
950
951
952
951
950
948
949
951
953
950
951
951
952
954
955
955
957
954
954
955
959
960
957
956
959
960
962
959
955
948
952
952
963
982
1010
1038
1069
1096
1113
1135
1159
1186
1217
1246
1274
1293
1298
1295
1291
1283
1265
1233
1189
1153
1124
1098
1069
1028
982
941
909
882
863
846
833
826
826
829
835
836
837
835
844
859
865
869
872
875
878
886
892
898
901
899
902
904
906
907
908
904
903
907
907
905
904
900
901
901
902
903
901
896
898
898
900
899
896
894
894
896
900
898
894
891
893
894
897
897
897
897
899
901
905
908
911
910
914
919
922
924
927
927
929
936
938
941
940
943
947
950
957
960
960
959
963
969
975
976
977
976
979
981
987
987
988
986
987
993
995
996
995
993
998
1000
1003
1002
1001
997
997
999
999
997
996
993
994
994
994
991
991
988
988
990
993
993
993
991
989
991
991
989
986
984
983
983
985
985
986
987
991
995
997
996
994
992
994
997
996
995
993
993
991
996
999
1003
1002
998
998
994
990
984
977
971
965
964
959
956
949
947
946
948
950
949
946
944
945
949
953
953
951
950
952
953
955
954
953
950
951
953
953
952
952
951
952
954
956
953
955
954
950
955
957
957
955
953
957
958
960
960
959
959
962
963
965
965
958
955
954
955
961
975
995
1021
1052
1076
1100
1115
1131
1152
1180
1206
1233
1256
1270
1273
1274
1271
1264
1247
1217
1183
1151
1125
1099
1073
1036
992
956
926
901
878
862
850
842
843
844
848
846
845
852
862
872
881
884
886
890
897
903
908
912
913
915
916
920
919
919
915
914
917
917
917
916
913
913
915
916
914
911
908
911
910
913
911
911
908
909
910
910
911
911
910
907
911
912
910
909
910
914
915
918
920
919
921
925
930
934
939
942
941
944
950
955
957
959
960
963
969
976
976
977
980
981
988
990
994
993
994
999
999
1003
1004
1003
1002
1006
1007
1007
1009
1007
1007
1009
1011
1011
1012
1010
1007
1007
1009
1010
1008
1007
1002
1001
1002
1003
1003
1002
1000
1004
1004
1007
1009
1008
1004
1005
1008
1006
1005
1003
997
999
1004
1009
1010
1011
1012
1011
1014
1016
1016
1012
1007
1007
1009
1011
1012
1010
1010
1011
1015
1014
1012
1004
1001
995
990
986
983
979
971
969
967
966
965
962
958
960
957
960
960
959
956
959
961
963
965
966
962
963
964
965
967
966
964
965
967
970
968
968
965
966
969
970
970
968
968
968
972
974
971
970
969
969
971
973
971
970
969
968
970
972
971
967
959
957
959
960
967
977
994
1021
1046
1067
1088
1102
1119
1146
1177
1206
1231
1253
1269
1280
1290
1291
1289
1280
1259
1225
1193
1167
1141
1114
1081
1049
1014
981
948
922
895
876
864
857
853
847
848
849
851
856
855
860
867
875
885
887
892
896
897
900
908
912
915
918
917
918
921
922
922
918
918
915
919
917
919
915
914
914
916
916
915
911
909
911
912
910
911
912
909
908
909
911
910
910
904
906
909
912
913
912
909
910
914
917
918
920
916
922
925
930
930
933
934
938
943
949
953
952
955
959
964
968
969
972
970
978
978
985
985
987
987
992
996
1001
1001
1002
1002
1003
1005
1007
1008
1006
1007
1006
1009
1011
1009
1007
1007
1007
1008
1011
1010
1005
1004
1006
1006
1007
1005
1003
1001
1000
1001
1003
1001
1001
1001
1000
1004
1006
1003
1004
1000
1002
1004
1001
1001
998
996
1000
1001
1007
1008
1007
1004
1006
1008
1009
1006
1002
1003
1002
1004
1006
1007
1006
1004
1006
1008
1005
1003
998
990
982
980
979
976
969
964
962
960
960
962
958
956
957
955
957
958
957
955
956
958
961
962
961
959
962
963
966
965
964
965
966
966
968
971
968
968
966
969
970
971
967
964
967
970
970
973
970
968
967
971
972
972
972
969
970
969
969
963
961
957
960
967
982
1005
1029
1049
1073
1094
1108
1124
1144
1169
1196
1223
1248
1269
1285
1294
1299
1302
1299
1292
1272
1242
1205
1181
1156
1131
1101
1068
1032
994
961
935
910
884
866
857
852
847
843
842
843
848
850
850
851
856
862
874
883
886
890
890
896
902
908
914
913
914
916
920
921
922
919
917
916
919
920
920
918
914
914
915
913
915
912
911
910
912
914
914
913
909
907
911
911
911
909
909
908
909
911
911
911
910
910
915
916
917
916
915
918
921
925
926
928
929
931
937
941
944
944
945
948
954
959
963
965
965
969
974
979
982
984
983
988
992
998
999
1000
1000
1002
1006
1010
1012
1010
1009
1011
1010
1012
1012
1010
1009
1007
1008
1011
1010
1008
1006
1005
1006
1007
1005
1003
1003
1000
1002
1003
1004
1002
1002
1004
1005
1006
1005
1003
1002
1001
1002
1001
1000
998
996
1000
1005
1008
1008
1007
1003
1004
1004
1003
1005
1003
1002
1004
1007
1009
1012
1011
1009
1005
1004
998
994
985
979
974
972
972
969
965
961
962
963
963
962
959
957
959
958
960
960
958
956
957
962
961
961
963
960
961
964
966
967
969
963
965
966
968
968
968
967
966
970
970
968
967
969
969
971
972
973
972
971
972
973
974
973
972
969
965
962
962
960
963
969
987
1014
1039
1063
1083
1100
1113
1133
1165
1192
1216
1241
1266
1288
1306
1314
1311
1305
1300
1291
1271
1235
1199
1169
1139
1117
1090
1058
1016
978
944
921
900
876
861
848
841
840
843
846
842
844
845
850
858
867
870
875
882
888
893
895
898
900
904
911
915
917
918
917
919
923
923
921
919
919
918
917
917
915
914
911
910
911
914
912
908
907
906
910
910
912
907
905
906
906
908
910
907
906
906
907
910
910
909
909
910
914
915
915
913
912
917
920
923
925
925
927
928
933
940
940
942
945
946
953
957
961
964
962
966
970
975
979
977
980
983
986
991
996
996
997
999
1002
1005
1007
1007
1005
1009
1008
1011
1010
1012
1008
1009
1007
1009
1009
1004
1002
1003
1004
1003
1003
1000
999
1000
1001
1002
1000
995
995
997
1001
1003
1004
1003
999
998
999
1000
998
995
992
996
1000
1001
1007
1004
1005
1005
1004
1006
1003
1001
997
998
998
999
1001
1001
998
1001
1002
1006
1004
1000
996
992
990
982
978
977
967
967
964
965
961
960
958
955
957
961
958
958
955
957
958
958
958
959
953
955
958
961
961
959
957
959
961
964
962
963
963
962
964
964
967
966
965
965
966
969
970
969
969
967
971
972
973
972
970
968
967
968
965
960
959
958
966
980
1003
1028
1052
1080
1104
1122
1137
1156
1183
1209
1237
1262
1282
1298
1301
1300
1295
1293
1278
1252
1215
1179
1150
1130
1101
1070
1036
996
965
939
915
888
868
852
842
839
837
836
834
838
839
841
848
854
861
867
874
881
884
885
887
893
900
906
910
910
910
911
913
916
918
914
914
915
912
915
913
910
907
907
907
909
907
906
905
903
904
906
905
903
899
900
902
904
904
903
902
901
904
905
907
905
903
904
907
909
911
911
910
913
918
921
919
921
923
926
930
934
935
935
937
937
942
948
949
951
955
958
962
966
968
970
970
973
979
984
988
988
990
991
994
999
1001
1001
1001
1002
1005
1008
1006
1008
1008
1008
1009
1011
1011
1007
1005
1006
1004
1006
1004
1003
999
999
1000
1000
1000
998
995
995
997
999
999
998
996
997
1000
1000
1003
1001
999
999
1001
1003
1002
1000
996
994
996
999
1003
999
1003
1006
1007
1008
1006
1006
1004
1002
1003
1004
1003
1003
1000
1000
1002
1006
1011
1010
1005
1003
999
995
989
982
978
974
974
970
967
965
962
961
964
965
963
962
960
959
960
965
963
960
960
960
962
964
962
963
960
963
964
965
967
964
962
964
968
968
969
966
967
967
971
972
973
971
969
970
973
974
974
975
972
973
974
978
979
979
977
978
978
978
977
973
968
966
966
965
970
978
998
1020
1046
1070
1091
1105
1116
1134
1157
1182
1206
1228
1244
1263
1275
1280
1281
1278
1272
1261
1246
1217
1191
1167
1145
1124
1102
1083
1055
1020
988
964
941
919
899
880
867
861
859
860
860
860
859
859
864
873
880
884
891
894
900
906
908
910
913
918
924
927
929
929
928
928
932
933
933
934
930
928
932
930
928
926
925
926
925
926
925
922
919
919
921
923
924
921
920
920
922
924
924
921
922
922
924
923
923
925
922
922
925
926
928
926
927
927
929
933
935
935
935
939
944
948
950
951
952
955
960
966
967
968
967
973
977
981
983
984
984
988
992
995
1000
1001
999
1001
1005
1010
1011
1013
1009
1010
1013
1017
1017
1017
1017
1019
1019
1021
1021
1019
1017
1018
1016
1019
1020
1017
1015
1016
1017
1017
1018
1013
1010
1010
1011
1013
1014
1010
1008
1007
1007
1011
1013
1012
1013
1015
1017
1017
1015
1014
1009
1010
1012
1013
1016
1014
1012
1015
1019
1023
1021
1020
1017
1018
1020
1021
1017
1014
1013
1014
1015
1016
1019
1019
1017
1016
1016
1016
1012
1002
996
991
991
990
983
978
973
971
968
973
973
969
966
967
970
971
972
971
968
969
971
973
971
970
969
971
972
974
974
973
972
973
975
978
977
977
973
975
977
981
981
978
978
977
979
982
981
977
975
976
979
982
984
983
981
981
980
979
975
969
968
967
981
1001
1025
1052
1075
1094
1110
1127
1151
1178
1201
1228
1258
1281
1295
1302
1299
1295
1289
1274
1243
1204
1171
1142
1116
1088
1049
1009
970
944
922
900
882
869
860
856
856
860
862
862
860
862
872
882
890
894
898
903
908
914
919
922
923
927
929
933
935
934
932
929
932
934
932
930
927
928
927
928
927
924
920
921
922
923
925
922
920
919
921
922
924
923
917
918
922
923
923
922
920
921
923
928
927
926
926
928
932
936
938
938
937
941
946
949
952
952
956
956
962
966
967
970
971
975
977
983
985
987
989
992
998
1000
1002
1005
1003
1006
1011
1014
1014
1014
1014
1016
1017
1018
1018
1017
1016
1017
1020
1019
1019
1017
1014
1014
1013
1018
1014
1012
1010
1010
1013
1011
1011
1006
1005
1004
1004
1003
1007
1007
1005
1007
1008
1010
1012
1012
1006
1005
1008
1006
1011
1007
1006
1009
1012
1016
1015
1015
1013
1013
1015
1018
1017
1012
1010
1011
1013
1016
1017
1014
1010
1014
1016
1018
1012
1008
1001
995
989
989
985
980
974
970
972
971
971
969
968
966
966
969
968
968
966
967
968
970
969
968
966
969
970
972
971
969
967
968
969
975
974
973
973
970
973
978
977
975
972
975
978
979
977
977
975
973
975
981
980
979
976
975
973
971
968
964
962
967
986
1011
1037
1062
1083
1103
1122
1147
1176
1201
1227
1253
1278
1295
1302
1306
1301
1295
1280
1251
1210
1175
1142
1113
1084
1050
1006
968
936
908
888
871
859
851
849
849
853
857
856
859
862
871
881
890
894
898
898
905
912
918
923
924
923
923
925
927
924
923
920
920
922
924
921
917
915
915
917
916
916
911
910
909
911
914
912
911
911
911
910
913
913
911
910
912
914
916
916
915
915
916
921
925
925
927
929
933
937
941
943
945
947
950
955
959
964
963
967
971
977
983
986
986
989
992
997
998
1003
1003
1004
1005
1006
1008
1010
1010
1006
1007
1010
1014
1013
1011
1009
1010
1009
1010
1010
1007
1004
1003
1005
1006
1004
1001
999
997
999
1001
999
997
993
995
1000
1001
1004
1002
998
999
1000
1002
1001
998
999
1001
1002
1005
1006
1007
1007
1006
1009
1009
1011
1007
1001
1001
1004
1008
1006
1006
1005
1006
1008
1012
1007
1001
