902
901
901
901
903
908
909
911
911
914
920
919
926
932
933
935
939
944
950
953
955
955
961
966
971
973
976
975
980
985
989
990
994
993
998
1000
1005
1006
1005
1002
1004
1007
1008
1010
1010
1007
1009
1010
1011
1010
1007
1006
1005
1006
1008
1006
1005
1001
999
999
999
998
997
994
993
997
997
999
997
996
996
1000
1001
1001
999
995
996
998
1005
1002
1003
1001
1004
1005
1009
1009
1009
1007
1005
1005
1006
1004
1003
1004
1002
1006
1007
1009
1006
1002
999
995
992
985
982
972
967
966
964
960
956
955
955
955
955
955
952
953
954
955
957
955
954
953
953
957
959
960
958
953
955
958
960
960
959
957
958
961
962
962
960
958
959
962
964
964
962
960
960
963
964
963
962
960
963
966
967
966
965
962
961
960
957
957
959
961
976
1004
1034
1064
1089
1110
1133
1152
1178
1208
1239
1267
1299
1326
1341
1351
1349
1344
1338
1327
1305
1267
1229
1194
1161
1131
1100
1066
1023
980
938
909
881
859
838
823
816
814
816
819
820
821
822
823
833
843
848
853
860
867
874
879
880
883
890
895
898
901
902
902
902
905
908
907
903
901
904
903
904
902
900
896
896
899
897
896
895
893
894
893
893
892
889
886
890
889
891
892
888
888
890
890
892
891
892
890
894
896
897
900
901
902
904
907
913
913
914
915
918
925
931
934
936
938
940
946
952
956
958
959
960
967
974
979
979
980
984
986
990
992
991
995
996
1000
1003
1005
1004
1001
1003
1002
1003
1002
1001
999
1000
999
999
997
995
991
993
992
992
990
989
986
987
986
985
986
985
984
986
989
990
991
988
986
988
987
993
991
992
991
993
998
1000
1001
1001
1000
996
1000
998
999
996
995
995
997
1001
999
999
995
992
987
981
975
968
964
959
958
955
952
950
948
948
949
951
949
949
950
947
948
951
950
949
946
950
949
953
953
951
950
950
951
954
951
952
953
953
956
957
958
958
955
958
961
961
962
960
961
961
962
963
963
964
961
961
959
959
957
957
963
981
1007
1037
1069
1096
1119
1136
1150
1176
1200
1223
1248
1272
1291
1303
1299
1295
1290
1283
1268
1243
1207
1174
1142
1115
1092
1064
1030
987
951
923
899
880
860
844
832
826
828
826
829
831
831
834
838
851
857
863
865
872
877
883
888
892
897
900
905
907
909
910
909
908
909
911
911
907
905
906
908
908
907
904
901
902
903
902
901
900
897
896
899
898
896
895
893
894
897
898
897
897
895
897
898
902
901
903
900
905
906
909
912
913
910
918
922
925
930
930
934
936
940
944
950
951
952
956
961
968
971
970
972
975
981
983
988
989
988
994
995
999
1001
999
999
1000
1003
1005
1005
1005
1002
1003
1003
1004
1001
1001
997
1000
998
1000
997
993
992
992
991
990
987
987
984
987
990
991
992
995
993
994
995
995
997
997
998
998
1003
1007
1007
1007
1006
1008
1010
1010
1008
1005
1004
1005
1008
1009
1010
1008
1005
1002
1001
994
989
982
977
971
970
966
960
958
956
958
957
960
960
957
956
956
959
960
960
957
956
958
959
962
963
960
959
958
960
961
961
961
957
959
963
962
963
962
960
963
964
967
966
965
962
965
968
970
968
968
965
967
971
972
971
965
959
956
957
967
980
1006
1034
1063
1091
1114
1128
1144
1166
1198
1226
1253
1278
1292
1300
1303
1300
1301
1292
1273
1240
1202
1173
1149
1126
1098
1065
1027
987
957
931
899
875
857
849
841
838
839
841
840
843
846
849
855
864
872
880
886
887
892
893
898
906
911
912
914
914
917
919
920
919
917
915
917
915
917
916
914
913
912
912
914
913
911
909
908
909
910
909
908
904
906
906
908
905
906
904
903
908
908
909
907
907
910
911
916
915
917
918
921
926
929
932
932
933
937
944
947
951
953
953
957
964
967
974
976
976
980
986
988
991
995
995
999
1002
1005
1008
1009
1007
1010
1013
1015
1016
1015
1010
1013
1015
1016
1016
1014
1013
1015
1014
1015
1015
1011
1008
1008
1008
1009
1007
1004
1002
1003
1004
1006
1006
1006
1007
1008
1010
1012
1008
1005
1005
1008
1013
1015
1018
1016
1013
1016
1018
1022
1019
1013
1007
1011
1013
1017
1019
1018
1016
1016
1014
1012
1005
996
988
984
981
978
973
967
965
966
967
967
966
964
963
962
966
969
967
966
963
963
969
970
971
969
967
968
968
971
972
970
969
971
972
975
974
975
973
974
976
976
976
976
973
973
977
978
979
978
974
974
972
971
969
966
967
976
996
1024
1052
1080
1102
1120
1140
1162
1190
1218
1245
1272
1297
1314
1324
1324
1318
1314
1302
1278
1238
1200
1168
1141
1113
1081
1040
995
955
923
897
873
859
849
841
841
842
843
844
843
845
849
860
870
878
881
885
887
893
903
907
911
913
917
917
924
925
924
921
921
919
923
922
918
918
917
919
919
917
916
911
913
912
915
912
912
909
909
908
911
910
908
903
906
908
907
910
907
905
905
909
911
914
912
910
912
916
918
920
920
921
924
928
932
936
935
937
940
945
951
954
955
958
960
965
970
972
977
976
979
986
991
991
995
995
998
1003
1006
1010
1010
1011
1012
1015
1018
1019
1018
1015
1018
1019
1019
1017
1020
1016
1016
1015
1016
1015
1013
1010
1008
1011
1011
1010
1007
1003
1004
1004
1005
1006
1005
1004
1005
1008
1012
1012
1010
1007
1009
1010
1009
1013
1013
1013
1013
1018
1019
1019
1017
1013
1013
1013
1012
1011
1010
1010
1009
1011
1015
1013
1012
1007
1005
1000
992
987
981
976
971
968
969
966
964
964
963
963
963
966
964
963
964
962
963
966
964
961
962
963
966
966
965
961
964
965
967
969
967
966
965
966
969
971
969
967
966
968
972
974
972
969
972
973
977
976
973
971
971
972
970
964
962
961
967
983
1010
1038
1067
1092
1116
1135
1152
1179
1209
1238
1266
1296
1321
1334
1336
1336
1333
1324
1308
1272
1227
1192
1161
1131
1102
1066
1025
979
943
915
889
867
847
834
829
827
828
835
838
835
837
841
851
858
863
868
875
881
885
887
894
896
901
906
911
911
910
910
912
914
915
916
912
909
910
910
910
909
906
905
906
906
905
903
902
898
900
899
900
899
897
896
895
896
898
895
898
894
895
897
898
900
900
900
900
905
908
911
910
910
910
915
919
925
924
926
927
933
939
941
943
943
948
953
956
960
961
960
966
971
976
977
979
979
983
987
990
992
994
994
996
1001
1005
1005
1004
1002
1005
1010
1010
1011
1008
1008
1008
1009
1010
1007
1006
1004
1004
1004
1006
1004
1000
997
994
996
997
994
993
991
992
993
995
994
995
995
996
997
995
997
993
993
992
994
995
995
996
998
1001
1006
1007
1007
1007
1000
1004
1003
1004
1002
1001
1000
998
1001
1005
1005
1003
1001
1001
997
993
986
981
975
971
967
965
961
961
957
957
956
958
957
954
954
956
956
958
959
958
956
958
960
960
961
959
955
958
959
962
964
962
958
960
961
964
964
963
960
962
962
963
961
962
962
965
968
966
967
967
963
966
971
966
962
961
960
971
990
1024
1058
1087
1109
1125
1139
1159
1183
1205
1225
1249
1267
1273
1273
1267
1259
1249
1233
1206
1174
1147
1118
1093
1070
1040
997
955
923
898
879
862
847
840
836
838
842
844
844
845
846
855
861
871
877
878
883
887
892
897
902
906
907
911
915
916
920
915
913
912
912
914
915
913
911
912
911
913
911
909
907
907
908
909
907
907
905
903
907
908
906
906
905
905
909
909
910
908
908
910
913
915
916
915
913
914
921
923
928
927
929
931
937
940
942
942
943
948
949
958
961
962
963
967
971
975
979
981
981
985
988
991
993
994
993
995
1000
1002
1006
1006
1006
1007
1009
1008
1009
1007
1005
1005
1007
1007
1007
1007
1003
1003
1006
1005
1005
1004
999
997
997
998
999
996
994
994
996
997
998
999
997
999
1001
1000
1000
998
997
995
996
999
1000
1000
1001
1005
1006
1011
1011
1009
1009
1005
1008
1006
1004
1003
1000
1004
1005
1007
1006
1006
1005
1002
1000
997
990
983
978
977
974
972
968
965
960
959
961
963
961
960
957
960
961
962
963
961
959
959
961
961
963
962
958
960
963
965
966
966
964
965
968
967
969
968
964
967
966
969
971
968
969
970
970
973
972
970
972
971
973
975
975
973
969
966
967
967
969
974
989
1016
1045
1070
1094
1109
1118
1134
1156
1179
1208
1228
1241
1253
1260
1258
1255
1248
1235
1215
1185
1160
1140
1119
1093
1069
1041
1008
974
944
914
892
875
864
858
851
850
855
856
862
860
864
867
877
884
891
895
898
897
903
911
919
921
924
923
923
928
930
931
927
927
925
927
931
928
925
922
922
924
924
922
921
918
916
921
920
922
919
916
915
917
920
920
918
917
918
920
921
921
923
922
920
925
927
929
927
929
930
933
938
937
941
940
943
947
951
954
956
956
960
964
970
972
977
978
982
985
991
993
992
992
995
998
1003
1006
1003
1006
1008
1012
1015
1019
1016
1015
1016
1020
1020
1024
1017
1012
1016
1019
1019
1016
1016
1011
1010
1010
1013
1011
1010
1008
1008
1008
1007
1009
1009
1006
1009
1010
1013
1014
1012
1010
1011
1014
1017
1016
1014
1013
1014
1018
1023
1025
1023
1024
1022
1025
1027
1023
1020
1018
1017
1020
1020
1020
1018
1018
1020
1020
1022
1019
1013
1006
1002
1000
997
992
987
982
978
976
977
975
973
972
970
972
973
974
973
970
970
973
975
975
972
968
970
975
974
974
974
971
970
973
976
976
975
974
974
976
978
977
977
977
978
979
980
982
980
979
981
981
986
986
984
982
982
986
987
985
980
976
973
976
977
976
983
1001
1027
1053
1078
1099
1111
1120
1139
1164
1191
1215
1237
1255
1271
1284
1288
1288
1288
1279
1267
1249
1219
1191
1165
1145
1123
1101
1072
1035
1000
968
940
917
901
885
874
864
860
860
863
863
865
864
865
871
882
885
894
896
902
905
911
914
918
918
923
930
932
935
934
933
933
933
936
936
934
932
932
931
932
931
930
928
926
928
928
928
926
923
923
924
926
924
923
920
922
920
923
923
922
917
920
921
923
925
925
923
926
927
927
932
934
931
935
941
944
945
946
945
948
953
958
960
962
961
966
971
974
977
978
979
983
988
993
995
995
997
999
1004
1006
1009
1010
1009
1014
1018
1021
1023
1022
1020
1023
1027
1028
1027
1028
1024
1027
1027
1030
1028
1027
1023
1025
1025
1028
1025
1024
1023
1021
1022
1022
1020
1018
1016
1014
1014
1018
1017
1020
1017
1020
1023
1020
1024
1019
1017
1016
1021
1020
1019
1016
1015
1020
1023
1027
1025
1026
1025
1026
1028
1027
1026
1024
1019
1021
1022
1024
1024
1022
1018
1022
1026
1026
1025
1018
1013
1008
1005
1000
994
989
983
979
981
979
977
974
972
970
973
973
974
975
973
973
975
976
977
976
974
973
975
978
979
976
977
975
979
980
977
979
974
979
981
982
980
976
978
979
979
982
981
981
978
978
981
983
986
982
981
983
986
989
988
985
982
980
980
978
973
975
976
986
1007
1030
1056
1078
1098
1117
1130
1149
1174
1197
1222
1249
1272
1291
1307
1310
1311
1314
1311
1305
1287
1258
1219
1191
1169
1150
1126
1093
1059
1024
992
965
936
914
890
875
865
858
854
852
849
851
855
856
858
858
862
871
879
888
893
897
899
901
909
913
919
923
923
925
927
930
933
931
928
930
930
930
929
926
924
922
923
925
925
922
920
920
920
921
920
919
915
914
917
919
917
915
913
912
917
916
915
915
912
914
916
918
917
918
917
921
925
926
928
926
929
928
936
939
941
942
944
947
953
956
959
963
962
968
973
975
981
979
982
985
990
997
1000
999
1001
1007
1007
1013
1016
1016
1015
1017
1020
1021
1021
1022
1019
1023
1023
1024
1024
1022
1019
1020
1022
1021
1022
1019
1017
1017
1013
1016
1016
1012
1010
1007
1010
1013
1013
1013
1013
1014
1016
1017
1016
1015
1013
1012
1011
1012
1011
1011
1011
1015
1017
1021
1022
1018
1019
1018
1018
1019
1018
1015
1012
1013
1016
1018
1018
1018
1015
1015
1014
1009
1002
997
990
987
986
982
979
973
970
972
973
973
973
969
971
970
972
970
972
971
968
970
974
974
974
972
970
971
970
974
975
974
972
972
974
976
976
972
973
975
978
977
979
978
976
976
981
983
985
984
980
981
980
980
979
972
968
969
970
977
988
1009
1035
1064
1093
1115
1131
1145
1167
1197
1226
1256
1281
1303
1316
1322
1324
1322
1315
1301
1273
1239
1207
1179
1148
1119
1085
1051
1015
977
944
914
888
867
855
848
845
839
841
842
845
847
853
856
864
871
882
888
892
892
892
898
905
910
913
916
915
917
922
922
921
921
917
917
917
918
917
917
912
913
912
914
911
909
907
904
906
906
905
902
904
904
905
904
906
904
902
904
905
907
906
906
904
905
907
910
912
909
910
913
915
920
923
924
924
927
933
937
939
941
942
945
951
956
959
960
961
964
970
974
979
980
980
984
990
995
997
996
998
1000
1004
1006
1008
1007
1005
1006
1008
1009
1010
1008
1007
1008
1010
1012
1010
1008
1004
1003
1001
1004
1004
1000
998
995
997
998
997
996
992
992
997
998
998
996
994
995
999
1000
996
992
989
989
993
998
1003
1003
1002
1002
1005
1006
1005
1004
1003
999
1000
1002
1002
1001
1002
1005
1005
1006
999
992
984
983
980
978
973
967
962
958
960
962
961
960
955
953
958
960
960
959
958
959
962
961
962
961
958
959
960
960
962
961
959
961
963
964
963
963
961
961
964
965
966
965
966
963
966
967
970
967
968
966
968
965
963
962
964
975
1003
1035
1067
1092
1110
1126
1144
1170
1195
1219
1242
1263
1277
1280
1279
1269
1254
1238
1206
1171
1140
1111
1085
1058
1025
988
953
918
893
870
859
849
844
839
839
841
846
848
848
852
860
865
873
882
882
886
889
895
899
906
908
910
912
913
916
917
916
917
913
910
914
916
913
913
909
909
911
911
910
907
907
906
907
907
906
904
901
901
903
905
902
903
901
901
905
903
907
903
905
906
910
913
913
913
913
917
921
926
927
928
929
935
940
942
944
947
950
953
958
963
965
967
968
972
977
979
981
981
981
985
988
991
992
994
992
995
997
999
1001
1001
998
1001
1002
1004
1000
999
997
997
995
999
997
995
993
995
993
992
991
988
986
985
983
987
985
984
984
984
985
990
988
986
986
986
989
990
986
984
980
984
988
992
993
995
994
994
997
998
998
995
991
994
994
997
997
994
995
996
994
995
989
982
976
970
965
963
957
952
950
949
954
955
954
950
948
949
952
952
954
952
950
952
953
955
956
955
953
953
956
957
956
956
957
956
957
960
960
959
955
958
960
962
963
961
960
957
961
965
965
964
963
963
963
966
961
957
955
954
962
978
1003
1030
1057
1080
1100
1110
1122
1141
1165
1187
1208
1228
1238
1238
1234
1232
1224
1215
1196
1165
1139
1119
1102
1079
1053
1019
983
952
929
908
887
870
858
852
848
852
854
853
854
854
861
871
878
883
886
891
894
900
904
908
911
913
918
921
922
923
920
922
923
922
921
920
919
918
917
920
919
915
914
915
916
916
917
915
913
912
914
913
913
912
911
913
911
914
916
913
913
913
915
918
921
920
918
920
921
923
928
929
929
932
937
940
942
944
943
947
952
956
960
960
964
966
972
977
977
978
978
983
987
990
994
995
994
994
1002
1004
1004
1004
1007
1006
1007
1008
1011
1009
1007
1007
1010
1011
1008
1009
1006
1005
1006
1007
1008
1007
1001
1003
1003
1003
1001
999
996
997
1000
1002
1001
1001
999
1001
1004
1007
1006
1005
1001
1001
1004
1007
1008
1009
1008
1008
1012
1016
1014
1012
1010
1010
1010
1010
1010
1006
1005
1007
1010
1012
1015
1011
1009
1007
1001
996
991
984
979
975
971
970
968
966
964
963
963
964
965
962
963
962
963
964
965
961
960
959
964
966
965
964
963
964
966
968
967
966
963
966
967
969
968
969
966
969
971
973
973
972
971
973
975
974
975
971
964
963
962
965
971
983
1000
1026
1055
1080
1094
1107
1124
1150
1179
1208
1229
1247
1253
1258
1260
1257
1246
1224
1192
1161
1140
1117
1092
1059
1022
985
957
931
906
885
868
861
857
856
857
857
853
858
862
871
878
883
887
893
896
903
904
910
911
914
919
925
926
924
924
924
924
924
923
921
917
917
920
920
920
915
914
913
914
917
914
912
908
912
912
915
911
911
910
910
912
913
912
912
909
911
914
915
918
919
916
919
923
928
930
930
930
931
938
942
945
941
946
949
952
955
959
961
961
966
970
975
979
979
980
986
990
992
995
994
997
997
1001
1005
1006
1005
1004
1006
1007
1010
1011
1008
1008
1010
1010
1013
1011
1009
1008
1008
1006
1009
1009
1005
1001
999
1002
1001
1001
998
996
994
997
997
994
992
990
992
996
1000
1000
1000
1001
997
998
999
999
998
996
998
999
1002
1004
1006
1006
1009
1011
1011
1010
1006
1003
1002
1002
1008
1005
1003
1003
1003
1008
1007
1007
1002
996
992
990
986
979
975
971
969
963
964
963
961
958
957
960
963
960
961
959
958
960
963
962
962
958
959
959
964
965
962
962
962
962
966
967
964
963
963
965
967
967
964
964
967
967
969
969
968
965
968
970
972
973
969
968
965
967
962
960
957
961
976
1002
1034
1065
1086
1098
1115
1138
1166
1195
1218
1241
1261
1277
1285
1283
1281
1270
1258
1234
1202
1172
1145
1117
1094
1064
1026
989
953
921
894
876
865
854
849
843
844
848
849
848
850
853
859
869
877
880
885
886
891
894
902
906
910
911
911
917
920
920
920
919
915
919
919
918
917
914
913
915
913
915
913
909
909
911
912
912
911
906
906
906
908
902
902
902
902
903
906
907
905
902
902
904
909
910
911
907
909
914
919
918
920
920
922
926
930
931
935
935
940
943
947
948
951
953
956
958
967
965
967
966
972
979
981
984
986
984
987
990
994
997
994
993
1000
999
