992
991
986
986
986
987
987
983
983
979
984
986
989
988
990
986
988
989
987
989
991
992
993
994
998
999
999
997
1001
1003
1005
1003
999
996
998
1002
1006
1005
1002
1001
1000
1000
997
991
983
975
971
967
966
959
955
949
952
952
955
953
951
950
951
954
955
954
953
952
954
955
954
956
955
953
955
955
958
957
956
957
958
960
961
960
960
958
959
960
961
961
959
957
958
962
962
961
963
960
962
963
966
963
962
955
954
953
957
962
975
999
1032
1064
1095
1117
1133
1155
1187
1223
1252
1283
1312
1333
1345
1352
1351
1346
1331
1299
1259
1215
1179
1146
1108
1069
1025
982
943
915
883
856
837
826
821
820
819
817
823
826
827
831
837
844
856
864
869
872
877
883
888
894
902
907
903
904
905
910
907
908
901
901
899
902
903
902
900
898
898
898
896
897
895
891
893
893
895
893
890
889
892
892
894
893
888
889
890
892
893
892
894
892
891
896
898
898
900
902
907
908
913
913
916
916
919
925
928
930
931
932
939
944
948
948
952
954
958
964
968
969
973
975
978
983
987
988
990
992
995
1001
1001
1002
1002
1000
1004
1009
1010
1008
1009
1005
1007
1009
1009
1007
1005
1004
1003
1004
1005
1002
999
998
998
998
997
995
992
989
989
991
990
986
984
983
982
986
987
986
987
987
990
992
992
992
991
987
990
993
996
996
999
999
1002
1006
1007
1008
1006
1001
1003
1004
1002
1005
1005
1003
1005
1008
1010
1003
1002
991
985
981
977
972
966
960
958
962
960
960
957
954
954
958
958
957
955
953
956
957
960
960
959
955
957
959
960
959
960
957
959
960
960
961
959
958
957
963
964
963
961
961
963
967
968
968
965
967
967
968
967
964
957
952
956
960
970
991
1021
1052
1087
1115
1138
1159
1187
1220
1255
1289
1321
1343
1352
1352
1350
1346
1324
1285
1244
1201
1167
1135
1102
1061
1013
966
929
902
874
851
830
820
817
818
823
823
826
825
830
841
853
859
868
869
874
879
886
891
894
896
902
902
906
907
905
903
904
905
906
904
903
902
902
901
902
902
899
895
896
896
896
894
892
891
892
891
892
891
889
888
889
891
894
891
891
889
891
892
896
895
897
895
898
900
905
906
909
908
914
920
922
925
925
927
932
937
942
945
948
948
956
960
964
967
966
972
974
980
984
986
987
991
995
998
1000
1001
1002
1000
1003
1005
1009
1009
1007
1008
1007
1010
1009
1006
1007
1006
1006
1007
1007
1006
1002
1000
999
999
1002
996
995
994
992
994
994
994
992
989
986
988
989
989
986
985
990
993
995
994
992
990
993
994
999
999
998
998
1002
1005
1006
1006
1006
1004
1002
1005
1002
1001
1001
998
1002
1007
1009
1007
1004
1000
997
993
989
980
974
968
964
963
961
959
957
954
952
954
956
956
954
953
953
955
958
956
957
953
955
958
959
961
959
959
958
960
962
960
960
959
962
961
966
964
965
961
966
967
967
967
965
966
966
969
971
969
966
964
962
960
959
958
956
965
992
1023
1059
1090
1115
1131
1155
1185
1214
1249
1278
1308
1335
1353
1360
1357
1352
1338
1310
1269
1229
1188
1153
1114
1077
1030
982
939
906
876
850
834
826
822
820
820
827
829
830
836
843
851
862
870
875
878
882
884
893
898
903
907
908
909
911
911
911
910
907
903
905
906
906
905
903
897
899
902
900
900
897
896
895
897
898
893
892
891
891
894
894
892
888
890
891
892
893
893
894
895
899
902
904
905
905
904
908
912
917
918
918
921
927
932
937
940
944
945
949
954
960
964
965
965
970
976
980
981
986
987
991
993
997
998
1003
1003
1003
1008
1009
1011
1008
1008
1010
1012
1011
1011
1009
1006
1009
1008
1009
1006
1004
1000
999
1002
1001
997
995
993
994
996
995
993
990
988
989
990
989
987
989
988
992
995
994
995
995
993
994
996
997
998
998
996
999
1002
1004
1005
1005
1004
1007
1006
1006
1005
1004
1000
1004
1006
1009
1009
1008
1005
1007
1008
1005
999
994
986
983
981
977
972
966
963
961
962
964
963
961
954
957
959
960
959
958
956
961
960
963
961
962
958
961
962
963
964
962
959
962
964
966
968
965
964
962
966
966
967
968
962
965
965
969
968
968
968
968
972
973
973
970
966
966
967
962
959
956
959
971
996
1026
1057
1087
1112
1137
1157
1187
1217
1249
1276
1310
1338
1357
1367
1368
1364
1361
1354
1329
1291
1246
1204
1169
1138
1106
1067
1020
974
941
913
889
861
838
825
821
819
821
823
824
824
829
832
835
842
850
856
866
872
876
880
884
887
893
901
906
906
910
907
909
911
913
910
909
906
906
909
909
907
903
901
901
901
903
901
900
897
897
898
899
896
893
890
891
892
893
894
891
890
890
893
891
893
892
891
893
894
896
898
899
899
904
905
907
909
911
909
913
918
923
925
927
928
930
934
937
943
943
945
948
957
959
961
964
966
970
975
980
982
984
985
990
994
998
999
1000
1001
1004
1007
1011
1011
1010
1009
1009
1012
1016
1016
1014
1011
1012
1013
1013
1011
1010
1007
1005
1005
1005
1004
1001
997
998
997
1001
997
997
994
994
994
994
992
991
988
989
991
992
993
990
992
997
997
1000
997
997
995
993
997
1001
1002
1001
1001
1005
1009
1011
1011
1009
1008
1008
1010
1008
1007
1005
1005
1006
1008
1009
1010
1009
1007
1005
1006
1005
998
991
985
982
983
979
974
971
965
965
965
963
965
963
959
959
962
963
963
960
960
961
965
966
964
963
961
962
965
966
965
966
963
965
964
965
968
967
965
966
969
968
966
968
968
968
970
973
972
972
970
970
973
977
975
975
973
975
976
977
976
973
969
967
970
972
972
977
992
1019
1048
1077
1102
1125
1147
1167
1188
1217
1244
1272
1300
1328
1348
1359
1366
1364
1355
1348
1332
1298
1254
1213
1177
1146
1121
1087
1051
1007
965
935
911
887
863
845
830
825
824
825
828
828
829
829
834
843
852
859
865
871
879
884
886
890
896
902
909
912
911
913
913
913
915
915
914
913
909
910
911
914
912
908
906
907
907
905
906
904
900
901
901
899
901
898
897
898
899
900
900
896
893
896
897
901
904
902
900
902
905
906
909
909
910
912
915
921
923
924
926
927
932
937
941
941
943
946
954
958
961
964
965
971
973
976
979
980
985
988
992
994
998
999
999
1002
1005
1008
1009
1008
1006
1009
1010
1012
1012
1012
1009
1010
1010
1013
1013
1009
1006
1008
1009
1008
1007
1005
1002
1000
1003
1002
1000
996
995
993
995
994
993
992
988
989
992
993
995
995
994
998
999
998
998
996
995
996
999
1001
1003
1004
1004
1007
1011
1013
1012
1012
1011
1010
1009
1008
1008
1008
1008
1009
1010
1012
1012
1009
1006
1006
1003
997
988
983
976
974
971
972
966
964
963
963
964
964
961
960
959
960
962
963
963
960
958
961
964
964
965
964
962
964
963
965
965
963
962
965
966
969
968
965
964
966
966
971
969
967
967
970
969
973
970
972
970
973
975
976
975
975
971
970
973
970
966
963
963
968
981
1006
1034
1060
1088
1117
1137
1154
1173
1197
1222
1252
1274
1299
1317
1328
1332
1335
1335
1329
1317
1291
1252
1217
1187
1159
1132
1102
1065
1025
987
957
928
899
871
852
841
836
833
831
831
834
838
838
841
844
846
858
868
873
881
881
884
888
895
900
905
907
908
912
914
916
917
917
913
913
915
919
916
911
909
910
910
908
908
907
902
905
908
907
903
902
900
900
902
902
902
899
896
899
900
901
904
901
898
899
901
904
904
906
905
907
911
914
915
919
917
922
927
932
935
938
937
944
949
954
955
959
961
966
971
977
978
979
981
986
989
995
998
999
999
1003
1008
1012
1012
1011
1011
1012
1016
1017
1015
1016
1013
1015
1019
1018
1017
1013
1011
1010
1011
1011
1009
1007
1005
1004
1004
1005
1004
1000
996
998
1001
999
1000
998
997
1000
1001
1006
1005
1004
1001
1004
1007
1011
1013
1012
1012
1016
1020
1019
1019
1019
1015
1016
1013
1014
1014
1014
1014
1015
1018
1020
1016
1010
1004
998
992
988
983
975
970
965
967
965
963
964
958
960
962
964
963
962
961
963
966
965
966
966
964
965
966
968
967
966
966
967
969
972
971
969
966
967
972
971
971
971
969
972
974
973
972
971
971
973
974
978
974
976
971
974
971
969
966
963
964
972
989
1017
1048
1073
1098
1120
1139
1161
1187
1217
1242
1270
1298
1319
1334
1338
1339
1338
1332
1319
1293
1254
1216
1183
1157
1129
1095
1055
1009
969
939
910
884
860
845
839
837
835
835
835
834
839
841
848
856
862
869
873
881
886
890
894
896
903
910
914
918
916
916
917
919
919
917
914
912
912
912
914
911
910
906
907
908
910
905
905
902
901
902
901
901
898
895
895
896
900
900
898
895
896
898
900
902
899
903
904
907
908
909
910
912
915
921
925
930
932
932
937
942
948
952
954
956
961
967
972
976
979
979
982
988
993
996
997
998
1000
1004
1007
1010
1009
1010
1011
1013
1016
1014
1013
1011
1011
1013
1014
1013
1011
1006
1008
1009
1010
1008
1006
1001
1001
1004
1001
999
997
995
995
995
996
993
991
991
996
1001
1002
1002
1001
1002
1002
1001
1001
1005
1005
1002
1005
1010
1011
1012
1010
1008
1011
1012
1012
1010
1008
1007
1011
1011
1013
1012
1013
1009
1007
1006
1003
997
987
981
978
976
974
968
966
962
962
966
964
963
961
960
959
962
962
963
961
960
962
964
966
963
963
963
962
966
967
967
965
964
965
968
969
967
965
963
966
969
970
971
969
967
970
973
974
972
974
969
973
974
975
973
970
965
963
962
960
961
964
979
1006
1036
1065
1093
1114
1135
1159
1188
1222
1250
1281
1306
1327
1340
1344
1344
1341
1330
1312
1281
1243
1207
1177
1147
1118
1085
1043
998
958
925
897
871
851
838
830
824
825
827
832
833
835
836
846
856
865
872
874
876
883
890
897
901
902
904
909
913
916
915
914
913
914
915
915
914
911
909
910
910
910
908
905
902
904
906
905
903
901
898
898
898
900
899
897
895
897
897
899
898
898
899
900
903
905
907
905
907
911
915
920
921
923
924
929
932
937
941
942
943
946
954
958
961
964
964
970
977
981
984
986
989
993
999
1000
1002
1003
1005
1006
1010
1014
1015
1014
1013
1014
1016
1017
1019
1018
1016
1014
1014
1012
1012
1009
1006
1005
1006
1006
1005
1003
997
998
1000
999
998
994
994
995
997
1001
1002
1003
1001
1001
1002
1005
1003
1005
1006
1009
1011
1015
1015
1014
1013
1014
1014
1012
1011
1009
1006
1010
1011
1014
1014
1011
1010
1008
1009
1005
999
989
981
980
978
975
969
965
961
964
963
966
963
962
959
961
965
964
964
961
963
964
966
966
966
964
961
965
964
969
965
966
965
966
968
968
968
967
966
968
971
972
971
972
971
971
974
977
975
975
975
973
976
975
974
969
962
962
963
970
984
1008
1037
1067
1099
1122
1141
1161
1188
1223
1258
1291
1315
1335
1341
1346
1346
1344
1331
1305
1265
1224
1189
1161
1128
1094
1051
1004
962
931
903
877
855
840
833
830
829
831
830
832
835
837
843
849
855
866
875
880
882
886
886
896
901
908
912
908
910
912
915
913
912
911
908
910
911
910
911
908
906
905
908
907
903
902
901
900
902
902
901
900
895
897
897
899
897
895
893
897
896
901
901
900
897
900
903
906
907
907
909
912
916
920
922
921
924
928
931
936
939
942
946
949
955
961
962
963
964
964
974
978
979
982
984
989
993
995
998
1001
1000
1002
1008
1012
1010
1012
1010
1012
1014
1016
1015
1015
1013
1010
1014
1015
1014
1010
1007
1008
1009
1008
1007
1006
1001
1001
1002
1002
998
996
994
993
994
995
994
996
995
998
998
1003
1002
999
998
999
1001
1005
1006
1007
1005
1009
1011
1014
1015
1012
1011
1010
1012
1012
1012
1011
1010
1013
1014
1015
1013
1010
1006
1000
995
991
985
979
971
968
968
965
965
963
961
960
962
964
963
962
960
961
961
963
964
964
960
963
964
966
967
966
965
963
964
968
969
966
963
962
965
969
968
966
966
967
970
972
972
970
967
972
974
974
975
974
972
972
974
974
971
967
961
962
965
976
995
1020
1047
1079
1107
1130
1147
1169
1197
1230
1265
1294
1319
1339
1349
1353
1354
1348
1338
1313
1277
1237
1204
1170
1139
1102
1066
1019
975
942
910
882
855
841
832
831
828
828
830
832
834
837
841
849
856
865
873
880
882
885
890
893
901
904
906
910
909
911
915
914
914
912
909
910
911
913
911
908
903
906
907
905
905
902
897
898
899
899
899
897
894
895
897
898
897
897
895
895
898
900
897
897
897
897
899
904
906
906
906
909
913
915
917
918
920
923
927
931
934
936
940
943
950
955
957
960
959
966
970
977
979
982
983
987
991
997
998
998
997
1002
1004
1009
1009
1007
1008
1011
1013
1014
1012
1013
1013
1013
1015
1015
1015
1012
1010
1009
1011
1011
1007
1006
1005
1000
1002
1003
1001
1000
995
995
995
994
994
992
991
992
995
998
1000
999
995
995
998
998
998
999
999
1001
1004
1008
1010
1009
1006
1010
1011
1010
1006
1003
1003
1005
1008
1011
1011
1012
1007
1007
1004
1000
991
984
979
974
972
969
964
960
959
959
957
959
960
959
957
959
960
962
961
961
959
961
962
964
962
963
961
962
963
965
966
965
962
964
966
969
967
968
967
968
969
972
970
969
968
969
970
974
973
970
970
968
964
965
963
964
970
994
1026
1061
1094
1122
1144
1167
1196
1231
1266
1298
1325
1349
1363
1366
1363
1354
1337
1306
1263
1222
1181
1142
1104
1061
1020
977
937
901
871
846
831
824
818
817
817
822
829
830
835
837
846
856
865
873
876
880
884
891
899
903
907
908
908
909
911
913
911
908
905
904
907
905
905
902
899
900
901
901
901
899
895
896
897
898
895
895
891
890
892
892
891
891
890
892
893
897
894
892
894
895
898
902
901
902
901
903
907
911
913
912
913
920
925
931
932
935
936
940
947
950
951
953
958
962
968
972
975
978
977
983
988
992
994
993
995
999
1003
1007
1008
1006
1005
1007
1008
1011
1010
1008
1005
1005
1007
1010
1008
1006
1001
1001
1003
1001
1000
997
995
993
992
993
990
990
986
984
986
986
987
986
986
987
992
997
995
994
990
991
993
994
994
992
992
994
997
1000
1003
1004
1002
1003
1004
1007
1006
1002
1000
1002
1004
1006
1009
1005
1006
1004
1006
1005
1000
992
985
980
977
976
972
965
961
958
959
959
960
958
955
955
957
958
958
957
955
954
957
959
960
959
955
959
956
957
960
959
959
962
961
963
963
963
961
963
963
964
964
964
966
966
969
970
970
968
968
969
971
971
971
967
964
959
961
963
966
976
995
1030
1062
1094
1122
1141
1158
1179
1208
1237
1262
1290
1316
1334
1339
1341
1336
1325
1306
1278
1237
1203
1163
1130
1097
1064
1026
980
941
905
874
850
833
825
820
816
817
822
824
828
830
837
843
855
863
872
876
878
879
887
894
901
904
903
904
907
910
912
911
909
906
907
908
908
904
901
899
902
900
899
899
897
892
895
897
897
895
893
890
892
892
895
893
892
891
892
894
896
897
896
896
897
901
902
907
906
908
909
913
918
917
921
923
926
930
936
939
941
941
946
949
956
959
961
960
967
971
976
980
982
982
987
992
996
997
999
996
999
1004
1007
1008
1007
1006
1009
1010
1013
1012
1011
1006
1007
1012
1011
1009
1007
1001
1005
1004
1004
1002
999
997
997
999
997
995
993
991
990
994
996
996
994
992
996
1000
1003
1003
1000
998
1000
1002
1000
1003
1005
1004
1007
1010
1011
1013
1011
1010
1011
1012
1014
1010
1010
1004
1007
1009
1010
1011
1012
1007
1010
1010
1012
1006
1001
994
990
986
981
978
972
965
963
961
961
961
959
958
957
958
962
960
958
957
958
961
963
962
960
957
960
961
961
962
961
960
960
961
964
963
962
960
961
962
966
966
966
963
965
967
969
969
968
967
970
971
973
973
971
969
968
971
971
973
968
960
957
958
961
968
982
1004
1036
1063
1089
1112
1126
1141
1168
1197
1228
1256
1282
1304
1324
1331
1332
1333
1324
1309
1286
1250
1217
1183
1154
1123
1095
1066
1025
986
953
923
894
874
859
846
834
827
827
830
834
834
833
831
835
841
854
862
866
869
875
880
885
887
893
898
901
905
909
911
911
910
912
912
914
913
911
907
909
910
909
909
907
902
904
905
902
901
901
898
899
899
902
899
897
895
894
895
895
896
895
891
891
894
895
896
895
893
895
897
900
900
900
900
903
907
910
913
913
913
916
921
925
930
931
930
935
940
943
948
948
950
956
958
965
966
966
969
973
975
979
983
986
984
988
992
995
998
999
1001
1005
1006
1008
1011
1008
1009
1010
1013
1014
1016
1012
1011
1010
1014
1013
1010
1012
1007
1006
1010
1010
1007
1007
1002
1004
1004
1003
1003
998
996
994
997
997
997
995
993
998
1000
1004
1004
1003
1000
999
1003
1004
1004
1005
1004
1007
1008
1011
1011
1013
1008
1009
1013
1016
1012
1009
1004
1006
1008
1009
1012
1011
1009
1010
1011
1012
1010
1003
1000
994
990
985
981
975
967
965
965
962
962
960
958
957
958
960
960
958
956
958
958
962
961
961
961
960
964
965
965
963
962
962
963
965
965
965
962
962
963
967
967
967
965
965
967
968
967
967
964
968
970
970
970
970
967
968
971
975
974
970
968
969
968
971
966
960
956
959
964
976
995
1020
1045
1074
1101
1125
1142
1160
1189
1221
1251
1280
1306
1328
1340
1346
1346
1346
1338
1323
1289
1251
1215
1186
1156
1127
1093
1056
1016
976
939
904
875
851
839
831
826
823
825
828
831
834
835
840
847
855
865
873
877
878
880
885
894
896
901
905
903
906
909
914
914
913
909
908
910
909
909
906
904
904
906
906
906
901
898
900
902
901
901
897
895
896
897
897
897
896
893
894
895
897
895
892
892
897
899
