990
990
987
985
984
984
985
987
984
979
979
979
979
978
978
979
978
981
981
980
977
972
975
976
976
977
976
971
972
975
977
974
974
971
971
977
973
976
974
972
975
974
976
977
975
973
972
973
979
978
973
974
975
979
981
983
983
985
992
998
1010
1021
1032
1042
1053
1058
1058
1049
1029
1011
1000
1006
1019
1041
1066
1094
1121
1140
1157
1159
1149
1122
1098
1083
1065
1047
1020
995
971
951
938
923
915
910
911
917
929
936
943
946
954
960
964
964
963
957
958
966
968
968
964
963
965
969
973
972
970
969
970
971
974
972
971
967
968
972
977
977
975
973
975
980
983
982
985
982
982
989
993
994
994
992
994
997
1001
1003
1003
1001
1007
1013
1014
1018
1020
1019
1020
1025
1030
1033
1031
1032
1034
1037
1041
1042
1042
1044
1046
1050
1052
1053
1052
1050
1052
1055
1060
1052
1049
1043
1040
1037
1036
1030
1024
1017
1013
1013
1011
1006
1002
996
993
995
995
994
989
985
986
987
988
986
985
980
980
982
986
982
982
979
977
983
984
983
981
977
978
981
984
982
980
979
979
980
983
984
981
979
978
980
982
982
979
980
980
982
984
983
981
980
978
981
985
984
980
979
979
979
982
980
979
974
975
977
979
979
977
975
973
975
978
976
972
971
972
975
978
976
975
972
970
972
976
976
972
971
971
973
975
974
972
968
968
971
975
976
970
969
971
971
977
978
976
974
974
977
981
982
979
976
978
982
985
985
983
983
984
985
986
985
982
975
980
983
982
978
974
972
972
972
977
971
970
967
965
968
967
967
965
962
963
965
963
962
962
960
960
965
962
961
959
956
956
957
962
958
956
951
953
954
959
956
955
955
953
959
962
961
959
954
955
958
960
958
956
955
954
956
959
956
954
954
957
957
962
964
962
967
973
981
992
1003
1016
1027
1038
1046
1049
1040
1025
1004
987
979
985
998
1022
1049
1081
1109
1129
1140
1142
1127
1111
1091
1074
1051
1027
1002
979
958
943
928
915
903
904
906
912
915
920
923
930
938
942
944
944
939
938
941
944
943
943
943
944
946
950
949
947
943
944
946
950
948
948
942
949
948
953
952
954
954
954
957
959
961
958
956
963
965
970
972
970
969
971
974
978
980
979
981
985
989
993
997
998
998
999
1005
1011
1014
1013
1011
1015
1019
1022
1024
1024
1025
1028
1032
1037
1038
1039
1035
1037
1039
1036
1034
1026
1021
1015
1012
1010
1005
998
990
987
990
986
984
979
973
973
973
975
971
969
965
963
964
966
967
963
962
962
963
966
966
961
960
958
962
966
963
961
960
963
963
962
967
965
958
958
963
968
967
965
963
962
965
969
970
964
963
962
964
968
965
968
964
963
965
967
969
965
962
963
966
967
966
964
958
959
965
965
964
964
962
963
965
969
967
961
960
961
965
965
965
960
960
958
962
965
965
964
962
966
965
973
972
971
969
968
972
974
977
977
975
975
976
985
981
980
978
978
980
982
982
976
971
973
972
974
975
973
969
969
969
969
969
963
960
961
963
967
961
958
955
958
963
968
966
964
959
959
960
963
960
960
956
956
959
959
962
959
957
957
962
963
963
961
957
961
963
965
967
963
960
960
965
965
968
964
964
964
969
971
971
971
970
972
979
988
991
995
1001
1020
1034
1047
1057
1063
1066
1062
1052
1041
1023
1009
1008
1016
1034
1057
1080
1101
1119
1134
1142
1137
1122
1099
1079
1065
1049
1037
1023
1004
985
967
955
946
938
933
931
933
938
953
956
957
957
959
962
964
963
962
961
962
963
968
967
968
963
963
966
970
970
966
964
966
970
970
971
969
968
969
973
977
978
974
973
975
976
984
984
984
983
982
988
995
997
995
993
996
1002
1004
1010
1010
1009
1013
1015
1023
1026
1026
1025
1027
1030
1037
1038
1039
1038
1042
1047
1051
1056
1058
1059
1059
1062
1069
1067
1066
1061
1060
1058
1057
1051
1044
1039
1035
1033
1031
1024
1020
1012
1013
1011
1014
1010
1007
1003
1000
1003
1006
1004
1000
997
997
999
1001
1002
996
992
995
994
1000
997
996
994
990
997
997
998
996
995
995
996
1000
1000
999
999
997
1000
1001
998
1000
999
995
1001
1003
1003
1000
997
996
1000
1003
1001
996
995
996
997
1003
1001
996
995
995
995
998
999
996
991
991
993
997
996
992
993
993
993
999
995
989
989
991
993
997
995
994
993
990
994
996
995
992
991
990
992
996
994
992
989
991
996
1001
999
1000
995
997
998
1006
1006
1003
1004
1005
1009
1011
1009
1004
1002
1000
1004
1004
1002
996
994
990
993
996
996
992
990
984
988
990
990
987
986
984
982
984
985
984
981
980
981
983
981
977
975
977
978
982
982
978
975
977
979
980
983
979
975
976
979
982
982
977
976
976
979
982
979
980
975
977
979
984
984
988
986
992
999
1014
1027
1040
1052
1064
1070
1070
1062
1043
1027
1021
1034
1058
1086
1116
1141
1162
1177
1186
1171
1145
1113
1093
1075
1051
1023
990
960
940
930
926
926
929
936
942
955
961
964
960
960
957
963
963
966
964
962
961
964
969
968
964
961
963
966
970
969
969
965
966
970
973
973
970
968
970
972
977
978
974
972
973
977
982
982
983
981
982
986
989
991
988
987
989
996
999
1000
1001
1001
1002
1007
1011
1012
1011
1009
1010
1016
1023
1025
1023
1024
1028
1033
1039
1039
1042
1040
1042
1043
1048
1045
1043
1038
1034
1035
1033
1029
1023
1013
1011
1007
1008
1003
1004
996
991
992
991
990
985
986
985
986
988
985
982
976
979
980
984
980
982
979
978
979
983
983
979
979
979
980
984
979
979
977
975
977
976
979
975
973
975
977
981
981
976
975
974
976
980
981
977
975
974
976
978
977
972
972
971
973
975
976
973
970
970
973
974
974
972
970
968
970
975
971
969
966
968
969
970
970
968
966
966
968
972
971
969
965
964
967
969
969
966
961
965
966
964
967
964
964
964
965
968
966
965
963
965
970
973
976
973
969
969
973
976
975
975
973
976
979
984
983
980
976
971
973
976
974
971
967
965
966
968
967
964
963
963
962
963
964
960
958
958
959
959
957
952
950
951
954
957
956
952
949
949
951
953
953
951
947
946
950
951
950
951
946
944
950
954
954
951
948
947
949
953
953
951
949
948
948
953
954
949
949
951
954
957
955
957
957
961
967
977
985
994
1010
1027
1044
1059
1064
1062
1052
1034
1014
1010
1011
1026
1048
1080
1111
1138
1152
1164
1162
1147
1126
1111
1090
1066
1042
1020
995
975
954
934
917
908
905
907
910
911
911
918
926
928
928
929
929
932
934
934
937
934
935
936
937
939
934
935
930
931
935
937
939
938
933
932
938
939
939
939
937
938
939
943
947
946
943
942
946
949
949
950
947
946
950
957
956
956
954
956
961
963
968
967
967
967
975
981
980
982
982
985
987
996
994
996
996
996
1001
1008
1012
1010
1013
1015
1021
1024
1027
1024
1024
1024
1026
1027
1023
1019
1012
1007
1004
1004
999
995
987
985
985
986
981
979
975
971
974
971
975
971
968
966
968
969
969
967
965
963
966
968
968
966
965
967
967
968
968
969
965
967
969
973
970
969
968
967
971
972
973
969
968
969
973
976
974
972
970
970
973
976
977
974
972
974
975
979
978
977
975
976
980
980
984
980
978
975
979
982
982
981
978
979
982
984
985
980
978
979
982
987
986
983
980
982
987
989
988
986
984
981
981
987
988
985
984
985
989
995
994
992
991
991
992
998
998
1000
998
997
1003
1005
1008
1005
1004
1001
1003
1003
1004
999
999
995
997
996
999
994
991
991
991
993
995
991
988
989
989
992
995
990
983
983
984
988
990
989
984
986
983
986
987
984
984
983
985
986
986
984
978
980
983
987
985
984
985
984
984
988
988
985
987
983
985
986
989
988
988
986
987
990
990
990
990
991
996
1001
1008
1011
1011
1022
1036
1055
1070
1080
1089
1095
1093
1091
1078
1066
1059
1064
1079
1098
1120
1145
1164
1180
1200
1212
1212
1194
1170
1152
1138
1128
1109
1088
1065
1042
1022
1002
982
966
952
945
946
952
958
960
966
970
974
977
978
975
972
973
973
976
976
975
972
974
976
976
978
975
973
973
974
977
977
975
975
973
977
980
982
979
977
977
980
982
982
981
981
984
985
991
992
990
987
989
993
994
997
996
997
996
1001
1007
1006
1004
1004
1006
1011
1014
1017
1018
1018
1019
1023
1026
1029
1027
1027
1029
1034
1039
1042
1041
1044
1048
1054
1056
1057
1059
1059
1060
1061
1062
1060
1056
1050
1045
1045
1043
1038
1034
1027
1024
1023
1021
1020
1016
1010
1010
1008
1011
1007
1005
1002
1002
1002
1005
1005
1001
998
999
998
1004
1001
1001
995
998
998
1001
1002
996
994
995
998
1001
1001
999
996
997
999
1003
1004
999
994
997
997
1004
1001
998
1000
997
999
1005
1002
999
997
994
1001
1000
1002
997
997
997
997
1001
1000
998
995
995
997
1000
1002
995
995
994
994
999
1000
996
996
995
998
1001
1000
998
995
994
997
999
999
994
993
992
995
1000
998
997
992
991
994
1000
995
995
990
993
995
998
1001
1002
1001
1001
1004
1006
1006
1007
1003
1004
1009
1013
1013
1012
1010
1011
1012
1013
1014
1011
1006
1007
1005
1008
1007
1004
1002
1000
999
1002
1000
1003
998
996
997
999
1000
995
993
994
993
990
989
988
985
986
987
993
988
989
985
983
983
986
989
985
983
982
985
988
987
983
983
982
980
983
985
985
981
981
982
987
987
985
984
982
985
990
992
989
985
988
989
992
993
993
995
998
1004
1017
1026
1036
1049
1066
1081
1092
1097
1090
1076
1063
1052
1051
1059
1073
1091
1112
1139
1163
1179
1190
1196
1190
1176
1155
1135
1116
1098
1077
1055
1036
1011
986
961
946
935
934
931
934
937
942
951
961
963
964
963
964
966
970
966
965
960
961
964
969
970
968
967
967
970
969
969
967
965
965
967
970
970
969
963
968
973
973
974
974
973
972
975
980
981
981
980
974
981
983
987
989
984
989
992
997
1000
999
999
1003
1006
1010
1013
1014
1013
1015
1020
1027
1028
1027
1026
1029
1035
1039
1043
1043
1041
1045
1048
1055
1051
1049
1045
1043
1038
1038
1033
1028
1022
1019
1017
1014
1010
1005
997
996
993
998
996
992
990
986
987
987
987
986
984
983
983
984
984
982
979
977
979
980
981
981
978
977
980
981
984
977
975
976
980
979
980
977
977
976
978
981
982
976
974
972
974
975
978
977
973
974
977
980
979
981
973
972
973
976
977
976
972
972
976
980
979
975
970
972
976
977
981
975
971
972
975
978
975
972
974
973
977
978
978
973
971
976
979
984
986
984
984
982
984
985
987
985
985
985
989
995
995
995
991
989
991
992
989
989
989
985
986
988
986
980
981
980
980
984
984
979
974
974
975
977
978
968
967
966
967
972
973
974
970
968
967
970
971
966
967
966
968
975
971
969
966
965
967
967
970
970
965
967
966
971
970
969
969
967
970
972
972
970
968
968
971
975
975
974
969
972
983
987
993
996
1000
1009
1023
1038
1050
1059
1072
1074
1079
1073
1061
1048
1034
1040
1053
1069
1091
1111
1130
1151
1168
1177
1170
1151
1126
1107
1092
1080
1064
1040
1014
995
976
961
945
932
924
925
927
937
944
946
947
950
956
962
960
958
953
953
958
962
961
960
956
958
958
962
962
962
958
957
962
963
961
961
959
959
961
967
965
965
963
963
967
970
970
972
970
970
975
977
978
977
978
978
983
984
985
987
987
987
990
994
995
997
997
999
1002
1009
1013
1011
1012
1010
1016
1021
1022
1025
1023
1025
1031
1037
1038
1041
1043
1046
1046
1049
1049
1047
1043
1041
1040
1039
1035
1028
1022
1014
1012
1013
1012
1007
1001
1000
999
1000
999
994
992
989
989
992
991
987
985
984
986
986
986
984
980
980
983
986
984
985
983
979
983
987
983
984
981
982
983
986
986
985
981
982
984
986
986
985
982
983
981
986
987
985
982
981
985
987
986
985
983
979
983
985
984
983
980
980
981
985
984
982
980
976
979
984
983
980
978
978
979
982
980
980
977
977
978
980
979
978
975
972
975
980
981
980
977
978
981
984
986
988
985
986
988
990
990
985
989
989
992
995
998
996
993
992
993
993
994
992
987
986
984
983
983
980
978
979
979
983
981
976
974
971
975
977
970
968
966
962
968
970
974
970
965
966
968
969
970
967
964
960
964
968
968
964
960
961
963
966
966
965
963
961
962
965
966
965
964
963
962
967
969
966
962
963
965
968
970
970
968
971
975
981
985
988
994
1004
1022
1040
1057
1066
1068
1067
1060
1046
1037
1031
1037
1054
1081
1111
1140
1158
1172
1182
1180
1165
1145
1120
1099
1080
1060
1039
1012
981
957
937
925
919
915
912
915
920
933
938
948
949
948
948
947
949
949
951
948
946
951
954
952
950
949
948
949
954
953
950
947
948
952
955
955
951
951
951
954
959
957
957
955
956
957
960
962
963
960
959
964
970
969
966
965
968
974
979
980
979
978
980
987
987
991
992
994
994
998
999
1005
1007
1007
1005
1010
1015
1019
1021
1017
1021
1023
1029
1031
1032
1028
1024
1021
1023
1018
1015
1007
1000
998
998
992
987
981
977
976
977
975
971
964
961
963
965
964
961
956
958
957
961
960
956
954
950
952
957
958
956
952
951
953
953
953
952
951
950
951
952
954
952
950
950
949
949
951
948
945
945
946
950
949
947
943
945
948
948
946
945
947
945
946
947
949
945
945
941
944
948
948
946
944
943
942
944
946
945
941
941
942
944
945
942
941
936
939
939
941
939
940
941
944
945
947
946
944
943
946
950
951
951
949
950
955
958
959
957
952
950
952
954
953
950
948
945
947
947
946
945
942
940
940
941
941
936
933
930
931
934
935
934
931
932
930
932
935
935
931
930
934
934
936
934
930
931
930
931
932
928
926
929
930
933
936
931
929
930
934
936
933
934
932
932
933
936
940
937
934
936
936
941
944
943
943
946
953
963
973
981
992
1008
1024
1041
1052
1056
1052
1044
1031
1020
1011
1016
1024
1043
1067
1096
1115
1134
1145
1148
1143
1126
1107
1086
1065
1043
1026
1006
985
958
937
922
908
907
902
900
904
906
911
918
919
921
919
919
919
923
923
923
919
918
919
921
922
921
919
919
922
923
921
919
921
919
923
925
926
925
924
922
925
931
931
931
928
930
934
936
937
937
934
935
937
940
947
944
945
947
949
953
954
955
958
958
962
969
973
974
973
977
982
987
991
992
990
995
1000
1007
1010
1013
1010
1010
1015
1018
1023
1021
1015
1016
1015
1013
1010
1005
999
992
992
992
986
983
975
972
974
974
971
971
968
965
965
966
967
964
960
961
962
965
963
963
961
959
960
962
962
958
958
956
959
963
963
961
962
961
960
966
964
963
961
958
964
968
969
966
963
961
965
970
971
967
966
967
967
969
969
969
965
967
968
971
973
970
968
967
970
972
973
971
969
967
970
973
975
973
970
968
973
973
974
972
966
967
970
969
974
971
968
968
969
972
972
972
971
970
974
977
978
974
976
975
978
982
984
983
982
983
984
986
987
981
980
976
979
980
977
975
972
971
970
972
973
972
971
967
965
971
971
964
957
958
960
966
968
964
959
959
960
963
964
960
952
949
951
955
954
948
940
941
944
948
958
964
965
962
959
961
962
961
957
958
957
959
965
965
967
965
966
969
968
964
964
977
1005
1035
1061
1077
1080
1075
1061
1042
1031
1033
1043
1063
1093
1129
1157
1171
1174
1160
1139
1117
1100
1083
1061
1035
1014
987
964
945
926
920
923
931
939
943
947
948
953
955
956
946
944
944
947
952
954
954
950
951
958
963
966
965
961
959
962
963
968
969
967
965
969
972
975
972
969
970
971
972
973
968
965
967
978
985
993
992
986
987
991
994
998
995
996
997
999
1010
1013
1015
1015
1014
1014
1019
1023
1025
1024
1025
1029
1033
1036
1040
1040
1038
1039
1039
1041
1042
1043
1045
1046
1047
1047
1042
1035
1028
1026
1021
1015
1010
1002
998
999
998
994
991
988
988
989
988
983
974
962
966
972
977
976
978
979
981
983
982
981
977
976
976
974
977
978
974
970
969
971
972
975
975
976
979
980
977
974
967
964
967
969
972
975
971
966
968
966
966
971
971
973
975
978
981
982
982
978
973
972
974
974
975
972
972
974
978
977
974
973
970
974
977
978
976
973
968
969
970
971
974
976
975
979
976
971
963
964
967
969
976
976
973
969
969
970
974
978
973
971
971
973
976
980
982
980
979
982
985
988
989
987
983
984
986
987
987
982
984
984
989
988
987
985
980
980
984
983
982
978
971
971
974
976
977
974
974
971
975
980
976
972
970
966
973
973
972
969
965
963
961
963
962
961
959
963
966
964
962
962
961
964
963
964
965
962
962
960
963
964
960
960
961
961
964
966
964
963
962
964
965
968
966
963
963
966
969
969
967
964
963
968
974
980
980
983
991
1004
1018
1021
1016
1010
1001
993
979
960
943
934
937
951
974
1003
1032
1055
1073
1084
1090
1079
1057
1032
1012
998
978
958
938
918
910
905
910
916
922
930
936
944
953
958
962
960
962
964
969
969
969
964
963
964
970
973
971
970
970
975
973
976
974
970
967
967
969
974
974
976
975
977
981
983
981
979
977
979
986
991
987
986
990
993
998
1000
1001
1000
1002
1005
1008
1011
1012
1012
1012
1019
1024
1027
1024
1025
1025
1029
1031
1036
1036
1037
1036
1039
1043
1047
1045
1044
1043
1046
1049
1050
1049
1045
1041
1041
1042
1041
1035
1029
1025
1021
1021
1016
1012
1005
998
994
989
984
983
976
976
976
