1015
1016
1020
1022
1020
1016
1016
1016
1017
1020
1016
1015
1015
1016
1018
1019
1017
1014
1014
1015
1018
1019
1016
1016
1014
1014
1013
1016
1015
1010
1011
1015
1017
1016
1015
1015
1013
1015
1013
1014
1019
1016
1019
1021
1024
1026
1028
1023
1024
1023
1027
1030
1032
1028
1029
1033
1037
1037
1037
1030
1028
1029
1032
1032
1032
1026
1022
1023
1021
1023
1022
1014
1012
1015
1019
1018
1016
1012
1011
1012
1011
1012
1010
1006
1005
1006
1010
1012
1012
1006
1005
1007
1006
1007
1004
1003
999
1002
1006
1005
1005
1001
1000
1000
1005
1005
1002
1000
1003
1001
1006
1005
1005
1002
1003
1003
1003
1005
1005
1003
1000
1001
1005
1007
1005
1003
1002
1006
1011
1014
1016
1020
1023
1033
1044
1056
1065
1074
1078
1082
1081
1072
1052
1033
1019
1018
1031
1052
1080
1103
1132
1155
1172
1183
1180
1164
1142
1116
1100
1080
1059
1031
1004
980
964
954
943
939
934
940
945
954
960
969
973
983
989
990
991
991
989
991
994
993
995
993
991
996
998
1002
999
997
995
998
1001
1002
1001
1002
999
1004
1006
1010
1008
1005
1006
1007
1013
1016
1012
1014
1014
1017
1023
1025
1026
1025
1026
1028
1033
1034
1037
1035
1040
1043
1048
1052
1053
1054
1055
1060
1062
1068
1068
1068
1069
1074
1077
1080
1081
1080
1078
1083
1089
1090
1089
1085
1087
1088
1092
1090
1085
1079
1074
1069
1065
1062
1057
1049
1042
1039
1039
1034
1030
1022
1020
1017
1017
1017
1013
1009
1004
1004
1008
1009
1004
1002
1000
1001
1002
1003
1001
997
996
996
1001
1001
1001
996
993
995
998
1001
999
997
993
994
999
996
999
996
996
997
1001
1000
999
994
993
994
998
1000
999
997
995
995
997
999
1000
995
993
993
996
998
996
993
993
995
995
994
990
989
989
993
994
992
992
986
985
989
992
991
991
989
987
988
990
990
990
984
987
986
986
990
988
984
982
984
986
988
988
985
979
985
984
986
986
986
985
989
992
995
994
990
988
992
993
997
995
997
994
999
1004
1004
1003
999
998
998
997
999
998
996
992
993
995
992
989
986
985
985
987
987
982
980
979
980
982
983
979
975
973
971
978
980
977
975
975
975
977
977
973
971
969
971
974
977
973
971
970
967
972
972
972
969
970
972
975
976
974
971
970
970
974
972
973
973
972
975
977
977
977
975
973
971
978
979
977
979
980
986
994
1001
1008
1018
1027
1045
1058
1070
1072
1071
1063
1053
1036
1017
1001
992
1000
1021
1048
1076
1102
1123
1136
1148
1151
1143
1126
1107
1084
1063
1043
1023
998
975
956
944
943
938
932
931
930
936
942
950
956
957
957
960
964
967
965
963
961
961
965
968
967
962
964
967
968
970
969
966
966
968
972
973
972
967
968
973
976
978
975
977
974
977
978
983
985
984
986
987
993
994
996
999
997
996
1003
1007
1008
1007
1013
1014
1021
1025
1028
1028
1031
1035
1039
1042
1044
1043
1045
1050
1053
1058
1058
1059
1058
1064
1067
1070
1067
1063
1063
1062
1062
1058
1050
1047
1039
1035
1034
1028
1027
1017
1013
1012
1014
1010
1008
1003
1000
999
1001
1000
997
995
994
992
997
996
995
991
988
992
995
993
992
987
988
991
995
994
992
992
989
993
996
995
994
991
991
991
996
999
997
994
994
995
997
998
998
996
993
998
1001
1003
1000
997
995
998
999
1001
1002
999
997
997
1000
998
1001
998
997
997
1002
998
1001
996
996
1000
1002
1004
999
999
997
999
999
1002
1000
1000
997
1000
1004
1007
1004
1002
1005
1008
1010
1013
1013
1010
1012
1015
1020
1022
1022
1018
1016
1015
1017
1015
1018
1015
1014
1013
1014
1014
1012
1009
1010
1010
1011
1011
1007
1005
1003
1003
1003
1004
1004
998
998
998
999
1001
1004
1002
1000
999
1001
1001
998
995
995
996
1000
1000
997
997
995
995
997
998
998
997
995
996
1000
999
996
995
995
999
1002
1001
1000
996
993
996
1001
999
1002
1000
999
997
1000
1004
1005
1005
1005
1008
1018
1024
1030
1038
1048
1062
1075
1083
1089
1089
1083
1079
1067
1053
1035
1024
1027
1043
1066
1092
1117
1136
1149
1160
1161
1154
1136
1115
1096
1079
1065
1048
1025
1002
984
975
967
966
959
957
960
968
976
982
988
989
990
991
995
996
996
993
991
995
998
995
998
994
996
997
1000
998
997
996
995
999
1000
1001
1002
1002
999
1002
1005
1008
1010
1005
1006
1009
1012
1016
1015
1015
1017
1017
1023
1025
1027
1026
1028
1029
1035
1038
1038
1038
1040
1042
1048
1050
1052
1053
1054
1057
1062
1065
1064
1065
1066
1068
1074
1077
1078
1077
1079
1082
1085
1089
1088
1086
1085
1087
1086
1088
1084
1076
1073
1067
1066
1065
1055
1047
1043
1041
1039
1037
1037
1031
1025
1027
1026
1026
1025
1023
1020
1019
1020
1021
1016
1015
1011
1015
1019
1019
1016
1014
1013
1013
1018
1017
1019
1015
1014
1015
1018
1020
1020
1018
1014
1017
1021
1022
1022
1019
1018
1022
1026
1027
1025
1023
1024
1026
1032
1031
1026
1027
1024
1029
1030
1031
1031
1027
1025
1025
1032
1028
1032
1027
1024
1025
1031
1030
1032
1026
1026
1029
1029
1031
1031
1027
1029
1027
1031
1031
1031
1026
1028
1030
1030
1030
1029
1030
1027
1029
1030
1033
1031
1030
1029
1028
1032
1034
1032
1031
1030
1033
1040
1043
1040
1039
1037
1038
1044
1045
1046
1045
1045
1049
1052
1053
1051
1045
1042
1043
1048
1046
1044
1039
1036
1036
1039
1037
1035
1032
1030
1028
1030
1032
1031
1026
1026
1024
1027
1024
1025
1021
1023
1025
1027
1026
1022
1021
1020
1019
1023
1023
1021
1017
1015
1021
1023
1026
1023
1019
1018
1021
1023
1026
1023
1021
1020
1020
1023
1026
1023
1019
1019
1021
1022
1027
1025
1024
1024
1025
1027
1032
1032
1035
1038
1043
1054
1065
1077
1088
1101
1113
1115
1114
1102
1084
1069
1062
1067
1079
1101
1127
1160
1192
1215
1228
1228
1211
1188
1170
1156
1138
1116
1088
1055
1033
1013
999
987
975
971
975
983
991
997
1002
1006
1009
1015
1015
1014
1012
1008
1013
1016
1018
1013
1016
1014
1013
1018
1019
1017
1015
1012
1017
1019
1021
1020
1019
1017
1019
1023
1028
1026
1026
1023
1026
1028
1032
1033
1030
1029
1031
1034
1038
1037
1035
1030
1035
1043
1043
1045
1042
1045
1049
1050
1054
1058
1056
1056
1059
1065
1069
1070
1069
1070
1071
1079
1082
1080
1080
1079
1086
1087
1091
1092
1092
1093
1094
1098
1100
1093
1091
1088
1083
1081
1078
1074
1067
1060
1059
1056
1055
1051
1047
1041
1039
1040
1040
1035
1034
1030
1030
1032
1034
1031
1026
1023
1025
1025
1027
1025
1024
1021
1021
1023
1025
1021
1018
1018
1020
1020
1020
1022
1019
1015
1018
1022
1024
1023
1019
1021
1021
1022
1025
1024
1021
1021
1023
1024
1026
1024
1023
1020
1022
1023
1026
1021
1019
1018
1017
1021
1025
1022
1020
1020
1018
1023
1023
1023
1019
1019
1020
1023
1024
1023
1021
1018
1019
1022
1022
1021
1019
1016
1016
1021
1022
1021
1020
1018
1020
1021
1022
1022
1018
1017
1019
1020
1021
1022
1020
1023
1024
1025
1031
1032
1027
1029
1028
1031
1037
1036
1036
1032
1035
1040
1041
1040
1036
1032
1033
1034
1034
1032
1025
1022
1021
1023
1024
1024
1022
1019
1019
1020
1018
1017
1016
1013
1013
1013
1011
1013
1012
1008
1006
1008
1011
1009
1007
1005
1006
1008
1010
1010
1007
1005
1006
1008
1010
1007
1006
1004
1005
1008
1007
1006
1008
1006
1008
1009
1009
1010
1006
1006
1007
1011
1014
1013
1011
1009
1012
1015
1021
1022
1025
1028
1038
1050
1067
1078
1086
1091
1093
1087
1074
1058
1040
1037
1046
1070
1097
1125
1152
1172
1195
1206
1205
1187
1165
1143
1125
1111
1089
1063
1032
1003
982
968
960
953
950
950
959
970
980
989
991
995
995
1000
998
1002
1000
997
997
1001
1006
1003
1001
999
1002
1005
1006
1006
1000
1002
1004
1007
1006
1010
1004
1002
1006
1011
1015
1013
1011
1010
1013
1014
1017
1017
1020
1017
1019
1025
1026
1027
1027
1027
1029
1033
1037
1041
1038
1034
1039
1045
1049
1052
1054
1055
1059
1062
1067
1066
1068
1066
1069
1074
1077
1075
1072
1076
1080
1084
1087
1090
1087
1085
1086
1086
1087
1079
1074
1065
1063
1063
1056
1053
1047
1040
1037
1035
1035
1030
1023
1022
1017
1017
1018
1016
1013
1011
1008
1010
1010
1008
1005
1004
999
1005
1006
1003
1002
997
1000
1003
1002
1001
999
997
998
1000
1002
999
996
994
993
996
999
997
994
994
992
992
994
993
993
991
989
989
994
993
991
986
986
990
992
989
988
983
985
987
989
986
987
980
984
982
985
985
982
979
981
981
985
982
978
974
974
978
982
978
976
972
974
973
976
972
970
964
968
971
974
973
967
967
969
970
973
970
968
966
967
972
976
976
972
971
971
973
975
977
976
975
978
982
983
982
978
974
975
976
978
974
968
964
967
964
968
964
959
958
960
958
957
956
950
950
947
949
949
947
943
945
947
948
949
948
943
939
942
942
945
943
943
940
942
944
942
945
940
938
938
939
941
943
940
937
938
940
941
941
937
937
936
937
941
942
939
937
940
943
949
951
952
957
967
981
996
1014
1021
1019
1019
1008
989
961
946
945
969
1008
1044
1077
1095
1108
1105
1098
1074
1047
1017
987
960
936
912
894
881
873
874
879
887
895
901
906
908
914
919
921
916
914
917
919
923
920
917
917
916
917
919
921
921
918
920
923
925
926
926
922
924
926
929
932
928
927
929
936
937
938
938
937
937
942
948
950
946
950
952
957
962
963
963
963
965
971
977
979
980
984
985
989
994
995
996
993
996
999
1004
1004
1005
1007
1010
1014
1018
1016
1014
1011
1010
1012
1013
1010
998
994
990
989
985
982
971
965
963
959
959
956
952
945
944
948
948
947
942
936
940
942
942
939
937
933
933
933
937
937
936
931
932
935
936
936
931
930
931
935
935
934
931
931
933
938
939
938
935
932
931
933
939
939
936
936
936
939
939
937
938
937
937
941
941
939
939
934
935
938
939
938
936
937
936
938
941
941
939
937
939
940
942
941
936
937
937
939
940
940
939
938
937
943
946
944
943
940
943
944
949
948
945
945
951
951
953
952
950
951
952
958
960
961
959
959
963
966
970
969
963
961
962
966
969
967
963
960
960
962
961
960
959
956
956
956
957
957
951
948
952
954
956
950
946
947
948
952
956
951
952
948
952
951
953
952
950
947
948
950
952
953
950
946
952
955
956
953
955
950
954
952
955
952
950
951
953
952
956
958
953
954
957
956
958
958
957
954
954
960
963
964
962
964
969
977
986
994
1002
1012
1024
1035
1048
1052
1048
1038
1028
1016
1006
1001
1005
1018
1043
1068
1092
1111
1123
1127
1124
1112
1097
1078
1059
1045
1026
1009
991
970
948
932
920
915
915
916
919
923
929
937
948
949
946
947
946
947
949
949
949
948
949
953
955
955
952
950
950
955
956
955
954
950
952
955
960
958
956
955
958
960
962
964
961
961
959
966
971
970
967
967
971
976
975
978
976
976
975
984
987
985
988
987
990
996
998
998
1000
1000
1001
1004
1011
1010
1010
1009
1013
1016
1023
1025
1024
1025
1029
1032
1036
1039
1038
1036
1033
1036
1036
1033
1028
1022
1018
1016
1015
1009
1002
994
992
993
991
985
980
977
977
975
974
977
972
968
969
967
971
969
963
963
965
964
966
965
963
960
961
963
966
964
964
957
960
962
963
963
964
959
962
964
967
964
962
960
962
962
965
965
965
963
963
964
968
968
966
962
964
965
968
964
965
962
962
964
968
966
962
957
960
962
965
962
960
956
957
959
962
959
956
954
956
958
960
961
957
956
956
958
960
958
958
956
955
961
962
961
959
955
954
960
962
961
962
958
960
966
971
972
970
967
968
970
976
975
974
974
976
980
983
981
980
974
974
976
977
974
970
967
967
969
970
967
967
964
962
964
965
967
963
961
959
964
965
963
957
956
955
958
962
961
958
954
951
954
958
957
954
949
949
954
957
956
953
949
953
954
958
957
951
952
952
953
957
956
952
951
953
955
956
955
954
953
951
954
957
956
956
952
955
959
962
964
963
965
971
978
983
996
1008
1019
1033
1048
1055
1053
1044
1032
1021
1013
1014
1022
1036
1055
1084
1115
1140
1158
1164
1163
1157
1139
1121
1099
1081
1065
1043
1024
1003
979
955
937
924
918
916
914
913
914
924
933
941
943
944
939
942
944
947
946
946
946
946
948
953
950
948
949
949
952
952
952
950
948
949
954
957
956
956
954
953
960
963
960
960
961
961
967
969
969
968
966
969
973
978
977
978
977
981
985
990
989
990
989
994
999
1004
1005
1004
1006
1006
1011
1013
1015
1017
1018
1020
1026
1029
1031
1030
1032
1033
1039
1045
1045
1044
1043
1044
1046
1047
1043
1040
1035
1030
1027
1026
1020
1014
1008
1003
1001
1001
998
989
989
986
987
988
986
982
979
979
982
982
977
977
973
972
978
980
978
977
973
973
975
976
976
972
972
973
977
979
978
974
973
971
973
975
976
974
971
973
975
976
976
973
971
972
975
976
974
970
969
969
975
978
976
972
968
973
978
975
975
972
968
969
971
975
974
971
970
970
973
975
973
971
968
969
972
974
971
969
967
967
966
965
966
966
960
963
966
972
969
968
963
965
963
967
967
964
962
961
963
967
967
964
961
961
965
968
969
970
970
970
972
973
975
974
971
972
977
981
983
979
978
976
978
981
979
976
975
974
975
975
973
971
963
966
963
966
966
966
961
961
962
966
966
959
959
958
960
960
957
953
953
956
958
962
958
955
951
950
952
952
957
951
950
950
952
955
953
951
948
951
952
956
953
952
949
949
953
954
952
951
949
950
952
956
952
950
944
950
951
954
954
952
948
950
954
960
959
958
960
963
971
980
986
993
1005
1017
1032
1043
1045
1039
1027
1011
996
985
984
989
1000
1024
1058
1089
1111
1128
1138
1143
1137
1119
1099
1076
1058
1039
1022
997
971
940
921
907
897
892
892
891
899
909
919
929
933
934
929
933
936
938
943
940
940
942
949
949
948
944
942
946
950
953
953
947
945
948
950
955
952
950
949
950
954
961
963
962
960
960
960
965
963
965
965
969
973
979
981
982
978
983
988
993
994
993
995
997
1004
1010
1011
1010
1009
1015
1023
1028
1025
1024
1027
1028
1032
1038
1037
1032
1035
1037
1042
1044
1045
1041
1035
1033
1034
1032
1025
1018
1011
1003
1002
1000
994
985
979
977
978
977
973
965
961
960
964
962
959
960
955
951
958
957
957
951
951
950
952
955
951
950
951
950
950
951
950
947
945
942
947
950
950
947
944
945
946
948
949
947
944
943
946
947
944
944
942
940
945
948
945
944
941
940
946
943
943
942
940
940
941
944
943
939
937
935
938
942
941
938
933
933
934
936
934
931
928
928
931
934
934
932
924
928
931
935
933
928
930
928
931
935
931
928
927
927
932
936
935
936
933
934
935
940
940
935
935
937
942
946
947
946
945
946
948
950
947
942
939
938
937
940
938
934
930
930
933
932
931
929
925
922
924
929
928
923
923
920
920
923
924
924
922
921
921
921
923
923
920
917
921
925
920
920
916
919
922
927
925
922
921
920
923
927
924
923
924
919
922
930
927
926
923
924
926
930
929
933
932
934
935
939
941
941
944
950
956
968
977
993
1005
1015
1024
1026
1025
1010
988
964
944
937
938
950
976
1006
1039
1070
1089
1105
1107
1099
1086
1069
1049
1029
1004
981
958
937
924
911
904
897
903
906
909
915
921
930
937
946
947
947
945
946
949
953
954
953
950
953
955
958
958
956
954
956
960
963
959
958
960
958
962
964
963
964
964
967
970
974
977
977
976
980
984
986
989
989
988
993
996
1000
1001
1002
1001
1006
1010
1015
1015
1018
1018
1018
1023
1031
1033
1032
1030
1035
1039
1041
1044
1043
1044
1045
1052
1057
1056
1055
1052
1051
1053
1055
1057
1057
1055
1050
1049
1048
1042
1038
1029
1024
1022
1018
1012
1007
1001
994
988
991
989
985
980
980
980
982
978
969
966
963
966
967
968
963
962
962
964
967
964
963
960
958
964
966
965
966
964
962
964
967
968
965
963
964
969
970
969
967
961
965
968
972
971
969
966
966
970
970
973
970
967
965
968
972
969
968
966
966
967
970
967
968
965
966
970
972
971
969
968
966
968
973
967
968
964
965
967
969
968
965
962
964
965
967
971
968
964
964
963
966
965
960
956
957
963
968
966
963
964
965
967
971
972
971
972
970
974
979
979
977
975
978
980
983
983
981
979
977
979
983
982
975
973
970
972
973
969
964
962
961
960
965
962
963
959
961
961
963
956
954
949
949
954
958
960
953
948
951
952
957
956
952
950
950
952
952
954
952
949
950
951
952
952
949
948
950
950
955
953
951
947
945
948
952
952
950
948
948
952
955
957
953
958
962
968
977
986
998
1005
1011
1016
1015
1004
985
957
936
927
930
944
967
996
1025
1054
1075
1085
1082
1065
1044
1023
1006
985
963
937
916
899
893
888
881
881
883
894
905
911
919
924
927
933
933
933
929
930
934
935
939
943
941
937
937
940
944
943
941
940
940
944
947
946
947
944
944
951
952
954
952
952
952
957
959
959
960
963
960
967
971
977
977
975
976
980
986
989
988
991
995
997
1003
1005
1005
1005
1008
1013
1017
1019
1016
1018
1019
1020
1026
1024
1026
1022
1022
1025
1026
1026
1022
1020
1016
1016
1014
1009
1001
993
986
982
979
977
970
965
963
962
960
954
953
947
947
950
951
948
948
943
940
940
937
940
939
936
935
938
941
941
938
935
936
938
942
943
938
936
939
941
945
942
941
938
939
941
944
942
942
940
940
943
945
943
942
937
938
940
941
941
941
940
939
942
943
945
942
939
940
940
942
944
944
941
940
942
945
949
946
943
945
945
947
947
946
943
944
946
948
947
944
944
944
947
951
949
947
945
944
948
950
950
950
945
946
952
956
957
956
954
957
960
964
962
959
960
959
964
966
969
969
970
969
973
978
976
972
968
969
968
970
970
965
962
961
960
961
964
959
958
958
959
961
960
959
953
952
952
958
958
954
952
955
954
958
958
957
953
952
955
956
956
953
947
949
955
958
958
958
956
956
959
961
958
957
