1008
1012
1017
1020
1025
1024
1027
1025
1029
1036
1036
1039
1037
1035
1035
1037
1037
1036
1030
1022
1020
1018
1016
1012
1007
1001
994
995
992
993
988
984
982
984
984
983
980
975
979
977
977
976
976
973
974
977
977
976
976
973
974
975
979
975
977
975
974
978
981
981
976
976
977
980
983
984
982
981
982
985
987
984
981
978
978
985
988
986
983
982
982
986
986
987
985
980
984
984
985
985
981
981
982
985
985
983
984
982
982
986
987
987
983
983
981
982
984
983
978
977
980
981
983
979
979
978
980
981
983
982
981
980
978
983
982
984
979
979
982
984
987
985
984
983
984
990
994
995
992
990
990
994
996
994
994
992
995
999
1002
1003
1000
998
997
998
1000
997
993
988
989
991
992
989
987
984
984
985
988
984
983
981
983
983
985
985
981
976
978
981
984
983
979
977
976
979
981
978
977
974
978
977
979
980
979
976
977
979
983
982
976
977
977
978
982
980
979
978
978
981
981
980
982
981
979
984
989
988
988
987
991
997
1003
1008
1013
1025
1042
1058
1070
1077
1076
1070
1063
1056
1047
1043
1047
1057
1079
1105
1134
1155
1169
1170
1166
1156
1137
1118
1098
1077
1063
1040
1021
997
977
961
954
947
950
953
950
954
957
964
970
973
972
971
970
972
975
976
971
972
974
978
982
982
978
975
975
975
982
982
981
977
980
984
983
986
986
984
987
990
992
992
992
991
991
997
1001
1003
1002
1003
1005
1008
1012
1011
1013
1009
1009
1016
1019
1021
1022
1025
1029
1033
1039
1041
1040
1039
1041
1044
1048
1052
1051
1051
1053
1058
1063
1067
1066
1063
1065
1069
1072
1071
1069
1063
1063
1060
1055
1052
1047
1040
1035
1031
1032
1029
1019
1014
1015
1016
1015
1012
1005
1005
999
1002
1005
1004
1002
1003
1004
1004
1001
999
995
996
995
1000
1001
1001
1001
1000
1000
1002
1000
994
990
990
992
994
998
997
997
995
996
998
999
999
996
995
995
999
1000
1001
994
993
996
1000
1003
999
997
994
995
996
1001
999
996
995
997
997
997
997
998
995
993
994
999
998
994
994
996
997
996
995
991
990
991
994
995
993
990
990
990
995
999
994
993
988
992
995
997
993
993
992
993
995
996
995
994
990
991
994
1001
1000
999
1000
1002
1006
1008
1007
1003
1001
1003
1010
1013
1012
1011
1009
1010
1009
1011
1004
1004
1005
999
1000
1006
1000
997
998
996
998
998
998
994
988
989
995
996
995
990
988
985
990
988
991
990
986
988
988
987
985
983
982
978
985
986
988
985
981
982
985
989
988
984
983
982
987
987
986
984
982
981
986
988
987
983
981
984
987
991
988
988
989
990
996
1000
1006
1011
1019
1033
1049
1061
1072
1072
1065
1053
1040
1029
1017
1015
1024
1049
1080
1109
1136
1153
1160
1162
1152
1132
1109
1085
1066
1045
1028
1011
987
965
950
942
938
938
935
939
942
952
963
970
975
975
977
977
980
984
983
980
976
978
981
986
986
982
979
984
986
989
992
989
988
987
990
993
993
991
991
994
997
1003
1000
1000
998
1003
1009
1012
1013
1011
1010
1013
1019
1024
1026
1026
1026
1030
1036
1042
1042
1043
1043
1046
1050
1057
1059
1059
1057
1063
1066
1070
1067
1070
1072
1073
1076
1082
1081
1080
1076
1078
1080
1077
1071
1063
1061
1055
1050
1049
1044
1036
1030
1025
1028
1025
1020
1017
1013
1008
1012
1014
1008
1006
1004
1003
1004
1007
1005
1000
998
999
1001
1001
1001
995
994
995
997
1000
996
999
996
997
998
999
997
997
993
995
995
1000
1001
999
997
995
997
996
995
992
993
993
995
997
995
992
990
988
992
995
993
991
990
989
992
993
991
988
985
987
990
991
988
982
981
984
986
986
986
983
980
981
983
981
980
978
976
977
978
981
980
979
975
974
976
979
979
977
976
976
979
981
981
979
978
980
983
988
982
982
981
982
988
990
991
987
986
988
993
993
990
988
986
986
991
991
987
981
979
978
976
981
978
974
972
970
975
975
972
969
967
970
969
971
967
968
963
967
970
968
968
966
964
963
964
965
967
966
966
966
966
968
966
964
961
962
965
967
967
965
963
964
966
968
968
965
966
965
969
971
969
967
966
970
979
985
987
992
1002
1019
1034
1049
1058
1062
1060
1055
1043
1027
1008
997
995
1007
1029
1055
1077
1098
1109
1119
1120
1113
1095
1072
1053
1036
1021
1009
991
972
955
943
938
931
929
927
929
934
938
943
946
945
945
948
950
953
956
954
950
953
956
960
959
957
954
958
961
965
962
964
961
962
966
969
969
966
964
967
971
975
973
974
973
975
981
983
983
982
984
988
993
999
1001
1003
1003
1005
1011
1019
1022
1023
1022
1028
1031
1038
1041
1040
1041
1046
1051
1054
1053
1058
1056
1060
1066
1071
1073
1070
1072
1075
1077
1078
1076
1068
1063
1057
1054
1052
1046
1037
1031
1029
1025
1027
1022
1021
1014
1014
1014
1015
1017
1014
1011
1007
1010
1011
1010
1007
1003
1003
1005
1007
1006
1006
1001
1006
1009
1008
1008
1004
1006
1008
1011
1014
1013
1012
1009
1011
1013
1016
1014
1014
1013
1012
1015
1016
1017
1015
1015
1015
1017
1020
1020
1015
1014
1015
1016
1019
1020
1016
1016
1013
1019
1020
1020
1017
1014
1015
1018
1021
1019
1018
1013
1013
1016
1020
1019
1015
1013
1014
1020
1018
1021
1016
1014
1016
1018
1021
1019
1016
1017
1016
1019
1023
1021
1017
1015
1017
1021
1023
1026
1023
1022
1023
1024
1030
1029
1028
1030
1031
1035
1040
1038
1035
1030
1035
1036
1041
1037
1035
1032
1033
1036
1035
1035
1029
1025
1025
1028
1029
1031
1028
1024
1024
1025
1029
1030
1026
1023
1020
1020
1026
1026
1023
1017
1020
1025
1025
1022
1023
1019
1019
1027
1028
1027
1024
1024
1022
1027
1030
1030
1026
1023
1028
1029
1034
1033
1033
1031
1033
1035
1037
1036
1033
1029
1028
1033
1041
1047
1046
1051
1062
1075
1088
1101
1111
1119
1125
1134
1132
1124
1108
1098
1092
1094
1103
1119
1142
1161
1182
1199
1211
1212
1206
1190
1173
1158
1143
1127
1106
1085
1063
1052
1041
1028
1021
1015
1012
1016
1021
1023
1028
1028
1033
1040
1042
1043
1041
1041
1043
1048
1050
1050
1046
1045
1044
1049
1053
1054
1054
1052
1054
1055
1059
1059
1057
1057
1060
1061
1064
1064
1065
1062
1066
1068
1074
1073
1075
1074
1073
1079
1084
1087
1084
1083
1087
1091
1095
1096
1094
1097
1097
1104
1109
1110
1109
1110
1114
1118
1123
1124
1125
1125
1128
1132
1136
1136
1138
1135
1140
1146
1147
1153
1151
1152
1154
1162
1165
1165
1159
1162
1162
1163
1163
1160
1154
1151
1148
1144
1143
1140
1136
1132
1129
1130
1135
1131
1126
1123
1122
1122
1126
1123
1122
1120
1119
1123
1124
1124
1121
1119
1118
1123
1123
1121
1122
1120
1122
1123
1124
1125
1121
1121
1119
1125
1126
1128
1127
1125
1126
1128
1131
1131
1129
1127
1130
1132
1132
1133
1130
1128
1128
1130
1134
1135
1132
1131
1128
1130
1134
1136
1135
1129
1132
1135
1136
1134
1132
1129
1131
1132
1134
1136
1134
1131
1132
1131
1138
1135
1136
1133
1133
1135
1136
1136
1137
1132
1134
1138
1141
1139
1137
1135
1136
1138
1141
1140
1137
1138
1136
1141
1143
1142
1140
1136
1134
1140
1139
1141
1142
1139
1144
1143
1149
1149
1150
1145
1147
1153
1155
1154
1154
1151
1152
1154
1158
1158
1154
1153
1154
1157
1160
1156
1152
1148
1150
1154
1154
1153
1150
1147
1147
1149
1148
1147
1143
1141
1138
1142
1142
1141
1138
1135
1136
1139
1139
1140
1135
1136
1133
1136
1138
1139
1136
1136
1136
1137
1139
1138
1135
1130
1131
1137
1136
1136
1133
1129
1127
1130
1134
1134
1131
1129
1130
1132
1136
1135
1131
1131
1131
1136
1142
1144
1142
1144
1148
1151
1158
1164
1166
1175
1184
1197
1209
1213
1216
1215
1213
1210
1205
1203
1199
1203
1213
1228
1249
1268
1285
1293
1299
1303
1299
1286
1263
1245
1227
1210
1197
1175
1156
1136
1123
1116
1111
1106
1100
1102
1106
1113
1118
1121
1118
1120
1122
1123
1125
1125
1124
1122
1124
1125
1127
1128
1129
1126
1129
1132
1131
1131
1126
1120
1121
1122
1124
1126
1124
1121
1120
1125
1126
1128
1128
1128
1130
1131
1136
1136
1135
1134
1137
1140
1145
1146
1144
1141
1143
1145
1149
1151
1150
1149
1149
1156
1159
1159
1155
1157
1159
1162
1166
1167
1164
1168
1167
1173
1175
1174
1175
1172
1175
1182
1186
1188
1187
1188
1188
1188
1191
1191
1187
1181
1184
1183
1182
1179
1171
1166
1162
1161
1161
1156
1152
1146
1146
1145
1147
1144
1139
1136
1134
1136
1139
1136
1130
1125
1119
1116
1112
1113
1113
1115
1119
1121
1125
1126
1121
1121
1122
1123
1125
1121
1119
1112
1113
1113
1114
1115
1114
1110
1106
1113
1116
1115
1113
1110
1114
1116
1113
1112
1114
1111
1110
1112
1117
1115
1112
1110
1109
1110
1112
1112
1106
1104
1104
1109
1111
1113
1111
1110
1110
1110
1114
1112
1111
1106
1103
1103
1102
1102
1100
1098
1097
1100
1106
1103
1102
1099
1101
1103
1105
1104
1103
1101
1100
1103
1104
1102
1101
1095
1096
1097
1100
1100
1100
1096
1097
1100
1102
1104
1098
1098
1100
1099
1103
1102
1102
1098
1099
1104
1108
1108
1104
1101
1102
1106
1110
1111
1109
1106
1107
1109
1108
1107
1103
1099
1099
1099
1099
1096
1093
1090
1090
1090
1089
1088
1085
1083
1084
1086
1088
1086
1081
1077
1077
1076
1078
1079
1075
1074
1072
1073
1074
1074
1072
1069
1069
1071
1072
1068
1067
1066
1065
1068
1069
1068
1067
1066
1066
1068
1073
1070
1066
1063
1063
1065
1067
1068
1067
1063
1064
1067
1070
1069
1069
1066
1071
1075
1085
1093
1104
1111
1120
1127
1134
1130
1120
1108
1097
1092
1093
1097
1106
1120
1139
1163
1185
1201
1202
1200
1200
1190
1175
1156
1134
1116
1099
1077
1061
1044
1025
1012
1005
1003
1005
1005
1010
1013
1019
1029
1036
1039
1039
1040
1041
1041
1038
1039
1036
1036
1034
1039
1041
1042
1042
1040
1041
1043
1048
1049
1047
1045
1046
1051
1051
1053
1051
1049
1050
1053
1054
1055
1055
1053
1055
1061
1063
1065
1065
1061
1062
1065
1069
1067
1068
1067
1071
1074
1080
1078
1080
1077
1079
1083
1090
1091
1091
1089
1089
1094
1098
1102
1100
1103
1104
1105
1109
1111
1110
1107
1108
1114
1119
1119
1121
1119
1119
1118
1118
1113
1106
1096
1093
1091
1091
1088
1081
1076
1074
1071
1067
1062
1055
1050
1050
1053
1053
1050
1048
1043
1042
1043
1042
1041
1039
1036
1033
1036
1038
1038
1036
1032
1033
1034
1036
1033
1032
1029
1031
1034
1035
1032
1032
1029
1029
1032
1031
1031
1030
1027
1029
1031
1032
1031
1025
1024
1026
1030
1033
1032
1028
1024
1023
1023
1023
1021
1020
1014
1018
1021
1023
1022
1022
1017
1017
1017
1022
1020
1017
1014
1015
1016
1017
1014
1011
1007
1002
1009
1010
1011
1007
1005
1006
1007
1009
1007
1002
999
1001
1005
1002
1003
999
996
995
999
1001
1001
997
995
994
1001
1002
1001
1001
1002
1002
1002
1004
1002
1001
999
999
1005
1007
1007
1006
1002
1003
1004
1005
1004
1001
998
996
998
996
994
990
987
983
987
988
985
986
978
980
981
982
981
974
970
970
972
975
973
970
969
967
969
970
969
967
962
962
965
968
964
962
956
960
962
966
964
960
957
958
961
962
961
956
957
954
958
959
958
959
962
965
974
982
998
1013
1022
1028
1032
1028
1013
990
972
963
970
989
1009
1025
1044
1060
1077
1083
1081
1073
1056
1040
1024
1011
996
975
955
939
930
923
915
905
897
898
901
908
911
917
918
922
926
930
930
928
925
927
931
933
932
930
930
928
931
931
932
929
927
929
931
934
934
935
931
931
933
934
934
935
932
936
939
943
942
943
938
943
944
949
947
947
947
949
954
957
956
960
958
959
963
968
971
972
969
974
978
984
987
985
985
988
992
1000
999
1000
996
1001
1006
1013
1016
1011
1011
1012
1014
1015
1009
1010
1005
1002
999
1000
996
990
984
977
975
975
970
964
958
955
958
956
956
955
950
947
950
953
951
948
942
941
944
946
944
942
939
939
941
946
942
939
936
938
940
942
944
941
938
940
943
944
942
941
937
939
941
946
944
942
940
942
945
949
945
941
944
944
946
949
949
946
944
943
948
950
949
946
944
944
947
950
950
946
943
946
947
948
945
947
943
946
946
951
949
948
947
947
948
951
950
946
946
948
951
955
955
956
950
953
956
962
962
957
959
961
965
968
969
966
963
962
965
967
966
963
958
957
958
962
960
957
954
951
954
959
956
952
948
949
951
951
950
947
947
946
947
952
951
947
945
939
945
947
945
944
941
939
939
943
941
941
941
940
942
942
945
944
940
940
943
946
943
942
940
941
944
948
948
946
945
946
950
955
960
961
965
976
988
1001
1013
1022
1028
1029
1027
1021
1009
998
993
997
1011
1026
1040
1057
1072
1085
1094
1098
1085
1069
1051
1035
1029
1018
1004
990
974
952
941
929
918
911
904
907
914
919
919
923
919
922
926
929
928
925
923
923
926
930
928
928
925
926
930
933
931
930
930
928
933
933
933
932
931
928
934
936
936
936
933
934
937
943
940
940
938
942
944
950
951
948
946
949
954
958
958
959
958
960
964
969
969
970
969
971
975
978
981
977
979
979
985
994
993
993
991
995
1001
1004
1006
1005
1002
1003
1003
1004
1002
994
987
982
980
981
975
968
962
956
958
959
955
952
948
947
947
950
947
946
941
941
943
944
943
941
936
938
939
941
942
938
935
937
938
940
939
936
934
934
938
938
940
937
937
936
936
940
939
938
937
938
938
941
942
940
935
936
938
938
937
936
934
935
935
938
937
936
929
931
934
935
930
931
930
929
931
933
931
928
926
928
928
931
930
928
924
926
926
930
926
926
921
923
926
928
927
924
924
922
924
927
925
922
922
927
930
933
934
930
927
930
934
938
939
940
936
936
938
939
935
932
931
929
930
931
930
928
925
924
924
924
925
924
921
915
918
922
920
918
912
912
912
918
914
911
909
907
907
909
913
910
909
908
909
911
911
906
907
906
908
909
911
908
908
907
911
911
909
908
906
906
910
913
913
912
913
913
917
921
926
930
935
943
955
973
990
1001
1007
1015
1014
1013
1007
998
996
999
1016
1032
1052
1076
1090
1101
1110
1111
1099
1075
1056
1038
1029
1015
995
974
951
930
911
895
886
877
868
869
873
876
882
882
880
884
886
888
887
886
882
880
886
886
886
881
882
880
884
887
887
885
883
883
886
889
890
889
886
887
888
892
892
891
892
892
892
898
897
897
895
897
900
907
906
905
906
906
908
914
913
915
915
917
924
927
929
928
928
929
935
940
939
942
942
941
949
952
954
956
956
961
964
969
967
965
960
960
961
959
952
946
938
934
933
932
926
920
914
913
914
911
909
905
903
903
902
901
902
898
896
893
898
894
894
894
891
889
892
894
891
890
886
886
888
892
893
887
887
886
886
891
890
887
883
883
885
892
887
886
881
883
885
887
887
882
880
878
878
882
884
880
876
880
879
881
882
879
874
873
872
876
874
872
869
870
874
876
874
871
868
865
869
873
872
871
868
866
869
872
870
867
863
863
867
871
870
867
863
861
866
869
870
868
866
866
869
875
873
874
870
870
873
877
878
875
873
874
876
879
881
875
872
871
870
870
872
868
867
863
865
868
865
863
859
854
855
861
860
851
850
848
854
855
854
855
854
849
853
852
848
847
845
845
848
851
849
849
846
846
849
851
853
850
848
846
848
850
851
847
848
847
849
852
853
848
851
850
855
860
861
864
866
875
887
904
919
932
948
958
967
969
958
942
928
922
922
931
947
970
990
1011
1032
1041
1039
1029
1013
993
978
965
943
921
897
876
859
847
834
825
818
814
815
818
823
828
827
831
832
837
838
836
831
830
830
835
835
830
831
831
835
831
835
834
832
832
834
837
837
833
833
834
836
841
838
841
839
839
842
845
848
845
844
849
853
860
860
859
857
863
866
873
875
873
875
877
884
889
891
894
894
896
902
908
910
912
913
915
919
927
930
930
931
932
936
940
938
933
929
926
923
920
915
912
904
902
901
901
899
894
888
888
887
890
887
886
883
883
886
888
888
884
883
881
886
889
890
888
884
884
887
891
890
886
885
885
890
892
890
891
889
888
892
893
893
891
891
890
892
897
895
895
892
892
894
898
899
896
894
895
896
896
900
895
894
892
894
898
899
896
893
893
894
898
896
895
892
891
894
898
899
895
889
893
895
898
895
894
892
893
896
896
899
896
895
894
895
896
897
897
896
896
902
904
902
900
898
900
901
906
904
903
902
903
904
908
910
905
902
898
899
904
901
898
897
891
893
896
895
889
890
886
886
891
889
889
883
880
884
886
882
882
880
878
880
885
885
882
878
879
880
883
884
880
880
877
879
883
884
882
878
878
880
884
882
882
877
880
883
883
885
882
881
880
883
889
889
886
883
885
888
893
895
898
900
904
912
925
939
951
964
979
996
1007
1007
999
986
981
979
985
996
1010
1027
1048
1072
1088
1093
1093
1083
1067
1052
1039
1026
1009
990
972
954
937
919
901
885
873
867
863
866
864
863
866
869
873
877
875
873
873
872
877
876
875
874
873
876
881
881
879
876
876
880
882
881
882
878
879
882
884
881
881
879
880
884
887
886
885
883
884
887
892
890
888
888
890
893
898
898
898
897
900
905
909
908
906
905
908
913
918
920
922
920
924
927
932
932
934
931
935
940
946
946
949
948
953
956
962
961
962
960
961
963
965
958
957
951
947
948
945
941
935
930
930
930
928
925
922
918
915
918
919
915
912
913
912
913
916
913
911
911
909
911
914
915
911
911
908
909
913
912
910
909
910
911
910
911
911
907
909
912
915
911
911
909
908
912
914
911
909
909
908
912
914
913
912
907
909
911
915
916
912
911
911
910
914
914
914
910
909
912
916
915
911
910
907
909
913
913
911
909
909
911
914
913
912
907
909
911
914
914
912
909
909
915
916
915
913
910
911
911
917
913
912
911
911
915
919
919
918
914
914
920
926
926
925
922
921
924
929
929
928
926
927
929
933
934
932
928
929
931
930
931
925
925
923
925
927
925
925
923
920
924
927
925
922
920
922
921
924
925
921
916
916
918
923
922
