953
953
950
955
956
958
955
954
953
957
960
960
960
957
953
955
955
953
952
951
951
955
959
960
954
954
952
958
956
956
954
953
953
955
956
958
959
954
954
953
955
954
952
947
949
951
954
955
952
951
947
952
954
953
952
948
948
950
952
954
953
949
947
949
952
951
949
949
950
954
955
954
950
945
945
950
953
953
950
952
952
953
957
961
955
958
958
959
963
966
965
964
965
967
970
972
969
968
968
970
969
968
964
964
961
962
964
961
959
959
955
956
962
961
956
955
954
956
958
958
954
952
949
951
955
956
955
953
949
950
955
956
955
953
954
956
960
957
954
951
952
957
957
959
955
953
952
956
960
958
957
956
956
961
961
961
959
959
960
964
966
967
964
960
963
964
972
974
976
979
988
1001
1016
1031
1042
1049
1055
1057
1054
1039
1026
1008
999
1000
1018
1036
1062
1088
1113
1140
1158
1165
1163
1144
1124
1102
1083
1059
1033
1000
971
951
937
927
915
911
909
912
923
928
935
941
949
956
959
958
955
955
956
958
963
958
959
958
958
961
963
965
963
962
959
963
968
967
967
963
965
970
970
973
972
972
971
975
977
980
978
977
978
982
988
990
989
988
990
995
999
1003
999
1000
1001
1007
1012
1012
1013
1014
1013
1017
1026
1029
1028
1025
1027
1031
1038
1041
1041
1043
1044
1047
1054
1056
1054
1057
1056
1062
1065
1062
1059
1053
1050
1047
1045
1040
1035
1028
1023
1020
1020
1015
1008
1000
999
998
997
995
989
986
984
987
990
988
984
981
982
984
986
983
981
977
974
977
981
979
977
971
971
973
979
980
975
977
976
978
979
980
979
975
974
976
977
976
979
975
976
980
981
979
975
972
969
976
978
980
980
975
975
979
980
977
974
974
973
976
979
979
975
974
972
972
974
973
972
969
971
969
974
975
972
970
969
972
973
973
971
969
969
970
973
973
971
967
966
972
973
976
973
971
971
971
977
976
973
970
973
977
982
983
984
981
982
982
984
981
983
983
985
989
992
991
988
988
986
989
989
988
986
983
980
981
982
981
978
975
973
972
978
977
974
972
970
971
972
973
969
968
968
969
971
972
970
967
965
967
972
969
967
965
964
967
969
967
962
965
964
966
968
966
966
961
966
965
968
967
967
965
962
964
969
968
967
964
964
966
967
969
965
963
966
968
971
977
975
975
981
989
999
1011
1022
1031
1041
1052
1060
1055
1047
1031
1013
1000
1001
1007
1021
1042
1069
1100
1129
1148
1161
1164
1156
1145
1123
1104
1078
1059
1035
1011
988
965
939
923
913
912
912
913
916
921
928
939
948
952
951
949
951
952
956
956
955
953
953
957
960
960
959
957
960
962
965
964
962
962
963
962
968
973
972
968
967
967
972
974
973
972
976
977
978
981
983
981
982
985
990
992
996
995
997
1002
1008
1008
1006
1006
1011
1016
1024
1025
1027
1028
1027
1032
1037
1039
1039
1041
1043
1048
1051
1055
1050
1050
1050
1058
1060
1062
1059
1056
1055
1054
1052
1045
1039
1033
1027
1024
1020
1013
1008
1000
996
997
998
992
985
981
980
983
985
983
979
976
975
980
979
980
976
972
972
972
975
975
973
972
968
973
978
977
974
968
968
970
972
972
970
966
966
970
975
974
971
971
969
975
976
975
967
966
967
970
974
971
971
968
967
968
974
973
973
969
968
970
971
972
969
968
966
966
969
968
967
963
966
969
972
972
968
965
962
963
966
969
968
964
965
963
965
962
963
962
964
964
964
969
967
965
963
965
966
971
972
973
969
970
974
976
974
972
972
978
982
980
981
979
978
981
985
982
980
976
976
976
975
975
969
964
964
968
970
968
962
958
957
960
961
962
960
957
953
956
958
957
953
952
956
957
957
955
954
949
947
951
954
956
955
951
950
952
954
955
955
952
951
952
952
952
950
947
944
948
955
956
953
946
943
947
952
950
950
948
951
955
958
961
960
961
967
972
982
994
1002
1011
1025
1031
1037
1037
1025
1007
990
977
974
982
999
1020
1048
1078
1105
1121
1125
1116
1096
1074
1049
1030
1005
974
948
924
910
899
888
886
889
891
903
910
916
925
931
938
943
944
942
943
941
943
949
949
949
947
945
950
953
955
953
950
952
954
957
960
958
956
957
964
966
963
966
964
967
971
974
977
975
976
974
980
985
988
988
988
990
995
1001
1001
1003
1004
1005
1011
1015
1021
1020
1023
1027
1031
1036
1040
1040
1040
1044
1046
1053
1051
1046
1050
1050
1053
1060
1061
1057
1054
1057
1056
1057
1050
1044
1037
1032
1027
1026
1021
1011
1003
999
999
998
994
990
986
983
982
983
979
977
975
973
973
977
976
975
971
969
970
974
972
969
965
964
967
970
970
967
965
961
965
966
966
966
964
965
968
972
969
965
963
964
966
967
967
964
965
964
967
971
968
964
962
963
967
973
972
969
968
967
970
970
966
964
961
961
965
967
968
965
964
962
965
970
967
968
964
958
965
969
968
967
963
962
963
967
966
963
963
961
963
967
965
963
958
958
962
967
968
964
963
961
965
969
969
972
969
972
977
981
981
976
976
976
981
986
989
987
985
984
984
986
984
984
980
979
980
984
982
979
976
973
973
973
974
969
967
968
967
970
971
970
963
963
966
965
968
966
964
963
963
963
962
960
958
957
963
966
963
963
960
958
959
963
962
959
957
955
963
962
965
962
959
959
962
965
966
961
962
960
961
966
967
962
963
963
965
969
972
975
979
982
995
1007
1020
1024
1034
1035
1036
1031
1016
1000
979
966
967
988
1014
1041
1072
1094
1114
1125
1117
1092
1068
1038
1016
993
968
939
915
899
895
896
898
900
902
911
921
932
939
943
947
952
955
961
958
959
960
958
959
967
969
966
963
964
967
973
974
971
969
970
976
979
979
977
976
976
980
985
986
987
989
990
993
1000
1001
1004
1002
1003
1009
1013
1016
1015
1018
1021
1027
1034
1037
1038
1037
1039
1041
1045
1052
1053
1053
1054
1062
1068
1069
1068
1063
1066
1065
1069
1072
1070
1070
1069
1072
1072
1067
1063
1054
1048
1045
1039
1034
1032
1021
1016
1015
1014
1009
1004
998
994
996
994
989
986
987
986
987
986
984
979
975
974
978
983
982
981
978
975
979
983
983
982
977
979
980
983
982
980
975
974
976
980
980
980
978
978
980
981
984
982
982
980
980
986
983
981
979
975
976
980
979
977
978
977
980
983
984
978
977
976
976
981
980
979
974
977
978
980
981
979
975
974
978
979
978
978
975
973
974
981
980
976
975
975
977
980
979
977
977
974
975
982
979
977
979
980
985
988
990
985
982
980
985
990
994
994
993
993
996
998
998
992
990
985
987
989
989
986
982
981
980
980
981
979
976
973
975
977
978
975
972
971
970
974
974
973
967
967
966
967
971
968
967
967
970
972
967
969
966
969
970
972
971
970
965
963
968
971
973
970
966
965
967
969
971
969
968
968
967
973
971
968
970
969
972
978
979
979
980
982
986
997
1004
1013
1023
1031
1038
1039
1035
1020
1003
986
973
977
992
1013
1037
1067
1093
1113
1123
1120
1103
1078
1055
1034
1008
981
955
931
916
907
906
903
901
903
912
923
934
940
946
951
959
962
967
965
963
965
967
970
970
969
965
966
967
974
972
975
972
972
977
979
983
978
979
979
982
988
988
988
986
986
989
996
999
1000
1000
1002
1004
1010
1012
1013
1009
1018
1024
1029
1031
1033
1031
1034
1038
1043
1052
1053
1056
1056
1058
1061
1062
1064
1065
1065
1071
1075
1074
1072
1068
1071
1073
1076
1074
1072
1070
1066
1061
1062
1055
1045
1037
1033
1028
1025
1022
1017
1010
1006
1003
1004
1002
996
991
990
991
991
991
985
982
979
983
985
981
979
975
977
976
978
979
979
977
972
975
980
981
979
977
977
978
978
978
977
977
978
979
981
982
980
976
975
978
981
981
979
977
975
976
982
980
975
975
972
977
978
977
977
975
974
977
977
975
973
969
971
971
975
975
974
971
969
974
977
975
972
968
966
968
971
969
971
970
967
971
968
967
964
961
961
966
968
968
969
967
963
968
973
975
975
972
971
976
975
979
980
979
981
981
983
985
981
980
980
982
984
979
978
975
969
972
974
971
966
964
965
968
971
969
965
961
962
961
963
962
957
957
959
959
963
961
958
954
956
957
958
957
955
951
952
957
959
959
954
950
949
949
955
954
954
950
951
952
957
957
952
953
954
955
959
960
955
955
956
957
961
966
970
975
980
993
1006
1016
1021
1015
1008
1000
986
971
960
962
977
1001
1030
1058
1074
1090
1094
1094
1084
1065
1037
1011
988
969
951
926
908
894
887
883
888
887
891
895
903
910
923
929
934
936
938
942
942
947
946
944
946
947
948
948
950
949
950
952
953
954
955
955
954
956
961
961
959
956
958
962
968
965
967
965
965
967
973
977
975
977
977
983
988
991
988
987
991
996
1001
1005
1006
1008
1009
1015
1018
1019
1022
1024
1026
1027
1032
1037
1035
1032
1034
1039
1044
1044
1046
1046
1047
1049
1053
1049
1045
1043
1043
1043
1043
1038
1032
1025
1021
1018
1017
1008
1003
994
985
985
983
981
973
970
964
965
968
968
964
962
959
959
960
957
954
953
955
956
958
961
955
950
950
949
951
953
950
948
950
952
955
953
951
950
948
950
956
954
951
949
947
952
954
956
954
952
949
953
955
954
948
948
947
949
954
952
951
947
949
950
953
951
947
945
947
948
949
950
947
944
942
946
948
949
946
944
947
947
946
949
947
943
940
942
945
944
942
941
941
944
949
945
946
943
938
940
945
946
946
945
941
945
946
948
947
948
949
950
952
954
954
949
950
954
957
959
957
957
955
961
962
961
958
953
954
955
957
956
951
948
946
946
946
944
937
939
940
940
945
942
941
938
937
938
938
937
935
933
934
937
940
938
935
931
928
934
935
933
929
929
927
928
935
935
930
929
929
931
932
935
932
927
929
929
934
931
929
927
927
929
933
935
933
930
928
934
938
937
933
931
931
933
940
944
951
955
961
974
984
992
995
992
988
983
972
956
944
934
933
945
967
986
1012
1030
1051
1068
1077
1071
1060
1042
1015
995
978
956
931
910
888
874
868
864
862
861
863
873
883
891
898
904
908
918
922
926
925
922
924
928
931
932
927
925
924
929
933
934
933
931
931
936
937
938
937
933
934
940
944
944
945
945
942
944
948
950
952
950
949
953
961
962
963
964
966
971
976
979
976
974
977
979
985
987
988
991
994
997
1004
1007
1008
1006
1009
1014
1019
1022
1021
1022
1022
1025
1026
1027
1024
1022
1026
1029
1034
1032
1030
1029
1027
1029
1030
1025
1021
1014
1009
1007
1007
999
993
985
979
977
972
969
963
959
957
956
952
949
947
941
939
938
942
942
938
933
934
934
934
939
937
935
932
932
933
933
932
930
930
933
935
934
931
930
929
933
936
934
932
930
927
930
937
936
933
928
929
931
933
934
929
932
930
931
933
933
932
927
928
929
931
929
928
925
925
927
929
928
929
927
926
926
930
924
922
918
919
921
924
927
924
921
921
923
923
923
921
915
917
919
920
922
922
917
919
920
924
924
919
918
917
920
925
922
920
919
915
924
925
925
926
924
927
928
930
931
930
931
934
939
940
939
936
927
928
929
931
932
931
927
927
928
929
925
923
919
918
919
921
921
914
911
911
913
916
915
913
908
907
914
916
918
917
913
912
912
913
912
909
907
905
904
910
909
908
907
907
909
912
912
912
908
909
908
909
912
910
908
908
913
915
913
911
908
908
909
911
912
910
909
909
915
914
920
918
924
929
938
951
965
976
985
990
994
995
984
966
944
926
912
906
911
924
946
972
1000
1021
1036
1045
1043
1035
1022
1004
984
964
943
924
907
898
887
878
869
866
866
862
870
872
873
881
890
898
903
903
902
904
907
907
907
906
903
900
901
906
908
905
902
908
909
913
915
913
909
908
912
913
912
911
909
911
915
918
921
920
921
922
924
930
933
934
932
933
939
945
948
946
944
945
951
958
959
963
965
967
973
979
982
981
981
984
987
992
994
996
998
999
1002
1005
1008
1009
1008
1010
1012
1015
1018
1014
1012
1008
1011
1009
1007
1000
990
990
984
982
975
971
964
960
956
956
952
949
945
943
941
943
939
938
932
931
933
933
931
927
925
926
927
926
929
928
921
920
923
927
927
927
925
925
928
931
932
929
928
928
930
933
933
930
930
930
934
936
936
935
933
934
933
939
941
935
938
937
938
941
941
940
939
941
943
945
945
943
937
940
944
942
944
944
941
943
942
947
948
947
943
942
945
950
952
946
948
947
950
954
956
954
951
947
948
951
953
953
949
950
954
955
958
956
953
953
956
961
963
961
961
963
963
969
969
966
967
968
974
978
980
977
974
971
971
974
973
970
968
969
968
970
969
964
961
960
961
967
967
965
959
959
961
964
965
957
952
949
956
957
960
958
955
954
958
961
962
959
956
956
958
962
960
960
957
956
958
960
957
959
956
956
956
960
964
960
958
957
960
963
964
963
960
958
962
965
965
963
966
966
969
979
984
989
995
1006
1022
1034
1044
1050
1048
1044
1037
1024
1009
997
997
1008
1028
1053
1079
1100
1116
1127
1133
1129
1114
1089
1066
1047
1028
1009
991
965
944
929
923
919
918
916
918
926
938
947
952
952
950
951
956
957
958
955
956
955
958
964
964
962
959
960
962
966
967
965
964
963
965
969
968
970
967
968
972
972
975
973
973
977
980
984
987
987
987
989
992
997
999
999
1000
1002
1005
1008
1011
1012
1013
1016
1018
1023
1026
1024
1024
1025
1031
1038
1040
1039
1039
1043
1047
1051
1052
1052
1051
1050
1048
1043
1041
1033
1021
1015
1012
1009
1005
999
992
990
988
989
987
987
978
980
979
983
983
981
977
975
974
976
974
975
974
973
973
978
978
976
973
973
975
978
977
976
976
976
976
978
984
979
975
979
980
981
983
979
976
978
979
979
984
982
978
979
977
979
984
980
977
974
977
981
977
976
973
975
976
978
979
977
971
971
974
978
977
974
969
970
974
972
975
975
972
971
973
975
971
972
968
970
972
972
976
970
970
971
972
974
975
973
971
970
973
973
976
977
975
976
981
986
985
982
981
980
982
989
987
987
987
988
990
990
991
990
986
985
986
988
987
984
980
979
978
981
978
977
975
974
976
975
975
974
970
970
974
973
972
970
968
968
970
971
971
968
964
964
963
966
967
965
962
963
964
965
967
965
962
961
965
965
969
967
963
964
967
970
972
968
963
965
967
970
972
968
967
967
971
977
979
982
985
991
1003
1020
1034
1047
1053
1059
1060
1058
1048
1032
1014
1014
1022
1046
1072
1098
1119
1140
1158
1165
1160
1141
1120
1091
1071
1051
1027
1000
969
946
930
921
917
910
908
911
921
929
935
941
938
943
950
950
949
950
948
948
950
950
949
950
948
950
954
953
957
956
952
953
956
954
955
956
952
956
955
956
963
962
961
961
963
969
969
967
967
967
974
978
980
980
978
979
985
986
990
988
992
991
995
1003
1004
1006
1004
1008
1011
1018
1019
1020
1019
1020
1024
1029
1032
1032
1031
1030
1035
1037
1037
1034
1033
1031
1028
1029
1025
1018
1011
1004
1003
1001
997
990
983
980
974
973
973
968
964
962
964
966
962
961
956
954
959
956
957
955
947
946
950
955
953
949
949
948
951
952
947
945
942
944
946
951
948
948
945
941
949
949
950
947
942
942
943
948
946
944
942
940
944
946
945
940
938
939
942
941
939
938
935
934
935
937
936
939
936
935
935
936
938
935
933
929
931
931
930
921
919
921
924
928
927
926
919
921
921
927
927
923
919
914
918
923
925
922
920
920
922
927
925
924
921
926
930
930
930
929
926
925
930
932
933
935
934
936
937
938
935
933
929
930
931
934
933
928
924
924
923
923
925
921
921
918
921
920
921
917
912
911
912
916
917
919
917
916
918
920
918
918
914
912
914
921
923
924
924
921
920
919
915
912
913
911
917
921
923
926
924
921
922
927
928
929
929
929
930
932
933
935
934
938
945
952
957
964
972
986
1004
1022
1037
1045
1048
1043
1033
1022
1008
995
987
993
1011
1034
1057
1078
1091
1101
1108
1105
1096
1082
1065
1046
1031
1016
997
978
960
946
942
940
939
940
943
951
959
971
978
979
977
972
970
967
966
965
969
972
979
980
983
984
981
979
984
991
993
993
988
991
993
994
995
991
988
992
995
1000
1003
1005
1006
1001
1003
1004
1007
1012
1016
1021
1022
1027
1028
1026
1024
1025
1031
1039
1044
1046
1042
1048
1047
1054
1055
1053
1049
1048
1051
1055
1064
1070
1070
1077
1084
1093
1096
1100
1100
1104
1106
1106
1102
1096
1094
1091
1087
1082
1076
1069
1062
1055
1053
1051
1049
1047
1045
1045
1046
1050
1052
1050
1040
1033
1026
1024
1028
1033
1036
1039
1039
1035
1030
1023
1015
1013
1011
1015
1019
1024
1027
1028
1026
1029
1034
1028
1025
1027
1026
1038
1040
1039
1030
1025
1025
1025
1038
1040
1042
1043
1044
1039
1032
1023
1019
1025
1034
1040
1037
1031
1027
1030
1035
1037
1034
1027
1018
1019
1025
1029
1038
1040
1035
1031
1035
1041
1047
1044
1044
1040
1046
1045
1043
1035
1035
1035
1041
1042
1036
1026
1021
1016
1011
1013
1016
1017
1020
1027
1027
1036
1041
1039
1043
1051
1060
1065
1071
1070
1055
1033
1022
1030
1051
1067
1059
1043
1035
1035
1037
1031
1024
1021
1030
1039
1041
1035
1027
1025
1032
1036
1049
1055
1055
1049
1040
1040
1043
1045
1036
1023
1014
1017
1034
