981
978
979
979
977
983
985
980
979
981
983
987
989
986
987
989
993
995
995
996
995
999
1002
1007
1007
1006
1007
1009
1014
1016
1018
1018
1019
1020
1029
1034
1037
1037
1038
1043
1049
1055
1058
1059
1056
1061
1068
1073
1073
1071
1071
1076
1079
1087
1084
1087
1086
1087
1089
1096
1094
1090
1085
1080
1078
1077
1071
1062
1055
1052
1046
1044
1038
1033
1029
1023
1020
1019
1021
1015
1010
1008
1007
1007
1004
999
998
999
1001
1001
1001
999
997
996
999
1003
999
997
992
990
996
1000
999
998
996
994
996
999
998
994
990
992
998
998
999
999
996
993
994
1000
1000
1000
997
996
998
997
997
995
995
994
996
995
997
994
993
994
995
1000
1000
999
994
993
996
998
998
995
992
994
995
995
996
992
993
991
995
995
998
996
992
989
994
996
996
995
992
992
994
994
992
992
990
991
994
993
996
994
991
991
994
1001
1002
1002
1001
1001
1002
1005
1009
1008
1005
1007
1011
1014
1018
1016
1014
1011
1015
1015
1013
1008
1010
1008
1007
1008
1007
1005
1000
999
1001
1002
1001
1002
998
999
998
995
996
992
992
992
994
992
993
992
993
990
991
992
991
989
986
985
987
992
992
989
986
986
991
993
994
992
990
991
991
996
995
994
991
993
995
993
997
995
994
994
997
999
1000
996
994
996
999
1002
1001
1001
999
1001
1009
1014
1020
1028
1035
1045
1058
1068
1073
1073
1067
1057
1044
1032
1022
1016
1023
1036
1060
1089
1116
1139
1154
1165
1163
1153
1136
1112
1087
1070
1053
1036
1011
984
960
947
939
937
937
938
941
949
958
971
977
980
981
985
988
994
994
993
991
991
992
996
999
995
993
994
994
999
1000
997
997
995
999
1001
1000
1001
999
1001
1003
1006
1008
1004
1004
1006
1012
1014
1017
1013
1015
1016
1022
1024
1025
1024
1022
1025
1030
1033
1034
1036
1038
1039
1046
1053
1056
1059
1060
1064
1068
1072
1074
1070
1073
1074
1080
1088
1091
1090
1092
1093
1097
1100
1102
1099
1098
1095
1097
1096
1096
1092
1083
1079
1075
1073
1067
1059
1052
1047
1045
1044
1039
1031
1027
1023
1026
1025
1022
1021
1015
1012
1016
1014
1012
1012
1006
1008
1009
1009
1007
1005
1003
1003
1004
1004
1005
1004
1000
1002
999
1008
1007
1002
999
998
999
1004
1005
1002
1003
1001
1001
1000
1001
998
998
997
1002
1004
1000
1001
997
996
999
999
999
998
994
993
995
1000
997
995
995
993
996
997
996
996
994
991
995
997
996
995
992
992
994
994
995
994
990
990
991
995
993
993
986
986
991
993
993
990
987
987
986
991
992
990
987
989
989
994
992
992
985
986
989
994
995
995
992
992
993
999
997
996
990
995
998
998
1001
1003
1002
1004
1005
1004
1001
1000
994
994
993
994
995
991
988
986
990
993
990
985
981
978
980
985
982
980
977
975
975
979
980
978
975
975
973
976
978
974
973
974
975
976
978
975
972
970
973
975
976
977
975
974
976
978
978
975
974
972
977
979
976
976
972
971
973
975
976
976
977
977
982
987
993
992
997
1007
1020
1030
1037
1038
1032
1026
1013
1000
982
965
961
971
992
1017
1043
1064
1077
1083
1081
1073
1056
1032
1013
992
974
957
937
916
904
901
899
900
909
914
924
933
947
958
964
965
964
963
968
971
972
972
971
970
974
976
979
976
974
974
979
983
984
983
982
983
982
989
990
990
989
989
994
999
1001
1002
1003
1005
1006
1012
1015
1016
1013
1014
1015
1022
1026
1029
1031
1032
1039
1043
1046
1050
1048
1053
1059
1063
1065
1066
1069
1071
1074
1079
1081
1080
1076
1077
1080
1086
1082
1078
1067
1057
1051
1048
1042
1034
1025
1019
1018
1017
1015
1006
1001
998
997
997
995
990
982
983
984
989
989
984
982
983
982
985
984
984
980
978
982
982
983
982
981
978
981
979
982
983
979
980
980
982
983
981
978
977
979
980
983
981
978
974
978
980
979
976
975
976
981
980
981
982
979
977
976
980
977
978
971
973
975
974
980
977
975
975
975
976
977
972
971
973
971
972
973
970
970
969
973
976
974
972
966
970
972
973
973
970
972
971
973
974
975
973
965
965
967
974
974
972
971
972
977
979
981
981
978
978
981
986
987
987
984
983
986
987
986
985
980
977
979
985
980
980
976
972
974
974
974
969
967
967
965
966
965
965
960
961
961
958
956
957
955
955
957
960
956
954
954
953
954
956
956
953
953
952
952
954
954
952
951
950
953
955
956
955
953
951
952
954
954
955
952
949
947
953
954
954
955
951
956
961
960
960
960
965
975
985
999
1006
1015
1018
1021
1023
1012
996
970
945
924
918
927
943
967
986
1011
1029
1038
1035
1021
1005
986
969
955
934
918
899
887
883
883
883
883
886
894
902
916
921
927
934
940
943
946
943
937
935
938
941
945
943
937
939
942
946
945
948
943
944
943
944
946
946
946
944
948
954
956
954
950
952
954
959
963
966
963
964
969
971
976
979
976
980
987
992
996
995
998
1000
1005
1014
1017
1019
1019
1022
1028
1031
1037
1037
1041
1042
1047
1052
1054
1057
1056
1059
1059
1062
1064
1064
1058
1051
1052
1053
1050
1042
1038
1032
1030
1028
1023
1018
1011
1005
1004
1002
1002
995
994
991
991
991
991
990
982
976
974
972
969
965
961
960
960
961
962
961
958
954
954
958
959
960
955
954
956
956
958
956
952
954
955
958
957
956
954
950
954
957
958
955
950
954
953
956
960
959
958
958
962
962
964
965
961
961
959
961
960
957
957
959
957
963
963
961
958
960
960
964
964
960
958
960
962
967
967
963
963
963
964
963
963
966
962
959
965
969
968
965
965
969
977
983
990
997
1006
1012
1021
1023
1018
1004
978
948
927
911
910
923
942
956
970
979
980
972
959
941
925
909
895
881
878
881
894
905
908
908
900
899
902
908
920
930
938
941
948
957
960
959
958
959
961
965
968
966
964
965
969
973
975
973
974
972
973
977
975
976
974
975
978
983
986
987
985
988
990
996
997
996
995
998
1005
1008
1011
1012
1012
1016
1023
1028
1032
1031
1035
1035
1040
1046
1048
1049
1049
1051
1054
1060
1065
1065
1066
1066
1068
1073
1076
1076
1072
1071
1073
1077
1077
1073
1069
1065
1061
1062
1054
1050
1041
1034
1032
1029
1025
1014
1010
1002
1002
999
997
990
984
984
985
988
986
983
981
980
981
982
985
979
975
974
977
979
981
979
976
974
975
976
979
977
973
972
974
977
975
977
969
969
971
974
973
971
967
968
971
971
973
973
968
967
968
973
974
969
968
964
967
967
968
965
960
958
963
966
966
964
961
962
963
966
966
965
960
960
961
966
965
963
958
959
963
965
965
964
957
958
959
961
961
960
958
957
958
960
961
960
958
956
958
959
954
956
955
952
957
956
958
956
953
954
955
959
959
956
953
952
952
957
956
955
949
950
952
957
957
954
952
948
951
953
956
954
953
951
954
956
957
956
953
951
951
955
955
953
953
953
950
957
957
953
952
948
952
953
955
954
953
955
954
960
961
960
958
957
962
964
967
965
965
967
969
971
972
968
965
962
964
965
966
961
958
960
960
962
957
958
954
953
952
952
956
954
951
951
952
954
954
951
948
948
950
949
948
945
940
941
941
947
945
945
945
942
944
946
947
944
941
940
942
944
945
946
937
939
941
948
950
950
947
945
948
949
950
951
952
950
952
958
962
965
970
980
992
1007
1012
1015
1008
1000
989
972
957
949
949
971
1003
1036
1064
1084
1096
1100
1097
1088
1069
1043
1015
990
964
941
916
897
885
882
881
882
885
883
888
895
906
914
923
927
930
932
932
935
938
935
933
934
936
942
942
941
941
940
940
945
944
946
943
944
943
953
953
951
950
951
952
955
958
955
957
958
961
964
965
966
966
966
970
974
978
979
977
983
986
990
995
996
997
999
1006
1010
1016
1017
1018
1019
1026
1033
1037
1032
1038
1041
1047
1052
1055
1055
1056
1057
1060
1065
1065
1063
1060
1058
1057
1059
1058
1050
1043
1035
1030
1027
1019
1012
1006
1000
997
990
984
980
975
970
974
974
971
969
963
961
962
964
962
962
955
954
959
958
960
958
954
952
957
958
959
956
953
953
956
959
958
956
954
954
955
959
958
958
953
953
955
958
959
958
956
953
955
959
961
957
955
954
955
958
959
956
953
952
955
961
960
957
954
954
956
959
958
957
956
952
956
958
958
958
955
954
956
957
961
955
956
953
957
960
961
955
957
955
956
958
959
956
954
953
952
959
959
960
957
959
962
966
969
966
966
963
967
970
973
974
973
974
975
977
974
973
971
969
970
969
970
968
965
962
963
964
965
962
963
960
960
961
958
960
954
952
953
954
955
953
952
950
951
952
955
952
949
948
949
952
953
948
948
950
950
954
953
949
947
945
949
952
955
950
951
950
953
953
955
954
953
952
957
962
967
971
975
987
997
1009
1017
1015
1011
1003
993
977
960
949
956
972
999
1028
1055
1076
1082
1084
1080
1066
1043
1018
992
974
954
939
919
898
885
874
877
880
884
891
897
906
919
931
938
939
942
942
946
947
947
947
943
945
947
955
956
956
952
953
957
961
962
960
958
955
958
962
963
963
961
960
968
972
973
972
975
972
977
982
981
983
983
982
986
988
990
994
993
992
996
1004
1007
1010
1008
1011
1017
1021
1024
1027
1029
1030
1035
1040
1042
1044
1042
1046
1051
1057
1060
1060
1057
1059
1062
1065
1064
1061
1059
1058
1057
1061
1057
1051
1044
1037
1035
1032
1028
1023
1015
1011
1006
1005
1001
996
993
989
986
989
988
986
978
980
981
981
982
978
974
975
975
975
978
975
972
971
975
977
978
977
973
970
972
975
979
976
974
974
972
976
977
977
976
974
974
977
975
974
975
974
975
977
977
978
975
972
974
979
979
978
976
974
971
972
976
977
974
972
976
975
975
973
971
971
972
973
975
969
968
969
972
975
972
972
970
969
968
972
971
971
968
966
965
968
968
966
964
966
966
970
970
971
970
968
969
969
973
968
965
967
968
973
971
972
972
975
976
982
982
983
980
979
984
988
989
989
985
985
988
990
988
986
980
979
981
983
982
980
975
972
975
974
972
971
967
970
969
973
972
972
967
966
967
966
968
966
962
967
964
968
966
964
963
961
964
964
967
964
959
960
961
961
965
962
960
960
964
966
965
967
964
960
964
964
968
965
963
964
967
968
967
968
963
962
965
969
973
969
970
974
980
990
995
1005
1013
1022
1029
1029
1031
1020
1005
985
970
962
966
978
994
1015
1041
1065
1087
1095
1092
1083
1067
1046
1023
1000
974
955
935
916
904
892
888
887
892
901
911
920
926
935
943
951
956
960
958
956
961
966
967
964
964
967
968
971
973
973
971
970
970
970
973
971
970
973
976
979
981
983
982
982
987
988
991
993
992
989
992
998
997
1001
1003
1003
1008
1014
1017
1019
1018
1016
1021
1031
1030
1032
1036
1038
1043
1048
1055
1054
1055
1054
1058
1065
1066
1068
1069
1070
1075
1078
1080
1080
1082
1080
1081
1084
1086
1084
1080
1076
1071
1071
1067
1063
1054
1047
1041
1038
1036
1027
1020
1014
1013
1013
1009
1007
1002
1001
997
997
1002
998
995
992
992
992
994
996
992
990
990
994
995
993
990
988
988
988
993
989
989
987
990
992
993
991
989
987
988
992
991
991
988
985
989
993
994
992
988
987
990
988
992
992
989
988
990
992
992
989
986
986
988
990
989
987
984
986
989
990
989
990
984
983
986
988
990
990
983
983
984
987
986
987
984
985
983
989
990
986
986
985
987
988
990
988
985
983
980
986
987
985
984
986
985
989
992
988
987
986
990
993
995
995
992
993
997
1000
1002
1001
998
998
1000
1001
1001
995
995
993
993
995
995
991
987
988
987
989
987
988
985
982
984
985
986
984
981
980
981
981
980
979
977
975
980
978
979
976
975
971
976
978
979
978
974
972
975
978
980
977
975
974
976
976
978
977
975
974
974
978
979
974
973
971
975
978
979
976
976
976
976
982
984
986
987
992
1001
1011
1021
1031
1039
1043
1044
1044
1033
1014
993
976
970
977
996
1016
1036
1060
1082
1098
1106
1100
1088
1064
1040
1023
1000
981
961
943
924
914
906
899
896
900
907
918
923
935
945
953
959
967
969
971
969
970
972
976
976
974
972
972
975
980
982
982
980
980
982
984
987
987
982
984
984
990
991
991
991
987
993
996
999
1002
999
1004
1005
1012
1015
1015
1015
1017
1021
1023
1030
1028
1026
1029
1034
1042
1044
1048
1046
1047
1052
1056
1061
1062
1061
1062
1067
1071
1074
1075
1073
1070
1076
1078
1080
1079
1076
1075
1075
1076
1074
1067
1059
1052
1049
1049
1043
1036
1027
1017
1018
1015
1014
1010
1005
999
997
999
996
993
988
986
984
984
986
985
980
980
979
981
981
980
976
976
978
979
981
977
974
977
973
976
978
976
972
970
973
976
974
972
972
972
975
976
976
974
974
973
973
977
978
978
974
973
974
975
975
974
972
970
971
976
975
974
974
971
972
976
976
971
970
970
972
972
970
973
968
968
970
970
972
970
966
967
968
969
973
967
963
964
965
967
968
967
963
962
966
966
967
967
963
963
965
968
970
969
968
965
970
972
975
973
969
970
974
978
981
980
979
979
977
979
981
981
975
975
973
977
975
972
968
964
966
967
968
966
962
961
962
964
964
963
960
957
956
957
957
955
953
955
955
957
957
953
951
950
950
956
953
953
950
947
949
953
952
950
947
949
951
953
953
953
951
951
951
954
956
954
953
951
952
953
955
956
953
952
951
958
959
960
961
965
974
986
1001
1013
1020
1029
1031
1029
1022
1001
978
951
936
935
944
963
975
992
1010
1029
1036
1035
1022
1004
984
970
955
938
927
913
911
908
906
899
897
897
902
914
923
928
933
937
940
943
943
941
940
941
945
949
953
952
946
950
949
952
955
953
952
949
950
955
959
958
957
957
962
966
967
966
965
966
970
975
978
980
982
983
985
993
995
997
998
996
1002
1009
1016
1020
1024
1024
1030
1035
1043
1047
1047
1049
1052
1059
1062
1063
1060
1060
1060
1061
1057
1052
1045
1038
1034
1032
1026
1021
1015
1007
1006
1007
1002
999
993
989
986
991
993
989
984
985
982
982
982
983
979
978
979
981
980
978
977
972
974
979
979
979
977
974
976
977
982
979
979
975
979
981
983
983
978
977
977
985
985
986
981
983
982
987
988
987
983
982
984
985
990
986
984
985
986
986
988
986
983
982
984
984
984
985
983
982
984
984
986
984
983
980
981
984
983
982
980
979
983
983
984
982
981
979
980
978
983
983
981
978
980
983
985
978
978
979
980
985
987
988
985
987
988
991
990
989
989
990
993
997
994
997
994
996
995
998
997
994
992
989
990
990
991
986
983
983
983
986
985
982
980
978
980
983
985
984
981
979
979
978
977
978
976
978
976
976
978
977
973
972
973
976
979
975
973
971
972
974
976
977
974
973
974
977
977
977
974
974
976
977
980
979
976
976
976
979
981
980
978
977
983
988
993
997
1000
1005
1019
1034
1046
1053
1052
1049
1050
1040
1031
1010
998
991
1001
1021
1041
1062
1080
1091
1105
1111
1108
1093
1067
1039
1022
1006
992
974
953
938
927
923
921
921
919
920
927
941
949
957
963
963
966
971
971
973
972
969
974
977
979
979
976
974
978
982
985
984
982
980
981
985
989
986
985
985
985
987
990
988
987
990
991
997
999
999
997
998
1004
1007
1012
1012
1012
1009
1014
1020
1021
1022
1025
1022
1026
1032
1038
1040
1039
1039
1046
1049
1052
1051
1054
1050
1059
1065
1069
1070
1068
1071
1073
1073
1077
1074
1075
1071
1069
1068
1068
1056
1050
1043
1042
1039
1036
1030
1024
1017
1017
1014
1013
1010
1009
1005
1006
1005
1004
1004
1000
996
1000
1002
1004
999
997
992
997
998
1000
998
998
994
993
998
1001
999
996
993
993
1000
999
999
995
993
997
1002
1001
1001
997
997
999
999
1002
999
997
995
996
999
1002
999
998
996
997
999
1000
999
993
991
996
1000
997
995
996
991
990
993
995
992
988
989
992
992
994
994
991
991
993
995
995
995
990
989
991
993
997
995
990
990
990
989
993
992
991
990
993
995
999
994
994
996
996
1002
1002
1002
1002
1001
1002
1006
1008
1010
1008
1006
1007
1012
1011
1010
1007
1002
1000
1003
1004
1001
996
998
997
997
997
995
991
993
992
993
998
995
994
992
989
989
990
989
988
987
986
989
992
988
984
981
982
986
987
987
983
982
983
987
986
985
984
981
983
984
987
988
984
983
987
989
991
989
984
983
981
987
989
988
987
985
984
991
998
998
999
1002
1008
1019
1032
1044
1053
1058
1062
1060
1054
1037
1018
1005
1002
1019
1041
1065
1090
1111
1128
1137
1138
1128
1103
1077
1052
1034
1016
993
968
946
930
923
922
916
917
919
928
938
950
956
966
969
973
975
980
981
978
978
982
980
985
985
985
980
985
988
991
988
987
986
987
992
992
994
991
990
994
998
1000
998
999
998
1000
1003
1008
1008
1008
1009
1009
1013
1020
1019
1021
1022
1023
1028
1032
1035
1036
1038
1039
1046
1049
1048
1049
1053
1056
1059
1066
1065
1062
1062
1068
1071
1074
1077
1074
1075
1078
1080
1085
1081
1076
1071
1072
1066
1066
1060
1050
1045
1040
1040
1038
1031
1023
1016
1017
1018
1017
1015
1009
1006
1006
1006
1006
1004
998
994
997
1001
1002
1000
997
995
993
997
1001
997
995
989
995
998
1000
995
996
995
996
995
1000
999
995
993
995
998
1000
1000
997
995
998
996
998
997
995
994
995
998
1000
999
993
992
994
998
997
997
996
993
994
997
998
997
994
994
994
994
996
997
992
992
991
996
996
995
990
989
990
992
996
994
991
991
989
993
995
996
992
989
990
996
