983
982
981
978
974
973
974
977
978
979
979
978
981
983
981
977
978
982
979
983
982
979
978
981
986
993
994
993
990
998
1005
1014
1027
1045
1059
1075
1085
1088
1085
1076
1069
1058
1053
1053
1055
1065
1083
1109
1143
1162
1176
1180
1172
1156
1136
1122
1108
1097
1080
1058
1028
998
969
951
941
935
938
940
942
946
948
956
964
970
969
967
965
967
967
973
974
975
971
969
967
967
964
966
968
970
973
977
978
980
981
977
974
972
970
970
971
977
982
981
986
986
982
986
989
993
993
992
992
997
1001
1008
1011
1010
1011
1014
1013
1014
1012
1015
1019
1021
1031
1036
1038
1038
1037
1042
1046
1049
1050
1050
1052
1053
1058
1061
1066
1065
1065
1068
1071
1075
1076
1069
1064
1064
1062
1059
1056
1048
1041
1041
1038
1033
1031
1024
1021
1019
1019
1016
1013
1011
1007
1007
1011
1012
1010
1004
997
994
993
992
997
995
996
996
999
1000
999
997
995
999
997
1000
999
999
995
994
1000
1002
1000
999
994
995
1000
1001
1002
1001
998
999
1002
1006
1003
1001
998
998
998
999
997
994
990
992
1000
1001
1001
998
995
997
1000
1002
1006
1006
1002
999
997
998
993
990
984
983
986
985
992
990
989
988
992
995
996
992
992
992
995
996
994
990
989
991
996
996
994
993
992
996
1004
1003
1002
999
1000
1005
1011
1009
1000
992
990
993
996
999
1003
1003
1003
1004
1007
1012
1009
1008
1006
1008
1009
1013
1009
1006
1000
1001
1001
1003
1002
1000
999
995
999
1001
996
998
997
999
999
998
996
988
983
981
988
991
992
987
983
984
986
990
988
982
980
986
986
988
988
984
984
985
987
990
989
984
982
983
986
989
989
987
984
987
987
991
992
992
992
997
1002
1007
1006
1004
1010
1021
1038
1055
1063
1066
1071
1076
1072
1055
1033
1018
1018
1034
1063
1095
1127
1151
1170
1182
1185
1175
1155
1126
1101
1082
1071
1051
1027
997
971
958
950
948
943
940
941
948
960
969
976
980
978
977
978
975
970
967
962
964
968
975
979
978
977
978
982
984
985
984
982
984
986
989
988
990
987
989
992
994
994
995
993
993
998
1004
1004
1001
999
1003
1006
1014
1014
1012
1016
1019
1021
1026
1027
1027
1026
1031
1035
1039
1041
1042
1043
1047
1054
1056
1058
1059
1055
1066
1075
1082
1084
1077
1060
1053
1052
1057
1070
1076
1079
1078
1079
1079
1075
1072
1070
1069
1070
1071
1072
1070
1066
1060
1048
1038
1022
1013
1006
1003
1002
1002
1004
1002
1001
1000
1003
1003
1003
1002
995
993
994
995
997
999
998
998
996
1001
995
992
991
989
994
994
993
992
991
993
996
997
996
991
994
995
999
998
997
993
991
992
993
995
995
992
994
995
994
1000
996
995
991
994
998
996
998
996
989
987
985
986
983
981
980
980
982
987
988
986
986
987
985
985
986
983
983
984
985
984
983
978
975
978
980
983
984
979
973
972
971
977
973
972
969
969
975
980
981
979
975
976
982
984
984
980
976
977
985
987
991
992
989
994
994
991
982
979
973
975
975
972
967
967
967
969
970
975
974
969
963
961
962
968
966
967
962
956
959
958
960
957
956
956
955
958
959
955
954
952
952
958
954
953
951
952
952
957
957
951
952
952
954
957
956
953
955
955
959
959
957
955
954
956
960
965
969
977
982
995
1017
1035
1052
1056
1053
1034
1006
981
980
1001
1035
1068
1096
1116
1123
1114
1092
1068
1046
1026
1002
979
957
941
931
925
915
911
907
910
917
925
931
933
938
942
946
948
947
948
944
940
943
944
941
941
934
940
948
953
953
948
949
949
953
957
955
951
946
952
954
961
963
963
965
972
980
988
987
979
970
963
966
967
968
967
965
970
977
983
986
993
994
1001
1008
1015
1019
1017
1017
1018
1021
1031
1035
1036
1036
1041
1042
1049
1049
1047
1049
1050
1051
1053
1052
1052
1053
1059
1064
1065
1067
1061
1061
1061
1062
1060
1051
1044
1036
1033
1033
1033
1029
1022
1012
1007
1007
1008
1006
1000
1000
1001
1004
1008
1003
997
993
992
993
996
992
992
989
990
993
996
993
989
988
988
987
987
989
989
988
992
994
996
996
996
994
991
991
990
990
991
984
989
995
998
995
996
993
995
996
998
996
993
992
994
998
998
1001
999
998
996
994
990
987
990
991
993
992
997
993
992
988
989
991
994
994
991
989
989
989
993
996
992
989
988
991
992
995
990
989
990
992
994
992
990
991
991
995
994
993
990
988
991
995
1000
998
997
997
997
1003
1006
1009
1010
1012
1010
1009
1012
1010
1006
1004
1004
1008
1007
1004
999
999
995
997
999
995
993
990
990
992
993
995
995
994
995
992
990
987
984
982
983
987
989
984
982
980
982
984
987
988
987
986
982
985
987
991
986
977
971
970
977
980
982
980
979
979
980
980
977
978
980
983
986
987
990
989
989
992
999
1004
1011
1022
1033
1050
1063
1072
1069
1061
1043
1027
1016
1017
1024
1039
1067
1099
1128
1148
1157
1161
1157
1142
1123
1105
1087
1067
1051
1029
1008
982
957
943
938
939
943
944
944
940
947
956
969
974
975
973
973
969
970
970
972
974
974
975
973
973
973
972
976
981
987
992
990
985
983
982
979
977
974
977
977
984
983
985
981
985
991
998
1002
1005
1005
1006
1009
1016
1023
1027
1026
1026
1027
1026
1025
1024
1026
1033
1036
1041
1047
1051
1052
1051
1055
1062
1063
1062
1056
1058
1061
1066
1074
1074
1075
1073
1075
1076
1073
1073
1068
1058
1055
1051
1050
1047
1039
1031
1026
1022
1020
1016
1009
1006
1006
1009
1011
1011
1006
1000
998
998
1001
998
996
991
987
987
985
987
989
985
988
992
995
996
993
989
991
995
996
998
996
994
994
997
1001
1002
1003
1002
999
1000
998
994
992
989
989
990
990
990
988
986
988
991
990
986
983
983
985
987
991
989
986
985
984
987
989
990
986
985
985
987
992
991
989
987
986
986
984
982
984
982
982
985
986
978
979
975
976
982
981
984
981
979
983
986
989
990
992
991
991
993
993
994
993
995
998
1004
1013
1016
1015
1006
995
986
983
983
984
981
978
978
980
979
969
967
964
969
970
972
966
963
967
971
973
969
964
960
961
965
970
968
963
962
961
963
966
966
963
957
959
960
961
960
956
956
957
958
965
962
958
957
958
960
964
961
959
957
959
962
964
963
963
959
961
969
976
984
989
997
1011
1028
1042
1054
1051
1043
1027
1007
988
975
974
989
1019
1053
1090
1111
1120
1119
1112
1097
1080
1058
1035
1006
983
962
944
933
920
908
906
907
911
918
920
926
933
942
948
945
939
938
939
947
953
948
947
945
945
947
948
950
947
941
938
944
947
949
952
951
952
954
958
960
960
958
957
966
972
973
972
969
972
980
982
985
985
987
991
993
996
996
1000
1003
1013
1024
1027
1026
1017
1010
1012
1023
1033
1036
1037
1037
1042
1048
1055
1056
1053
1049
1047
1048
1051
1048
1044
1042
1040
1037
1033
1026
1021
1014
1009
1010
1012
1008
999
993
988
985
982
983
985
986
988
994
994
989
979
976
974
981
983
981
981
981
984
985
986
982
979
979
982
982
978
974
971
972
979
984
989
986
988
983
980
985
990
989
990
986
987
992
996
993
994
993
992
996
997
995
993
989
989
992
995
996
995
994
996
996
996
991
987
986
990
993
995
995
990
992
992
996
995
995
991
990
989
990
992
991
992
992
992
993
998
1000
999
997
1000
1003
1006
1005
1000
996
1000
1009
1014
1016
1012
1008
1009
1009
1011
1005
1005
1003
1006
1007
1007
1006
1005
1000
999
997
999
997
995
997
998
999
998
998
992
990
987
989
991
998
994
992
988
995
1000
1002
1002
994
984
978
983
982
981
982
982
985
988
987
985
985
983
984
986
986
984
984
985
993
993
994
992
992
997
999
999
997
998
999
1008
1020
1033
1045
1051
1061
1069
1078
1081
1073
1057
1037
1027
1029
1038
1057
1079
1104
1130
1154
1166
1166
1158
1137
1119
1103
1089
1072
1051
1024
1000
985
977
968
958
952
953
959
964
969
973
977
980
986
988
988
985
981
983
990
993
993
991
987
983
986
988
989
988
983
985
990
994
994
992
993
995
999
995
995
993
994
1000
1008
1015
1021
1019
1013
1007
1011
1014
1016
1017
1015
1017
1019
1027
1031
1030
1026
1028
1035
1041
1045
1046
1045
1046
1049
1054
1057
1062
1062
1064
1063
1068
1067
1070
1070
1071
1073
1077
1074
1069
1065
1061
1060
1056
1051
1041
1031
1025
1027
1029
1024
1021
1016
1017
1016
1012
1011
1007
1007
1005
1005
1006
1004
1001
1000
1000
1001
1005
1001
1001
997
997
999
1001
1001
1000
999
1001
1005
1004
1005
997
1001
1002
1002
1004
1005
1001
1001
999
1002
1004
1001
998
996
997
998
1002
1001
999
995
995
998
1003
999
996
993
994
997
999
998
994
993
994
997
999
997
990
994
992
996
997
994
990
986
988
994
995
995
989
985
988
991
995
992
996
996
998
1000
1001
1000
999
996
998
1003
1005
1006
1005
1003
1003
1005
1008
1007
1002
998
999
1003
1002
999
997
992
992
992
995
995
990
987
990
991
991
988
985
981
981
983
980
979
978
975
975
978
982
981
977
977
977
975
978
978
977
974
974
976
977
980
977
976
977
978
980
981
978
976
975
977
981
982
979
977
979
981
981
983
984
981
983
993
999
1001
1006
1012
1029
1046
1065
1077
1087
1089
1092
1084
1073
1057
1047
1045
1055
1076
1103
1133
1159
1173
1186
1194
1196
1182
1157
1138
1119
1102
1082
1055
1026
997
978
965
956
945
939
934
938
946
954
961
962
961
961
966
970
968
967
965
971
974
976
973
973
967
966
972
975
976
973
968
970
971
978
977
976
975
977
982
985
984
976
980
979
986
988
989
991
989
991
993
999
999
996
996
998
998
1004
1006
1009
1006
1010
1012
1019
1022
1023
1023
1021
1020
1025
1028
1031
1034
1039
1042
1047
1049
1050
1048
1048
1049
1054
1053
1051
1054
1057
1060
1065
1063
1059
1056
1054
1056
1054
1050
1040
1034
1030
1029
1024
1018
1014
1009
1007
1011
1010
1006
998
992
988
990
993
990
988
986
984
986
988
982
979
980
978
981
983
982
982
977
977
982
985
987
981
977
972
972
973
971
970
970
972
973
977
977
973
969
968
972
977
974
974
968
968
969
974
975
973
967
971
973
974
975
969
966
964
963
969
971
966
961
960
962
967
964
961
957
955
964
968
969
965
960
956
956
957
957
957
957
955
958
956
957
958
958
962
967
968
967
968
967
963
966
963
960
962
961
966
972
978
979
980
980
976
975
973
971
965
962
963
965
970
970
968
969
967
970
969
963
965
966
967
970
973
969
965
960
959
960
960
956
954
958
963
967
964
959
954
956
960
961
963
963
962
962
963
963
965
966
965
965
965
970
970
973
970
969
969
971
976
976
972
966
967
969
970
971
969
968
969
975
981
986
988
990
996
1008
1017
1030
1039
1054
1067
1074
1075
1066
1044
1027
1014
1012
1019
1031
1048
1069
1099
1123
1146
1159
1160
1151
1136
1118
1107
1095
1078
1057
1035
1014
993
974
962
953
946
944
945
944
943
942
946
953
961
964
964
963
964
964
970
971
970
972
971
972
975
973
974
970
973
974
975
970
968
967
969
974
979
975
972
972
980
986
992
993
992
991
990
990
990
988
987
987
990
996
1002
1009
1012
1015
1012
1006
1002
1000
1002
1006
1011
1018
1024
1020
1019
1016
1018
1026
1032
1035
1036
1035
1035
1040
1044
1047
1048
1047
1050
1054
1059
1063
1063
1062
1061
1056
1058
1055
1051
1048
1045
1042
1044
1038
1030
1019
1010
1006
1007
1002
995
991
992
994
1000
994
991
986
987
990
995
992
989
982
981
984
989
989
985
984
980
980
981
981
981
982
982
985
990
990
988
981
984
984
986
988
987
987
988
989
993
989
981
978
976
980
979
978
980
978
979
983
984
982
978
979
982
983
986
987
984
986
980
984
984
985
984
982
986
988
992
987
982
976
980
983
984
976
967
965
970
972
980
979
977
975
975
977
981
980
979
976
976
980
981
982
980
981
984
989
995
992
985
982
974
975
979
981
982
986
990
995
1000
1000
994
993
990
991
995
998
999
1000
999
996
988
974
962
954
957
969
977
978
972
971
970
976
978
974
967
966
967
971
976
975
975
971
970
968
974
972
970
964
966
969
971
968
971
968
967
969
972
975
975
974
978
979
979
974
964
954
954
960
966
970
968
968
969
972
978
980
979
979
984
991
1003
1013
1023
1029
1035
1041
1041
1033
1016
996
973
957
959
967
976
992
1009
1031
1053
1067
1082
1090
1086
1075
1059
1041
1023
1007
993
976
963
952
939
929
923
926
931
934
938
945
954
964
973
978
981
987
986
983
982
982
981
981
982
988
990
990
993
992
996
999
1000
1002
1001
1000
999
1005
1009
1011
1005
1004
1003
1010
1017
1016
1018
1017
1016
1019
1021
1021
1020
1018
1020
1027
1035
1039
1039
1035
1038
1040
1046
1049
1050
1049
1050
1059
1061
1067
1069
1069
1070
1077
1083
1081
1079
1078
1079
1086
1094
1094
1091
1084
1075
1074
1074
1077
1079
1079
1081
1080
1082
1078
1073
1065
1061
1059
1059
1053
1046
1036
1029
1024
1022
1022
1019
1014
1015
1017
1019
1018
1010
1001
997
1002
1007
1010
1010
1009
999
990
983
979
979
979
985
991
994
992
992
988
990
992
996
995
995
993
993
994
999
1000
994
997
996
1000
1001
999
995
992
993
992
996
1000
993
997
995
995
1002
1001
1000
997
997
997
999
997
996
995
994
995
998
997
996
994
997
1005
1011
1008
999
986
981
984
986
985
982
980
982
984
989
990
987
988
987
989
992
992
990
987
992
999
1005
999
992
988
983
985
987
988
990
991
994
1001
1000
995
990
978
984
989
998
1001
1001
1003
1005
1009
1011
1007
1003
999
995
993
996
997
999
999
993
990
986
985
982
981
983
993
1001
1004
1001
1000
1000
990
973
960
956
967
984
995
992
976
959
944
942
952
963
969
963
958
959
962
964
966
964
964
963
967
970
968
963
961
963
970
976
977
976
971
965
963
967
970
973
972
974
982
989
1001
1011
1023
1028
1028
1023
1003
972
937
904
891
900
927
962
995
1024
1047
1055
1049
1032
1011
990
974
962
943
925
908
901
907
916
931
939
951
959
959
960
959
964
968
967
969
967
964
967
967
967
969
976
980
979
977
974
972
977
978
978
976
973
969
972
974
976
975
980
987
997
998
997
998
1003
1005
1007
1006
1005
1013
1022
1034
1042
1042
1036
1024
1017
1024
1037
1043
1044
1039
1032
1034
1041
1049
1054
1055
1056
1057
1062
1063
1063
1066
1066
1071
1073
1074
1074
1075
1074
1076
1070
1054
1034
1027
1024
1031
1037
1036
1026
1011
1004
999
998
993
993
993
988
987
987
989
988
987
987
991
989
984
971
966
968
977
984
987
988
986
978
974
973
977
980
977
975
976
979
980
981
976
978
984
985
988
989
984
986
981
986
990
996
992
989
985
991
999
998
989
980
978
978
983
987
988
989
991
998
1001
1002
1002
996
988
986
986
986
991
988
991
988
987
989
985
982
986
992
992
996
994
995
995
997
992
988
984
986
988
993
994
994
996
1001
1004
1008
1004
1002
999
997
1001
1007
1011
1010
1005
1001
1005
1011
1013
1011
996
987
988
997
998
1003
1003
1005
1005
1007
1002
995
995
994
995
996
992
981
976
972
980
983
988
993
999
1000
996
989
983
982
981
982
983
981
981
979
980
979
987
990
990
987
982
983
990
992
987
982
976
976
984
994
1001
1002
998
998
995
995
997
1001
1000
1000
1000
1001
1009
1008
1011
1011
1024
1041
1049
1051
1040
1028
1015
994
976
962
964
976
988
1007
1035
1063
1087
1107
1114
1104
1077
1045
1018
1002
998
1000
1004
995
987
979
965
953
940
947
961
982
996
999
993
982
978
989
1006
1018
1014
1005
991
984
981
983
984
991
1000
1014
1022
1020
1012
999
991
995
1003
1012
1014
1016
1015
1015
1018
1012
1009
1014
1022
1032
1039
1042
1034
1023
1016
1017
1025
1035
1047
1051
1048
1051
1058
1060
1057
1048
1047
1055
1062
1075
1080
1081
1084
1095
1108
1116
1108
1084
1061
1057
1074
1094
1101
1095
1083
1072
1075
1077
1083
1091
1097
1105
1102
1086
1062
1041
1018
1010
1010
1017
1027
1033
1026
1024
1022
1025
1036
1045
1056
1053
1029
999
978
977
993
1007
1021
1024
1020
1013
1007
1011
1024
1029
1032
1023
1013
1019
1033
1034
1020
999
983
991
1010
1021
1023
1021
1019
1021
1022
1023
1022
1019
1020
1030
1038
1045
1039
1027
1019
1014
1005
998
997
1006
1019
1027
1031
1032
1023
1010
999
998
1007
1020
1023
1027
1023
1024
1024
1027
1026
1023
1012
1001
994
1000
1011
1016
1022
1033
1030
1021
1004
994
998
1005
1008
1010
1013
1018
1028
1033
1033
1025
1015
1010
1007
1009
1013
1020
1025
1029
1027
1032
1035
1038
1031
1018
1010
1008
1012
1019
1022
1021
1024
1028
1026
1024
1017
1005
998
997
1004
1009
1006
1009
1012
1022
1024
1020
1010
1001
997
996
998
994
989
986
987
990
994
1001
999
1003
1006
1008
1015
1026
1027
1013
988
975
977
988
991
991
985
986
993
1000
1002
1005
1002
1002
1002
1006
1011
1009
1004
995
991
1000
1010
1024
1037
1049
1059
1069
1067
1056
1031
998
967
950
946
962
986
1018
1053
1082
1101
1110
1108
1102
1082
1060
1037
1021
1009
997
985
977
972
967
962
954
953
958
969
979
988
1001
1007
1005
987
975
977
989
1004
1004
996
984
983
990
1000
1008
1008
1009
1010
1014
1019
1027
1029
1022
1011
1002
1001
1009
1011
1011
1013
1015
1012
1018
1021
1019
1022
1021
1030
1040
1047
1049
1051
1053
1055
1058
1060
1053
1052
1059
1073
1081
1082
1076
1064
1059
1060
1071
1079
1085
1086
1090
1097
1101
1097
1089
1083
1082
1087
1094
1097
1090
1081
1076
1078
1082
1077
1069
1056
1049
1042
1032
1024
1018
1016
1018
1026
1027
1024
1015
1010
1014
1021
1026
1024
1020
1013
1006
1004
1001
996
987
986
996
1010
1022
1023
1011
992
984
994
1014
1021
1013
994
983
989
1003
1016
1017
1010
1004
1001
1007
1011
1012
1003
995
1000
1006
1017
1015
1003
989
989
998
1006
1007
1001
995
996
1002
1000
1006
1003
1010
1012
1009
1000
990
982
984
991
1002
1000
997
984
978
985
996
1001
996
989
983
