869
875
879
886
891
900
910
922
930
935
937
937
938
940
943
941
941
942
942
945
949
949
948
947
946
950
952
951
952
949
948
951
955
957
955
955
956
959
964
963
963
960
962
966
970
972
971
974
976
982
986
986
986
987
989
992
998
998
1000
1001
1004
1007
1013
1015
1016
1017
1015
1020
1027
1029
1029
1028
1028
1032
1037
1037
1041
1040
1041
1044
1049
1049
1046
1043
1039
1037
1037
1035
1026
1018
1016
1013
1013
1007
1000
995
990
986
990
988
979
976
978
974
979
978
975
969
968
970
971
971
970
968
968
968
968
967
963
962
964
967
968
968
964
965
964
968
969
969
967
962
963
965
969
967
965
963
962
968
970
965
964
962
964
967
971
969
967
961
964
966
967
968
967
963
963
966
969
967
965
963
961
964
965
964
962
961
959
962
964
963
961
959
960
962
963
962
959
957
958
962
963
963
960
957
959
963
965
965
965
963
964
967
971
974
969
968
970
973
979
981
979
977
977
981
981
981
976
973
972
974
976
973
972
969
965
965
967
967
964
963
959
963
965
963
962
957
953
955
956
954
955
954
956
956
957
957
955
952
952
954
955
956
953
952
949
953
956
956
952
949
950
953
957
956
955
953
949
952
957
958
954
950
952
957
959
964
965
968
975
981
997
1008
1022
1032
1037
1041
1038
1028
1007
985
977
987
1008
1027
1049
1072
1089
1107
1114
1107
1088
1059
1032
1015
996
976
954
933
909
896
889
883
882
882
889
898
912
923
928
933
937
944
946
947
946
943
945
947
953
953
953
951
951
953
957
958
955
953
954
953
960
961
960
958
959
962
965
968
964
965
965
971
980
979
978
979
978
984
991
992
993
993
994
1000
1003
1006
1007
1007
1012
1013
1018
1021
1020
1020
1023
1029
1031
1033
1033
1028
1033
1040
1044
1044
1042
1040
1039
1045
1046
1043
1037
1031
1028
1026
1025
1018
1011
1002
996
996
993
989
985
979
976
973
973
972
967
966
964
960
964
962
961
961
960
957
957
956
954
951
952
957
958
956
954
952
952
954
956
955
955
952
952
953
953
954
953
951
951
953
955
955
954
951
949
951
952
952
950
949
951
954
956
955
949
946
947
949
952
954
949
945
947
947
951
949
947
943
942
940
947
950
950
945
945
943
946
944
944
941
938
941
945
947
948
946
946
950
952
951
949
947
946
950
955
956
957
953
953
958
964
960
960
955
955
957
956
955
951
946
947
948
948
950
946
940
938
942
943
942
940
938
936
934
935
936
935
935
936
935
937
935
933
931
930
932
934
934
933
931
934
929
932
934
933
929
927
930
933
933
931
926
930
931
936
936
934
932
931
932
936
938
938
938
942
952
961
967
977
990
1004
1024
1038
1041
1040
1029
1012
993
975
962
966
979
997
1019
1042
1059
1071
1068
1056
1041
1025
1005
984
961
947
936
924
912
902
894
891
892
895
904
908
911
912
919
924
926
928
926
925
927
929
930
926
929
929
929
931
934
929
928
930
931
939
937
932
931
930
934
941
942
943
942
943
943
947
952
952
952
953
957
963
964
966
966
968
969
973
979
984
983
988
992
996
998
999
1003
1007
1010
1015
1020
1023
1022
1023
1026
1030
1032
1034
1035
1036
1039
1041
1038
1037
1032
1029
1025
1023
1017
1011
1002
997
998
993
989
982
977
974
972
971
968
966
966
964
963
962
964
959
953
956
959
961
959
958
955
953
956
961
961
958
954
950
956
956
958
957
954
956
954
956
956
956
955
952
955
958
962
960
959
958
958
959
962
962
958
956
958
961
962
961
960
959
962
960
966
964
960
959
963
964
966
962
961
962
963
965
967
963
962
962
964
965
968
967
966
966
968
973
974
973
971
969
975
978
980
978
977
979
982
985
986
984
981
981
983
985
986
982
980
978
978
979
979
974
971
972
972
975
976
974
971
972
972
974
973
965
963
967
969
974
976
973
967
967
971
973
973
970
968
969
968
973
974
972
971
969
972
974
975
972
971
968
973
975
975
973
970
971
973
976
976
975
974
977
978
987
989
991
997
1007
1020
1037
1046
1057
1060
1064
1064
1056
1040
1021
1005
999
1014
1029
1047
1065
1077
1097
1111
1119
1114
1098
1074
1055
1044
1035
1021
1007
992
981
967
954
940
931
927
928
935
944
952
957
959
960
963
966
971
970
966
967
968
971
974
972
970
970
971
974
973
973
969
973
972
977
976
976
972
973
978
981
981
980
980
982
982
985
989
989
983
988
992
999
1000
999
1001
1005
1007
1013
1013
1015
1016
1016
1023
1026
1029
1030
1028
1030
1033
1037
1041
1041
1041
1043
1048
1053
1057
1058
1057
1057
1064
1068
1069
1068
1065
1065
1062
1062
1056
1050
1045
1037
1038
1034
1029
1026
1018
1017
1015
1017
1014
1010
1006
1003
1006
1009
1007
1004
1003
1000
1000
1003
999
998
994
994
998
1001
998
1001
997
998
998
1000
1001
999
995
997
996
1001
1002
1000
996
997
999
1003
1002
1004
998
997
998
1005
1004
1001
999
997
999
1001
1002
999
996
996
997
1002
1003
1000
991
994
995
996
997
995
993
994
995
999
997
994
994
990
992
993
996
994
992
992
993
999
1002
1001
998
999
1000
1004
1005
1006
1002
1007
1011
1013
1009
1006
1004
1001
1005
1005
1004
1000
996
997
996
994
998
994
992
990
989
994
990
989
988
987
987
986
988
984
984
984
986
985
985
984
979
979
982
981
983
981
979
977
974
981
983
982
979
977
981
984
984
981
977
979
980
983
983
981
979
979
984
989
990
992
993
997
1004
1015
1026
1040
1053
1061
1073
1082
1081
1072
1055
1037
1026
1030
1041
1061
1084
1111
1135
1155
1162
1161
1147
1126
1102
1086
1070
1048
1028
1007
989
972
954
944
936
931
935
939
949
955
962
966
973
979
981
980
978
977
979
982
984
983
981
980
983
988
989
989
987
989
988
992
995
992
990
991
995
995
997
994
995
996
1000
1001
1003
1005
1004
1004
1010
1013
1015
1014
1013
1009
1017
1020
1023
1023
1020
1024
1027
1034
1033
1036
1037
1038
1041
1049
1051
1052
1050
1052
1060
1059
1065
1066
1063
1066
1070
1079
1081
1082
1084
1084
1088
1093
1092
1091
1088
1084
1080
1083
1078
1074
1067
1060
1060
1059
1052
1049
1041
1034
1036
1037
1034
1032
1026
1025
1028
1029
1029
1025
1022
1020
1021
1021
1024
1019
1018
1016
1017
1019
1023
1021
1018
1017
1020
1020
1022
1020
1017
1015
1019
1023
1023
1022
1020
1016
1020
1024
1024
1020
1019
1018
1021
1023
1021
1020
1016
1018
1018
1020
1020
1019
1017
1014
1017
1018
1019
1017
1015
1012
1016
1018
1020
1019
1013
1011
1017
1014
1018
1018
1014
1014
1015
1015
1015
1014
1013
1012
1015
1015
1016
1014
1013
1011
1013
1016
1017
1012
1012
1011
1014
1018
1020
1020
1019
1019
1019
1023
1023
1021
1019
1021
1023
1027
1028
1028
1025
1024
1026
1026
1025
1025
1019
1018
1020
1021
1020
1018
1009
1008
1009
1013
1012
1013
1009
1009
1006
1009
1011
1009
1005
1003
1003
1005
1003
1004
1003
1002
1004
1004
1003
999
996
994
999
999
1000
996
993
992
995
999
996
997
994
991
993
998
999
997
996
997
994
996
997
999
993
993
994
998
999
1002
1003
1008
1012
1020
1032
1046
1064
1078
1095
1105
1106
1099
1086
1071
1064
1069
1081
1101
1118
1145
1170
1189
1198
1200
1187
1161
1140
1118
1099
1075
1053
1029
1005
983
961
945
936
934
935
944
950
959
962
965
972
975
979
979
974
974
979
978
981
982
977
975
979
983
982
983
980
979
983
983
987
981
983
981
984
990
991
991
986
988
991
996
995
998
997
996
999
1005
1006
1005
1007
1008
1010
1014
1013
1017
1018
1022
1026
1031
1032
1029
1029
1035
1040
1045
1046
1045
1047
1048
1051
1056
1060
1061
1058
1062
1066
1072
1071
1071
1066
1066
1066
1067
1065
1058
1051
1044
1039
1036
1033
1025
1020
1017
1017
1016
1014
1011
1006
1003
1002
1005
1003
1000
997
996
996
1000
998
995
994
991
989
992
991
990
986
987
987
988
990
989
985
983
985
987
987
987
981
985
982
983
986
983
982
980
982
983
986
983
978
975
978
982
982
980
976
974
976
978
979
977
977
977
978
982
981
979
978
975
974
976
975
976
970
971
972
974
976
974
971
969
970
973
971
972
967
966
969
971
971
969
965
963
963
971
973
969
968
966
968
968
969
968
970
970
969
975
975
971
972
974
976
979
979
981
972
974
974
974
973
973
970
969
969
969
967
965
959
956
955
957
958
957
954
954
952
953
955
953
951
945
943
946
953
952
949
945
949
946
949
946
943
944
945
948
948
946
943
943
944
945
943
945
943
943
945
947
947
946
943
940
944
947
945
945
940
941
943
949
949
950
948
952
958
962
973
981
992
1006
1024
1043
1057
1058
1052
1033
1016
995
983
979
983
1000
1024
1047
1071
1081
1087
1092
1090
1076
1056
1036
1015
1000
981
967
950
936
919
908
902
898
900
904
905
908
918
924
929
927
926
926
931
932
933
932
931
931
932
937
938
935
934
933
933
936
934
932
937
932
935
939
943
945
941
941
944
947
949
948
948
949
953
958
958
957
961
960
963
971
972
973
974
974
983
986
994
994
997
996
1003
1010
1014
1015
1015
1017
1023
1027
1031
1034
1032
1034
1041
1047
1048
1050
1048
1048
1049
1051
1048
1044
1038
1031
1032
1029
1027
1021
1014
1009
1006
1004
1001
997
995
992
990
994
991
990
984
984
988
988
990
988
987
986
989
990
991
987
987
985
986
992
992
993
987
986
987
994
996
995
991
992
991
992
994
996
993
993
992
996
998
996
994
993
995
999
1001
999
996
996
997
996
998
998
996
995
997
1001
1001
1000
997
994
995
999
1000
999
998
995
996
999
1000
998
995
993
995
996
995
993
993
993
995
998
996
996
994
994
996
1001
1000
998
999
1001
1002
1006
1007
1004
1005
1001
1004
1008
1011
1010
1008
1012
1012
1012
1013
1010
1007
1004
1007
1008
1008
1005
999
998
993
1000
1000
997
992
991
991
992
996
991
989
985
987
989
987
984
977
979
982
985
987
980
979
977
978
980
978
978
973
973
977
978
978
977
973
973
973
976
977
977
971
972
973
974
975
974
969
971
972
978
979
979
976
974
976
985
988
987
993
999
1011
1028
1047
1065
1072
1084
1091
1091
1079
1068
1054
1053
1057
1072
1090
1114
1138
1159
1174
1188
1185
1165
1138
1114
1096
1081
1061
1040
1013
987
959
942
929
923
923
925
930
941
947
951
947
948
951
952
953
952
950
948
951
953
955
954
950
951
953
958
961
958
954
955
956
958
961
960
956
954
961
961
964
963
961
962
967
969
970
971
969
970
973
978
981
980
980
983
987
992
995
994
996
999
1005
1009
1014
1013
1021
1022
1024
1031
1036
1038
1037
1038
1042
1043
1039
1034
1026
1022
1019
1017
1013
1007
1001
993
991
992
992
988
984
980
981
978
980
978
972
970
971
972
974
972
970
967
969
972
971
971
963
963
967
966
968
969
965
962
963
969
967
967
965
961
966
968
968
966
963
963
966
969
966
966
962
963
963
964
965
965
962
959
960
964
964
965
962
957
959
961
962
961
957
954
956
960
959
958
955
952
954
956
956
955
953
952
954
954
958
952
950
950
949
950
953
948
949
948
945
950
954
955
955
957
958
958
962
960
959
958
963
966
965
965
960
960
962
964
967
961
956
956
954
957
955
952
949
947
947
949
950
948
946
942
944
946
949
945
940
938
938
937
940
939
936
935
935
937
935
935
933
933
933
938
939
934
933
931
931
936
939
937
932
930
932
934
938
937
932
933
935
936
938
937
933
933
935
939
939
941
943
944
949
958
967
976
986
1004
1026
1041
1049
1051
1043
1029
1017
1010
1010
1016
1024
1043
1069
1094
1116
1131
1136
1134
1124
1109
1085
1059
1041
1021
1003
983
964
937
916
899
887
884
887
886
888
892
901
910
917
917
915
914
916
919
919
918
916
915
919
922
923
921
917
918
921
927
925
925
923
922
924
928
931
927
922
927
928
931
933
934
930
932
933
938
940
940
939
938
944
948
952
953
950
952
957
961
964
962
963
965
972
975
976
978
979
983
988
992
994
995
996
996
1001
1005
1009
1009
1007
1010
1012
1013
1017
1015
1011
1006
1004
1001
1001
994
986
979
976
974
971
963
962
958
954
955
955
952
948
943
947
947
948
946
940
940
940
942
943
938
939
936
938
937
939
939
937
935
937
936
943
939
937
933
937
938
941
938
936
933
936
938
942
938
934
933
935
938
936
937
935
934
936
936
939
936
935
934
934
935
938
935
932
931
933
936
938
936
932
932
930
934
937
933
933
933
934
934
936
935
932
929
933
937
936
933
930
928
930
932
935
931
930
929
933
936
938
941
937
937
939
940
942
944
942
945
944
949
952
950
950
950
948
951
950
944
943
942
937
942
942
941
935
935
934
938
937
933
931
929
932
934
934
930
925
925
925
928
930
927
925
918
919
923
924
925
922
920
920
923
924
925
920
918
923
924
923
924
921
919
920
921
924
921
921
918
920
925
926
925
920
920
926
930
935
940
945
951
963
979
994
1008
1014
1020
1022
1014
1003
985
971
968
980
999
1025
1049
1066
1080
1089
1093
1084
1064
1037
1012
994
976
957
934
910
888
873
864
861
856
859
864
871
880
892
897
901
904
906
909
910
909
903
906
906
914
917
915
915
913
913
920
921
921
917
917
922
922
924
926
923
923
927
929
933
933
931
932
933
938
941
944
942
944
945
949
954
956
952
955
957
961
965
966
969
969
972
977
984
988
986
986
987
995
1000
1000
999
999
1005
1011
1016
1016
1016
1015
1015
1019
1022
1019
1014
1010
1009
1008
1003
997
991
983
979
976
973
967
959
958
955
954
954
951
948
947
944
945
945
943
940
939
935
940
939
936
937
937
938
941
944
940
939
936
938
941
939
939
937
933
935
938
937
939
937
935
939
940
941
937
938
934
937
939
943
942
938
936
935
938
941
939
937
935
936
940
941
940
937
934
936
940
940
940
937
936
937
940
941
938
936
934
936
936
940
939
935
936
936
936
939
938
934
934
937
936
936
937
937
938
940
943
950
948
942
943
945
948
952
952
950
950
954
954
957
954
951
948
948
949
951
948
941
940
940
942
943
939
937
936
935
936
939
938
934
929
928
928
933
932
929
929
932
932
932
931
926
927
926
929
930
930
927
925
928
930
930
929
927
926
925
929
931
928
927
926
929
930
933
931
931
928
931
936
939
946
947
951
957
970
986
997
1009
1017
1024
1025
1018
1003
986
970
972
985
1007
1031
1051
1069
1086
1094
1090
1074
1044
1019
1001
985
966
943
923
904
890
881
875
872
871
879
887
897
906
913
917
920
923
924
924
925
924
923
924
929
932
930
929
930
930
934
936
936
934
934
937
938
940
940
939
937
936
942
948
948
944
946
947
951
957
959
956
957
961
966
969
971
970
969
975
976
982
982
981
986
987
993
997
998
999
997
1004
1007
1011
1014
1014
1011
1014
1020
1022
1022
1022
1020
1022
1027
1030
1028
1024
1018
1015
1013
1011
1004
994
992
989
986
984
977
972
966
965
967
966
964
960
955
954
956
959
955
953
949
953
953
953
951
950
949
949
952
955
953
948
948
950
950
953
953
949
951
950
951
951
952
946
949
950
952
953
953
951
948
950
954
957
955
951
949
949
950
951
947
944
941
944
949
951
948
944
945
945
949
949
948
947
944
945
946
948
945
946
945
946
947
946
947
946
942
945
948
948
946
944
943
946
947
949
947
944
945
950
953
956
952
952
953
956
960
964
962
963
962
965
965
967
965
959
956
956
958
955
958
953
949
952
956
952
942
935
933
936
941
941
936
933
931
931
933
937
941
937
933
933
938
939
937
934
933
936
939
939
940
942
939
938
933
933
934
935
935
936
940
942
938
934
938
937
938
943
947
951
955
969
986
1001
1016
1028
1041
1046
1048
1041
1022
996
984
988
1009
1034
1061
1083
1099
1110
1118
1114
1092
1065
1040
1019
999
982
956
930
910
896
893
889
887
887
891
897
906
916
919
924
925
925
927
927
929
927
927
931
933
935
937
932
935
938
941
944
943
939
937
940
941
939
937
934
937
944
945
951
953
951
949
947
949
956
957
960
961
965
969
969
969
967
969
970
976
980
984
981
985
991
994
998
1003
1002
1002
1008
1013
1016
1019
1019
1018
1021
1026
1029
1030
1029
1028
1030
1037
1039
1036
1033
1033
1032
1033
1027
1023
1013
1008
1004
1002
999
996
986
979
979
982
984
980
977
972
972
972
971
966
965
961
966
969
972
967
964
961
964
965
966
965
962
965
963
965
971
969
966
966
966
966
967
968
966
962
963
965
968
967
962
959
964
964
969
966
964
960
963
963
963
964
965
964
966
967
965
964
960
960
961
963
964
962
960
959
960
963
965
965
961
958
957
962
964
962
959
959
960
963
962
962
958
956
957
959
958
958
954
952
954
959
962
959
959
957
960
964
968
965
964
965
966
970
968
971
969
969
973
976
978
976
972
970
970
969
975
971
966
963
964
962
962
962
957
952
954
960
959
957
955
953
955
955
957
953
950
947
948
951
957
954
952
947
947
947
951
949
947
946
947
951
952
949
948
944
945
949
949
949
948
946
949
947
953
950
947
947
950
951
953
952
953
951
955
960
966
972
975
984
1000
1016
1030
1039
1045
1049
1046
1038
1027
1006
998
999
1011
1027
1054
1075
1098
1112
1128
1133
1131
1112
1087
1065
1048
1032
1013
990
967
941
920
902
895
886
885
884
892
899
909
919
921
923
930
936
936
937
932
933
938
941
941
940
940
940
941
942
945
943
942
939
941
943
947
947
944
943
946
951
953
952
950
