980
974
975
973
975
975
977
974
971
973
976
978
977
975
969
971
968
972
975
975
972
974
976
980
985
984
981
978
977
979
977
975
972
969
973
975
975
975
970
966
967
969
972
967
965
964
967
969
974
972
969
966
966
968
973
970
965
964
968
971
967
968
968
962
966
970
970
970
967
965
967
973
972
970
966
969
969
973
974
975
975
979
989
996
1004
1012
1027
1043
1062
1075
1082
1084
1074
1067
1061
1063
1071
1079
1092
1117
1145
1168
1180
1189
1175
1156
1131
1117
1099
1088
1069
1055
1040
1022
999
978
956
942
937
935
936
940
942
947
951
954
956
954
952
950
953
955
955
956
953
949
953
957
958
956
953
953
957
958
960
960
957
955
958
961
963
961
958
959
961
965
969
967
967
967
970
974
975
976
974
978
979
985
986
986
987
987
992
997
1002
1000
999
1001
1008
1010
1015
1016
1016
1014
1021
1027
1030
1032
1033
1034
1041
1046
1045
1044
1042
1041
1042
1040
1037
1030
1023
1015
1013
1010
1007
999
993
990
987
986
984
982
980
977
979
977
977
975
969
968
971
973
970
971
969
970
969
975
975
971
971
968
972
975
976
972
971
971
971
973
979
974
971
971
972
977
977
974
971
969
972
973
974
973
969
966
968
971
971
968
967
966
967
972
972
968
967
968
969
970
971
966
965
966
970
969
969
968
967
966
965
969
969
969
968
964
966
970
968
969
965
965
968
970
973
968
965
964
968
968
971
969
966
965
964
969
972
968
967
967
967
972
972
970
967
965
967
967
972
969
968
969
973
977
981
980
978
976
979
983
983
984
979
979
986
990
990
988
986
986
985
986
984
984
979
979
979
978
982
977
976
972
974
974
975
975
971
968
970
974
974
972
968
965
964
967
967
970
964
965
963
967
969
966
962
964
965
965
968
966
962
961
967
967
968
966
965
962
963
968
970
969
964
960
968
971
971
969
966
965
968
971
975
976
974
978
983
991
998
1005
1016
1026
1041
1060
1072
1079
1077
1073
1064
1058
1050
1045
1054
1072
1098
1127
1154
1172
1186
1190
1193
1184
1166
1147
1124
1104
1083
1058
1027
1002
981
966
957
949
944
938
933
936
941
950
953
955
951
952
954
957
957
958
954
954
956
959
961
958
955
955
956
960
962
960
957
957
956
960
963
964
961
961
960
964
967
966
966
966
968
971
975
974
972
971
976
981
981
984
981
982
988
992
995
995
998
1000
998
1009
1011
1012
1015
1015
1022
1026
1032
1031
1031
1030
1035
1041
1042
1045
1045
1049
1050
1058
1061
1061
1059
1060
1062
1062
1060
1055
1052
1045
1042
1043
1033
1027
1021
1015
1013
1010
1006
1001
995
995
992
993
991
987
982
983
983
986
985
981
976
974
974
978
979
979
975
974
974
977
979
976
974
973
974
976
975
972
972
970
973
975
975
972
971
969
970
975
975
971
966
969
969
972
974
972
972
969
970
970
967
970
967
965
970
967
971
969
967
968
967
969
967
963
958
957
961
966
966
965
960
958
961
967
967
963
962
961
963
968
969
967
961
959
962
966
966
966
961
963
965
966
964
963
962
963
965
967
968
969
964
965
970
974
977
977
979
976
979
981
983
981
978
978
977
981
979
980
979
977
977
980
982
981
973
972
973
974
977
973
971
968
966
969
973
972
967
969
969
971
975
969
962
963
964
967
969
969
966
963
966
965
967
968
964
962
966
969
969
966
963
963
964
963
964
964
966
963
966
966
968
967
965
964
962
968
970
967
965
963
964
966
971
970
968
967
970
974
976
978
977
982
987
999
1009
1019
1030
1047
1061
1074
1081
1081
1072
1056
1050
1043
1047
1053
1066
1087
1119
1147
1171
1184
1189
1186
1173
1154
1138
1120
1103
1085
1065
1044
1017
990
968
949
943
934
931
928
929
932
939
947
952
955
955
953
956
957
955
957
954
956
958
962
962
961
959
959
960
962
963
963
962
961
961
966
965
962
962
963
962
966
968
968
965
967
970
973
975
974
972
974
976
981
984
984
983
983
987
993
995
996
994
998
1004
1007
1009
1009
1008
1011
1015
1021
1027
1026
1027
1027
1030
1039
1041
1042
1042
1044
1047
1051
1053
1054
1053
1054
1056
1059
1055
1054
1049
1044
1041
1039
1033
1028
1022
1017
1015
1012
1010
1005
1001
997
994
996
996
991
989
986
987
989
990
987
985
983
984
986
984
984
983
981
982
983
985
982
978
977
977
984
983
982
978
975
977
977
978
978
974
972
979
980
979
976
973
971
972
973
974
972
971
969
967
971
974
972
967
967
967
969
969
967
967
965
965
968
968
969
964
963
966
968
969
968
964
961
961
961
963
962
960
958
958
960
959
959
959
957
959
958
956
950
951
949
952
954
954
956
953
952
951
952
956
959
956
957
960
962
963
964
962
961
964
969
972
973
970
966
965
969
968
963
962
958
962
961
962
959
956
953
955
956
955
953
948
949
949
954
953
949
943
940
942
946
948
947
944
944
946
943
943
944
944
942
939
943
944
946
946
939
938
944
947
946
944
940
943
945
947
945
943
941
946
948
948
948
948
947
951
952
955
954
953
955
959
964
972
974
977
988
1001
1020
1036
1050
1064
1071
1075
1071
1057
1045
1026
1023
1030
1048
1069
1091
1115
1131
1145
1149
1143
1126
1106
1089
1070
1055
1033
1011
985
963
950
936
928
919
917
917
922
929
933
938
938
939
944
948
947
948
947
948
950
952
956
954
954
952
954
955
956
956
955
955
957
961
963
964
961
959
958
963
964
964
961
964
970
969
972
972
972
973
974
979
982
984
980
984
987
992
993
995
995
994
1002
1007
1009
1009
1007
1009
1013
1019
1021
1023
1025
1025
1028
1035
1035
1040
1039
1042
1045
1050
1054
1055
1057
1058
1063
1068
1070
1069
1067
1064
1065
1065
1064
1059
1053
1046
1040
1040
1037
1033
1023
1018
1015
1015
1014
1011
1005
1002
1003
1005
1004
1001
998
994
995
999
998
997
996
992
993
994
995
992
992
989
992
993
996
990
990
991
991
996
998
996
992
991
989
992
996
994
991
990
993
995
998
995
993
991
995
994
997
996
994
993
994
996
998
996
994
994
995
996
997
994
992
993
994
996
994
997
994
991
994
994
995
993
989
989
989
995
995
994
993
989
991
990
993
991
987
986
988
991
993
988
985
985
987
989
990
990
986
989
989
993
998
997
995
994
999
1000
1001
1001
997
999
1001
1004
1010
1008
1006
1003
1004
1004
1006
1002
999
997
995
997
997
992
991
988
990
994
993
990
986
985
986
986
985
980
977
975
979
984
986
981
978
974
977
978
979
976
977
977
979
983
981
979
976
977
976
983
980
977
977
978
979
981
982
981
980
978
981
985
985
984
985
985
991
997
1006
1013
1025
1039
1061
1080
1093
1094
1080
1066
1053
1056
1074
1097
1132
1161
1180
1187
1170
1139
1116
1097
1079
1055
1022
992
965
956
951
950
952
956
958
961
966
969
968
967
965
964
967
970
969
970
967
965
963
971
971
972
969
972
972
975
972
971
972
970
969
971
975
976
972
975
977
982
980
982
981
981
982
986
992
990
990
990
993
995
1000
1000
997
1000
1003
1008
1016
1017
1017
1020
1022
1027
1035
1035
1033
1034
1039
1047
1050
1048
1049
1047
1053
1055
1059
1061
1058
1062
1065
1073
1074
1072
1071
1069
1067
1066
1063
1057
1048
1044
1041
1041
1038
1033
1023
1023
1019
1017
1017
1013
1009
1006
1006
1008
1008
1004
1001
997
999
1001
1003
1003
998
997
994
998
999
999
995
993
996
999
1001
999
998
997
998
1004
1003
1000
997
995
998
1001
998
997
997
995
998
999
1003
1000
998
996
997
1001
1002
999
996
996
997
999
998
997
993
991
995
994
996
996
995
992
993
994
994
992
991
989
989
994
996
993
988
990
990
990
992
993
990
988
992
993
991
990
988
984
984
991
990
990
987
985
990
993
996
997
996
994
999
1001
1004
1000
998
1002
1003
1006
1007
1008
1005
1005
1007
1011
1005
1005
1001
1000
1002
1005
1001
999
997
994
997
996
995
992
990
988
990
991
993
991
989
987
988
987
989
986
985
986
986
987
989
987
982
981
983
985
984
985
984
982
983
984
987
983
982
985
986
989
988
985
983
981
982
985
988
985
982
985
986
987
988
993
989
991
995
1001
1007
1011
1016
1028
1043
1063
1080
1089
1094
1092
1091
1082
1072
1064
1061
1072
1097
1127
1156
1179
1192
1203
1207
1196
1178
1155
1135
1115
1095
1072
1048
1020
993
972
962
956
949
947
945
945
952
959
963
966
965
966
972
975
975
973
971
967
972
976
979
978
975
976
977
978
981
979
974
973
977
980
984
983
980
978
982
984
988
988
986
986
987
991
993
995
993
994
998
1003
1007
1009
1007
1002
1007
1011
1014
1016
1013
1018
1022
1030
1036
1034
1037
1033
1036
1043
1046
1049
1051
1052
1057
1059
1063
1064
1065
1067
1072
1077
1078
1075
1073
1077
1076
1076
1073
1070
1062
1053
1050
1048
1044
1037
1030
1026
1024
1023
1021
1017
1011
1009
1008
1006
1009
1007
1004
1002
997
1004
1001
998
995
996
994
999
997
995
994
992
995
998
996
999
996
995
997
999
995
996
993
990
991
993
994
991
990
988
989
994
995
992
989
985
989
990
993
992
987
983
988
991
987
985
982
981
984
990
992
991
986
983
983
984
984
984
984
980
981
983
982
984
981
974
979
983
984
981
979
979
979
978
978
977
976
977
977
982
983
978
971
972
971
976
979
980
980
981
982
985
989
988
985
985
988
991
993
994
987
990
992
998
998
995
990
989
988
990
993
988
984
981
980
981
981
979
976
977
977
978
981
980
972
973
972
972
974
969
969
969
967
970
969
968
966
965
967
971
971
967
966
964
965
968
970
969
968
967
967
970
972
968
963
961
963
962
968
970
970
966
965
966
969
969
971
972
978
985
991
995
1001
1009
1025
1045
1059
1064
1061
1053
1039
1024
1013
1007
1020
1038
1069
1102
1135
1155
1165
1165
1155
1138
1115
1094
1072
1047
1024
1000
970
945
929
917
909
910
911
915
919
928
937
945
950
951
949
947
951
952
952
952
951
951
951
954
956
954
954
953
957
961
962
962
960
958
960
966
969
966
963
964
965
972
977
976
974
976
977
982
985
985
987
984
988
992
1001
1002
998
1001
1006
1012
1018
1016
1018
1019
1025
1032
1035
1037
1036
1036
1040
1042
1049
1051
1051
1052
1052
1057
1062
1060
1060
1057
1057
1057
1059
1056
1048
1042
1035
1032
1029
1024
1016
1008
1002
999
999
997
991
987
987
987
989
984
982
978
978
982
981
980
979
974
975
979
980
977
975
973
972
976
980
975
974
970
974
978
980
979
976
973
972
975
978
975
974
973
975
973
977
976
970
970
974
976
977
977
975
973
972
977
979
977
973
971
970
974
976
974
972
968
970
971
976
975
970
968
966
970
970
969
967
963
966
970
971
970
965
963
963
966
970
966
961
963
963
967
967
965
963
961
965
966
968
972
971
970
972
974
972
975
975
973
973
975
980
978
979
973
973
975
973
972
967
964
964
965
966
964
958
955
952
956
954
952
951
946
947
949
950
948
944
942
942
948
947
944
942
938
936
940
944
941
937
935
937
937
942
938
936
934
932
939
939
937
935
934
936
940
939
938
936
932
934
936
939
937
935
932
934
940
945
946
947
952
963
978
996
1012
1024
1034
1038
1036
1024
1001
976
957
959
975
998
1025
1048
1068
1088
1100
1103
1092
1070
1043
1022
1001
983
957
931
906
893
887
884
878
872
875
881
887
896
899
905
906
911
914
917
915
915
911
912
913
914
914
914
915
916
922
923
918
916
917
919
923
927
923
921
921
919
924
927
925
924
925
929
933
937
936
935
935
937
940
943
946
946
948
948
954
957
957
959
960
966
972
978
977
981
982
984
991
995
996
997
1000
1002
1007
1012
1014
1015
1015
1018
1019
1024
1021
1020
1015
1011
1009
1006
999
987
983
980
976
972
969
960
956
954
955
955
953
946
947
949
948
949
947
946
944
943
947
947
949
945
943
944
946
950
949
945
944
944
948
950
949
947
946
946
949
951
951
950
948
951
952
956
953
951
949
950
953
953
951
950
950
953
955
958
954
953
952
954
956
960
956
956
953
957
958
961
957
954
953
952
959
960
960
957
956
957
959
963
961
960
959
963
967
965
967
965
964
964
971
973
972
971
973
974
976
980
977
970
969
970
972
977
975
969
965
964
969
969
967
965
963
962
965
962
964
961
959
958
954
956
954
956
955
956
961
961
958
954
952
953
955
960
957
954
953
953
954
958
957
952
950
953
958
957
957
955
952
955
958
960
959
954
955
957
958
960
962
959
960
963
969
974
980
986
995
1009
1027
1043
1053
1062
1066
1066
1061
1055
1042
1026
1023
1035
1048
1068
1087
1106
1124
1139
1150
1148
1133
1112
1092
1081
1072
1058
1039
1019
994
972
954
945
934
926
921
920
926
933
937
939
939
943
946
949
948
945
941
942
942
946
946
944
940
943
947
949
949
947
946
947
950
949
948
948
947
950
954
954
953
948
950
951
955
959
960
958
959
961
965
967
965
968
964
971
975
977
981
982
979
983
985
990
988
992
991
994
998
1004
1004
1005
1003
1007
1013
1015
1020
1018
1018
1020
1028
1029
1033
1032
1033
1037
1042
1042
1045
1043
1039
1038
1036
1037
1030
1025
1019
1015
1012
1010
1003
996
993
992
989
991
985
982
975
976
976
980
977
972
970
972
974
974
974
970
970
970
971
975
975
970
967
967
971
977
973
968
969
966
971
975
974
973
969
971
973
976
976
972
969
971
973
976
973
970
967
970
972
974
973
969
969
969
972
972
973
968
965
969
970
973
969
969
967
966
968
969
968
962
961
965
966
970
966
964
959
963
967
967
967
965
963
962
963
966
965
961
962
964
968
969
966
965
965
964
964
971
973
971
971
971
975
979
978
976
976
976
980
984
983
983
982
981
982
986
983
980
976
976
979
979
978
973
971
970
971
973
971
969
967
968
967
970
967
965
961
959
960
960
957
961
957
958
961
962
960
959
958
958
961
962
960
958
958
956
958
962
959
958
956
954
960
962
959
956
956
957
962
961
963
959
958
961
960
965
967
965
968
974
981
988
996
1004
1017
1035
1049
1067
1074
1076
1071
1064
1058
1049
1043
1039
1046
1063
1088
1117
1140
1154
1169
1176
1177
1167
1146
1122
1106
1093
1077
1058
1030
1003
977
958
943
936
926
922
920
923
926
932
938
941
939
943
943
946
946
941
942
941
945
946
945
942
942
944
947
949
947
943
944
945
948
951
951
949
945
947
952
954
954
952
949
953
955
958
962
957
957
959
964
968
971
966
968
969
974
975
977
979
978
982
989
995
995
992
993
994
1000
1005
1007
1007
1007
1008
1015
1020
1021
1020
1017
1025
1028
1030
1033
1034
1031
1033
1035
1034
1035
1029
1025
1022
1023
1022
1015
1007
999
990
987
984
985
978
976
968
967
968
961
962
958
957
958
958
956
950
948
951
952
956
953
951
947
949
950
951
951
948
946
949
951
951
949
948
946
947
948
952
952
946
945
945
948
952
950
947
944
943
947
949
947
946
946
944
947
951
951
942
942
942
945
947
947
943
939
939
943
948
947
942
941
941
945
949
941
935
936
939
944
946
944
938
936
937
938
941
941
939
940
940
942
943
942
940
937
939
944
947
943
940
938
942
943
946
945
944
944
946
951
953
952
950
948
949
953
954
955
954
955
953
957
957
955
954
952
954
951
953
952
949
946
946
945
948
947
946
943
942
941
942
942
941
937
933
936
937
936
938
934
933
940
936
937
934
933
934
938
940
938
934
931
934
935
936
935
935
934
938
938
942
940
938
935
935
939
943
941
941
937
940
942
947
950
952
954
960
970
983
998
1013
1026
1039
1053
1064
1061
1053
1036
1022
1006
1000
1003
1012
1030
1055
1083
1099
1117
1123
1118
1113
1096
1083
1064
1049
1029
1013
993
976
957
940
926
919
916
917
918
918
920
924
929
937
935
935
932
933
936
936
937
936
934
936
939
941
940
940
936
936
939
942
939
939
938
940
941
944
946
944
942
942
947
950
953
950
951
952
955
958
961
960
957
962
967
968
969
970
971
975
974
981
982
983
982
987
989
995
998
998
997
1000
1004
1009
1012
1010
1012
1013
1017
1024
1027
1028
1029
1031
1040
1042
1042
1041
1042
1045
1045
1047
1044
1036
1029
1029
1026
1024
1020
1013
1008
1003
1003
1001
995
991
984
985
987
987
985
984
980
978
980
981
980
975
974
976
980
982
977
976
972
970
973
976
973
971
967
970
971
975
973
974
971
974
973
978
976
975
973
974
978
979
978
979
978
974
976
979
977
975
972
972
976
979
979
976
974
976
978
977
976
970
972
973
976
980
977
974
973
975
976
977
975
972
969
967
970
976
974
972
968
970
973
974
971
968
966
967
970
973
972
970
967
970
971
972
973
971
969
970
974
977
977
978
976
976
980
986
984
982
978
979
983
990
990
990
988
990
993
992
992
987
986
986
988
985
985
982
975
978
981
983
983
978
972
971
973
972
972
970
966
966
967
964
968
969
968
969
970
970
970
968
966
964
967
969
970
967
965
966
969
968
969
968
963
966
969
971
971
970
965
968
970
971
973
970
969
969
974
977
978
977
977
983
991
1003
1014
1034
1051
1072
1093
1102
1098
1082
1066
1060
1071
1092
1125
1153
1177
1191
1190
1167
1142
1118
1096
1074
1044
1014
985
963
948
939
937
941
945
946
944
951
953
959
957
956
950
952
954
957
957
956
954
953
958
961
959
957
956
957
958
960
959
958
955
957
960
962
959
957
955
957
962
