1015
1018
1018
1025
1030
1034
1035
1036
1036
1037
1044
1047
1049
1049
1050
1059
1060
1063
1064
1064
1068
1071
1076
1080
1079
1078
1079
1081
1085
1084
1086
1080
1078
1079
1077
1074
1067
1059
1054
1050
1048
1046
1039
1033
1025
1024
1027
1023
1021
1014
1012
1013
1015
1013
1013
1009
1006
1007
1009
1009
1008
1005
1000
1002
1003
1004
1006
1000
1001
1001
1005
1005
1003
1003
1001
1003
1006
1007
1004
1003
1005
1005
1007
1008
1007
1006
1003
1006
1008
1006
1004
1005
1004
1008
1009
1010
1008
1004
1006
1005
1009
1011
1010
1007
1004
1004
1010
1008
1008
1004
1005
1006
1004
1004
1006
1003
1003
1005
1005
1006
1004
1003
1003
1004
1005
1007
1005
1003
1000
999
1003
1000
1003
999
998
1000
1004
1004
1003
999
1000
999
1002
1006
1004
1004
1003
1005
1011
1010
1008
1007
1004
1008
1013
1015
1014
1011
1011
1013
1014
1015
1014
1011
1010
1010
1010
1011
1009
1004
1003
1001
1004
1004
1002
1000
998
998
1001
997
998
996
994
993
996
996
994
991
992
990
994
997
990
991
989
990
992
992
990
987
986
989
988
991
989
987
987
987
990
993
994
989
988
992
994
996
997
994
995
1000
1007
1011
1015
1021
1030
1043
1059
1068
1075
1075
1075
1068
1061
1054
1049
1054
1067
1084
1112
1133
1150
1158
1158
1150
1138
1120
1104
1086
1066
1046
1029
1006
986
967
958
955
954
953
957
961
963
968
975
978
973
972
973
973
978
977
977
977
977
978
980
982
980
977
975
977
981
982
982
979
980
981
987
989
986
981
983
987
989
993
995
996
995
997
1003
1004
1002
1003
1003
1008
1010
1016
1017
1016
1016
1021
1027
1028
1028
1029
1030
1031
1035
1042
1042
1042
1042
1045
1052
1056
1054
1054
1055
1057
1060
1060
1054
1051
1048
1042
1042
1039
1033
1024
1020
1019
1020
1016
1012
1008
1002
1003
1005
1001
997
995
990
989
994
994
991
986
988
988
993
993
990
987
984
989
991
990
990
986
983
985
986
989
986
985
982
986
988
989
989
984
983
987
986
989
988
985
980
983
986
989
987
985
984
983
986
986
986
981
983
983
986
987
984
984
980
978
984
985
981
976
980
980
982
984
980
978
977
980
983
984
981
975
974
979
981
980
978
977
975
978
979
978
978
977
976
977
978
978
977
976
976
977
981
982
979
979
976
978
983
982
985
983
982
983
989
987
985
983
982
988
991
993
992
990
991
993
994
995
992
987
986
986
987
988
985
982
978
980
983
982
979
975
974
977
978
977
975
973
968
970
970
973
968
967
965
970
973
973
970
964
965
966
965
966
967
964
965
965
969
970
968
966
966
967
970
970
967
963
965
966
969
968
965
964
962
963
969
970
970
965
965
970
973
972
976
977
979
987
994
1004
1015
1021
1034
1042
1052
1054
1046
1035
1023
1018
1020
1027
1041
1058
1079
1107
1127
1141
1147
1146
1133
1121
1105
1087
1067
1042
1020
999
980
962
947
934
922
924
923
925
927
932
933
938
947
950
952
951
952
952
955
958
956
952
953
952
956
957
957
955
954
955
958
961
957
953
955
959
960
963
961
959
959
959
964
967
965
964
965
966
971
975
975
972
971
975
979
980
978
978
978
982
990
987
991
990
994
997
1002
1004
1004
1003
1007
1009
1014
1018
1015
1013
1017
1023
1027
1029
1026
1024
1029
1031
1036
1039
1038
1038
1041
1040
1044
1044
1039
1036
1032
1032
1031
1027
1024
1014
1009
1008
1007
1004
998
993
989
989
990
987
983
978
977
978
978
978
973
970
970
970
975
973
974
967
967
970
972
972
971
969
968
969
971
973
970
968
967
970
971
971
972
969
969
972
974
977
975
972
966
971
973
975
973
969
970
973
972
974
975
971
970
970
973
973
972
970
966
969
973
973
973
968
968
970
973
974
972
968
968
969
972
972
969
967
966
969
971
973
971
964
964
965
971
972
970
967
965
968
968
970
969
967
963
966
969
968
965
962
963
965
969
972
971
971
971
973
974
974
976
976
975
979
982
984
984
981
979
981
981
983
980
976
975
977
976
974
976
970
973
972
970
973
969
966
963
965
967
970
967
965
962
960
961
964
961
960
958
961
959
961
959
956
956
958
959
961
955
955
955
958
959
962
958
957
952
958
960
960
956
954
959
955
960
958
957
956
957
959
963
965
965
962
961
964
968
973
977
977
984
992
1004
1017
1024
1029
1037
1042
1047
1039
1028
1008
998
998
1009
1030
1051
1075
1097
1123
1134
1140
1136
1123
1102
1080
1060
1037
1014
986
962
942
933
923
914
911
906
907
916
924
930
933
939
943
950
952
950
950
948
951
952
953
952
954
953
954
957
957
956
954
955
954
956
958
959
955
956
958
960
964
963
958
959
962
965
967
966
966
966
972
975
977
975
973
973
977
981
981
983
987
985
990
995
999
999
999
1000
1005
1010
1013
1013
1012
1016
1016
1024
1024
1027
1027
1025
1030
1034
1036
1038
1037
1036
1038
1041
1046
1044
1041
1038
1039
1038
1034
1029
1022
1016
1009
1012
1009
1005
996
993
990
992
988
984
977
978
977
977
978
974
971
970
971
971
971
967
965
965
968
972
973
970
967
964
964
967
970
969
963
962
966
967
968
965
964
962
964
967
969
962
967
962
963
966
965
967
965
962
965
967
966
964
962
961
962
966
968
964
961
960
963
968
967
966
965
962
964
966
966
964
960
959
958
962
961
961
962
961
963
963
962
961
959
958
961
963
961
959
956
954
956
959
961
961
959
956
955
959
959
958
959
959
961
966
966
960
961
962
965
967
971
972
970
970
968
970
972
970
967
967
969
970
969
967
963
961
961
965
965
964
961
960
956
961
962
958
956
953
952
953
956
955
953
953
955
958
957
956
953
953
956
958
957
956
953
951
954
956
961
958
956
955
953
955
960
960
958
957
956
961
962
960
959
960
961
961
965
961
962
964
966
968
971
972
970
972
978
987
993
1001
1004
1016
1030
1045
1058
1066
1068
1067
1063
1054
1038
1023
1011
1011
1024
1041
1063
1083
1101
1116
1129
1136
1132
1121
1104
1089
1076
1065
1050
1031
1011
991
980
973
965
962
957
956
962
968
973
975
978
979
983
986
986
984
982
980
980
985
988
987
985
981
982
985
989
986
986
983
985
989
989
987
988
989
992
997
999
997
994
994
998
1003
1003
1005
1003
1003
1008
1009
1015
1014
1014
1013
1018
1021
1027
1027
1026
1029
1031
1034
1040
1040
1041
1046
1048
1052
1056
1059
1058
1059
1063
1067
1068
1071
1071
1075
1079
1084
1087
1084
1081
1077
1076
1075
1072
1067
1059
1054
1051
1050
1046
1038
1034
1025
1024
1026
1023
1023
1014
1011
1014
1017
1018
1016
1010
1007
1009
1012
1011
1010
1006
1004
1004
1008
1011
1010
1006
1005
1005
1009
1011
1011
1007
1004
1007
1011
1014
1010
1007
1005
1009
1010
1012
1009
1007
1006
1008
1013
1016
1013
1011
1007
1010
1012
1013
1013
1008
1010
1013
1014
1011
1011
1009
1008
1009
1012
1014
1011
1006
1005
1008
1008
1012
1012
1009
1008
1009
1011
1013
1008
1005
1002
1003
1013
1012
1011
1008
1007
1008
1010
1013
1012
1010
1012
1014
1017
1018
1019
1019
1016
1021
1023
1027
1026
1022
1025
1027
1029
1031
1031
1029
1025
1027
1028
1029
1030
1026
1022
1024
1023
1023
1023
1021
1020
1022
1023
1025
1023
1022
1017
1018
1017
1018
1017
1013
1011
1015
1018
1020
1020
1016
1012
1011
1014
1016
1016
1012
1013
1014
1017
1019
1017
1015
1015
1016
1016
1020
1018
1016
1015
1016
1020
1021
1018
1016
1016
1018
1020
1024
1023
1019
1017
1017
1020
1025
1024
1024
1026
1029
1033
1044
1048
1055
1062
1076
1093
1104
1110
1112
1109
1105
1101
1097
1088
1093
1099
1117
1139
1162
1181
1190
1198
1202
1202
1194
1174
1154
1139
1124
1107
1088
1063
1042
1020
1011
1000
996
989
984
986
992
1001
1007
1010
1008
1008
1008
1012
1013
1011
1006
1003
1008
1013
1011
1010
1011
1008
1008
1014
1016
1016
1012
1011
1013
1012
1015
1018
1014
1013
1014
1019
1021
1018
1015
1015
1022
1023
1028
1029
1027
1026
1028
1032
1037
1036
1033
1031
1036
1041
1046
1047
1044
1047
1048
1053
1058
1055
1055
1058
1061
1062
1069
1069
1072
1069
1074
1080
1082
1084
1086
1087
1095
1099
1102
1102
1100
1099
1101
1101
1100
1091
1086
1080
1075
1075
1071
1067
1063
1058
1057
1057
1056
1053
1049
1046
1043
1045
1046
1043
1039
1038
1039
1041
1042
1040
1034
1035
1036
1038
1038
1033
1032
1031
1033
1035
1036
1033
1030
1033
1033
1036
1035
1036
1033
1031
1034
1037
1039
1037
1035
1028
1032
1035
1036
1038
1035
1032
1037
1037
1039
1035
1034
1036
1035
1039
1039
1037
1035
1033
1034
1036
1038
1034
1034
1031
1032
1035
1037
1036
1033
1031
1031
1035
1036
1037
1036
1033
1032
1035
1036
1035
1034
1032
1032
1035
1037
1035
1034
1031
1033
1035
1038
1035
1030
1029
1031
1035
1035
1040
1039
1040
1042
1041
1046
1043
1043
1042
1043
1050
1051
1051
1049
1052
1053
1055
1055
1052
1048
1047
1047
1045
1048
1045
1041
1039
1038
1041
1042
1038
1036
1035
1035
1033
1037
1035
1031
1029
1030
1031
1031
1029
1027
1026
1028
1032
1031
1027
1026
1024
1025
1028
1030
1029
1025
1025
1026
1026
1029
1027
1024
1026
1027
1027
1028
1028
1025
1024
1023
1025
1028
1029
1027
1026
1026
1026
1031
1029
1028
1027
1029
1034
1035
1034
1033
1037
1043
1051
1059
1068
1079
1098
1116
1129
1138
1136
1127
1118
1108
1102
1105
1114
1128
1150
1179
1209
1231
1245
1248
1242
1226
1206
1189
1170
1151
1126
1100
1072
1046
1025
1007
995
990
990
989
993
1002
1002
1011
1014
1019
1018
1016
1012
1015
1017
1018
1016
1015
1013
1017
1019
1021
1020
1016
1017
1019
1022
1023
1021
1019
1019
1021
1020
1024
1027
1024
1024
1026
1029
1031
1031
1029
1030
1033
1034
1037
1038
1039
1038
1038
1043
1049
1050
1052
1052
1054
1059
1065
1066
1066
1068
1073
1077
1079
1082
1083
1085
1085
1089
1098
1099
1100
1102
1106
1110
1112
1110
1111
1107
1111
1110
1111
1104
1097
1089
1088
1085
1084
1077
1071
1068
1065
1065
1063
1060
1053
1053
1050
1051
1052
1050
1046
1044
1046
1047
1049
1046
1044
1042
1043
1041
1042
1043
1038
1038
1039
1039
1042
1043
1041
1039
1035
1038
1041
1041
1039
1038
1038
1039
1042
1043
1039
1040
1038
1043
1044
1043
1039
1039
1035
1040
1042
1040
1038
1035
1038
1042
1040
1041
1037
1036
1035
1041
1041
1039
1037
1034
1036
1039
1038
1039
1037
1035
1038
1037
1041
1039
1038
1034
1037
1037
1040
1041
1035
1034
1037
1039
1041
1038
1037
1035
1036
1038
1038
1040
1035
1033
1033
1037
1039
1038
1037
1039
1042
1045
1046
1047
1045
1041
1046
1050
1053
1052
1051
1048
1049
1053
1053
1051
1045
1043
1042
1047
1046
1043
1039
1035
1037
1037
1037
1038
1034
1029
1029
1033
1031
1032
1029
1027
1023
1023
1028
1029
1025
1023
1023
1023
1023
1025
1018
1018
1016
1020
1021
1020
1017
1019
1020
1021
1021
1020
1020
1018
1020
1023
1025
1022
1018
1016
1016
1020
1023
1020
1019
1019
1022
1024
1025
1025
1023
1023
1025
1028
1030
1034
1036
1038
1043
1055
1064
1077
1088
1100
1110
1119
1120
1112
1100
1088
1081
1082
1093
1107
1129
1151
1174
1194
1209
1214
1208
1195
1172
1152
1129
1104
1078
1052
1025
1003
988
975
962
959
961
966
973
978
981
985
989
996
1000
997
994
993
996
999
1002
998
997
998
999
1001
1001
1003
1000
996
998
1003
1006
1004
1001
1001
1000
1006
1008
1007
1005
1005
1008
1012
1016
1013
1010
1009
1013
1017
1020
1022
1019
1023
1026
1029
1032
1033
1030
1034
1037
1044
1047
1048
1050
1051
1059
1061
1070
1072
1070
1071
1072
1078
1082
1083
1080
1081
1082
1088
1091
1090
1088
1084
1085
1083
1083
1078
1073
1067
1061
1061
1059
1054
1045
1041
1034
1031
1027
1025
1021
1019
1018
1017
1015
1009
1010
1006
1007
1011
1009
1006
1004
1001
1000
1002
1004
1005
1003
1000
1000
1002
1004
1000
999
999
999
1002
1003
1004
1001
996
997
998
999
996
999
995
998
999
1000
997
993
991
995
999
1001
999
997
994
993
999
1002
999
994
993
994
997
1000
999
996
995
994
999
999
1000
994
992
993
995
997
996
993
993
993
996
996
997
994
993
995
997
998
997
993
995
993
994
997
997
996
996
998
1002
1005
1007
1003
1004
1004
1008
1013
1011
1009
1011
1016
1019
1020
1020
1019
1016
1014
1018
1018
1021
1019
1018
1016
1017
1016
1013
1009
1010
1009
1013
1013
1012
1009
1007
1007
1009
1008
1007
1006
1009
1013
1015
1015
1008
1008
1009
1009
1013
1013
1013
1009
1009
1009
1011
1013
1015
1010
1008
1008
1010
1014
1013
1012
1013
1013
1017
1020
1018
1017
1012
1017
1019
1021
1019
1022
1020
1020
1019
1017
1016
1015
1014
1021
1024
1038
1047
1052
1065
1083
1098
1107
1114
1110
1107
1099
1090
1084
1078
1086
1100
1125
1153
1177
1190
1192
1183
1170
1156
1137
1116
1095
1070
1042
1023
1005
993
983
978
978
985
990
994
997
999
1002
1006
1008
1005
1003
1001
1004
1007
1008
1008
1005
1002
1003
1004
1008
1006
1004
1002
1003
1005
1007
1005
1004
1002
1005
1007
1008
1008
1008
1006
1006
1013
1012
1013
1012
1010
1014
1017
1019
1020
1019
1019
1020
1026
1028
1031
1027
1026
1029
1031
1036
1039
1040
1039
1040
1045
1049
1051
1050
1051
1054
1059
1065
1067
1064
1066
1067
1073
1078
1079
1080
1079
1080
1081
1081
1075
1069
1062
1061
1060
1059
1052
1046
1040
1038
1038
1035
1030
1025
1021
1021
1024
1024
1022
1017
1012
1013
1016
1016
1016
1012
1012
1012
1013
1016
1014
1011
1009
1009
1012
1014
1010
1007
1009
1009
1011
1012
1010
1006
1005
1008
1010
1012
1010
1009
1010
1009
1016
1019
1016
1018
1017
1018
1018
1021
1020
1017
1014
1016
1018
1020
1020
1013
1007
1007
1010
1014
1018
1024
1028
1032
1028
1023
1015
1000
994
995
999
1004
1006
1005
1005
1009
1011
1014
1008
1009
1006
1009
1010
1016
1011
1009
1007
1010
1013
1015
1015
1013
1010
1009
1012
1011
1007
997
992
995
1000
1001
1004
1004
1006
1009
1015
1020
1017
1016
1012
1010
1012
1018
1018
1014
1013
1016
1018
1018
1015
1012
1008
1006
1008
1010
1008
1006
1005
1000
1004
1001
1001
996
991
993
994
994
990
985
984
984
985
983
988
987
990
992
994
993
988
982
975
975
979
982
984
983
984
988
990
988
983
981
978
979
984
989
986
983
976
972
970
974
978
978
977
977
979
983
988
989
986
983
982
979
974
975
976
991
999
1008
1020
1033
1052
1069
1088
1098
1099
1089
1074
1065
1061
1063
1073
1088
1105
1132
1156
1176
1189
1196
1192
1176
1158
1141
1122
1106
1081
1059
1034
1011
987
965
954
946
942
947
949
951
953
955
954
953
952
950
950
954
956
962
965
963
960
958
961
962
964
967
965
961
965
966
966
964
961
961
967
967
971
969
969
965
971
969
969
970
968
969
977
979
984
981
979
982
984
987
986
988
984
987
990
993
995
996
1000
1004
1009
1011
1010
1006
1008
1011
1017
1023
1026
1026
1029
1035
1039
1040
1038
1036
1039
1040
1043
1047
1049
1047
1044
1047
1050
1054
1049
1047
1042
1037
1032
1031
1026
1021
1016
1015
1019
1016
1013
1004
997
988
986
987
988
986
985
985
986
986
983
978
979
983
983
983
981
980
979
979
984
985
983
982
980
981
983
986
982
979
981
981
988
994
996
988
982
977
977
979
978
979
980
980
981
987
985
985
985
984
984
990
992
989
983
982
980
978
979
976
976
978
983
984
983
979
976
979
981
988
987
980
982
981
984
985
984
980
981
982
983
982
984
980
980
982
983
985
986
980
979
979
981
982
983
981
981
981
984
982
982
982
980
983
986
989
987
984
982
986
989
994
996
995
991
995
994
1000
1000
1001
1001
1003
1009
1015
1014
1011
1005
1000
999
1001
1000
1000
998
996
998
1001
1001
997
995
995
996
995
995
992
989
990
990
995
994
991
992
989
992
991
988
984
980
983
987
988
990
985
986
989
990
996
996
991
985
979
975
976
976
980
982
981
985
989
990
987
985
983
986
987
988
987
988
989
991
995
995
992
992
1000
1003
1008
1012
1015
1021
1030
1045
1061
1069
1077
1078
1079
1071
1063
1049
1036
1039
1053
1079
1109
1136
1163
1179
1192
1194
1194
1175
1155
1131
1110
1096
1075
1047
1018
992
976
969
962
957
950
954
956
967
976
980
982
985
988
990
995
994
988
990
993
995
996
996
995
995
997
1000
1003
1000
1001
1000
1000
1003
1005
1005
1003
1001
1005
1009
1011
1011
1011
1009
1013
1015
1020
1016
1018
1018
1020
1026
1029
1030
1029
1029
1029
1036
1043
1043
1042
1040
1044
1047
1051
1054
1055
1056
1060
1066
1071
1076
1076
1074
1073
1077
1081
1084
1084
1084
1085
1091
1095
1097
1098
1097
1099
1099
1100
1098
1093
1088
1085
1082
1078
1076
1065
1062
1058
1057
1057
1053
1046
1043
1040
1042
1042
1039
1033
1030
1032
1033
1035
1033
1029
1028
1027
1029
1031
1028
1021
1020
1021
1025
1028
1026
1025
1022
1021
1025
1027
1028
1026
1024
1026
1027
1030
1027
1024
1021
1023
1026
1024
1025
1022
1021
1024
1028
1030
1028
1025
1023
1024
1025
1026
1026
1024
1023
1024
1026
1027
1029
1025
1023
1026
1029
1028
1028
1021
1020
1025
1025
1027
1027
1025
1023
1023
1027
1027
1026
1023
1021
1024
1027
1028
1029
1024
1023
1023
1027
1027
1027
1026
1022
1023
1021
1028
1025
1025
1023
1023
1028
1030
1028
1026
1023
1027
1028
1030
1029
1029
1024
1027
1032
1036
1037
1032
1032
1033
1034
1039
1040
1040
1040
1040
1043
1043
1042
1039
1038
1038
1039
1041
1038
1034
1035
1035
1035
1035
1030
1028
1024
1025
1027
1029
1028
1026
1023
1024
1025
1026
1026
1020
1016
1016
1018
1019
1021
1016
1013
1013
1014
1013
1012
1008
1008
1009
1010
1010
1010
1006
1006
1008
1007
1009
1008
1007
1006
1005
1007
1004
1005
1005
1001
1002
1005
1008
1004
1001
1002
1004
1004
1008
1006
1005
1001
1002
1007
1014
1017
1023
1025
1039
1053
1070
1083
1094
1098
1098
1092
1082
1058
1039
1031
1043
1063
1090
1117
1142
1160
1172
1181
1181
1166
1146
1119
1094
1071
1050
1026
997
974
959
952
945
940
935
936
944
956
964
967
972
971
973
973
977
978
974
974
975
975
976
977
977
975
977
982
984
985
981
976
979
983
984
985
980
981
984
988
991
990
988
986
988
993
997
999
998
997
999
1005
1005
1009
1004
1002
1010
1018
1023
1024
1022
1022
1027
1032
1037
1041
1046
1054
1060
1061
1057
1050
1046
1049
1055
1068
1074
1077
1074
1070
1068
1071
1078
1086
1085
1085
1085
1087
1088
1079
1069
1056
1052
1048
1053
1048
1041
1029
1025
1025
1029
1029
1025
1024
1024
1026
1021
1014
1004
1004
1011
1019
1017
1007
997
992
998
1006
1011
1010
1006
1001
999
1003
1006
1011
1013
1009
1007
1009
1010
1004
1002
1001
1009
1011
1012
1008
1005
1006
1006
1008
1009
1005
1002
1002
1006
1012
1014
1007
1002
997
998
1007
1009
1008
1008
1003
1003
1005
1007
