925
929
930
927
925
925
927
929
930
927
927
926
928
930
931
928
926
928
930
934
932
930
929
929
930
933
932
934
932
934
939
950
955
964
978
996
1019
1039
1049
1052
1048
1036
1022
1008
1005
1011
1024
1045
1072
1099
1118
1131
1135
1129
1115
1098
1079
1064
1049
1030
1014
993
968
944
927
913
905
904
906
903
907
910
915
921
922
918
918
915
917
919
918
916
918
920
921
923
924
923
920
919
923
926
924
923
919
920
923
924
926
923
922
924
925
930
929
927
927
928
931
936
935
934
933
933
938
942
943
942
943
943
948
953
955
954
955
955
961
966
970
968
969
972
979
983
987
988
989
992
999
1005
1006
1006
1006
1007
1008
1007
1003
994
990
989
984
983
979
975
969
965
967
967
964
959
957
957
957
961
955
951
949
947
948
954
954
950
948
948
947
951
952
948
944
946
950
954
951
950
949
948
951
952
952
950
947
949
954
956
955
951
949
947
949
952
952
952
948
949
950
950
949
951
948
950
952
954
954
952
950
950
952
956
955
954
949
946
948
950
952
950
950
951
953
954
957
952
952
951
952
950
950
951
948
948
947
951
953
949
947
948
950
953
953
950
951
951
959
961
961
960
959
960
962
966
967
965
964
968
970
974
973
970
967
965
967
968
966
962
959
956
956
959
959
957
953
950
953
957
956
952
948
945
947
951
951
948
947
943
944
946
944
943
942
944
948
947
948
946
945
944
947
952
948
946
944
942
950
952
950
949
945
948
947
948
950
947
944
947
950
954
955
958
957
961
969
977
984
997
1012
1034
1056
1077
1086
1085
1076
1063
1054
1051
1050
1060
1071
1091
1116
1141
1161
1175
1184
1184
1172
1157
1138
1122
1108
1091
1076
1057
1031
1004
978
959
945
934
925
922
920
923
929
935
935
935
934
932
934
938
938
934
933
933
937
939
936
935
931
936
938
938
939
938
935
934
938
941
940
940
936
936
940
943
940
938
938
939
940
945
945
946
944
946
948
952
952
949
949
949
953
956
960
961
958
960
962
967
969
970
969
974
976
980
981
982
981
983
987
990
994
996
1000
1004
1009
1012
1018
1018
1019
1020
1023
1027
1027
1020
1016
1012
1011
1006
1007
997
993
994
992
992
985
981
976
975
975
976
974
972
968
968
971
972
970
966
966
965
966
967
968
966
965
964
964
966
968
962
963
961
966
964
968
965
963
965
965
967
966
966
960
962
964
967
969
962
960
963
964
967
967
965
963
962
962
965
965
966
962
964
967
968
968
964
962
963
965
966
967
961
960
960
964
967
965
965
963
958
963
967
964
962
962
962
963
965
967
965
961
961
963
965
965
962
961
962
961
967
966
966
962
962
964
968
967
965
964
964
966
971
973
973
971
970
972
977
975
975
973
974
976
981
980
978
977
977
977
982
979
977
973
974
973
977
974
970
966
964
966
969
968
968
963
964
964
969
967
965
961
959
958
960
960
956
956
960
959
961
961
957
955
955
958
960
961
957
956
952
955
959
959
958
957
956
960
962
961
960
957
956
958
964
963
961
957
955
960
965
962
961
961
962
964
968
968
968
968
968
976
985
989
998
1009
1026
1049
1068
1078
1084
1082
1073
1062
1054
1047
1047
1052
1066
1087
1111
1138
1159
1170
1184
1189
1182
1165
1143
1122
1107
1094
1078
1054
1027
999
977
961
950
939
932
926
924
929
939
943
945
945
947
949
951
953
951
949
948
949
956
953
953
952
949
951
953
956
956
953
953
956
957
957
957
952
952
954
957
958
956
956
955
958
960
962
962
960
960
963
964
965
967
964
964
968
970
972
973
973
970
976
981
982
984
982
983
986
990
994
994
994
993
998
1003
1006
1007
1005
1005
1011
1016
1020
1019
1018
1023
1028
1034
1036
1039
1038
1038
1040
1044
1041
1038
1031
1028
1027
1023
1020
1013
1010
1003
1003
1005
1004
998
992
989
989
989
986
983
982
983
982
986
985
984
981
979
981
980
982
978
977
976
978
983
981
976
974
973
978
980
980
979
975
976
974
981
979
978
979
977
978
982
980
981
980
979
980
981
981
978
976
974
975
978
980
977
975
976
978
977
978
979
974
974
975
980
978
977
975
973
977
979
980
979
975
974
976
980
980
975
974
973
976
979
980
979
976
974
978
977
980
978
977
975
975
979
980
979
977
975
980
981
984
980
981
980
985
988
988
986
985
984
987
990
992
993
990
993
994
996
996
995
991
990
991
994
995
992
985
982
986
990
990
984
983
979
981
982
980
980
978
980
980
980
981
977
975
972
977
980
980
979
974
974
974
980
979
974
971
973
975
976
977
978
975
973
974
977
978
976
974
974
976
979
979
976
974
973
975
979
977
975
976
976
977
982
985
980
982
983
986
994
1000
1001
1009
1021
1036
1052
1068
1080
1085
1086
1084
1076
1064
1055
1049
1051
1071
1093
1119
1145
1165
1182
1195
1193
1182
1160
1136
1117
1102
1081
1059
1030
1008
988
974
964
954
944
943
946
949
958
963
967
966
963
970
970
973
970
969
967
968
972
969
973
969
969
972
975
975
974
969
970
971
974
979
977
977
977
978
981
982
979
980
980
982
986
988
987
987
985
988
993
995
993
993
995
996
1000
1000
1000
1000
999
1003
1009
1012
1014
1011
1014
1019
1023
1027
1027
1025
1027
1029
1032
1038
1039
1037
1038
1042
1046
1049
1051
1052
1052
1054
1059
1064
1061
1058
1056
1056
1057
1054
1044
1037
1035
1035
1035
1032
1024
1019
1015
1014
1018
1014
1011
1006
1004
1005
1007
1005
1004
998
1000
1000
1003
999
998
996
996
996
999
1000
995
995
992
994
995
994
991
990
993
995
995
997
997
993
994
996
994
996
995
992
994
996
999
998
995
993
993
994
995
995
995
994
991
992
997
994
994
993
993
996
997
996
995
991
988
992
995
996
993
991
990
991
994
996
994
992
988
990
993
995
995
991
990
992
995
996
994
992
991
993
993
993
995
991
992
993
995
996
995
992
989
990
995
998
993
992
994
998
1001
1005
1004
1000
1000
999
1004
1007
1007
1008
1007
1010
1012
1015
1013
1009
1008
1009
1008
1011
1009
1004
1002
1002
1003
1002
1002
995
995
998
1001
998
998
993
992
995
997
996
991
992
989
991
993
995
995
990
990
991
993
992
988
987
990
992
994
991
991
988
989
990
993
993
994
990
992
993
994
995
993
990
991
990
994
997
996
991
993
997
999
1003
1003
1001
1005
1010
1019
1026
1036
1046
1060
1075
1088
1094
1088
1075
1057
1052
1051
1062
1077
1099
1122
1151
1176
1189
1190
1183
1166
1144
1128
1110
1087
1059
1034
1011
995
981
967
961
953
958
964
970
974
974
977
979
985
986
984
981
980
984
987
989
986
983
985
987
988
992
989
989
986
989
990
994
996
992
994
999
1001
999
1003
999
999
1004
1008
1011
1014
1011
1012
1012
1019
1022
1024
1023
1024
1030
1036
1039
1040
1040
1042
1047
1051
1054
1055
1053
1052
1056
1061
1064
1063
1061
1062
1065
1068
1070
1072
1068
1069
1068
1066
1066
1058
1053
1046
1044
1043
1040
1032
1025
1021
1022
1021
1021
1015
1009
1008
1006
1009
1011
1009
1003
999
1000
1003
1004
1002
997
997
999
999
1002
1001
995
993
995
998
998
995
994
993
995
997
999
998
995
991
993
997
998
997
992
994
993
997
995
997
990
989
993
993
994
993
992
992
990
995
995
992
988
990
989
992
994
991
989
991
990
992
992
991
987
984
988
992
988
986
986
983
985
990
990
987
983
984
983
987
989
988
983
983
986
987
987
984
982
981
983
986
984
985
984
980
982
986
987
986
986
986
989
990
990
990
988
990
991
993
994
993
996
996
998
1001
1000
1000
997
993
994
997
995
992
988
988
988
990
989
984
983
981
981
984
985
982
978
975
979
977
978
977
975
974
976
978
978
977
970
972
974
976
976
973
967
970
970
972
976
972
968
966
970
974
975
970
965
962
968
972
970
968
965
964
970
972
972
974
970
968
969
976
978
980
980
985
994
1005
1018
1030
1038
1045
1050
1051
1038
1024
1001
985
979
987
1003
1024
1050
1073
1096
1113
1123
1122
1110
1091
1069
1052
1029
1010
990
969
951
942
930
926
920
918
920
926
933
939
941
944
952
960
961
960
957
957
960
962
965
963
962
960
963
966
967
967
964
963
966
971
972
971
969
968
971
975
977
976
976
975
978
983
987
986
985
983
986
991
993
996
998
999
1001
1008
1010
1011
1011
1013
1016
1021
1023
1027
1027
1028
1034
1040
1042
1045
1042
1044
1048
1052
1057
1059
1056
1059
1063
1067
1070
1070
1067
1068
1070
1071
1070
1066
1057
1054
1053
1051
1047
1041
1036
1031
1027
1026
1027
1021
1020
1016
1015
1017
1016
1014
1009
1009
1011
1014
1013
1010
1008
1008
1010
1013
1015
1012
1010
1007
1010
1013
1016
1014
1010
1009
1011
1012
1016
1016
1013
1010
1014
1014
1017
1017
1011
1014
1012
1018
1020
1018
1014
1016
1016
1018
1018
1017
1013
1014
1016
1019
1018
1018
1015
1013
1018
1021
1019
1014
1012
1012
1015
1017
1021
1018
1015
1016
1016
1018
1017
1015
1012
1008
1012
1014
1018
1015
1011
1011
1012
1014
1014
1015
1010
1010
1014
1013
1017
1014
1010
1012
1013
1016
1014
1014
1012
1013
1015
1019
1022
1023
1021
1019
1021
1025
1023
1023
1021
1023
1024
1029
1030
1029
1026
1024
1025
1027
1024
1025
1023
1019
1019
1020
1020
1017
1013
1012
1015
1016
1016
1015
1011
1006
1010
1012
1012
1010
1005
1004
1004
1008
1009
1010
1006
1001
1003
1005
1005
1004
1003
1001
1000
1005
1005
1004
1001
997
1000
1003
1002
1000
997
994
1000
1001
1001
1004
999
998
1000
1004
1004
1003
1000
997
1002
1003
1004
1004
1005
1005
1011
1016
1022
1028
1034
1050
1066
1083
1090
1090
1086
1072
1056
1046
1040
1044
1057
1075
1103
1134
1160
1177
1181
1178
1169
1150
1129
1105
1080
1056
1035
1015
995
976
963
955
949
952
956
962
968
973
980
986
987
987
985
982
985
990
991
991
989
988
987
988
991
993
990
988
991
993
998
996
993
993
995
998
1002
1001
996
996
1001
1004
1008
1009
1006
1005
1011
1015
1016
1019
1018
1020
1022
1024
1029
1032
1031
1032
1038
1040
1043
1047
1046
1045
1051
1056
1059
1059
1061
1059
1063
1070
1073
1072
1071
1074
1077
1082
1082
1081
1076
1072
1067
1068
1064
1058
1048
1039
1041
1037
1038
1030
1027
1021
1020
1018
1019
1015
1015
1012
1011
1012
1016
1013
1011
1006
1010
1011
1011
1009
1004
1005
1007
1010
1011
1009
1007
1004
1005
1009
1010
1008
1006
1006
1008
1010
1011
1011
1008
1005
1006
1011
1010
1011
1009
1006
1007
1008
1011
1009
1008
1004
1009
1009
1010
1008
1005
1003
1006
1007
1009
1008
1004
1003
1005
1006
1008
1008
1004
1002
1004
1006
1008
1007
1003
1000
1002
1006
1006
1006
1002
997
1000
1004
1006
1004
1002
1000
1004
1004
1005
1004
1001
999
1003
1005
1007
1004
1003
1001
1003
1007
1012
1009
1009
1009
1012
1013
1016
1014
1012
1013
1016
1018
1022
1021
1017
1017
1020
1020
1021
1018
1014
1012
1016
1016
1014
1012
1010
1008
1007
1008
1013
1011
1009
1003
1005
1006
1009
1007
1005
1003
1002
1001
1003
1005
1003
1001
999
1003
1002
1000
996
995
995
996
998
995
993
996
996
999
1002
997
995
994
996
999
1002
998
997
995
997
1001
1001
1000
998
995
999
997
1002
1003
1002
1002
1002
1010
1016
1018
1022
1028
1039
1053
1067
1076
1085
1087
1085
1078
1066
1051
1040
1040
1051
1075
1096
1122
1145
1166
1181
1189
1183
1166
1141
1117
1096
1075
1055
1028
1002
981
967
961
958
951
950
953
960
971
976
984
983
983
989
990
992
992
989
988
989
994
996
994
990
991
994
995
995
996
990
994
993
999
1001
996
997
997
999
1002
1005
1005
1006
1004
1008
1010
1014
1010
1009
1009
1015
1019
1023
1024
1021
1021
1029
1031
1035
1035
1035
1035
1038
1044
1050
1050
1050
1050
1053
1060
1063
1064
1065
1066
1069
1074
1077
1079
1075
1077
1081
1084
1084
1078
1075
1069
1063
1063
1057
1052
1045
1038
1037
1036
1032
1030
1021
1021
1019
1020
1020
1019
1015
1012
1012
1014
1017
1014
1009
1007
1008
1011
1009
1009
1006
1005
1007
1009
1010
1006
1007
1007
1008
1009
1011
1011
1010
1008
1007
1012
1014
1013
1011
1009
1010
1012
1013
1012
1011
1008
1008
1010
1013
1011
1011
1009
1011
1013
1014
1011
1007
1008
1007
1009
1014
1008
1010
1007
1006
1009
1013
1009
1007
1005
1004
1006
1007
1007
1003
1003
1001
1005
1005
1003
1000
1001
1000
1004
1004
1001
1000
998
998
1000
1003
1000
998
999
1001
1005
1007
1011
1009
1006
1010
1012
1014
1014
1013
1011
1014
1018
1021
1020
1019
1016
1016
1019
1017
1015
1013
1011
1013
1012
1010
1010
1004
1003
1003
1004
1006
1004
999
997
999
1000
1001
1000
997
993
992
998
998
998
999
993
992
997
998
996
991
992
994
993
996
997
992
992
992
998
999
998
996
996
994
1000
1000
997
996
995
997
999
1001
1000
998
997
999
1001
1000
1002
1002
1002
1008
1012
1021
1026
1034
1042
1056
1069
1080
1083
1081
1075
1067
1058
1041
1023
1013
1020
1038
1065
1094
1115
1133
1147
1163
1172
1172
1154
1133
1111
1093
1078
1059
1038
1012
996
981
973
967
961
957
953
962
972
979
983
987
989
992
997
1001
1000
999
998
999
1002
1005
1004
1004
1002
1002
1005
1008
1007
1003
1005
1007
1012
1012
1013
1008
1010
1011
1015
1017
1015
1016
1014
1018
1021
1023
1025
1024
1022
1026
1024
1029
1031
1030
1028
1034
1039
1041
1042
1036
1038
1042
1049
1053
1055
1052
1055
1058
1059
1067
1068
1066
1068
1071
1071
1076
1077
1076
1078
1084
1088
1092
1092
1089
1091
1095
1099
1103
1098
1095
1095
1088
1085
1089
1084
1078
1071
1067
1064
1061
1056
1051
1046
1043
1045
1040
1039
1034
1030
1029
1029
1031
1029
1025
1023
1023
1026
1024
1024
1024
1022
1022
1023
1024
1024
1016
1019
1020
1024
1026
1023
1021
1020
1020
1020
1022
1023
1022
1019
1019
1020
1023
1020
1020
1018
1020
1020
1020
1022
1021
1018
1017
1022
1022
1018
1016
1014
1018
1021
1021
1019
1016
1014
1013
1016
1021
1018
1015
1014
1014
1015
1019
1016
1013
1012
1011
1016
1014
1012
1014
1012
1013
1013
1015
1012
1012
1011
1012
1011
1016
1014
1011
1009
1011
1010
1010
1013
1011
1008
1010
1011
1012
1010
1010
1011
1013
1018
1022
1019
1017
1013
1018
1020
1021
1020
1021
1018
1022
1028
1028
1027
1025
1022
1024
1026
1026
1021
1018
1014
1016
1016
1015
1015
1012
1007
1010
1013
1011
1008
1008
1004
1004
1008
1009
1007
1003
1001
999
1001
1003
1002
997
1000
1001
1000
1000
1001
1000
998
1000
1000
1004
1001
999
997
998
1003
1000
1000
997
998
998
999
1002
999
999
998
997
1000
1002
1003
1002
1000
1001
1004
1005
1007
1012
1012
1020
1032
1044
1058
1069
1075
1085
1089
1086
1073
1055
1041
1036
1038
1051
1071
1091
1119
1146
1172
1187
1192
1190
1177
1156
1140
1126
1105
1083
1062
1043
1019
1002
981
965
956
951
953
954
959
962
965
973
981
985
986
984
981
984
986
989
988
987
984
988
992
995
989
989
989
991
993
994
992
989
992
992
996
998
997
996
995
996
1002
1003
1005
1001
1001
1004
1008
1013
1012
1008
1013
1012
1018
1020
1019
1021
1017
1021
1025
1030
1032
1031
1031
1034
1040
1042
1042
1044
1044
1047
1053
1057
1058
1054
1059
1058
1062
1066
1066
1066
1067
1071
1075
1080
1077
1080
1076
1079
1082
1079
1077
1070
1065
1059
1059
1054
1048
1042
1036
1032
1033
1032
1029
1022
1021
1020
1020
1021
1017
1017
1010
1012
1012
1013
1010
1006
1001
1002
1008
1010
1008
1003
1002
1002
1003
1005
1002
1000
999
1001
1005
1004
1005
1004
1003
1000
1004
1006
1006
1002
1001
1002
1004
1003
1007
1003
1001
1004
1006
1007
1006
1004
1000
1000
1004
1005
1004
1000
996
999
1001
1005
1002
997
998
999
1000
1001
999
998
993
994
998
1001
998
998
995
996
998
998
996
995
994
996
998
997
995
994
991
991
995
993
994
991
990
989
992
989
988
987
984
986
990
989
988
984
981
981
986
988
988
987
986
990
992
991
993
990
989
991
994
997
995
993
994
995
998
1002
996
994
989
993
990
991
989
985
982
979
983
980
979
976
973
976
974
972
969
970
971
967
969
969
965
962
961
961
967
970
963
960
959
962
964
965
961
959
957
957
960
960
961
957
958
958
961
963
959
960
958
959
958
961
962
957
958
959
961
963
962
961
964
968
973
981
983
991
1000
1018
1035
1046
1048
1044
1032
1023
1002
984
966
958
969
989
1020
1045
1073
1091
1102
1108
1103
1090
1064
1041
1016
994
977
959
938
922
911
906
905
905
907
908
914
923
932
937
938
936
937
940
942
944
942
939
937
941
946
947
945
943
940
943
947
945
946
942
945
944
947
950
952
945
948
948
952
954
951
950
951
951
956
959
960
959
959
958
963
968
969
968
967
970
972
977
979
977
978
984
989
990
992
993
994
997
1001
1007
1005
1006
1006
1007
1013
1017
1021
1020
1020
1024
1027
1033
1033
1030
1031
1032
1035
1035
1029
1023
1017
1013
1010
1009
1005
997
996
993
990
988
982
980
973
974
973
969
968
963
964
962
964
966
966
959
960
960
963
964
961
959
956
958
962
966
965
958
955
958
959
963
962
957
954
954
958
964
963
960
957
960
962
965
964
961
959
960
963
965
965
961
961
961
964
964
962
963
961
963
964
966
966
964
961
962
961
965
964
964
961
961
966
967
966
962
961
963
966
965
969
965
964
965
964
967
968
968
966
965
970
973
968
968
966
969
972
978
978
975
973
979
982
985
984
982
982
984
989
990
995
991
991
993
994
996
994
989
989
990
992
992
990
986
986
985
987
990
989
984
981
981
986
988
985
981
979
977
983
987
988
984
982
981
982
985
985
981
982
982
986
987
988
984
981
982
987
988
985
986
982
984
988
987
987
986
987
986
987
990
989
986
987
985
987
992
992
991
993
999
1010
1019
1028
1038
1049
1062
1076
1080
1079
1068
1049
1033
1024
1024
1033
1054
1082
1112
1135
1154
1147
1128
1100
1079
1065
1045
1024
995
973
958
951
950
953
953
959
965
976
980
983
982
981
978
982
984
984
983
980
980
984
987
986
983
979
983
985
986
984
981
981
981
984
986
984
988
988
990
992
996
997
993
993
996
999
1001
1001
999
1000
999
1005
1010
1009
1007
1006
