976
964
953
952
954
961
967
974
979
986
993
1001
1001
1000
996
997
1001
1005
1005
1005
1004
1006
1010
1008
1011
1011
1007
1006
1009
1010
1005
1006
1002
1004
1005
1010
1010
1009
1007
1012
1016
1020
1022
1020
1020
1021
1025
1031
1027
1025
1024
1027
1034
1037
1041
1041
1041
1043
1047
1052
1055
1053
1054
1058
1061
1066
1061
1064
1067
1072
1076
1080
1085
1081
1085
1084
1088
1091
1092
1093
1088
1093
1093
1094
1093
1088
1080
1082
1082
1084
1081
1074
1068
1063
1064
1062
1058
1052
1045
1041
1042
1040
1035
1028
1023
1024
1023
1026
1024
1020
1019
1019
1021
1024
1021
1018
1015
1017
1018
1023
1016
1004
999
1002
1011
1018
1014
1005
1000
1002
1005
1010
1015
1016
1015
1014
1013
1009
1007
1003
1002
1005
1011
1013
1007
1009
1008
1011
1012
1014
1011
1009
1006
1007
1010
1011
1010
1005
1003
1005
1008
1013
1015
1014
1010
1004
1000
998
995
994
994
998
1002
1004
1003
1003
997
1000
1002
1004
1002
997
994
992
988
992
995
994
992
994
997
997
997
995
989
992
993
994
990
991
986
990
994
1000
1000
998
994
994
997
1001
999
999
998
1001
1005
1010
1012
1014
1011
1007
1004
1006
1005
1004
999
998
996
994
991
987
985
984
987
990
989
987
983
981
985
986
986
981
977
976
977
978
980
980
978
976
976
978
978
974
971
974
975
978
975
972
971
970
975
976
977
973
970
971
973
975
974
972
970
969
974
973
975
972
971
971
974
976
977
974
975
978
986
994
1003
1011
1022
1033
1044
1048
1048
1034
1015
994
970
964
969
979
1001
1028
1054
1075
1089
1094
1087
1074
1053
1035
1012
992
969
951
930
917
905
898
894
892
893
900
906
910
915
925
934
941
938
938
937
936
942
943
944
943
944
945
947
949
947
946
947
946
949
950
948
949
947
947
950
953
954
951
949
951
957
958
958
956
954
957
962
967
971
968
968
970
973
979
981
982
980
982
988
988
992
992
992
996
1003
1002
1006
1006
1005
1010
1015
1018
1021
1021
1019
1025
1026
1030
1028
1028
1026
1028
1033
1035
1033
1030
1025
1026
1023
1022
1019
1013
1006
1001
998
998
994
986
979
977
976
975
973
967
962
963
964
961
962
957
954
954
954
956
951
950
948
950
950
955
953
949
949
950
952
954
951
950
947
946
949
952
949
950
947
945
950
953
948
950
951
953
955
955
951
949
951
949
952
955
951
952
949
951
955
953
952
950
947
946
951
952
951
950
949
950
953
955
955
951
948
947
950
953
952
946
948
945
947
950
949
949
946
947
947
948
947
942
941
944
948
950
948
941
944
944
947
949
949
950
949
949
952
952
955
954
951
950
953
958
963
962
959
959
957
960
957
958
954
950
954
957
951
950
948
946
946
949
947
944
941
942
942
940
941
939
934
932
934
935
936
934
932
931
937
938
935
930
931
932
938
937
934
931
928
931
935
936
934
930
932
932
934
935
934
928
929
931
935
935
936
936
934
935
936
941
940
939
943
949
958
968
979
992
1006
1019
1030
1033
1030
1015
992
969
950
949
958
973
994
1017
1042
1061
1070
1067
1053
1034
1020
1006
992
971
956
944
931
924
914
903
898
898
905
912
917
919
925
927
930
937
937
933
931
932
934
938
936
937
936
935
939
942
943
940
939
940
943
946
947
943
943
945
949
954
956
955
954
955
961
964
969
970
971
973
977
985
988
990
992
995
996
1004
1011
1011
1014
1017
1021
1025
1031
1031
1026
1033
1035
1041
1046
1047
1043
1046
1052
1055
1057
1058
1056
1057
1055
1057
1052
1052
1046
1041
1041
1038
1034
1025
1020
1017
1016
1014
1012
1009
1003
1000
1002
999
998
993
990
991
992
994
991
989
987
987
987
989
988
987
983
983
987
990
989
985
982
981
981
987
988
984
985
984
986
989
988
984
984
987
988
992
991
990
987
987
989
991
991
988
986
985
988
992
992
987
987
988
989
991
989
988
984
984
988
989
990
985
985
982
986
988
985
984
981
978
981
983
981
977
976
973
977
981
977
977
973
975
976
977
980
976
972
972
975
977
978
975
973
972
972
979
978
979
977
981
986
985
987
984
982
983
985
989
990
989
988
988
991
993
992
990
983
983
984
987
988
982
979
975
978
976
978
976
971
971
973
975
974
967
968
970
970
968
968
964
965
962
966
970
967
965
963
963
967
968
966
965
963
962
964
969
966
966
961
964
966
969
969
966
962
963
965
969
968
965
964
963
970
974
975
970
972
973
980
988
990
1006
1015
1031
1047
1065
1071
1067
1063
1052
1041
1034
1027
1031
1041
1067
1098
1128
1147
1158
1164
1152
1133
1116
1096
1077
1060
1045
1024
1005
981
961
944
931
924
924
923
925
927
933
942
950
950
947
947
946
947
948
949
951
947
947
950
953
954
950
948
950
950
956
957
956
954
952
956
958
959
959
958
959
962
965
965
961
963
965
971
975
972
972
971
973
978
983
981
982
982
983
990
994
996
995
999
997
1004
1009
1011
1010
1008
1008
1016
1020
1023
1022
1023
1023
1030
1034
1036
1036
1035
1037
1039
1041
1039
1033
1028
1023
1019
1018
1014
1006
1002
997
995
995
990
984
979
978
978
975
974
971
969
968
970
971
971
969
964
964
969
968
968
964
962
960
962
967
966
965
961
963
966
970
969
966
961
964
963
964
965
967
964
965
968
971
970
965
965
964
966
970
972
967
965
965
964
969
967
964
964
963
965
970
969
964
964
963
967
965
967
965
963
962
963
968
969
965
961
960
964
966
966
962
962
961
963
966
966
963
960
961
963
966
965
962
961
960
961
965
968
969
968
967
973
976
975
975
971
971
977
982
981
979
980
979
979
981
978
976
971
970
974
973
969
968
961
960
965
966
964
963
959
957
960
961
962
959
953
950
952
958
952
951
950
948
952
955
956
951
949
947
951
953
951
949
945
944
945
949
953
950
947
945
950
948
948
948
944
947
947
951
950
947
946
947
953
957
963
964
967
972
988
1004
1023
1033
1050
1053
1055
1054
1037
1018
1001
1000
1016
1040
1066
1093
1117
1136
1153
1161
1156
1131
1104
1080
1066
1048
1025
997
967
939
925
918
906
901
900
902
911
922
928
933
934
934
938
942
941
940
939
940
942
946
946
945
943
942
946
948
951
946
948
947
948
952
954
951
949
951
955
957
957
956
956
955
959
964
966
965
965
966
967
970
975
973
974
974
977
985
988
989
990
990
995
1002
1003
1004
1004
1006
1010
1013
1018
1014
1016
1018
1020
1023
1027
1028
1031
1030
1033
1037
1033
1031
1027
1021
1022
1018
1010
1003
997
993
990
986
983
980
971
967
969
972
966
964
957
956
958
958
957
953
949
949
950
952
951
947
945
942
945
948
948
946
946
942
944
944
946
941
939
940
941
945
945
941
938
936
939
942
938
936
935
934
938
939
938
936
931
930
932
935
932
930
928
928
927
930
932
932
925
926
925
929
929
928
925
921
926
927
928
923
922
921
924
925
925
922
916
919
921
925
923
921
918
919
922
924
926
926
926
927
930
930
929
926
928
930
933
938
940
939
935
931
932
934
934
932
930
932
933
932
926
923
921
918
920
924
924
917
915
911
915
918
916
911
907
909
913
917
916
911
907
907
911
915
914
910
909
909
913
915
915
909
910
907
907
914
912
912
910
908
910
913
911
911
910
907
910
912
911
911
910
909
918
925
932
936
943
952
976
996
1013
1018
1025
1017
1011
997
972
950
944
952
972
999
1022
1044
1058
1070
1068
1060
1039
1019
998
984
970
954
937
918
900
886
879
877
875
877
877
880
883
890
894
895
896
896
896
899
898
897
899
899
900
898
900
901
899
899
901
903
900
899
898
898
905
910
905
909
903
905
908
911
914
913
914
912
915
915
918
918
918
921
927
933
933
932
933
937
942
947
946
947
949
952
956
963
968
970
969
974
978
984
986
987
989
989
995
1002
1004
1005
1003
1006
1010
1009
1008
1003
998
993
991
989
983
976
971
967
966
960
958
952
949
948
947
950
949
945
943
941
941
942
946
943
939
935
939
943
942
941
937
939
941
943
943
941
936
935
940
946
942
940
941
939
941
946
947
947
940
942
946
948
948
947
945
946
946
950
952
948
944
943
948
952
950
947
945
946
949
951
950
950
948
945
950
952
951
949
947
944
948
952
950
947
944
946
946
947
948
951
947
947
948
951
951
950
947
947
950
957
956
954
955
955
958
961
961
962
962
965
967
971
970
966
962
960
961
965
964
958
954
954
952
957
957
953
950
949
950
952
954
950
943
942
944
947
950
948
944
941
944
948
944
943
943
938
944
945
947
945
943
944
944
948
947
946
944
943
944
946
946
946
945
944
945
948
950
948
945
946
949
956
959
962
966
973
981
1001
1020
1033
1045
1056
1064
1064
1057
1040
1023
1016
1019
1031
1050
1068
1087
1106
1124
1138
1139
1132
1108
1086
1072
1059
1046
1030
1011
992
972
954
938
922
911
908
906
915
921
923
927
930
932
936
938
935
932
933
932
938
937
937
932
930
936
938
939
937
932
934
939
940
942
941
937
937
940
942
943
943
939
939
943
948
951
950
949
948
953
958
957
958
957
959
960
963
964
965
961
965
969
969
975
976
975
979
981
987
984
990
988
990
994
998
998
1000
1002
1006
1012
1018
1019
1021
1020
1021
1028
1031
1030
1031
1027
1028
1026
1024
1022
1018
1010
1003
1001
998
998
991
986
980
979
978
975
972
970
967
968
970
970
966
961
958
964
966
963
963
958
957
955
960
962
956
955
956
958
960
959
958
956
957
958
960
963
961
957
956
962
966
963
961
959
961
963
966
965
960
960
959
962
963
964
961
956
959
959
961
961
959
954
957
957
958
960
957
954
950
956
956
958
954
949
950
953
953
957
954
948
949
949
955
955
954
951
948
951
955
958
954
950
950
953
956
956
954
949
950
953
956
956
955
953
956
959
963
962
961
959
956
959
962
962
965
965
967
968
972
974
970
966
963
963
968
966
965
959
958
958
962
958
958
951
950
953
956
956
952
947
948
950
955
951
947
945
943
946
949
951
949
944
942
944
943
947
943
943
941
944
947
948
947
944
942
943
948
947
947
946
945
947
948
947
949
946
944
947
949
952
950
948
948
950
953
957
959
957
963
969
979
989
1001
1013
1028
1040
1049
1050
1043
1027
1011
1000
1002
1011
1025
1044
1070
1092
1114
1126
1133
1126
1111
1089
1070
1056
1038
1018
999
979
961
941
925
914
906
905
903
908
908
915
921
928
937
939
935
936
935
937
937
940
941
938
939
945
945
944
944
943
943
945
947
947
946
946
945
948
953
951
951
949
950
950
954
956
955
952
954
956
961
964
964
964
965
967
971
973
974
973
975
978
984
988
987
985
983
991
997
997
1000
999
1001
1008
1011
1010
1011
1011
1016
1019
1023
1025
1027
1027
1029
1031
1036
1039
1039
1034
1033
1031
1029
1026
1021
1012
1009
1005
1005
1002
993
989
983
981
982
978
977
973
969
970
973
971
970
967
966
967
970
967
967
964
963
964
966
970
966
964
961
961
964
966
963
962
961
965
968
968
966
964
964
965
968
969
966
962
960
963
966
969
967
965
965
965
967
966
966
964
963
965
966
965
966
962
962
965
966
969
967
963
963
961
965
965
965
961
962
959
966
963
961
961
960
960
963
965
963
960
958
959
963
964
960
958
957
960
960
961
961
960
960
961
966
965
966
960
966
969
972
970
971
969
970
971
972
975
975
974
973
979
982
982
980
975
974
974
976
977
974
969
965
965
968
970
968
963
961
962
964
966
963
961
958
960
965
962
956
954
951
953
960
963
960
958
955
958
958
959
958
954
951
955
958
957
955
954
951
953
957
959
956
952
952
954
956
955
955
954
954
955
956
956
955
954
951
955
958
962
959
962
962
970
980
989
996
1006
1022
1038
1052
1057
1055
1044
1030
1019
1006
1006
1012
1022
1043
1073
1101
1118
1132
1140
1139
1129
1107
1086
1066
1046
1028
1008
987
964
943
923
910
910
908
909
910
914
918
927
933
939
942
941
942
942
947
945
944
941
944
944
947
949
947
946
946
948
952
953
950
951
948
950
951
952
952
951
951
954
955
957
957
954
957
959
963
965
964
964
966
969
973
971
976
973
971
978
984
989
987
987
987
990
996
999
1002
1000
1004
1008
1013
1016
1014
1012
1016
1019
1023
1025
1028
1027
1032
1034
1038
1041
1037
1032
1031
1031
1027
1027
1017
1009
1005
999
998
995
990
982
982
981
982
979
975
968
966
967
970
970
964
961
961
963
965
963
962
958
959
961
963
963
959
958
957
961
961
961
962
959
960
959
962
958
961
960
958
961
963
963
961
961
960
961
964
965
962
960
959
960
962
963
961
957
959
959
964
964
963
961
958
961
963
962
961
959
957
959
961
960
959
957
954
957
961
959
954
954
955
955
960
959
957
953
952
953
958
958
957
955
953
956
954
957
956
955
954
959
963
964
964
962
959
962
966
969
968
966
968
968
970
976
974
969
966
969
972
969
969
967
965
963
964
966
965
959
955
958
958
960
958
954
953
954
959
958
954
951
948
950
953
954
951
950
948
951
951
950
951
948
947
949
952
950
949
945
944
948
950
950
946
943
947
948
950
951
946
947
946
948
950
951
950
950
946
949
952
957
955
955
960
968
975
985
995
1004
1016
1030
1042
1049
1048
1038
1024
1010
998
997
1008
1025
1051
1085
1113
1130
1139
1138
1121
1097
1078
1057
1035
1009
984
958
938
919
908
901
897
898
905
912
915
921
927
934
940
941
937
939
937
940
942
944
942
941
940
938
944
948
948
943
945
944
950
949
950
947
944
949
952
952
950
949
952
955
960
962
962
960
962
965
969
971
969
971
973
976
983
986
985
984
985
993
1000
1004
1006
1008
1012
1016
1019
1026
1026
1025
1027
1033
1037
1040
1040
1037
1034
1036
1032
1029
1025
1018
1013
1009
1003
1003
996
989
985
984
985
983
979
974
970
971
974
971
968
963
965
962
965
969
965
962
959
963
964
964
960
957
958
957
962
964
961
958
957
958
960
962
962
958
959
960
963
966
963
961
960
958
963
963
961
960
960
961
964
961
962
957
957
957
963
964
962
960
958
956
960
960
957
952
954
956
961
959
959
956
955
956
959
962
957
953
955
958
960
959
952
952
953
955
957
961
956
954
954
954
956
957
954
953
950
953
958
961
960
961
961
964
969
969
967
966
966
966
971
972
972
970
969
972
974
975
970
966
965
965
968
969
964
960
961
960
959
959
954
951
953
956
953
955
950
945
945
947
949
947
945
945
945
949
949
947
944
940
940
943
945
944
944
941
938
938
940
940
939
939
935
938
939
940
939
940
938
940
939
940
941
937
936
934
938
940
940
938
939
942
944
948
948
948
956
968
980
995
1004
1011
1020
1027
1027
1022
1008
988
967
954
955
972
993
1017
1044
1068
1088
1100
1099
1087
1066
1044
1022
1001
981
958
934
917
906
901
893
884
883
890
895
901
910
911
918
922
928
927
927
922
925
927
928
930
928
927
926
927
934
930
933
930
930
933
935
937
933
931
928
934
936
940
940
936
933
934
941
943
945
944
945
948
951
954
953
950
953
955
962
968
967
966
966
970
975
980
981
981
982
988
992
996
998
1001
1003
1008
1013
1013
1010
1010
1011
1016
1021
1023
1024
1023
1023
1022
1026
1022
1020
1015
1011
1007
1006
1003
996
988
982
980
978
978
972
967
963
963
966
963
959
956
954
954
960
957
958
954
953
952
957
959
958
953
954
953
959
960
960
957
957
957
964
964
961
957
958
961
964
964
964
962
961
962
967
968
966
965
962
966
965
970
967
966
966
968
970
972
971
967
966
968
971
972
969
967
965
966
972
972
974
967
966
968
969
972
969
968
967
969
972
970
973
969
965
971
973
975
973
973
972
975
980
979
979
977
978
979
983
986
987
987
989
990
994
994
991
987
985
988
989
990
986
984
982
981
983
984
982
979
979
978
980
981
981
975
975
973
975
975
976
976
975
978
978
979
978
973
974
974
975
978
978
970
972
973
977
978
978
976
976
977
979
980
979
976
976
978
978
977
979
976
978
979
981
982
982
981
986
991
997
1002
1007
1014
1023
1038
1057
1070
1077
1076
1069
1058
1048
1038
1029
1037
1051
1072
1100
1127
1142
1154
1163
1163
1150
1127
1106
1090
1071
1060
1044
1021
999
975
960
948
942
938
941
943
947
954
960
967
968
966
963
964
969
966
968
968
965
967
971
970
968
967
966
968
970
973
973
968
968
972
973
975
975
972
971
973
978
981
980
979
977
982
984
988
989
988
987
991
995
997
998
997
998
1000
1005
1007
1009
1008
1008
1012
1019
1021
1019
1021
1023
1025
1031
1034
1036
1034
1032
1042
1047
1050
1050
1053
1055
1056
1059
1060
1058
1050
1048
1044
1045
1039
1035
1026
1022
1016
1016
1014
1009
1005
1001
1001
1000
999
995
993
989
990
991
991
991
987
984
984
986
987
988
982
980
981
983
984
986
983
980
982
985
987
987
980
980
984
986
989
986
983
981
985
985
987
983
983
983
984
988
988
986
985
984
985
985
988
983
980
979
983
984
986
985
983
980
980
985
985
987
984
981
983
984
985
985
979
980
982
984
984
982
979
978
980
983
984
983
980
976
979
980
981
980
981
979
981
987
990
989
988
989
989
995
996
998
992
994
995
998
1001
1003
1000
997
999
999
1000
996
992
991
994
995
997
991
989
986
982
986
990
987
986
982
983
987
