1056
1069
1069
1048
1014
989
985
993
1001
1010
1013
1015
1020
1020
1024
1029
1037
1038
1032
1020
1004
993
987
989
992
1000
1006
1014
1019
1023
1026
1027
1030
1032
1035
1034
1032
1027
1011
996
986
993
1010
1025
1034
1043
1048
1052
1065
1081
1103
1121
1137
1142
1139
1133
1120
1106
1102
1108
1128
1156
1184
1213
1235
1248
1251
1241
1220
1199
1178
1155
1123
1085
1053
1030
1012
999
983
971
965
966
971
975
977
979
980
982
987
992
992
994
998
995
990
981
975
978
991
993
989
972
961
965
976
986
994
991
987
981
979
980
984
990
995
999
998
1000
996
993
988
987
993
998
994
983
979
984
991
999
1003
1000
1005
1001
1008
1014
1020
1020
1019
1017
1018
1026
1034
1038
1039
1037
1038
1045
1055
1062
1067
1062
1062
1066
1075
1076
1080
1079
1076
1077
1081
1082
1075
1061
1045
1040
1043
1051
1045
1031
1019
1018
1024
1027
1028
1021
1016
1016
1019
1014
1009
1007
1006
1012
1013
1015
1016
1016
1018
1023
1019
1012
1005
1006
1012
1024
1025
1014
1001
995
1001
1010
1010
1013
1005
993
986
987
994
997
997
997
1001
1005
1009
1005
1006
1004
1005
1007
1009
1007
1003
1005
1011
1017
1022
1017
1008
995
989
988
990
990
992
990
988
993
997
1002
1004
1004
1009
1010
1008
998
986
986
984
985
989
991
995
996
998
1006
1012
1013
1005
997
997
997
1004
1005
1007
1000
989
984
987
995
1002
1002
997
991
990
995
1004
1003
997
990
995
1002
1010
1009
1006
1006
1005
1009
1009
1007
1006
1007
1015
1021
1020
1012
1003
1000
1002
998
983
977
982
993
1003
1001
990
982
981
984
984
977
976
980
984
986
988
988
986
983
985
990
991
988
982
978
980
988
992
989
985
980
976
979
982
984
985
985
986
991
995
999
995
995
996
999
1000
1002
1006
1013
1027
1043
1062
1068
1077
1077
1072
1066
1057
1046
1034
1030
1038
1067
1098
1126
1143
1155
1165
1163
1149
1129
1107
1088
1068
1049
1023
998
973
953
947
939
940
940
942
946
954
960
971
980
979
972
966
969
978
984
985
977
975
978
981
986
990
989
987
989
989
986
985
985
990
993
997
999
1000
996
996
995
996
997
995
995
991
995
1000
1006
1011
1012
1013
1020
1028
1029
1029
1023
1024
1028
1033
1037
1038
1042
1041
1043
1045
1045
1048
1053
1059
1059
1057
1052
1050
1053
1060
1065
1073
1077
1079
1081
1085
1085
1085
1082
1081
1078
1076
1077
1075
1072
1066
1054
1043
1038
1036
1043
1041
1035
1022
1017
1015
1016
1016
1013
1009
1004
1001
995
993
992
996
1002
1008
1012
1010
1001
988
980
977
983
988
992
994
994
998
1002
996
988
981
983
981
985
988
990
988
990
989
989
986
987
988
995
999
997
997
988
981
982
985
989
991
992
992
992
992
989
983
977
978
981
986
990
984
981
976
974
977
980
984
982
980
980
985
984
979
979
978
981
983
983
979
978
980
981
981
983
978
976
979
981
985
983
982
981
976
976
978
982
981
975
974
975
976
978
981
975
970
971
977
980
980
982
982
987
991
994
996
991
984
981
980
989
993
993
990
988
992
994
990
988
985
989
991
993
986
982
979
980
981
980
980
977
979
978
977
977
975
972
972
977
988
988
988
978
971
967
973
981
988
989
991
988
983
970
964
962
963
967
975
979
981
979
977
975
980
983
986
986
985
987
986
989
991
988
990
993
997
1004
1009
1010
1012
1012
1012
1016
1025
1037
1045
1055
1060
1060
1054
1039
1022
1001
985
979
989
1004
1029
1059
1090
1115
1132
1136
1131
1114
1091
1064
1030
995
970
952
944
939
938
937
940
945
953
964
973
983
991
999
1001
999
995
991
988
992
997
999
1001
999
998
998
1004
1006
1007
1008
1013
1018
1025
1028
1032
1031
1032
1030
1027
1021
1017
1020
1030
1039
1046
1048
1045
1044
1041
1047
1049
1046
1041
1032
1027
1027
1036
1049
1059
1064
1072
1082
1094
1098
1090
1075
1063
1063
1078
1096
1109
1115
1116
1114
1112
1108
1100
1095
1098
1100
1116
1130
1140
1147
1142
1128
1111
1096
1085
1087
1093
1098
1095
1090
1091
1089
1082
1075
1069
1069
1074
1074
1068
1051
1032
1013
1013
1030
1048
1065
1072
1065
1055
1039
1028
1021
1027
1040
1062
1085
1095
1079
1049
1008
982
986
1015
1050
1062
1046
1014
985
976
987
1002
1012
1020
1029
1051
1075
1087
1076
1038
1001
983
984
1003
1019
1024
1024
1020
1015
1008
999
1004
1020
1037
1040
1031
1014
996
980
975
979
984
990
986
980
976
983
990
996
1000
1003
1011
1015
1006
994
982
975
982
990
994
995
991
977
963
955
962
971
974
972
969
974
975
979
976
970
964
964
968
971
969
966
964
968
978
983
981
975
977
985
996
998
987
969
959
956
961
966
970
972
977
980
979
979
973
970
969
973
973
973
971
968
966
964
967
967
965
961
960
961
963
965
964
967
971
976
971
961
948
944
955
972
976
965
950
937
939
942
950
951
949
945
946
951
956
955
951
948
945
944
954
956
952
952
952
952
956
956
955
952
953
953
958
958
956
955
956
959
965
969
975
979
992
1006
1022
1026
1021
1010
1008
1003
996
978
955
936
931
943
965
987
1013
1036
1060
1075
1080
1076
1060
1037
1019
1000
983
964
945
927
914
906
904
901
900
898
905
915
926
934
937
941
945
950
952
955
957
955
954
959
963
964
966
963
963
967
973
979
981
971
962
954
955
962
966
970
973
977
980
981
976
975
972
977
985
990
991
992
995
995
998
997
997
997
1003
1009
1015
1016
1019
1020
1023
1025
1030
1031
1034
1037
1041
1046
1054
1058
1057
1053
1050
1051
1051
1053
1052
1057
1066
1077
1085
1085
1073
1055
1041
1039
1044
1051
1051
1043
1039
1037
1038
1035
1028
1024
1017
1017
1014
1012
1007
1000
996
995
998
998
996
992
989
989
989
987
984
982
980
986
989
989
985
983
980
984
986
986
984
979
976
980
986
987
983
980
973
972
973
970
975
976
975
977
982
982
982
979
977
979
981
982
980
977
976
978
980
981
981
978
976
979
980
981
978
978
977
975
980
979
976
973
973
975
975
976
975
973
972
973
974
975
975
976
972
973
973
974
974
971
971
973
973
972
973
970
970
967
971
972
970
967
969
970
975
975
974
968
966
967
970
973
970
968
971
974
975
979
975
975
973
976
979
980
984
979
979
982
985
986
987
985
982
983
983
983
982
980
979
981
980
980
976
971
973
972
975
977
976
971
969
967
967
967
961
962
961
965
968
969
966
965
964
967
968
969
968
964
963
963
968
969
967
964
961
962
966
966
964
962
961
963
967
969
966
962
962
968
970
970
968
965
960
967
972
973
974
974
975
984
995
1010
1024
1034
1042
1050
1053
1045
1023
997
972
960
965
980
1003
1020
1043
1066
1080
1081
1075
1057
1036
1020
1007
988
966
949
935
930
930
928
923
917
925
934
942
952
958
957
959
958
962
965
964
963
964
964
969
968
969
968
967
973
974
976
975
970
969
972
975
976
979
981
982
985
990
991
989
988
988
992
1001
1007
1006
1006
1011
1016
1020
1027
1028
1027
1034
1039
1044
1047
1049
1050
1052
1061
1063
1067
1065
1065
1066
1070
1076
1075
1078
1076
1072
1074
1070
1073
1070
1062
1057
1057
1052
1050
1044
1037
1034
1030
1027
1026
1019
1016
1011
1013
1011
1009
1009
1006
1004
1007
1008
1008
1007
1005
1003
1005
1006
1010
1008
1008
1003
1003
1008
1006
1008
1006
1006
1006
1011
1012
1013
1011
1014
1013
1012
1014
1013
1012
1008
1010
1016
1014
1012
1010
1012
1013
1017
1017
1014
1013
1012
1015
1018
1018
1016
1015
1015
1017
1020
1021
1023
1016
1015
1016
1018
1021
1021
1016
1019
1023
1026
1026
1023
1017
1012
1012
1016
1016
1016
1015
1014
1015
1017
1019
1014
1015
1016
1018
1018
1021
1021
1018
1016
1017
1016
1019
1017
1015
1015
1017
1021
1024
1022
1023
1022
1022
1023
1024
1023
1023
1021
1025
1030
1034
1032
1029
1031
1033
1034
1035
1029
1028
1024
1025
1026
1027
1023
1020
1020
1017
1017
1022
1020
1018
1015
1018
1019
1019
1014
1011
1006
1008
1010
1012
1012
1010
1008
1010
1010
1012
1011
1008
1006
1010
1009
1008
1008
1004
1006
1007
1009
1009
1005
1005
1006
1007
1010
1011
1008
1007
1007
1010
1009
1007
1008
1008
1007
1008
1012
1013
1012
1012
1011
1020
1024
1032
1037
1040
1053
1067
1077
1084
1083
1079
1070
1063
1046
1026
1012
1009
1020
1046
1074
1097
1115
1122
1130
1129
1120
1100
1076
1054
1037
1023
1011
991
979
967
958
955
958
958
960
963
969
978
987
993
996
997
999
1000
1006
1009
1007
1005
1004
1008
1012
1014
1011
1008
1007
1012
1015
1013
1013
1012
1013
1013
1018
1019
1016
1015
1015
1017
1018
1027
1025
1024
1025
1027
1032
1035
1036
1034
1035
1039
1040
1046
1045
1047
1044
1051
1054
1058
1059
1059
1060
1064
1071
1075
1076
1075
1075
1080
1083
1084
1083
1084
1084
1088
1095
1092
1095
1095
1094
1095
1100
1101
1097
1091
1092
1091
1089
1086
1082
1075
1070
1068
1063
1062
1055
1050
1045
1045
1041
1037
1036
1031
1029
1026
1028
1031
1028
1025
1021
1024
1025
1026
1024
1023
1021
1024
1023
1023
1022
1021
1021
1022
1024
1028
1025
1022
1022
1023
1023
1026
1024
1025
1023
1023
1028
1027
1026
1024
1022
1027
1029
1028
1026
1024
1023
1026
1025
1027
1026
1019
1021
1022
1027
1028
1027
1022
1018
1021
1023
1024
1022
1020
1020
1020
1023
1025
1023
1018
1021
1021
1024
1023
1022
1021
1018
1018
1021
1023
1022
1016
1017
1017
1021
1020
1020
1019
1020
1021
1025
1026
1021
1017
1016
1016
1023
1026
1027
1023
1022
1027
1032
1030
1029
1029
1030
1029
1033
1034
1034
1033
1032
1031
1036
1036
1034
1031
1028
1031
1031
1033
1028
1021
1023
1023
1022
1027
1021
1021
1020
1023
1023
1022
1017
1015
1013
1011
1013
1015
1014
1013
1008
1011
1015
1013
1013
1010
1008
1010
1014
1013
1013
1009
1007
1006
1011
1010
1008
1006
1005
1010
1012
1016
1011
1010
1009
1009
1010
1008
1006
1001
1003
1009
1012
1010
1011
1014
1015
1024
1033
1039
1047
1058
1065
1073
1080
1081
1074
1060
1040
1023
1010
1011
1020
1037
1058
1088
1108
1126
1134
1135
1125
1113
1094
1074
1053
1030
1011
993
977
965
954
948
948
948
952
957
966
972
978
984
996
997
1000
998
996
1002
1005
1007
1006
1002
1003
1007
1010
1011
1010
1009
1009
1012
1014
1016
1014
1012
1012
1017
1020
1023
1021
1017
1017
1021
1027
1029
1030
1031
1029
1035
1038
1041
1043
1040
1042
1043
1049
1052
1052
1054
1056
1060
1064
1068
1068
1067
1068
1074
1077
1081
1082
1078
1082
1086
1088
1091
1088
1086
1087
1091
1094
1094
1097
1093
1093
1094
1096
1095
1089
1085
1080
1076
1075
1072
1065
1055
1051
1047
1046
1045
1038
1032
1029
1028
1029
1028
1025
1020
1020
1020
1021
1020
1019
1016
1013
1014
1016
1016
1014
1011
1008
1010
1014
1014
1016
1008
1009
1010
1015
1016
1014
1011
1010
1008
1015
1017
1013
1011
1011
1011
1016
1018
1017
1014
1013
1015
1016
1017
1014
1013
1009
1008
1010
1011
1011
1010
1007
1010
1013
1014
1011
1007
1007
1007
1008
1010
1006
1004
1002
1005
1006
1006
1004
1004
1003
1004
1008
1007
1004
1000
999
1001
1003
1003
1001
1000
998
1001
1002
1004
1004
1002
1001
1004
1004
1008
1007
1003
1006
1010
1013
1015
1011
1012
1012
1016
1018
1018
1019
1019
1013
1016
1016
1014
1015
1010
1007
1010
1010
1010
1004
1002
998
997
1001
1000
1000
994
993
993
1000
998
995
992
992
995
997
997
991
988
985
986
990
991
991
990
989
990
993
992
991
988
987
989
992
993
989
987
988
988
994
991
992
990
988
989
992
994
991
989
989
995
1001
1007
1011
1016
1020
1035
1047
1056
1055
1053
1046
1035
1021
1002
983
979
988
1011
1036
1060
1084
1094
1097
1095
1084
1065
1038
1018
994
978
960
944
930
920
915
919
925
930
935
942
953
962
971
979
983
983
983
986
988
992
993
990
991
992
995
996
994
996
998
997
998
1003
1004
1000
1001
1000
1006
1010
1012
1009
1009
1014
1019
1021
1022
1021
1017
1023
1026
1029
1031
1030
1031
1037
1043
1044
1046
1045
1046
1050
1055
1055
1059
1058
1057
1065
1068
1073
1075
1072
1077
1077
1080
1084
1085
1083
1083
1084
1089
1089
1087
1086
1083
1086
1087
1087
1082
1075
1071
1069
1067
1061
1056
1046
1043
1040
1037
1035
1028
1024
1020
1019
1021
1018
1013
1010
1006
1006
1009
1009
1008
1003
1001
1003
1007
1007
1007
999
1000
1001
1003
1006
1006
1002
999
1001
1005
1004
1004
1001
998
1003
1004
1007
1006
1003
1002
1003
1005
1006
1005
1002
1003
1002
1005
1005
1001
1002
1003
1004
1008
1007
1005
1004
1004
1004
1005
1006
1004
1002
1002
1002
1005
1007
1004
1001
999
998
1003
1006
1001
1001
998
996
1001
1002
998
998
993
996
1000
1000
1001
999
995
996
1001
999
1000
998
999
996
1001
1004
1005
1005
1003
1006
1007
1006
1009
1006
1011
1011
1018
1020
1015
1013
1008
1005
1008
1008
1005
1003
1000
1003
1004
999
999
994
996
995
999
998
994
993
988
989
991
993
993
991
988
989
989
989
987
985
984
985
986
989
989
984
984
985
987
990
986
984
982
983
983
989
987
982
983
983
985
986
985
985
984
985
988
988
989
993
994
999
1008
1021
1027
1035
1037
1040
1040
1035
1025
1009
984
964
958
961
971
992
1019
1044
1061
1075
1077
1072
1060
1041
1022
1000
980
962
942
929
919
909
903
901
904
908
916
924
934
940
950
961
968
971
973
971
972
973
977
979
977
976
978
982
982
985
986
984
981
984
986
987
990
992
991
994
997
997
997
996
996
999
1004
1008
1010
1008
1008
1013
1015
1018
1017
1019
1020
1023
1029
1036
1033
1034
1035
1040
1042
1046
1045
1047
1047
1050
1055
1060
1058
1058
1058
1063
1063
1066
1065
1065
1066
1067
1071
1071
1071
1066
1065
1063
1067
1065
1059
1053
1044
1042
1041
1037
1029
1018
1012
1013
1014
1010
1004
999
995
995
994
987
977
967
964
971
974
974
969
964
964
965
966
968
966
962
963
964
966
966
965
963
960
961
966
966
965
960
958
958
961
963
961
960
960
959
960
962
964
962
959
962
965
965
963
957
955
957
960
962
961
957
954
956
958
960
957
954
953
953
956
958
957
954
953
950
952
953
951
948
948
950
951
951
950
949
947
946
951
954
952
949
947
945
951
954
952
944
941
943
947
949
945
944
951
952
953
954
954
952
950
950
954
953
952
950
951
955
959
960
961
952
952
949
949
952
950
947
945
939
945
945
945
940
938
937
939
940
937
937
934
934
937
938
934
926
926
927
930
936
936
935
930
931
931
931
928
926
925
928
931
932
933
929
926
929
935
935
932
932
932
933
933
937
937
934
935
937
941
941
942
940
938
940
946
948
947
946
944
949
955
962
967
975
982
992
1004
1015
1021
1026
1029
1031
1028
1015
993
968
950
941
947
964
983
999
1012
1033
1048
1057
1056
1045
1030
1021
1009
996
980
966
954
946
938
932
925
919
917
918
923
928
930
937
943
950
954
961
959
957
956
956
962
964
964
963
961
965
970
971
969
966
966
962
964
964
966
964
963
966
969
974
977
974
975
979
982
987
986
986
988
991
994
998
997
995
996
998
1001
1009
1009
1010
1010
1011
1019
1024
1025
1025
1027
1031
1034
1039
1039
1041
1042
1047
1052
1055
1058
1057
1055
1059
1067
1070
1071
1069
1070
1073
1076
1075
1069
1065
1061
1059
1058
1054
1049
1041
1036
1029
1029
1023
1018
1010
1004
1002
1001
1001
997
995
995
998
1001
998
996
993
989
989
990
993
990
986
987
986
989
987
979
979
978
980
985
984
979
976
974
978
984
985
983
980
980
980
985
989
988
983
984
986
987
989
986
983
982
984
989
988
986
986
984
985
989
986
987
987
983
983
987
988
983
982
978
980
985
985
985
981
979
983
986
986
981
980
976
981
981
981
979
980
983
984
989
984
980
975
971
973
976
975
975
974
973
976
979
980
980
977
978
981
983
982
978
974
972
974
979
984
984
985
985
989
996
1001
1006
1007
1005
1003
1003
1003
1001
997
995
994
996
996
995
989
988
988
988
990
989
986
986
985
986
983
983
980
977
980
980
980
978
973
972
980
983
981
978
970
965
968
972
968
968
963
962
960
962
965
966
967
971
977
981
985
983
979
972
975
978
977
977
976
974
978
980
983
984
979
980
981
984
988
986
987
990
1000
1012
1021
1031
1036
1042
1046
1049
1044
1027
1007
989
979
980
995
1013
1035
1059
1082
1101
1114
1118
1111
1092
1072
1054
1038
1021
1003
980
961
943
932
921
915
914
917
923
930
937
942
949
956
966
970
966
968
967
968
969
967
965
958
956
962
964
967
966
967
966
974
982
987
990
996
995
994
997
996
996
994
993
998
1003
1005
1003
999
997
1000
1004
1009
1009
1006
1006
1011
1017
1021
1021
1019
1017
1022
1027
1031
1031
1031
1031
1034
1036
1040
1042
1039
1038
1044
1048
1050
1049
1047
1047
1050
1054
1052
1051
1050
1046
1048
1050
1050
1048
1045
1046
1046
1048
1046
1041
1034
1028
1025
1021
1019
1017
1009
1004
1001
1002
1000
996
991
992
993
992
993
990
986
985
986
987
988
983
983
980
982
986
987
983
980
980
980
983
982
983
981
979
981
983
984
979
980
977
977
980
981
977
976
974
976
980
981
981
975
981
985
993
1001
1002
1000
995
998
999
1000
1000
997
992
993
995
996
991
989
985
992
995
995
991
990
989
994
993
1000
995
990
991
990
992
994
987
980
974
974
978
984
986
985
984
982
983
982
980
979
976
978
980
984
984
981
981
979
984
988
990
991
990
995
996
997
994
992
995
997
1005
1000
1001
997
995
997
1000
1003
1004
999
995
994
997
994
990
982
981
979
976
975
972
969
972
974
978
981
978
979
976
977
979
981
976
970
963
963
969
967
965
963
964
967
971
972
974
971
969
965
968
971
972
969
967
969
968
969
968
967
966
964
966
969
967
966
963
963
966
972
976
981
985
994
1005
1027
1041
1047
1051
1049
1041
1023
996
973
960
960
979
999
1026
1052
1080
1099
1110
1116
1101
1084
1062
1041
1024
1008
985
959
935
916
910
904
903
901
906
913
922
932
943
950
952
957
964
966
965
964
962
965
969
974
972
966
967
964
971
973
972
972
969
971
978
980
981
979
980
982
988
992
992
995
996
1000
1002
1001
997
999
1004
1010
1017
1020
1021
1021
1025
1027
1029
1031
1031
1034
1033
1039
1041
1044
1045
1043
1043
1047
1050
1053
1055
1053
1051
1054
1056
1056
1056
1054
1051
1051
1049
1047
