996
995
998
1004
1012
1017
1024
1036
1053
1073
1094
1102
1102
1097
1087
1074
1071
1074
1087
1102
1133
1165
1198
1221
1233
1227
1211
1187
1164
1143
1116
1087
1055
1026
996
974
955
940
933
933
941
945
948
954
960
965
973
971
971
972
968
970
972
974
974
972
969
974
976
976
974
976
973
975
978
976
975
975
975
974
982
981
982
979
981
981
988
986
988
985
986
988
992
993
995
993
994
994
1002
1003
1001
1001
1006
1012
1017
1018
1019
1020
1022
1028
1033
1033
1032
1032
1036
1040
1045
1048
1048
1046
1046
1051
1058
1060
1059
1057
1058
1059
1062
1060
1052
1047
1040
1038
1033
1031
1024
1017
1012
1010
1009
1004
998
990
988
989
988
984
981
977
974
975
977
976
973
971
967
968
971
970
965
958
961
964
968
966
964
962
963
963
964
962
961
959
959
961
959
962
959
956
955
961
960
961
959
956
957
960
961
959
957
955
955
956
960
958
957
952
952
955
958
957
951
951
951
953
955
955
952
949
949
951
952
950
949
946
947
949
950
948
947
945
946
948
950
948
944
943
943
945
946
946
946
945
946
948
952
954
953
950
950
949
957
955
954
954
959
960
962
957
954
955
950
950
957
951
949
946
943
942
949
944
939
936
934
939
938
936
933
927
930
933
939
941
937
935
932
931
935
936
934
929
930
931
936
934
929
927
927
935
938
936
934
932
932
935
936
935
934
931
933
933
937
941
936
939
943
949
957
967
977
990
1016
1039
1065
1074
1078
1064
1038
1021
1017
1029
1047
1081
1112
1147
1167
1171
1155
1128
1102
1079
1055
1022
986
953
930
913
901
898
893
891
898
903
914
915
915
914
914
912
916
917
914
911
910
916
918
918
916
914
914
915
918
918
917
914
916
919
921
920
921
919
916
922
924
927
927
925
923
930
935
937
934
937
939
942
947
950
951
953
955
958
967
970
970
970
974
979
984
988
994
993
996
1001
1006
1010
1012
1014
1016
1022
1028
1031
1033
1031
1035
1040
1043
1043
1042
1036
1036
1035
1032
1027
1021
1015
1010
1007
1005
1000
996
990
986
986
986
983
982
978
976
977
977
974
974
974
971
971
975
974
972
968
969
971
974
972
969
968
968
971
974
973
972
970
970
972
976
974
973
972
970
970
975
977
973
973
972
975
980
975
974
971
973
973
976
981
976
974
972
976
977
976
974
969
968
971
974
976
975
971
971
974
977
976
975
972
969
973
975
977
975
972
970
972
975
975
972
971
968
970
972
973
971
968
965
966
972
974
967
966
965
964
968
971
969
967
964
967
972
975
974
972
968
972
973
974
974
974
977
980
982
984
981
976
977
978
979
979
976
975
970
971
971
971
968
963
963
964
967
965
960
959
958
959
959
960
956
952
952
953
953
954
953
952
952
953
955
953
952
947
946
950
954
952
950
949
946
949
951
952
950
948
949
949
951
952
950
949
949
950
955
954
953
953
952
954
961
961
961
963
969
977
987
999
1013
1030
1050
1068
1080
1082
1073
1061
1054
1047
1054
1063
1081
1106
1135
1165
1187
1204
1206
1196
1177
1158
1137
1119
1093
1066
1041
1010
983
958
941
923
911
911
914
912
918
919
924
925
930
934
932
928
927
930
934
931
933
930
928
932
933
934
934
929
929
933
935
935
934
932
931
931
938
937
939
937
935
937
944
939
941
937
938
942
946
947
946
946
948
950
954
954
951
955
955
957
964
966
965
966
967
974
976
977
980
974
978
983
990
993
994
990
995
999
1005
1007
1011
1014
1014
1022
1028
1029
1028
1027
1027
1024
1025
1021
1014
1007
1002
998
1000
995
988
984
980
980
979
975
970
966
965
967
969
966
964
960
958
958
961
959
958
955
956
956
956
956
954
951
952
952
957
958
953
952
953
953
957
957
955
949
952
955
958
958
955
952
950
952
958
957
955
951
951
952
958
957
955
950
950
951
953
952
950
949
949
949
954
952
949
948
946
950
952
951
951
946
946
947
951
951
947
943
941
943
949
947
946
945
945
947
947
946
944
944
943
945
949
946
947
944
942
946
944
947
946
942
939
945
949
951
950
945
947
952
954
958
956
951
950
953
959
961
959
960
961
963
964
963
960
958
955
958
960
958
955
952
950
949
953
953
949
945
946
947
950
950
947
942
943
944
944
945
940
939
940
942
945
946
943
937
938
940
944
941
940
938
939
939
943
944
940
939
940
942
946
944
946
943
940
941
944
943
939
937
941
944
945
947
946
943
942
946
950
953
954
955
960
968
978
990
1003
1017
1030
1041
1054
1055
1049
1036
1024
1017
1018
1026
1037
1055
1080
1112
1142
1160
1170
1173
1165
1148
1126
1101
1074
1049
1017
987
959
931
910
895
890
887
890
894
899
901
909
916
921
924
922
919
917
922
926
925
922
921
921
924
927
930
925
924
923
923
927
927
927
925
925
929
930
932
931
929
931
935
938
940
938
935
934
940
945
946
947
946
949
952
955
958
957
957
961
964
967
969
970
973
973
981
985
989
988
988
992
997
1002
1003
1006
1005
1007
1012
1016
1018
1023
1022
1023
1028
1030
1031
1028
1025
1020
1015
1015
1010
1005
998
995
991
990
988
981
975
976
972
974
973
967
965
964
966
969
967
968
963
965
965
967
967
967
965
963
963
966
967
965
963
961
965
968
968
966
966
965
966
967
969
966
965
963
968
972
973
972
967
966
967
970
969
968
967
967
967
971
968
964
964
966
968
970
970
969
965
964
965
969
970
969
966
965
968
970
970
968
963
963
965
968
970
968
966
966
967
971
969
968
965
965
967
970
969
968
963
963
966
968
968
967
966
965
967
970
970
971
966
968
972
975
974
973
973
970
975
980
981
977
978
979
982
980
981
976
974
973
975
977
974
970
966
968
966
966
966
966
963
961
964
965
967
963
961
961
960
959
959
958
954
959
962
966
963
961
961
958
955
955
956
956
955
952
951
950
948
946
945
946
950
953
954
953
951
952
952
957
955
956
953
953
955
959
960
958
957
958
960
964
966
967
968
973
979
991
1001
1019
1034
1050
1065
1078
1078
1065
1051
1034
1034
1039
1054
1071
1099
1127
1154
1178
1194
1204
1197
1181
1160
1138
1115
1093
1069
1040
1011
985
958
938
923
913
911
910
912
914
917
926
934
941
943
935
936
934
937
942
944
942
942
942
946
948
947
948
947
944
947
948
951
950
950
949
953
953
952
950
952
952
956
963
961
961
959
961
965
970
967
972
969
972
975
981
984
986
982
984
990
993
997
998
1000
1002
1006
1012
1015
1016
1015
1016
1021
1026
1031
1033
1033
1036
1039
1043
1046
1044
1045
1044
1051
1048
1049
1047
1040
1035
1029
1026
1020
1015
1007
1002
998
997
996
993
987
985
984
985
984
982
979
976
978
981
979
972
970
973
975
975
975
973
968
970
971
976
976
977
975
973
977
974
971
971
969
969
972
971
972
969
965
965
967
969
973
971
969
969
974
978
973
967
960
961
967
969
971
966
964
963
965
969
967
970
966
962
966
969
968
968
966
965
967
971
970
967
963
962
966
968
969
965
962
964
965
968
971
967
963
963
966
968
972
971
970
973
973
977
980
979
974
975
978
985
983
987
987
986
986
990
987
984
978
980
980
983
980
975
971
967
966
967
971
971
967
968
969
970
971
965
965
962
962
966
963
962
962
964
965
965
962
962
962
961
962
960
961
963
960
957
960
963
963
960
959
958
963
965
963
962
960
957
959
962
963
962
959
960
962
965
967
969
966
968
976
981
991
1004
1016
1028
1047
1066
1072
1071
1061
1047
1032
1030
1030
1039
1058
1083
1116
1148
1171
1189
1195
1189
1171
1149
1125
1096
1073
1045
1017
985
955
931
911
903
896
897
904
909
915
922
930
939
942
940
937
937
939
943
944
940
942
941
942
947
946
946
943
940
943
947
948
946
944
947
947
952
952
955
954
956
958
959
958
956
959
960
964
970
974
973
972
973
975
981
980
981
983
984
992
996
998
999
999
1000
1005
1012
1012
1016
1015
1020
1023
1029
1030
1033
1037
1041
1048
1047
1046
1045
1040
1039
1039
1042
1038
1035
1034
1030
1030
1029
1026
1019
1012
1002
996
994
995
990
983
984
985
986
988
980
972
959
964
969
974
973
966
960
961
963
963
960
959
957
957
960
960
960
957
953
957
961
964
962
957
956
957
961
962
960
958
956
958
962
960
961
959
957
958
961
960
961
957
958
956
963
962
958
959
959
963
962
963
960
955
955
959
963
962
959
957
957
958
961
962
957
954
955
959
963
961
957
953
952
956
957
958
953
949
947
948
953
956
952
951
950
955
958
956
952
950
948
953
957
962
960
958
961
960
967
967
967
965
966
967
971
971
969
968
966
967
969
966
963
960
959
961
965
961
956
951
952
955
957
957
955
951
949
948
953
954
948
944
944
944
948
948
948
943
943
945
945
946
943
937
939
939
943
944
945
944
944
945
946
943
944
942
942
944
947
948
943
944
943
943
947
949
945
947
944
948
952
955
959
961
967
976
988
1002
1015
1030
1040
1047
1049
1043
1025
1001
982
983
994
1018
1047
1076
1101
1123
1142
1147
1136
1117
1092
1074
1053
1033
1006
980
952
932
920
911
904
896
897
903
912
920
925
926
930
931
937
937
934
932
932
935
940
941
942
940
941
941
945
944
941
939
938
939
942
944
945
942
940
946
948
952
951
947
949
954
960
959
956
959
960
963
969
971
974
970
970
975
982
988
990
988
990
996
1002
1006
1009
1007
1010
1016
1022
1026
1027
1028
1032
1038
1042
1041
1047
1043
1046
1051
1055
1057
1061
1060
1059
1061
1063
1061
1054
1050
1044
1040
1036
1036
1026
1019
1016
1015
1012
1006
1007
999
995
997
999
995
995
990
988
991
993
995
991
987
985
989
991
989
989
989
988
988
991
992
992
988
988
990
989
992
992
990
992
992
994
994
993
992
991
991
994
995
994
994
993
995
999
998
998
993
992
995
998
999
997
993
994
994
998
997
996
991
993
994
995
998
997
991
989
992
997
995
994
990
991
994
996
998
996
993
992
995
995
997
994
993
990
992
995
997
994
993
991
988
996
999
1000
995
997
1001
1003
1004
1003
1002
1001
1005
1010
1013
1012
1009
1007
1008
1008
1007
1006
1003
1000
1000
1002
1003
997
996
991
993
996
995
993
989
990
989
989
990
990
984
980
981
987
987
987
982
980
981
981
983
981
979
978
981
984
984
982
979
978
980
984
983
983
979
979
981
984
987
986
982
980
984
984
985
983
983
984
986
992
997
998
1000
1004
1012
1020
1038
1057
1073
1085
1096
1099
1092
1077
1064
1053
1061
1078
1103
1136
1165
1191
1212
1229
1225
1206
1179
1157
1139
1119
1094
1063
1026
992
967
950
939
932
925
925
934
947
955
959
962
961
963
967
967
965
964
964
967
970
970
970
966
965
968
970
971
966
969
968
971
974
975
974
971
973
973
979
979
980
980
978
983
987
989
990
986
992
996
999
1002
1001
1002
1003
1005
1010
1014
1012
1013
1018
1021
1027
1030
1034
1033
1034
1037
1041
1044
1044
1043
1047
1050
1057
1059
1060
1060
1062
1067
1071
1073
1072
1069
1065
1066
1061
1057
1053
1042
1034
1033
1033
1028
1020
1014
1011
1010
1011
1012
1008
1001
999
1002
1000
998
996
994
991
992
996
996
995
994
991
992
994
995
992
992
990
992
993
995
993
990
989
988
992
991
989
989
985
986
989
991
990
988
986
987
991
991
989
986
984
988
986
987
984
985
979
987
987
990
986
981
979
982
983
986
986
981
982
981
985
985
983
981
979
981
982
984
979
978
977
976
979
980
982
978
978
978
981
978
979
976
975
977
980
985
981
977
979
982
986
988
986
986
983
984
990
992
990
990
990
990
991
992
992
987
987
984
986
986
980
980
974
977
978
977
977
971
970
969
974
972
972
967
962
963
965
967
968
965
963
963
963
961
961
959
960
962
965
962
961
956
954
956
958
959
960
957
955
957
961
960
959
959
954
955
960
962
963
960
959
958
961
966
968
973
979
992
1007
1024
1041
1055
1063
1063
1056
1036
1020
1014
1024
1049
1083
1119
1149
1161
1169
1169
1154
1127
1096
1067
1033
1005
973
950
929
912
906
898
901
911
918
922
927
931
935
936
937
936
934
934
936
936
937
934
935
938
941
943
940
935
935
936
941
942
941
936
934
940
944
944
941
940
938
942
948
949
949
946
946
951
954
959
957
957
955
959
963
970
970
971
971
976
981
983
984
987
991
995
1000
1000
1002
1003
1007
1009
1015
1018
1020
1019
1019
1023
1032
1034
1035
1034
1037
1041
1043
1043
1039
1030
1025
1024
1021
1018
1011
1005
1000
999
996
994
990
986
981
982
981
981
978
975
972
974
974
974
973
971
970
972
972
973
971
971
969
971
973
970
972
972
972
972
977
976
976
973
972
974
977
979
977
975
974
976
979
980
977
977
976
978
980
979
980
977
975
977
983
984
984
977
979
983
985
985
986
983
979
984
984
987
984
981
982
984
984
986
985
982
985
984
987
990
986
984
984
982
988
991
989
987
984
988
989
992
991
990
990
995
1001
1000
1001
997
997
1000
1003
1005
1007
1004
1006
1006
1014
1014
1013
1006
1005
1006
1006
1007
1006
1004
999
1001
1003
1001
998
997
996
996
1000
999
998
993
990
993
996
994
992
988
987
988
991
997
994
990
984
987
991
992
991
988
985
986
990
993
992
986
985
984
991
993
993
990
988
991
992
992
992
991
990
991
995
998
994
995
991
994
995
996
995
998
1001
1004
1010
1018
1021
1028
1041
1058
1075
1089
1103
1112
1113
1110
1102
1090
1081
1079
1088
1108
1134
1165
1190
1213
1229
1244
1242
1225
1198
1173
1154
1134
1113
1091
1059
1030
1003
983
968
962
949
945
944
951
959
966
970
972
975
975
978
979
978
977
975
977
979
982
979
979
977
976
980
979
981
980
976
980
982
984
983
981
976
981
983
987
988
984
981
985
986
993
993
989
989
994
996
1002
1000
998
996
1001
1003
1005
1005
1006
1006
1012
1014
1016
1014
1017
1018
1021
1026
1028
1031
1030
1030
1033
1037
1046
1044
1042
1045
1051
1056
1060
1065
1063
1063
1068
1074
1078
1075
1074
1073
1072
1069
1069
1061
1053
1048
1045
1040
1039
1033
1029
1024
1020
1018
1019
1017
1013
1009
1010
1012
1013
1010
1006
1006
1004
1005
1006
1006
1001
1002
1004
1005
1004
1006
1004
1001
999
1004
1004
1003
1001
1000
1002
1005
1007
1004
1003
997
1002
1005
1004
1004
1001
1002
1001
1005
1004
1004
1003
1000
1003
1005
1005
1004
1001
999
999
1001
1003
1000
999
998
999
1003
1000
1001
998
997
998
1000
1005
1002
998
995
998
1001
1002
1000
996
996
996
997
998
996
994
992
992
994
997
995
994
994
995
998
999
995
995
995
998
999
1001
1004
1003
1002
1002
1004
1007
1004
1004
1005
1009
1013
1014
1015
1013
1009
1010
1011
1014
1010
1002
1006
1003
1005
1008
1003
1001
998
997
998
1000
999
996
993
992
994
998
995
993
987
986
990
990
992
990
987
986
990
990
986
984
983
983
988
985
983
983
980
982
986
988
985
983
982
984
986
988
987
983
981
983
987
990
987
983
982
984
988
990
987
990
986
991
998
1006
1009
1011
1019
1034
1053
1073
1089
1100
1108
1113
1108
1103
1090
1080
1078
1086
1106
1131
1162
1190
1212
1234
1248
1250
1235
1210
1186
1169
1150
1130
1101
1072
1038
1007
984
964
953
940
934
932
938
945
947
953
960
964
969
973
970
966
964
966
969
974
973
974
970
970
972
969
971
966
965
967
971
971
972
969
968
973
977
976
977
975
974
976
980
983
982
980
980
985
988
991
991
987
989
992
997
998
1000
1001
999
1005
1005
1013
1013
1011
1014
1015
1022
1027
1027
1029
1027
1033
1038
1039
1042
1044
1042
1046
1052
1056
1059
1057
1057
1064
1071
1072
1073
1069
1067
1067
1068
1065
1058
1055
1047
1044
1041
1038
1031
1023
1020
1020
1020
1014
1012
1008
1005
1003
999
995
991
990
990
992
990
991
990
985
985
987
991
994
993
989
986
988
989
988
989
988
985
986
990
991
987
987
984
985
988
990
990
986
985
986
986
988
987
987
984
986
987
989
987
986
981
982
985
987
984
980
982
983
985
986
986
983
982
979
981
983
985
980
977
980
982
984
983
979
978
978
979
983
982
979
979
979
981
984
983
981
979
978
977
980
980
978
976
979
986
985
984
978
975
975
981
984
984
982
982
984
991
991
991
986
989
993
997
999
999
997
994
994
996
995
992
990
988
987
988
990
987
985
982
982
986
986
983
981
980
980
981
982
984
978
975
973
976
978
978
976
973
973
975
974
975
974
971
971
973
974
971
969
970
971
973
975
973
970
968
971
974
976
973
972
967
969
971
973
973
972
970
973
977
978
978
978
981
984
991
1002
1006
1018
1033
1050
1067
1083
1092
1090
1083
1074
1063
1056
1054
1063
1080
1107
1141
1172
1192
1206
1214
1216
1205
1179
1153
1129
1104
1080
1050
1013
980
953
937
927
923
921
921
923
930
935
946
952
953
955
952
955
957
960
959
960
959
960
962
964
959
961
960
963
965
965
960
959
959
965
967
968
966
966
964
966
971
972
970
971
973
973
974
982
979
976
980
982
982
989
991
989
991
994
997
1002
1004
1005
1005
1008
1012
1015
1015
1018
1022
1025
1032
1034
1035
1037
1038
1040
1045
1049
1047
1047
1053
1055
1059
1063
1056
1058
1055
1054
1052
1048
1044
1034
1029
1024
1025
1021
1016
1008
1003
1000
1000
1000
996
991
986
987
986
985
984
982
980
982
984
983
979
979
976
978
978
982
979
978
974
977
978
980
976
975
974
974
976
976
975
975
972
974
975
975
973
972
971
972
977
974
974
971
970
971
974
974
973
971
968
970
972
975
