916
913
911
917
925
937
950
959
958
956
956
958
964
969
973
972
964
960
960
964
967
971
971
974
971
973
970
970
970
972
975
977
977
977
975
979
983
991
990
992
991
988
988
988
984
987
989
992
1001
1005
1004
1002
1006
1011
1015
1020
1021
1016
1018
1021
1025
1029
1030
1031
1032
1035
1039
1044
1045
1046
1043
1045
1050
1052
1057
1059
1059
1062
1064
1060
1059
1054
1055
1063
1065
1064
1060
1055
1053
1051
1049
1042
1034
1028
1024
1021
1016
1014
1008
1000
997
996
993
991
989
991
987
989
985
982
975
973
973
977
980
984
980
974
976
974
976
983
985
980
975
972
975
976
977
977
974
974
973
978
978
978
974
972
975
977
977
973
975
975
975
974
976
973
975
972
977
979
983
983
979
976
968
969
972
971
971
971
970
971
972
970
967
972
976
978
973
969
968
970
971
975
975
973
972
969
966
966
964
965
963
966
970
972
973
970
967
965
964
966
973
972
968
965
962
964
964
967
969
975
982
985
977
966
964
968
974
979
981
984
986
987
982
983
980
978
979
980
982
976
970
963
962
962
968
971
972
970
968
967
965
959
956
956
956
962
966
962
959
956
953
950
951
955
955
954
952
951
952
955
954
953
952
955
957
956
948
940
936
943
951
956
952
951
946
946
949
948
946
947
947
951
959
962
956
947
941
942
952
958
959
956
956
960
965
972
975
986
996
1014
1026
1034
1030
1020
1005
983
960
941
933
938
955
981
1015
1047
1072
1087
1089
1084
1069
1048
1025
1002
981
963
948
932
911
897
887
888
887
890
893
896
908
920
930
933
927
922
924
932
937
942
936
933
929
933
938
941
941
942
942
944
950
950
951
946
946
946
944
943
942
945
945
949
953
960
963
963
961
962
962
966
962
961
964
971
978
982
982
983
981
982
985
991
992
997
1001
1005
1012
1012
1011
1008
1009
1013
1020
1024
1024
1023
1022
1024
1030
1034
1037
1040
1039
1041
1042
1046
1046
1045
1042
1035
1032
1030
1027
1023
1020
1017
1014
1011
1002
993
985
980
983
983
981
975
971
970
970
967
964
960
957
959
959
960
961
959
958
959
964
968
966
960
953
954
960
961
957
954
951
949
955
958
957
958
959
957
961
961
960
960
959
955
954
956
956
954
954
954
960
964
963
958
953
952
956
959
963
959
955
954
953
958
960
960
954
951
952
956
961
957
953
951
952
956
959
956
951
948
950
959
961
960
955
952
952
956
959
959
959
955
957
957
957
956
961
966
967
965
961
957
957
961
967
972
973
972
968
964
966
975
974
976
973
971
971
971
964
955
953
953
958
963
961
955
954
954
960
963
956
946
942
940
946
949
948
946
948
952
956
957
956
950
947
946
948
949
949
945
942
946
948
952
951
951
947
948
948
949
947
946
947
950
953
954
949
945
944
953
957
957
951
951
954
958
966
973
975
978
987
1007
1027
1045
1058
1065
1066
1059
1045
1030
1008
993
989
996
1017
1045
1074
1096
1112
1126
1129
1116
1097
1072
1054
1036
1027
1016
1000
983
963
945
929
921
919
920
924
928
931
936
937
939
943
942
943
944
948
947
944
945
944
945
947
945
945
942
941
943
948
946
946
949
949
952
953
956
961
962
963
963
961
957
955
960
969
978
980
974
972
976
985
992
993
992
997
1005
1011
1016
1016
1018
1022
1029
1035
1037
1035
1034
1038
1045
1055
1054
1054
1053
1054
1059
1064
1068
1067
1067
1061
1059
1057
1052
1048
1043
1035
1030
1028
1025
1021
1015
1010
1006
1006
1008
1003
999
996
995
996
998
997
1000
999
994
993
990
985
986
985
988
991
994
993
988
984
984
989
992
991
986
988
987
991
992
992
989
986
992
995
997
998
996
994
996
994
996
994
994
993
992
988
991
995
994
995
997
997
996
997
995
992
991
995
998
1000
996
989
987
989
994
991
991
988
991
992
996
990
988
983
985
990
992
993
992
990
988
992
992
991
987
987
987
996
997
997
993
988
984
984
989
997
998
996
996
1000
1001
1000
996
994
997
1003
1008
1008
1007
1003
1004
1003
1005
1004
1004
1002
998
998
997
996
993
991
992
992
996
993
992
987
988
988
989
988
986
983
986
990
994
992
986
983
981
982
984
984
983
981
981
978
981
980
980
981
981
983
984
984
984
983
985
986
989
986
987
987
987
988
988
986
984
989
994
1001
1010
1010
1013
1024
1039
1057
1078
1090
1088
1086
1082
1073
1066
1061
1062
1074
1098
1128
1155
1176
1189
1202
1205
1197
1181
1158
1138
1116
1094
1069
1042
1010
985
967
952
947
944
943
944
946
953
963
968
968
965
966
965
971
969
971
968
964
963
966
971
975
973
972
972
970
971
969
966
965
969
974
981
984
977
972
973
971
974
975
975
977
976
980
990
988
988
987
988
992
989
987
984
987
992
1000
1005
1006
1008
1008
1008
1007
1010
1012
1013
1015
1017
1023
1029
1031
1028
1027
1033
1041
1046
1044
1040
1039
1043
1052
1064
1064
1060
1058
1055
1054
1053
1049
1042
1035
1026
1028
1026
1022
1017
1011
1008
1005
1007
1000
998
995
994
995
994
991
990
987
986
984
983
982
981
981
980
983
983
985
982
979
981
982
985
980
976
970
971
975
979
977
972
974
980
983
988
985
978
970
966
969
970
975
977
974
972
974
976
975
973
972
966
967
967
972
971
970
967
967
967
967
967
967
966
967
969
965
967
968
967
966
967
965
961
954
956
959
961
962
961
961
960
959
963
960
956
955
958
957
963
966
966
965
964
965
966
964
964
968
969
966
967
968
966
973
973
969
969
968
966
962
964
965
965
962
962
962
959
960
963
962
960
952
948
948
952
952
949
939
934
939
946
950
947
945
946
944
946
940
941
936
939
944
945
944
942
935
940
943
947
946
943
939
941
940
943
942
940
941
944
946
943
943
940
937
942
945
947
950
955
964
974
985
997
1011
1027
1040
1049
1052
1044
1023
1002
985
980
992
1009
1034
1058
1080
1103
1120
1132
1130
1116
1095
1073
1056
1037
1018
995
971
952
938
925
915
907
900
901
907
917
920
920
921
925
929
932
934
931
928
933
939
941
940
940
933
932
931
930
938
937
935
932
939
941
944
943
940
940
942
945
943
943
943
945
950
952
953
954
947
949
947
953
959
960
961
963
969
971
968
964
964
970
975
981
983
982
983
989
991
994
994
990
990
993
999
1001
1000
997
996
1005
1008
1011
1010
1004
997
993
992
992
986
979
973
969
962
958
953
949
945
944
944
946
943
935
934
933
932
935
934
931
930
932
931
930
924
916
916
920
926
929
928
925
922
919
921
923
922
922
920
921
922
925
925
919
920
922
925
929
928
919
910
908
910
918
918
913
906
904
903
907
908
907
904
904
907
908
904
899
896
897
899
899
900
896
894
894
895
899
893
889
885
883
886
885
883
882
880
877
881
884
882
879
878
882
884
886
886
883
877
879
885
890
892
891
892
897
901
906
905
903
900
905
909
913
913
912
913
915
921
923
922
920
920
917
916
916
919
920
916
915
918
923
924
923
918
918
922
927
928
926
921
920
925
925
929
928
929
927
927
929
929
930
927
930
933
933
934
934
935
938
939
942
940
937
932
937
938
940
943
939
939
943
943
950
946
947
945
946
949
953
956
958
962
967
981
999
1013
1022
1027
1028
1032
1025
1011
993
982
980
993
1019
1044
1069
1096
1122
1144
1149
1142
1119
1097
1079
1067
1052
1027
1003
974
954
939
929
924
918
918
924
936
943
948
950
950
953
957
957
957
956
953
951
954
955
955
955
954
957
961
960
961
959
958
960
964
966
966
965
964
965
967
970
971
971
969
973
976
981
981
981
979
983
987
993
994
990
990
994
1001
1005
1004
1005
1004
1013
1016
1018
1020
1020
1020
1023
1027
1028
1033
1033
1031
1037
1039
1045
1048
1048
1048
1050
1054
1056
1056
1049
1043
1039
1035
1033
1031
1023
1016
1010
1009
1008
1005
999
993
992
994
995
990
989
984
983
987
990
988
983
982
981
984
983
985
979
978
977
982
983
984
982
977
978
984
984
986
983
982
981
982
988
987
984
982
982
986
988
988
984
980
981
985
987
987
984
982
982
984
986
985
982
982
983
983
986
987
984
982
984
985
988
985
984
982
982
986
986
987
985
981
985
984
984
987
984
981
983
985
988
985
984
982
985
986
989
989
986
985
987
993
998
996
992
990
990
998
1000
1002
997
998
999
999
1003
999
998
995
993
994
998
995
994
988
989
993
995
989
986
988
990
990
989
991
984
980
980
990
992
991
985
982
984
987
990
986
984
984
985
990
991
989
987
986
987
990
994
993
986
986
988
990
991
993
990
989
988
991
996
996
993
991
993
995
1001
1003
1003
1003
1010
1017
1028
1038
1051
1064
1079
1091
1093
1088
1077
1058
1049
1042
1052
1068
1087
1112
1149
1178
1201
1213
1212
1198
1172
1154
1136
1117
1096
1066
1038
1012
991
973
962
953
951
951
960
966
970
973
978
985
990
989
988
982
986
990
991
994
993
989
991
992
997
995
993
992
991
997
999
1000
998
994
995
997
1002
1002
999
1000
1002
1005
1007
1009
1005
1001
1006
1008
1013
1012
1011
1012
1014
1018
1023
1023
1023
1021
1023
1027
1030
1034
1034
1037
1041
1042
1047
1048
1048
1047
1052
1055
1058
1060
1060
1060
1064
1068
1071
1073
1076
1076
1077
1082
1084
1084
1081
1075
1072
1070
1069
1063
1055
1047
1043
1041
1040
1033
1027
1022
1017
1019
1017
1013
1010
1006
1004
1008
1010
1006
1002
1000
998
1000
1005
1000
1000
997
996
1000
1002
1000
997
995
996
997
1000
999
996
994
994
997
996
994
994
994
995
996
998
997
993
989
991
997
997
998
993
990
992
992
995
994
994
990
991
994
995
997
993
991
992
990
993
994
993
989
989
993
993
994
989
987
987
989
991
991
988
986
987
988
991
991
988
985
987
986
990
990
986
985
986
985
989
989
983
982
982
986
991
993
992
990
992
993
998
998
995
993
995
999
1003
1003
1002
998
1000
1002
1003
1002
997
993
990
996
995
993
988
984
986
983
986
986
983
979
979
981
981
979
976
973
973
972
974
972
969
969
968
971
973
971
967
964
965
969
971
968
963
962
965
968
968
966
965
963
963
965
967
966
963
961
963
965
965
964
961
959
956
963
967
962
959
960
960
963
966
964
965
964
968
973
980
987
991
999
1015
1029
1045
1056
1057
1053
1045
1029
1015
998
990
994
1010
1032
1060
1085
1107
1122
1134
1137
1130
1114
1089
1065
1047
1025
1005
980
957
942
929
921
916
913
909
910
913
920
928
937
941
938
941
950
952
952
949
949
948
952
955
957
955
953
955
955
960
961
957
957
957
961
967
963
962
962
963
969
973
974
972
973
972
977
981
982
983
983
986
992
995
998
999
1000
1003
1009
1014
1014
1018
1017
1024
1029
1035
1037
1041
1042
1046
1052
1056
1057
1060
1061
1064
1071
1073
1076
1076
1074
1079
1083
1087
1088
1087
1087
1088
1088
1089
1085
1079
1076
1072
1070
1064
1062
1056
1045
1046
1043
1042
1038
1034
1030
1026
1026
1028
1024
1020
1016
1017
1018
1021
1019
1014
1013
1013
1014
1018
1014
1011
1011
1010
1014
1016
1015
1011
1014
1011
1016
1016
1016
1013
1010
1009
1014
1017
1016
1014
1014
1012
1014
1017
1019
1014
1011
1010
1011
1018
1016
1014
1013
1012
1013
1014
1013
1014
1011
1010
1013
1016
1016
1015
1013
1015
1015
1018
1014
1013
1009
1011
1011
1014
1013
1012
1009
1013
1015
1018
1015
1017
1011
1013
1012
1016
1015
1013
1012
1011
1012
1015
1014
1013
1011
1012
1012
1018
1015
1012
1012
1014
1017
1023
1023
1021
1021
1021
1023
1025
1022
1022
1021
1024
1026
1033
1033
1027
1026
1026
1025
1027
1022
1019
1016
1015
1018
1020
1017
1014
1010
1007
1010
1013
1014
1008
1007
1006
1008
1012
1008
1005
1002
998
999
999
1001
1003
1000
999
999
1003
1003
999
998
996
999
1004
1002
1000
999
994
999
1003
1003
1001
999
996
1000
1003
1000
999
999
996
998
1003
1002
999
999
1000
1003
1005
1002
1002
998
998
1007
1013
1017
1020
1023
1034
1052
1069
1080
1091
1091
1088
1079
1068
1050
1033
1026
1032
1053
1076
1108
1133
1157
1175
1186
1189
1172
1151
1129
1115
1100
1085
1061
1033
1007
984
968
958
948
943
938
941
950
963
968
975
977
981
984
986
986
984
984
981
984
989
992
991
989
988
991
996
997
995
994
995
995
996
996
994
995
996
1001
1005
1004
1005
1006
1004
1008
1013
1013
1008
1010
1011
1016
1021
1021
1022
1019
1026
1030
1035
1036
1036
1034
1038
1045
1048
1048
1049
1051
1052
1057
1064
1063
1061
1063
1066
1070
1072
1074
1074
1073
1074
1081
1083
1084
1085
1083
1083
1086
1087
1084
1079
1070
1065
1066
1062
1055
1050
1044
1039
1037
1033
1031
1026
1020
1017
1017
1017
1013
1013
1009
1008
1010
1011
1008
1005
999
996
1002
1000
999
998
995
995
998
1002
998
996
993
991
993
997
997
992
990
992
994
995
993
992
989
987
987
992
991
989
988
987
988
990
987
985
981
982
983
987
988
988
985
983
985
986
987
983
977
976
978
982
982
980
978
974
978
979
976
974
973
972
977
978
976
971
969
969
970
972
971
967
964
965
968
972
968
966
965
964
966
970
968
967
963
962
963
967
967
968
967
965
967
970
971
970
970
970
972
977
978
979
979
976
978
979
979
975
973
969
970
969
970
969
966
961
963
962
963
959
959
958
960
961
959
960
956
954
954
952
952
947
944
945
949
955
956
947
945
947
951
951
947
946
944
944
949
953
947
948
946
947
947
952
951
948
948
948
950
954
952
952
950
949
949
954
957
957
952
953
959
966
967
971
978
990
1007
1029
1050
1067
1075
1080
1077
1070
1048
1028
1020
1029
1053
1085
1114
1139
1154
1164
1165
1157
1134
1113
1088
1068
1042
1017
992
966
950
939
932
932
926
929
927
933
940
949
953
955
952
952
955
959
957
957
957
959
960
965
963
966
964
966
970
976
975
975
975
975
978
984
986
986
983
988
993
996
997
1001
1001
1006
1011
1017
1018
1021
1021
1022
1031
1037
1040
1043
1045
1049
1054
1060
1062
1063
1063
1067
1072
1077
1079
1078
1079
1080
1085
1092
1092
1090
1090
1088
1094
1093
1089
1084
1081
1076
1074
1072
1065
1057
1050
1045
1041
1041
1040
1036
1029
1025
1026
1026
1026
1022
1021
1017
1020
1019
1019
1014
1011
1010
1013
1018
1018
1012
1010
1011
1013
1016
1017
1013
1011
1011
1012
1015
1016
1013
1010
1011
1014
1017
1014
1015
1014
1012
1014
1017
1018
1015
1014
1015
1016
1019
1018
1014
1016
1013
1016
1021
1019
1016
1015
1016
1018
1019
1020
1016
1015
1016
1016
1020
1019
1017
1011
1013
1018
1017
1017
1017
1012
1009
1012
1012
1013
1014
1011
1010
1009
1016
1014
1015
1011
1008
1010
1014
1015
1014
1010
1010
1013
1016
1012
1011
1009
1011
1011
1015
1014
1013
1011
1013
1017
1023
1020
1022
1023
1023
1024
1028
1029
1028
1025
1027
1031
1034
1034
1033
1030
1031
1032
1034
1032
1031
1026
1025
1027
1029
1026
1024
1021
1020
1019
1023
1022
1020
1014
1016
1016
1021
1019
1018
1014
1012
1012
1015
1015
1015
1010
1009
1012
1014
1012
1011
1009
1010
1011
1014
1013
1013
1010
1009
1012
1013
1015
1012
1008
1009
1011
1014
1014
1014
1011
1012
1014
1018
1018
1017
1015
1013
1014
1017
1021
1020
1020
1026
1031
1043
1050
1060
1071
1086
1103
1114
1121
1122
1113
1101
1091
1086
1087
1099
1117
1148
1181
1210
1232
1246
1248
1237
1221
1195
1176
1153
1129
1103
1076
1052
1030
1009
990
977
977
975
975
980
985
992
999
1004
1005
1004
1003
1002
1006
1008
1009
1006
1005
1004
1005
1007
1007
1004
1002
1002
1006
1011
1013
1011
1008
1008
1011
1012
1013
1015
1014
1014
1017
1022
1025
1023
1020
1018
1021
1026
1027
1023
1019
1020
1023
1029
1031
1029
1027
1031
1036
1043
1043
1044
1045
1045
1052
1058
1060
1058
1060
1061
1066
1071
1072
1073
1071
1072
1077
1080
1087
1086
1086
1088
1092
1094
1097
1095
1091
1093
1091
1090
1086
1081
1072
1066
1062
1059
1055
1051
1044
1041
1042
1040
1036
1031
1027
1023
1025
1024
1023
1023
1020
1018
1021
1022
1020
1018
1016
1013
1016
1018
1017
1015
1013
1013
1013
1017
1015
1013
1009
1009
1010
1016
1018
1014
1013
1012
1011
1016
1016
1014
1012
1010
1008
1010
1009
1006
1004
1003
1008
1011
1010
1007
1004
1001
1002
1003
1004
1003
1000
1000
1004
1006
1007
1004
1000
1000
1003
1006
1005
1002
1000
999
1002
1005
1005
1002
998
998
997
999
1000
1002
998
995
998
1001
1001
998
998
996
1000
1002
1003
1000
994
994
996
998
1000
998
991
994
999
998
1002
1000
1001
1000
1004
1007
1008
1007
1006
1004
1007
1011
1014
1012
1010
1011
1014
1017
1018
1013
1009
1008
1008
1009
1011
1004
1000
1001
997
999
996
994
993
995
994
1000
999
996
992
990
992
992
990
989
985
985
990
992
991
988
983
985
985
988
988
986
982
983
984
986
987
983
984
983
983
987
986
981
979
979
982
985
988
986
983
984
984
989
989
987
987
985
989
992
999
998
1002
1007
1021
1035
1051
1062
1068
1068
1063
1058
1039
1023
1010
1012
1025
1056
1085
1111
1131
1151
1163
1170
1158
1137
1114
1091
1070
1052
1025
995
968
944
933
929
923
918
923
930
942
954
964
967
970
969
974
976
977
974
975
975
978
983
981
980
978
979
982
985
986
982
984
981
985
990
993
992
989
989
993
997
996
998
997
999
1002
1006
1009
1008
1008
1009
1013
1019
1022
1022
1019
1021
1027
1032
1034
1033
1033
1037
1042
1048
1050
1050
1052
1053
1055
1059
1062
1060
1058
1063
1065
1070
1072
1068
1068
1069
1070
1073
1070
1065
1060
1056
1052
1051
1039
1035
1027
1023
1018
1019
1010
1008
1003
1000
1000
999
998
994
992
989
991
992
992
989
988
987
987
986
984
983
982
982
984
986
987
983
979
982
981
985
987
984
975
980
982
985
986
984
981
979
980
984
982
981
978
979
981
980
984
982
980
976
981
985
981
980
978
974
979
979
981
979
978
974
975
979
979
976
973
972
975
978
979
975
972
970
975
977
976
975
970
971
972
976
973
971
968
967
969
972
970
970
965
969
