960
957
956
955
959
959
959
956
955
955
959
960
959
955
953
953
957
957
956
956
954
953
955
960
957
957
954
955
958
961
961
959
955
957
962
965
970
969
972
980
987
1001
1011
1020
1026
1035
1039
1041
1030
1014
995
989
996
1006
1027
1048
1073
1098
1122
1142
1150
1146
1132
1112
1095
1076
1060
1036
1012
993
967
947
928
913
900
899
899
907
914
918
925
934
938
942
945
944
941
943
948
950
949
949
947
947
949
951
953
948
948
949
950
956
956
953
951
953
953
960
958
955
952
955
958
962
964
961
960
962
966
971
969
969
970
972
976
979
979
980
978
982
987
992
990
991
990
994
1002
1005
1007
1007
1005
1008
1012
1019
1018
1018
1018
1023
1027
1031
1030
1030
1031
1035
1038
1043
1044
1040
1039
1036
1036
1036
1033
1025
1017
1014
1013
1012
1004
999
996
992
992
992
986
982
978
978
978
979
977
973
971
971
975
976
973
972
968
968
969
971
973
968
966
968
967
968
967
968
965
966
968
970
971
967
967
965
968
969
970
965
963
965
967
972
969
967
965
966
969
971
966
962
961
963
966
968
968
969
964
965
966
970
967
963
962
964
965
968
967
964
962
960
963
967
964
960
958
960
963
965
963
961
959
960
961
963
963
960
957
960
963
966
963
958
960
961
963
967
966
966
966
965
971
974
974
971
969
973
976
978
979
976
977
980
981
982
977
975
973
975
975
977
974
967
967
967
969
969
967
963
959
960
961
963
963
960
958
956
957
956
957
954
952
955
957
955
955
951
948
951
955
953
955
952
950
952
954
957
954
952
949
950
954
955
955
953
950
951
952
951
954
954
950
952
955
955
955
955
954
957
959
963
965
968
970
980
992
1008
1019
1024
1030
1034
1036
1029
1012
995
984
991
1006
1025
1051
1071
1092
1115
1133
1141
1139
1127
1106
1086
1070
1058
1039
1018
993
972
952
934
919
904
897
896
898
902
908
915
922
930
936
940
939
942
938
937
941
947
945
943
943
944
947
952
949
948
945
946
951
953
950
949
951
951
953
956
957
958
952
954
959
962
960
961
959
963
966
970
969
967
965
969
971
978
977
977
974
978
981
987
988
987
988
991
996
1002
1004
1001
1000
1005
1011
1015
1014
1012
1013
1018
1020
1026
1028
1027
1028
1033
1035
1039
1038
1036
1037
1038
1041
1042
1037
1034
1029
1026
1023
1021
1017
1007
1002
997
996
995
993
987
981
975
981
982
978
973
971
971
973
973
968
968
967
967
968
969
967
967
965
964
967
967
967
967
965
966
967
968
968
963
963
960
968
971
968
966
965
965
968
970
966
965
962
962
967
968
967
966
962
965
965
968
967
962
960
959
964
965
965
960
960
961
962
965
962
960
958
958
962
963
958
956
957
957
959
960
961
954
954
955
956
961
961
959
957
958
960
961
960
957
955
956
960
962
963
962
962
962
966
968
968
966
963
967
969
974
977
976
974
973
976
979
976
971
969
968
971
969
967
964
961
960
963
965
963
960
955
955
959
960
957
951
949
948
953
958
957
954
949
949
948
953
951
948
947
948
950
952
952
950
947
947
952
952
950
949
945
949
949
953
951
948
945
946
951
955
952
952
953
957
964
973
986
998
1010
1025
1033
1031
1019
998
975
975
990
1017
1046
1074
1100
1122
1138
1143
1134
1110
1086
1065
1049
1031
1009
983
956
932
915
907
897
891
886
890
900
908
917
921
926
932
936
940
938
937
936
938
940
942
942
939
939
941
944
945
944
940
940
942
946
948
946
946
945
943
948
951
950
950
950
952
956
958
958
956
958
960
963
965
967
962
965
967
965
973
975
974
977
981
984
989
988
990
992
995
1001
1004
1004
1003
1006
1010
1014
1017
1020
1021
1019
1020
1026
1031
1029
1028
1028
1031
1033
1034
1035
1029
1027
1025
1026
1023
1018
1009
1004
998
998
997
989
982
976
974
975
976
970
966
962
961
963
964
961
959
957
956
957
959
960
956
953
954
955
958
955
956
952
950
953
955
952
951
948
950
951
955
952
951
948
949
952
955
953
950
948
950
951
953
954
952
950
949
951
951
950
947
948
949
952
953
952
950
946
947
950
953
950
949
948
948
950
952
952
947
949
946
948
951
948
946
943
944
948
951
951
946
945
946
948
949
951
950
947
947
951
954
952
951
952
952
959
960
959
956
956
956
957
963
962
961
962
964
966
968
964
961
958
957
957
959
958
954
951
950
953
951
949
947
948
946
945
949
947
944
939
940
939
941
942
940
939
940
942
945
943
941
937
939
943
944
943
942
939
938
938
942
942
939
936
939
941
945
941
939
938
938
943
944
944
943
941
941
944
946
946
945
945
949
956
963
967
968
977
990
1010
1028
1043
1049
1052
1049
1037
1026
1005
992
992
1006
1030
1062
1089
1114
1131
1144
1150
1140
1121
1099
1080
1059
1043
1024
1007
983
959
939
927
916
909
900
902
907
913
920
924
922
923
927
930
934
930
928
926
929
931
930
932
929
929
928
932
935
933
929
932
933
935
937
936
935
932
936
937
939
938
941
941
944
948
950
949
950
952
949
957
961
961
963
959
965
972
974
977
976
977
981
987
989
995
996
996
1000
1006
1009
1010
1009
1010
1015
1021
1026
1026
1026
1031
1033
1037
1043
1040
1035
1035
1032
1031
1031
1028
1020
1015
1009
1007
1003
1000
992
987
984
986
987
982
980
975
974
973
977
975
973
970
972
973
977
974
972
970
969
974
974
973
972
970
971
972
975
975
973
970
970
974
974
973
973
969
971
976
978
978
973
974
975
976
980
977
972
972
974
976
979
978
976
973
973
974
976
977
976
971
975
974
978
978
975
970
972
974
978
977
972
969
971
974
975
974
972
971
968
972
975
976
972
969
970
973
974
974
971
967
967
971
973
973
973
971
974
977
982
981
979
976
979
979
985
984
984
984
986
989
988
987
985
978
981
983
985
985
978
976
971
978
975
974
975
972
972
972
975
971
968
968
965
968
968
965
963
962
965
967
965
962
962
961
961
962
967
965
962
958
961
962
965
962
960
958
960
961
964
964
960
960
962
964
967
967
965
961
963
966
969
969
966
969
975
980
989
993
1005
1021
1036
1054
1067
1075
1072
1063
1049
1039
1034
1036
1048
1069
1095
1124
1151
1174
1188
1189
1182
1164
1142
1123
1099
1073
1051
1030
1003
977
955
936
924
921
922
925
928
933
940
947
949
949
948
944
948
948
951
950
949
948
949
953
954
954
950
949
948
951
956
953
950
948
947
954
954
955
951
950
952
959
960
963
961
957
960
966
970
970
968
966
969
972
976
978
975
975
977
985
989
989
990
990
992
996
1003
1005
1004
1004
1007
1011
1018
1020
1019
1020
1025
1031
1035
1037
1037
1032
1030
1028
1025
1024
1016
1012
1010
1006
1004
999
993
989
988
985
987
981
980
975
973
978
978
978
972
969
969
971
974
973
968
966
967
966
970
972
966
962
962
966
970
969
969
963
966
969
970
972
969
967
966
967
971
971
969
968
967
969
971
971
970
967
968
968
972
971
967
965
965
967
969
969
968
965
965
968
969
968
965
963
964
966
969
968
964
961
963
966
966
966
962
963
962
965
968
965
965
964
963
963
963
966
964
964
962
967
967
968
964
966
965
969
973
974
976
973
972
975
979
976
976
975
977
982
988
988
984
981
979
980
982
978
979
974
971
973
976
973
971
966
966
965
968
967
965
962
963
964
966
963
963
957
958
958
961
963
960
956
956
957
960
960
958
955
954
958
961
957
956
948
953
955
957
956
957
955
954
956
960
958
958
956
954
959
963
962
959
960
959
965
969
976
975
981
985
999
1015
1029
1043
1049
1057
1060
1058
1044
1027
1015
1016
1031
1053
1083
1107
1131
1153
1169
1175
1161
1138
1113
1093
1078
1055
1032
1002
971
948
931
922
914
907
905
913
921
930
937
939
939
943
946
946
949
946
944
944
947
952
951
949
948
945
949
949
947
951
948
948
951
954
955
953
954
954
957
961
960
961
958
959
962
968
968
965
967
966
972
975
976
978
974
977
982
985
987
990
991
992
996
1004
1005
1004
1005
1007
1011
1017
1022
1021
1020
1025
1031
1036
1036
1034
1032
1031
1033
1033
1030
1026
1019
1013
1011
1009
1003
997
989
987
987
986
984
979
976
975
975
974
975
973
969
969
970
970
969
967
964
964
966
970
968
966
962
962
963
969
971
969
962
964
965
967
970
966
963
964
966
969
964
961
963
964
967
968
966
965
963
965
966
969
966
963
960
958
962
969
966
964
962
962
963
964
964
964
961
958
963
966
966
963
960
962
962
964
964
961
959
962
961
964
963
960
955
958
960
966
966
962
960
960
960
965
964
966
964
966
967
973
976
971
969
969
972
975
978
977
976
979
980
982
983
979
976
973
975
979
972
971
970
968
968
967
970
967
963
963
966
967
965
964
960
960
962
963
961
956
953
953
954
960
960
958
954
955
953
956
957
957
954
954
956
957
958
957
954
952
955
956
957
954
954
953
954
959
955
954
951
953
959
962
959
956
958
958
962
965
971
971
975
979
990
1004
1017
1030
1039
1047
1057
1059
1056
1042
1026
1014
1014
1025
1038
1058
1082
1105
1132
1153
1165
1165
1153
1133
1115
1099
1085
1062
1039
1018
998
975
953
933
920
911
908
911
918
920
926
932
942
947
949
948
944
947
948
951
953
952
948
950
949
956
954
950
951
952
951
956
958
955
952
955
959
962
963
961
958
961
962
967
967
966
965
965
971
972
972
969
970
975
977
982
983
983
982
984
989
993
993
991
992
993
998
1008
1008
1007
1008
1011
1012
1021
1022
1023
1022
1025
1025
1030
1037
1039
1037
1039
1043
1047
1046
1045
1043
1038
1037
1033
1032
1026
1018
1014
1013
1008
1009
998
995
991
990
995
990
985
983
982
982
983
983
982
979
977
978
981
978
978
975
974
976
978
978
976
972
973
975
978
978
976
972
969
974
978
978
977
973
971
971
976
976
973
974
976
976
978
977
978
976
975
974
978
980
977
975
971
974
981
978
977
975
975
974
979
978
974
972
973
970
976
975
974
967
971
973
977
976
975
973
971
973
975
972
973
970
970
973
976
976
974
969
969
974
976
975
971
970
969
973
976
979
975
977
977
981
988
985
982
981
981
985
989
991
989
993
990
993
997
997
993
993
990
992
993
993
991
985
983
986
985
983
982
978
977
980
983
981
978
976
975
976
976
981
972
968
967
972
976
977
973
973
972
971
971
973
971
969
968
969
974
972
969
967
967
969
973
972
971
967
967
970
974
973
970
967
969
970
973
970
972
969
969
971
977
979
981
982
986
993
1002
1014
1023
1034
1047
1063
1073
1076
1068
1058
1041
1028
1025
1034
1046
1068
1091
1122
1149
1165
1177
1177
1165
1146
1128
1104
1087
1062
1037
1015
994
968
948
933
919
915
919
922
925
930
931
941
949
952
953
951
953
956
960
958
958
955
954
958
961
958
959
958
958
961
963
962
960
959
958
962
963
963
965
962
965
967
971
972
971
968
970
973
975
976
978
975
976
981
987
987
987
986
985
990
995
998
1001
998
1003
1005
1010
1013
1014
1013
1013
1018
1025
1030
1028
1026
1027
1028
1035
1038
1040
1039
1042
1045
1051
1051
1047
1043
1043
1046
1045
1041
1037
1029
1022
1021
1019
1013
1006
1001
999
995
994
991
988
982
980
982
984
982
980
977
975
972
978
976
973
972
970
972
976
976
974
970
971
973
976
976
974
972
971
971
976
975
973
974
974
974
977
974
973
971
971
974
976
976
973
970
969
970
975
972
970
968
970
973
974
973
971
965
964
971
973
972
969
967
966
971
973
972
969
965
968
969
973
973
969
969
966
971
971
972
970
967
966
969
971
970
969
965
964
966
972
973
971
967
967
973
980
980
975
975
977
976
980
981
982
981
981
984
987
987
987
985
982
981
984
983
982
978
977
978
982
979
978
971
973
971
971
970
972
966
962
964
968
964
962
959
958
958
966
969
968
960
958
959
963
965
964
961
960
963
964
965
958
954
960
961
966
965
963
961
961
962
967
965
963
961
963
965
969
967
966
966
966
968
975
982
984
988
997
1012
1030
1046
1061
1070
1079
1082
1077
1062
1044
1026
1018
1030
1047
1069
1094
1114
1136
1154
1169
1168
1158
1139
1119
1105
1092
1076
1053
1031
1016
1000
984
967
948
937
928
930
934
939
940
943
948
952
956
954
955
952
953
952
957
958
958
954
954
957
957
958
958
952
952
957
961
962
958
956
956
962
963
962
964
962
960
962
969
968
969
967
968
972
977
978
977
978
980
981
987
989
989
986
988
996
1001
999
1001
1003
1003
1003
1012
1015
1016
1017
1017
1024
1029
1029
1031
1028
1034
1037
1044
1047
1046
1045
1048
1050
1053
1054
1053
1051
1047
1045
1046
1042
1033
1026
1022
1019
1020
1015
1009
1004
1001
1000
1002
1000
997
995
990
990
992
991
987
987
985
985
989
988
986
985
982
985
988
989
988
983
982
986
990
990
985
984
984
988
989
991
989
986
983
989
993
993
990
987
989
991
995
994
992
992
990
993
996
995
991
988
989
994
996
995
994
991
991
990
996
997
993
991
991
992
993
993
994
992
989
993
997
997
995
990
990
992
994
993
993
989
988
991
992
990
984
987
988
987
992
991
988
987
986
989
991
992
993
988
994
999
1002
1003
1000
999
1001
1005
1006
1010
1008
1005
1008
1011
1013
1014
1010
1007
1004
1002
1011
1008
1005
1001
1000
1002
1003
1000
998
997
994
993
997
997
992
992
991
992
991
991
989
985
990
991
994
992
986
989
987
989
991
990
990
988
987
989
992
990
987
985
983
990
989
992
989
988
988
991
992
994
989
989
990
996
1004
1005
1009
1018
1032
1051
1076
1090
1096
1093
1081
1067
1060
1058
1067
1078
1097
1125
1155
1178
1190
1202
1206
1197
1181
1161
1142
1124
1106
1088
1067
1042
1018
995
976
965
958
953
951
952
956
961
966
972
973
973
973
975
978
978
977
975
976
979
982
980
982
978
979
981
984
984
982
979
976
978
981
983
984
982
979
984
987
986
988
987
988
989
994
994
992
993
994
998
1002
999
1001
1000
1002
1004
1009
1011
1010
1009
1010
1013
1016
1023
1021
1023
1025
1030
1032
1035
1036
1034
1035
1038
1045
1047
1049
1048
1047
1056
1058
1064
1063
1062
1060
1065
1069
1067
1065
1058
1053
1052
1050
1046
1039
1032
1028
1028
1027
1025
1019
1016
1013
1012
1015
1013
1009
1005
1002
1006
1009
1006
1005
1000
1001
1002
1003
1003
1000
998
996
1000
1004
1003
1000
997
996
1001
1003
1003
1003
998
997
1002
1004
1002
1004
998
1001
1004
1005
1006
1002
1001
999
1002
1006
1004
1004
1001
999
1003
1007
1003
1003
1000
999
1000
1003
1004
1002
996
999
1001
1005
1003
1001
999
997
999
1001
1001
999
999
999
1002
1003
1003
1000
998
997
1000
1000
1004
1000
999
1000
1000
1000
1002
1001
997
998
1000
1003
1002
1000
997
997
1000
1002
1005
1005
1000
1006
1011
1012
1013
1011
1006
1006
1010
1016
1017
1019
1016
1017
1017
1020
1018
1016
1013
1011
1014
1016
1015
1012
1006
1004
1004
1007
1007
1003
1002
1002
1003
1005
1005
1004
1000
1001
1000
1002
1002
998
999
998
1001
1004
1001
1000
995
995
998
998
999
995
993
996
996
998
997
994
990
995
996
999
1001
997
995
995
997
1000
998
999
994
993
997
1000
1000
1000
998
998
1004
1007
1013
1016
1017
1022
1037
1051
1066
1078
1084
1088
1090
1084
1069
1058
1048
1053
1069
1098
1121
1147
1166
1186
1199
1204
1193
1172
1146
1124
1111
1094
1069
1044
1012
990
973
962
952
949
946
952
962
972
979
983
983
982
985
988
989
987
984
985
989
991
991
990
986
987
989
992
991
988
987
989
992
994
994
995
992
993
994
998
998
995
996
997
999
1003
1004
1005
1002
1003
1006
1008
1014
1014
1011
1010
1016
1019
1023
1024
1025
1024
1032
1036
1038
1038
1036
1041
1044
1048
1050
1051
1051
1053
1058
1064
1068
1069
1071
1072
1074
1077
1077
1073
1068
1060
1063
1060
1054
1045
1037
1035
1034
1031
1032
1026
1021
1018
1018
1019
1017
1014
1008
1009
1010
1008
1010
1007
1007
1003
1003
1005
1008
1004
1005
1002
1001
1004
1005
1006
1002
1002
1002
1003
1004
1004
1002
1001
1005
1004
1003
1006
1004
1001
999
1000
1003
1004
999
999
1000
1002
1004
1001
999
998
999
1000
999
1001
996
994
998
1000
1000
1000
999
996
999
1001
1000
998
993
997
997
998
999
998
994
993
995
996
996
992
995
990
992
997
997
995
993
992
994
995
995
994
990
992
991
997
997
996
995
994
996
1002
1001
1003
999
1000
1003
1006
1009
1010
1006
1007
1010
1014
1011
1008
1006
1004
1006
1006
1006
1001
998
997
999
998
996
997
992
988
993
996
993
993
987
987
989
988
986
984
981
981
984
988
984
982
981
980
982
985
986
984
979
978
978
983
985
983
978
977
980
983
985
980
980
980
980
985
984
982
976
978
982
986
985
985
982
983
985
987
991
992
995
997
1004
1014
1023
1038
1051
1065
1076
1081
1081
1070
1048
1032
1022
1029
1047
1071
1099
1125
1154
1173
1185
1181
1167
1144
1123
1105
1086
1061
1036
1011
989
972
956
942
936
932
935
945
954
958
961
965
966
970
969
965
966
964
968
971
972
967
964
967
968
972
974
972
970
967
971
974
973
975
972
974
974
977
980
980
979
979
979
982
987
985
985
984
987
991
993
995
994
994
1000
1005
1008
1009
1007
1007
1015
1017
1023
1025
1025
1026
1034
1038
1041
1040
1040
1041
1045
1052
1057
1055
1055
1058
1058
1059
1062
1059
1051
1048
1045
1043
1038
1031
1024
1019
1018
1019
1013
1008
1003
1001
1001
1003
1004
998
997
995
994
996
994
993
988
991
990
991
993
990
990
985
989
994
993
991
989
986
986
993
