952
952
952
957
958
955
952
956
955
958
961
960
960
957
961
963
965
960
961
958
959
962
965
966
964
963
964
966
971
970
967
969
971
973
976
978
977
974
977
981
988
985
985
985
989
991
998
999
997
999
1000
1003
1007
1010
1012
1012
1016
1021
1025
1027
1027
1028
1028
1033
1039
1041
1042
1041
1046
1050
1056
1055
1052
1052
1052
1054
1049
1046
1041
1035
1031
1028
1027
1023
1018
1011
1009
1005
1007
1003
998
993
992
995
993
994
988
984
984
986
985
989
986
984
986
984
989
990
986
984
984
985
986
984
984
983
984
986
991
987
985
984
981
986
991
989
987
985
986
988
991
988
987
987
985
989
991
988
987
986
983
986
989
988
985
983
981
984
988
985
984
984
980
984
988
984
985
981
979
985
987
986
983
982
979
981
984
985
985
981
981
984
985
981
977
977
979
981
984
984
983
980
981
983
987
987
987
988
987
990
994
994
992
993
993
997
1002
1003
1001
994
997
996
996
997
994
991
989
989
991
989
988
985
984
986
986
984
984
981
983
985
984
984
977
971
970
974
978
976
977
972
974
973
975
971
970
964
965
971
975
974
971
967
968
970
972
973
968
969
969
972
974
975
972
970
971
973
974
974
970
972
974
979
984
989
992
994
1004
1016
1033
1042
1055
1061
1060
1058
1050
1032
1020
1013
1018
1033
1060
1082
1108
1130
1155
1171
1179
1164
1141
1116
1097
1081
1066
1042
1014
988
962
945
933
926
917
921
924
937
945
953
954
955
962
963
964
963
961
962
963
964
970
971
966
963
965
969
973
971
970
965
966
966
969
968
963
965
966
970
976
978
978
973
976
978
984
985
982
979
980
984
991
992
989
989
992
996
1000
999
998
996
997
1002
1009
1010
1011
1010
1013
1017
1021
1023
1023
1023
1027
1030
1037
1039
1038
1035
1041
1046
1051
1050
1053
1050
1051
1057
1055
1049
1043
1037
1028
1028
1024
1022
1016
1008
1007
1006
1006
1004
999
992
991
990
992
991
986
980
982
983
987
984
982
979
983
984
984
982
982
980
981
982
986
983
979
976
978
982
987
984
984
984
983
985
984
983
977
976
978
983
986
985
982
980
981
981
982
980
976
977
978
979
982
979
980
976
975
977
979
978
977
974
977
978
981
981
975
973
973
975
978
981
973
972
975
973
977
977
977
973
972
971
974
974
970
969
973
971
977
979
977
974
973
978
984
983
981
979
980
981
986
987
985
985
985
990
996
993
994
989
991
993
995
992
986
983
981
984
987
985
982
979
980
981
981
978
973
971
970
971
977
976
972
968
963
967
970
970
969
966
967
967
969
967
965
965
964
969
970
967
964
962
960
966
966
965
963
960
963
962
967
966
962
962
960
963
968
966
965
965
966
967
973
973
975
976
980
984
996
1006
1014
1028
1039
1045
1051
1044
1030
1013
1002
997
1008
1023
1043
1070
1096
1124
1149
1163
1162
1150
1130
1111
1093
1076
1051
1022
997
973
951
933
918
910
907
911
918
926
931
938
945
951
956
957
954
950
950
954
960
957
956
955
955
958
958
962
959
958
959
962
964
961
960
956
962
960
965
967
964
963
965
968
971
971
969
969
971
974
980
979
976
979
981
985
989
991
990
990
994
996
1005
1004
1004
1005
1010
1014
1019
1020
1019
1019
1020
1022
1028
1030
1031
1033
1036
1040
1044
1044
1044
1040
1041
1040
1038
1033
1029
1022
1016
1015
1014
1009
1001
994
992
989
988
988
984
980
980
981
983
980
975
970
971
972
974
972
970
968
965
969
972
970
972
965
968
969
974
973
969
967
967
968
973
973
971
967
963
965
973
970
965
966
965
968
967
966
965
960
960
963
962
962
961
959
960
964
967
964
962
958
957
961
964
963
960
955
955
960
959
958
955
953
952
955
959
961
959
954
955
958
960
956
956
954
957
957
957
957
956
954
953
955
957
955
954
957
955
960
962
962
961
958
960
965
969
970
970
966
967
970
970
969
960
958
963
963
964
962
957
956
955
956
959
957
953
948
948
948
951
950
946
943
941
939
942
943
940
937
937
937
941
941
939
937
936
937
937
936
935
933
935
938
939
939
938
937
934
935
941
940
938
937
933
937
941
940
938
938
939
944
948
953
955
957
962
973
987
1002
1011
1018
1022
1023
1020
1003
979
959
950
956
975
998
1023
1050
1075
1096
1110
1114
1101
1078
1058
1042
1025
1005
985
965
945
930
918
905
894
886
885
889
898
904
912
916
919
924
925
923
922
921
923
927
930
930
923
920
919
924
927
928
928
927
928
929
931
932
928
928
927
932
935
934
935
935
939
942
946
946
945
943
947
949
956
958
955
957
960
961
967
970
970
970
974
977
980
984
985
985
987
991
996
998
998
1001
999
1005
1011
1013
1013
1014
1014
1018
1015
1015
1013
1007
1002
1000
995
991
982
975
971
970
967
964
961
955
952
952
953
954
949
945
944
947
947
948
943
940
940
943
943
944
943
945
944
944
948
950
946
943
942
946
951
949
950
946
946
948
954
953
951
948
947
950
951
952
950
949
946
949
953
951
951
949
949
952
954
953
950
950
949
953
955
955
949
949
946
952
954
953
950
950
947
952
954
956
953
950
950
953
955
955
953
951
952
953
955
955
955
955
954
959
965
966
964
960
960
965
968
970
970
965
968
974
977
977
976
973
970
973
973
970
968
964
963
965
968
966
966
958
960
960
964
964
960
956
956
957
960
958
954
952
951
954
958
959
954
950
949
953
958
956
953
949
946
949
952
956
953
951
949
949
956
956
954
950
950
953
955
953
953
951
950
956
958
958
956
952
955
961
969
974
975
980
992
1008
1023
1037
1046
1051
1050
1047
1039
1025
1012
1009
1019
1041
1068
1093
1119
1135
1151
1160
1155
1137
1111
1090
1075
1059
1043
1022
995
970
951
937
927
919
911
907
909
916
929
931
938
938
939
943
945
946
944
943
943
941
948
949
946
941
941
948
949
948
946
943
945
946
951
950
948
945
947
951
953
953
953
951
952
954
958
960
961
956
957
961
962
966
964
963
964
968
974
975
974
972
975
979
981
983
981
986
987
991
996
999
998
998
999
1003
1007
1009
1011
1011
1015
1018
1024
1027
1026
1028
1027
1032
1038
1035
1033
1028
1024
1023
1023
1018
1012
1005
1003
999
1000
995
990
986
984
982
982
977
976
974
972
973
975
975
970
969
969
968
973
972
970
966
967
968
967
969
971
967
970
971
974
973
970
968
968
969
975
974
971
968
970
973
973
975
972
968
970
972
976
973
972
968
968
968
974
974
969
966
970
971
974
972
970
967
966
971
971
971
970
968
967
966
971
973
970
968
966
967
970
969
969
967
967
967
972
971
970
967
966
968
969
968
966
966
966
965
972
970
968
965
967
971
978
976
972
972
978
977
983
983
982
978
979
985
989
990
986
983
981
985
986
984
981
981
975
977
980
979
974
973
974
974
973
977
972
968
967
969
974
974
969
965
962
964
965
966
965
963
962
963
964
961
958
956
960
960
964
962
961
959
956
958
963
964
960
957
957
961
961
963
962
961
960
961
964
965
962
959
962
965
969
970
971
971
974
978
992
1000
1011
1018
1035
1048
1059
1063
1057
1045
1032
1023
1019
1025
1037
1057
1084
1115
1139
1156
1165
1162
1148
1126
1109
1092
1074
1049
1030
1008
985
964
945
927
918
916
917
921
927
933
936
944
948
950
950
947
947
951
954
952
950
950
949
953
957
956
957
954
954
954
959
957
956
954
953
960
960
964
960
957
957
960
962
965
966
965
963
968
974
973
974
973
974
976
979
980
981
978
982
991
996
1000
1000
998
996
1000
1000
1001
1000
999
999
1008
1014
1014
1018
1017
1019
1021
1025
1029
1034
1033
1032
1040
1043
1044
1042
1041
1041
1042
1043
1041
1035
1030
1024
1022
1021
1019
1009
1005
1001
1000
1001
997
993
990
988
987
984
985
984
980
978
977
982
980
978
975
970
976
979
976
975
973
972
971
978
978
975
973
975
975
980
977
974
972
968
976
978
977
973
972
971
972
976
976
975
972
971
972
974
976
976
971
971
971
975
972
972
972
968
969
974
974
974
970
970
974
975
974
972
973
970
973
976
975
971
970
968
970
973
974
973
971
969
971
972
971
971
970
969
972
974
974
970
967
966
969
971
973
969
965
965
971
975
979
978
976
975
977
982
982
979
977
979
984
986
987
987
985
985
984
985
984
982
978
979
981
978
979
975
972
969
972
973
970
969
965
965
967
968
968
967
963
959
963
966
964
964
959
957
960
963
966
962
959
957
964
963
962
960
959
959
959
962
961
962
957
957
962
964
962
960
958
955
961
965
964
962
961
961
963
970
974
975
974
981
987
1000
1011
1024
1032
1038
1045
1048
1047
1030
1015
1006
1006
1021
1038
1060
1081
1106
1127
1145
1156
1152
1142
1118
1100
1085
1070
1049
1027
1005
984
963
943
926
913
903
903
910
919
923
931
935
943
948
953
951
948
945
946
951
953
950
950
951
953
955
955
955
952
951
953
957
959
955
954
957
959
964
963
962
958
958
963
966
969
968
964
964
968
971
976
974
974
974
979
982
983
984
981
983
986
988
991
993
990
991
999
1001
1006
1008
1007
1010
1012
1017
1019
1017
1019
1020
1024
1029
1033
1034
1035
1034
1036
1045
1047
1043
1040
1039
1038
1037
1034
1030
1024
1017
1017
1016
1010
1006
999
997
995
995
991
984
980
981
980
982
982
978
977
974
976
977
976
975
973
971
971
975
977
972
972
971
968
973
975
973
972
971
972
972
973
974
970
968
972
972
975
973
970
970
971
974
976
973
971
970
970
972
973
971
971
969
972
973
973
972
966
968
971
973
970
967
967
967
967
972
971
969
965
964
966
968
968
967
964
964
967
969
969
968
966
964
967
972
971
968
964
962
963
967
971
968
963
965
965
970
973
973
971
975
975
976
977
976
977
978
982
986
986
987
986
985
987
985
984
980
978
976
976
978
977
975
973
970
970
972
974
971
969
968
967
971
971
966
962
959
961
961
965
964
964
961
962
960
959
961
960
958
958
961
962
960
958
959
960
963
963
960
956
958
959
961
962
959
959
959
959
965
967
966
963
964
973
986
994
1003
1014
1027
1039
1049
1052
1045
1029
1014
1003
1004
1014
1029
1049
1075
1106
1127
1144
1153
1150
1132
1115
1097
1075
1057
1032
1008
990
969
950
930
915
907
904
909
917
923
927
933
939
947
949
948
947
947
949
953
953
952
951
950
953
956
954
953
950
951
955
958
959
957
955
953
957
960
964
961
960
961
964
967
969
966
966
965
971
976
977
977
975
976
979
980
983
983
982
984
988
993
995
995
996
996
999
1006
1009
1010
1007
1009
1013
1020
1023
1023
1023
1025
1027
1031
1037
1037
1033
1035
1041
1048
1047
1044
1043
1043
1040
1042
1039
1031
1027
1022
1018
1014
1010
1004
999
996
993
993
988
984
981
981
981
982
979
977
975
975
975
979
974
973
971
969
971
973
975
973
970
972
969
975
978
975
973
970
973
975
976
975
973
971
974
975
974
975
973
972
973
974
976
974
974
971
972
975
975
973
971
971
970
972
972
973
968
969
971
974
974
972
970
969
971
973
974
973
969
968
970
971
974
971
969
967
967
971
973
970
967
966
965
970
970
970
967
966
966
972
971
970
966
968
972
973
975
973
969
974
977
981
981
979
978
976
976
982
986
985
985
984
987
990
990
990
984
983
985
986
987
984
981
976
978
981
981
976
973
970
972
973
975
975
969
968
967
971
971
968
961
962
963
967
970
966
961
958
961
961
962
963
955
957
957
963
963
960
959
957
958
962
962
960
957
957
959
958
963
961
959
960
961
962
962
960
960
956
960
963
967
967
967
968
977
983
992
1001
1011
1022
1035
1043
1043
1040
1030
1014
1001
994
994
1004
1022
1045
1073
1100
1121
1135
1145
1145
1134
1116
1097
1074
1050
1026
1010
987
960
937
915
904
899
902
904
911
919
924
932
942
948
947
945
944
944
948
950
948
947
945
947
949
953
949
948
947
950
953
954
955
953
953
955
959
960
960
959
956
960
964
966
966
963
963
968
972
973
973
974
972
976
980
985
984
984
984
988
992
995
997
997
1000
1003
1009
1012
1013
1013
1014
1020
1024
1029
1029
1029
1031
1032
1040
1043
1041
1041
1040
1041
1044
1042
1039
1033
1028
1025
1023
1018
1014
1007
1002
1002
995
993
989
983
979
979
979
979
978
972
968
972
975
974
971
969
966
965
968
970
967
967
967
968
970
971
966
966
966
965
966
968
967
964
962
966
966
968
965
964
965
966
970
969
968
964
964
966
969
971
968
965
961
966
966
969
967
964
962
963
968
967
967
964
964
965
967
967
966
960
964
964
967
965
963
960
958
960
964
964
964
960
959
960
965
966
967
961
961
958
961
967
967
967
968
968
972
972
972
971
971
974
978
982
980
981
978
977
980
979
978
974
972
973
974
974
971
969
967
964
965
963
965
961
959
958
957
957
958
952
954
956
959
963
961
959
956
954
957
957
956
953
952
953
954
958
956
953
952
954
958
958
956
952
953
957
961
958
956
955
956
960
962
961
960
959
958
959
961
966
972
973
978
990
1002
1016
1035
1048
1056
1063
1066
1057
1041
1019
1002
998
1003
1021
1041
1063
1093
1119
1140
1155
1152
1142
1119
1099
1082
1063
1040
1019
1002
983
967
949
935
924
918
921
927
935
937
939
944
943
950
949
947
944
943
947
949
951
951
948
947
949
953
954
952
950
947
948
952
956
954
953
954
956
960
959
958
958
958
963
965
969
971
968
969
973
977
980
981
980
981
983
992
995
995
996
999
1002
1010
1013
1012
1015
1015
1019
1024
1028
1027
1029
1030
1035
1038
1045
1046
1045
1045
1046
1049
1050
1045
1040
1037
1036
1033
1030
1023
1015
1009
1005
1005
1004
997
994
990
989
990
988
986
981
979
980
983
984
980
978
976
978
980
981
978
975
975
977
979
982
980
977
973
978
978
981
977
975
977
976
981
983
983
980
979
981
983
984
983
981
980
982
984
986
982
980
980
981
985
985
983
979
978
982
983
985
984
978
978
981
983
984
983
979
978
980
984
982
980
977
979
977
981
981
980
979
977
976
980
979
982
980
977
977
982
982
981
980
979
980
988
991
989
988
987
986
987
993
992
991
992
994
1000
1000
999
991
991
993
994
994
990
987
984
986
987
987
985
981
977
980
982
983
979
979
974
974
977
974
976
972
970
973
975
975
972
970
969
971
975
975
973
970
969
970
974
976
973
970
967
971
975
973
974
969
970
972
974
975
975
971
970
973
978
979
978
979
982
988
997
1004
1014
1025
1036
1053
1064
1070
1064
1052
1038
1025
1025
1029
1043
1061
1089
1118
1145
1168
1178
1177
1163
1141
1123
1107
1088
1065
1039
1017
994
971
952
935
925
921
928
935
942
948
953
956
962
962
962
958
959
960
962
965
963
961
961
962
963
965
967
962
963
966
965
969
969
967
965
969
968
972
969
972
972
973
979
980
980
980
980
983
986
989
990
988
987
991
997
1002
1002
1001
1004
1007
1009
1014
1016
1018
1019
1021
1025
1029
1032
1031
1034
1036
1041
1046
1047
1048
1049
1053
1053
1052
1047
1044
1038
1034
1033
1029
1023
1014
1007
1009
1009
1004
1003
994
993
993
995
991
989
987
983
984
984
986
984
982
980
979
984
986
983
984
980
982
983
985
984
979
980
981
983
984
983
979
980
980
984
986
984
978
979
981
981
984
981
981
977
978
979
984
983
980
978
975
983
984
981
978
977
979
981
982
981
976
977
974
980
983
978
976
972
976
978
977
974
975
975
975
979
979
977
974
971
974
978
976
977
974
974
976
979
984
981
982
979
983
986
986
987
984
981
988
992
996
992
992
992
992
990
990
989
987
984
985
986
985
984
981
978
977
979
979
978
974
970
970
975
977
975
971
967
968
967
966
969
967
968
969
969
968
968
963
960
963
966
967
966
963
961
960
965
967
966
962
960
961
964
966
964
962
960
962
967
967
967
962
961
959
965
967
966
963
966
971
975
981
990
994
1003
1013
1029
1042
1046
1050
1048
1041
1030
1017
1010
1010
1021
1044
1069
1097
1119
1137
1151
1158
1153
1140
1118
1096
1078
1061
1047
1024
998
972
947
931
923
915
914
907
912
921
934
942
947
948
947
949
952
954
954
950
948
952
953
957
957
953
954
955
960
962
960
960
958
960
963
963
961
959
959
962
962
966
966
966
963
968
966
970
965
965
967
969
974
977
978
976
975
979
980
986
985
985
987
987
990
994
1000
1000
996
1002
1010
1013
1016
1016
1017
1017
1023
1024
1029
1030
1030
1034
1040
1041
1043
1041
1039
1043
1047
1046
1044
1041
1035
1035
1034
1029
1025
1016
1013
1008
1009
1005
1000
998
994
993
993
990
986
985
980
980
983
984
981
979
975
977
979
981
977
976
975
972
978
978
974
973
971
972
975
977
975
972
972
975
974
976
975
974
970
970
974
978
977
974
972
974
977
977
977
975
974
974
978
978
978
974
973
972
975
976
976
971
970
973
975
975
973
971
968
970
973
973
976
972
968
972
973
973
973
970
969
966
967
969
972
968
967
966
968
969
970
968
965
967
968
971
968
965
966
965
969
970
970
968
964
967
973
979
977
976
974
975
977
981
982
980
981
982
982
985
984
985
981
982
978
981
981
974
972
970
974
978
975
969
967
966
973
973
972
968
963
964
969
969
967
965
960
959
961
962
963
958
958
961
961
962
