1042
1037
1030
1029
1025
1023
1018
1010
1006
1003
1003
998
996
992
989
985
987
988
985
980
981
982
982
983
983
977
976
978
980
979
977
975
973
977
977
978
979
975
971
975
974
979
978
975
974
975
978
982
980
978
976
979
979
981
980
976
971
971
972
974
972
970
971
973
975
976
971
968
964
967
973
973
971
970
968
970
970
970
969
966
966
968
970
970
969
968
967
966
970
970
969
966
963
963
965
970
969
966
964
967
966
965
965
964
962
965
967
969
968
965
964
965
970
974
974
974
975
976
981
981
975
975
976
980
982
982
984
984
979
981
982
981
978
975
974
974
974
971
970
965
963
964
967
969
967
963
961
961
964
962
961
955
954
959
962
959
957
955
954
956
957
955
956
954
951
954
958
960
960
958
957
956
959
958
958
953
954
953
955
957
955
953
954
959
960
962
961
958
955
965
970
976
982
987
999
1010
1022
1028
1028
1021
1006
989
973
961
960
970
990
1017
1044
1066
1079
1080
1078
1067
1046
1024
1001
979
956
937
920
906
895
886
882
883
890
899
906
914
926
932
945
949
949
949
950
952
953
956
957
955
954
953
958
958
961
961
960
965
969
971
969
966
967
967
969
971
973
973
975
977
981
986
982
983
980
982
986
992
995
995
997
1000
1003
1007
1009
1009
1008
1013
1018
1021
1023
1019
1022
1026
1032
1036
1038
1037
1038
1041
1047
1051
1051
1047
1048
1047
1051
1054
1053
1049
1049
1049
1053
1054
1051
1042
1038
1036
1033
1029
1026
1014
1008
1004
1003
1002
997
992
984
984
986
987
985
981
977
978
979
981
978
977
973
969
974
974
973
970
970
975
976
977
975
970
969
968
971
971
972
968
971
968
972
972
973
972
972
974
975
975
973
965
969
972
975
974
975
971
970
969
972
974
973
974
971
973
975
975
973
970
968
971
973
975
972
972
970
970
972
973
970
970
969
968
970
969
969
966
966
968
969
970
971
967
965
965
969
969
969
970
968
970
969
970
966
964
966
967
971
975
973
973
973
976
978
978
980
981
978
983
985
983
983
979
979
978
980
981
978
973
973
974
976
976
971
968
964
966
969
970
969
965
964
964
962
958
960
958
958
961
963
963
961
958
957
959
961
963
958
954
953
956
955
961
960
958
956
957
958
960
958
956
954
956
958
961
962
958
955
961
962
965
965
965
968
975
985
994
999
1007
1017
1024
1029
1023
1011
992
970
952
952
965
985
1008
1029
1051
1068
1077
1079
1066
1043
1019
998
978
958
932
911
900
893
887
886
888
890
902
914
921
933
938
942
949
955
956
956
954
955
959
964
964
964
960
960
963
968
972
971
967
967
969
973
977
976
974
977
979
980
982
982
980
983
986
991
995
998
998
999
1000
1006
1007
1011
1007
1008
1014
1019
1023
1024
1026
1028
1031
1036
1040
1037
1040
1042
1045
1046
1048
1051
1048
1050
1054
1059
1058
1060
1060
1057
1057
1061
1062
1060
1051
1048
1046
1044
1042
1036
1029
1019
1015
1012
1010
1004
999
992
993
995
994
988
980
979
977
980
977
978
971
970
974
975
978
977
973
971
972
974
977
974
973
972
973
974
978
974
966
967
971
977
977
977
971
969
973
976
981
979
975
973
974
979
980
980
974
973
974
974
976
977
971
971
972
975
978
977
975
972
973
974
973
974
969
968
971
972
973
972
968
967
968
973
973
971
971
970
969
973
973
972
967
966
965
968
969
966
964
961
965
972
970
967
968
968
969
975
976
977
971
975
976
981
985
986
985
983
987
989
988
985
981
976
976
977
978
978
976
972
971
974
972
970
969
963
963
965
967
966
964
956
960
960
962
962
960
960
959
960
960
957
954
954
955
958
958
956
956
951
955
954
955
952
954
953
954
960
958
959
955
954
953
957
958
959
954
953
952
955
959
961
965
968
974
985
997
1005
1012
1016
1018
1016
1007
984
961
938
935
953
979
1004
1029
1045
1058
1069
1066
1050
1025
999
977
964
945
927
905
885
879
880
881
885
891
893
910
923
932
939
942
942
947
951
949
952
953
950
953
956
961
960
961
958
962
963
966
963
960
960
965
968
971
973
973
970
970
979
981
979
977
977
982
987
993
994
994
994
997
1004
1007
1007
1008
1009
1011
1015
1019
1019
1019
1023
1026
1030
1036
1037
1035
1035
1039
1041
1047
1049
1049
1048
1049
1052
1053
1051
1051
1048
1049
1052
1051
1047
1039
1033
1031
1028
1026
1018
1011
1006
1004
1001
999
994
988
983
980
979
978
976
971
966
971
971
969
969
966
962
964
964
966
966
965
961
961
960
963
963
960
958
959
963
965
963
962
958
962
964
964
963
960
960
958
963
964
962
961
960
962
964
966
963
960
959
958
961
964
965
962
959
960
961
964
962
961
960
958
958
960
960
956
956
956
960
960
958
954
953
955
958
961
959
955
951
951
951
956
954
951
950
952
956
959
958
955
953
953
954
963
961
959
961
962
967
970
970
964
966
969
973
973
971
967
965
966
970
970
964
957
955
958
959
961
960
954
955
954
955
955
954
947
947
946
947
948
948
948
946
945
948
948
946
942
942
944
948
948
946
944
941
943
943
943
943
944
943
943
946
947
947
942
941
943
946
947
946
945
943
946
946
946
944
945
945
948
957
963
968
974
983
995
1003
1011
1009
1001
991
976
957
940
929
932
946
970
999
1025
1041
1050
1054
1049
1035
1017
993
972
952
935
919
905
885
871
864
866
869
877
878
887
896
906
916
926
930
929
932
934
939
938
939
939
937
940
942
948
950
948
944
946
950
952
951
949
946
948
952
957
958
957
957
959
963
963
966
968
967
971
971
973
976
975
977
978
986
988
990
989
991
996
1001
1004
1002
1001
1004
1008
1014
1020
1022
1022
1021
1022
1029
1031
1031
1030
1027
1030
1035
1037
1036
1034
1031
1035
1035
1036
1030
1031
1027
1026
1025
1020
1013
1008
1003
999
997
992
987
979
973
971
969
969
966
959
953
954
954
956
952
950
947
947
948
950
947
947
945
942
943
944
941
941
939
938
941
940
943
938
938
936
939
939
943
939
937
936
937
940
940
938
933
937
936
941
942
936
934
934
938
935
941
934
932
936
937
937
938
933
931
932
936
941
938
938
934
933
936
937
934
935
933
933
932
933
930
930
927
931
933
933
932
929
926
929
932
933
935
930
930
928
933
931
931
926
928
931
935
936
938
934
931
932
936
938
942
941
939
940
943
948
948
944
941
944
945
946
945
942
942
944
945
939
940
935
932
933
936
936
933
930
926
927
929
930
932
928
924
924
923
926
926
923
926
926
930
929
925
924
922
926
928
931
928
925
922
922
926
929
928
926
926
923
927
929
926
921
920
925
927
931
927
928
926
928
930
933
934
931
930
931
933
934
938
934
940
945
952
960
969
981
994
1006
1018
1025
1021
1012
997
982
960
942
924
917
927
945
966
990
1008
1023
1032
1043
1041
1028
1014
993
980
964
955
945
936
921
908
902
901
900
897
896
897
904
914
920
927
931
930
937
941
943
941
941
939
942
947
952
950
950
949
951
954
959
956
954
953
955
959
959
960
961
961
962
969
971
972
969
969
971
974
978
980
983
984
989
992
998
998
996
998
1000
1006
1011
1014
1011
1014
1019
1025
1031
1031
1032
1034
1037
1043
1048
1050
1049
1048
1052
1055
1058
1057
1054
1056
1059
1059
1065
1065
1059
1058
1056
1059
1060
1056
1049
1041
1039
1037
1032
1029
1024
1016
1012
1010
1008
1005
1000
996
994
994
994
990
984
982
982
985
986
983
978
976
978
983
982
982
978
977
977
977
981
982
978
976
975
979
983
980
979
978
978
980
984
983
980
978
979
980
985
985
982
981
981
984
984
985
985
984
985
989
989
987
982
984
984
988
987
985
983
980
982
986
987
986
983
980
983
986
989
985
983
980
980
984
985
983
981
982
982
984
985
984
982
977
977
984
984
982
980
974
976
979
980
979
980
979
981
987
989
989
985
987
985
991
990
989
987
988
989
994
997
999
995
992
990
994
998
993
989
985
985
986
989
989
984
981
983
980
985
982
978
977
978
982
983
980
977
971
971
978
978
978
976
974
972
973
975
974
970
966
967
973
975
973
965
957
961
967
969
971
967
967
964
971
972
972
969
965
967
970
973
972
970
966
969
972
976
975
976
975
982
990
996
996
1004
1014
1026
1038
1050
1050
1046
1039
1024
1012
996
981
974
983
1005
1036
1063
1086
1102
1110
1113
1108
1093
1066
1043
1023
1005
990
972
951
931
919
911
910
909
911
911
916
928
942
949
953
955
959
960
962
964
965
961
960
963
968
970
971
967
967
968
972
974
972
973
973
975
978
978
981
979
978
980
979
985
985
982
984
986
990
995
993
992
993
996
1000
1004
1004
1004
1006
1008
1011
1014
1018
1016
1017
1018
1024
1027
1033
1031
1034
1036
1043
1045
1040
1042
1043
1042
1046
1051
1051
1051
1048
1052
1055
1055
1053
1051
1047
1049
1047
1047
1042
1032
1028
1023
1022
1019
1011
1004
997
1000
997
995
990
985
979
978
980
982
976
971
966
965
965
966
965
959
963
962
962
962
963
959
956
956
960
960
960
957
955
959
962
962
961
959
957
955
956
958
961
956
955
954
955
958
959
955
957
958
956
961
957
956
957
957
958
960
959
956
954
954
957
962
961
957
952
950
956
960
960
957
953
950
952
953
956
950
946
945
947
953
954
951
947
950
946
948
945
944
941
941
945
950
951
950
948
949
950
950
951
947
950
953
956
957
957
953
951
949
953
955
959
959
961
960
965
963
961
955
949
951
954
955
957
953
949
950
952
951
950
944
944
941
940
945
943
938
937
936
935
940
940
938
934
937
937
939
941
937
936
939
941
945
942
939
940
938
940
939
935
930
929
931
935
938
942
940
935
932
935
941
941
942
941
945
949
953
951
948
944
942
948
958
963
972
984
1000
1019
1029
1030
1026
1019
1018
1007
994
966
944
939
953
979
1005
1033
1049
1066
1074
1075
1069
1053
1033
1012
997
978
966
950
934
925
925
925
927
934
934
935
941
946
956
962
965
968
969
967
965
966
966
965
970
971
977
978
978
978
981
982
984
984
982
982
985
990
996
996
997
998
998
998
997
1001
1003
1004
1002
1007
1013
1014
1019
1019
1022
1026
1035
1038
1036
1033
1035
1044
1052
1049
1051
1051
1052
1057
1066
1069
1073
1069
1067
1070
1067
1064
1064
1063
1070
1075
1082
1072
1060
1046
1038
1035
1032
1029
1025
1021
1020
1020
1015
1011
1005
1003
1002
1000
1003
1001
998
993
996
997
998
995
992
988
988
992
990
991
985
985
983
986
987
988
987
982
985
986
987
991
987
986
986
989
993
991
989
985
987
990
996
996
997
999
1002
1006
1000
993
981
981
982
984
988
982
974
977
979
985
986
986
983
986
986
983
988
985
984
985
985
987
989
988
985
984
987
991
992
990
987
983
985
984
983
981
973
968
971
974
973
969
964
968
974
978
984
982
980
981
985
987
991
989
986
988
992
996
995
996
993
992
992
996
999
997
997
996
997
995
991
984
977
972
968
970
974
975
976
976
975
976
978
978
975
972
969
971
972
973
972
970
969
973
973
974
971
968
968
970
972
971
967
965
964
969
974
974
972
971
969
972
975
971
966
964
965
970
971
974
973
977
983
983
983
975
964
955
958
965
977
989
997
1003
1018
1033
1040
1049
1050
1046
1044
1034
1022
1003
989
988
1001
1022
1048
1074
1099
1112
1124
1134
1132
1112
1086
1064
1048
1036
1022
1003
981
960
941
931
922
919
917
918
926
932
938
944
947
949
953
959
961
964
962
960
961
963
964
964
962
962
965
970
972
970
969
967
964
967
968
970
970
968
971
973
980
977
978
975
980
984
985
984
986
985
986
992
994
995
995
993
999
1002
1007
1008
1010
1008
1012
1017
1022
1024
1028
1031
1030
1032
1032
1033
1030
1026
1028
1032
1035
1040
1038
1039
1040
1043
1048
1050
1045
1043
1042
1045
1046
1040
1033
1028
1025
1026
1023
1016
1010
1004
998
1000
1000
996
992
988
989
986
987
983
979
977
975
980
981
977
976
972
974
973
976
974
972
970
969
969
976
977
970
970
970
971
975
975
973
968
969
973
976
974
972
973
970
972
975
973
971
970
973
973
971
973
971
969
970
976
977
975
973
971
969
973
975
975
972
969
971
972
971
973
968
967
969
973
974
973
971
966
963
966
970
969
967
966
965
967
968
968
967
966
967
969
969
970
966
964
962
966
972
969
966
967
967
972
975
971
971
965
968
973
978
980
978
979
982
985
987
989
986
983
981
980
985
979
978
976
974
975
973
968
968
966
967
968
973
969
966
963
964
967
969
968
962
957
952
955
959
962
961
960
956
960
962
961
955
952
950
953
956
954
957
956
958
962
963
961
957
949
948
949
954
955
955
952
955
957
960
959
956
954
957
959
964
962
960
959
962
970
976
981
983
993
1011
1023
1032
1031
1018
1002
988
972
960
951
956
973
996
1028
1061
1083
1097
1105
1102
1089
1072
1051
1032
1015
992
973
952
935
919
906
902
902
904
909
914
925
930
941
946
948
948
947
947
951
953
952
952
952
953
958
960
960
957
953
954
959
963
963
959
960
963
967
972
971
970
970
971
973
976
976
976
976
978
982
988
989
988
989
994
997
1003
1005
1001
1004
1006
1008
1010
1013
1015
1017
1018
1027
1029
1032
1032
1031
1034
1036
1040
1046
1043
1044
1043
1048
1050
1052
1051
1048
1048
1047
1041
1033
1025
1019
1017
1011
1010
1004
1000
995
992
990
992
991
986
980
979
978
979
978
977
969
971
975
975
976
973
966
965
965
970
971
967
965
967
971
973
972
971
967
963
968
969
970
969
966
968
970
968
971
969
969
971
972
975
971
965
965
964
968
973
972
967
966
965
969
972
971
969
968
968
973
973
971
966
965
964
965
969
966
965
963
967
971
971
967
960
959
958
962
964
967
965
962
962
966
967
967
964
963
962
966
968
970
972
969
967
973
974
975
976
971
972
978
982
982
982
980
979
981
981
981
973
975
971
973
974
972
970
966
965
964
968
968
965
963
961
964
967
962
959
953
952
952
956
956
958
954
951
953
954
954
952
950
950
952
954
951
951
948
946
950
954
951
951
947
946
950
954
952
952
948
953
951
954
953
951
949
953
956
957
957
959
962
965
972
984
996
1004
1020
1033
1042
1047
1040
1025
1004
991
988
996
1009
1027
1050
1081
1105
1127
1139
1139
1132
1112
1090
1072
1055
1036
1011
988
964
943
924
907
896
893
897
903
911
917
920
927
933
934
935
937
933
930
937
940
944
938
939
938
941
943
944
941
939
942
944
948
950
947
946
946
949
951
952
951
948
952
954
959
961
959
957
960
964
969
968
968
965
971
975
980
981
982
981
981
988
995
995
994
999
1000
1004
1010
1011
1009
1011
1012
1018
1022
1023
1020
1022
1024
1027
1031
1032
1031
1028
1027
1031
1028
1022
1017
1009
1004
1001
998
993
986
981
979
974
973
971
966
963
961
963
963
961
959
953
952
954
956
956
951
946
944
949
949
950
946
947
946
948
951
948
948
944
945
944
949
950
946
946
946
948
952
947
942
941
944
948
951
949
950
947
945
947
951
951
948
945
945
947
947
943
938
940
940
946
948
944
943
943
941
945
946
947
944
945
945
949
949
948
944
947
948
952
955
954
947
944
945
947
943
934
930
930
936
947
953
955
957
953
949
955
961
961
959
958
961
964
965
965
962
956
957
958
961
963
959
955
955
955
956
954
953
955
959
959
956
948
940
937
938
943
942
941
936
935
939
946
950
953
949
945
940
940
940
939
940
940
942
945
949
950
944
942
944
947
952
951
949
946
947
952
955
955
954
951
950
954
958
962
968
977
980
984
988
995
1006
1023
1035
1045
1045
1036
1016
1000
988
992
1012
1034
1056
1076
1097
1111
1123
1124
1112
1090
1060
1034
1013
988
965
944
928
914
906
900
894
895
901
913
928
936
933
935
933
934
934
927
924
922
929
939
948
946
944
942
944
950
954
955
953
950
950
955
958
959
957
955
958
959
963
962
963
962
965
968
973
978
977
974
978
983
991
992
992
992
996
996
999
1004
1004
1005
1010
1013
1014
1019
1016
1019
1025
1030
1036
1041
1040
1040
1044
1049
1053
1056
1055
1054
1058
1063
1070
1071
1070
1069
1070
1073
1074
1076
1073
1069
1067
1067
1063
1059
1051
1044
1041
1039
1039
1034
1027
1024
1021
1019
1022
1019
1017
1013
1013
1012
1015
1014
1011
1006
1007
1010
1013
1012
1009
1005
1008
1012
1015
1013
1013
1009
1008
1012
1015
1015
1012
1011
1011
1015
1018
1015
1015
1009
1016
1017
1018
1018
1018
1014
1018
1018
1022
1021
1018
1017
1013
1022
1025
1024
1019
1018
1021
1023
1024
1023
1021
1018
1016
1020
1025
1025
1024
1019
1021
1023
1026
1026
1021
1023
1023
1024
1027
1028
1023
1021
1022
1022
1029
1027
1022
1021
1021
1024
1027
1026
1021
1021
1020
1021
1027
1026
1026
1018
1020
1019
1026
1029
1024
1024
1031
1032
1038
1036
1035
1033
1034
1038
1041
1038
1035
1034
1038
1042
1043
1043
1040
1036
1035
1034
1039
1037
1032
1029
1028
1031
1033
1032
1026
1022
1023
1025
1029
1026
1027
1025
1025
1025
1025
1022
1017
1015
1019
1022
1024
1026
1022
1016
1011
1010
1006
1005
1005
1006
1010
1011
1015
1014
1012
1010
1010
1012
1014
1013
1010
1005
1006
1011
1014
1012
1009
1010
1008
1011
1012
1010
1010
1009
1010
1014
1019
1020
1022
1024
1030
1039
1047
1061
1072
1079
1088
1092
1091
1085
1066
1045
1032
1035
1046
1060
1078
1098
1122
1147
1163
1174
1172
1161
1140
1121
1106
1087
1066
1048
1028
1011
993
