954
954
959
961
962
963
958
959
962
966
965
963
962
964
966
971
974
975
981
988
1001
1018
1028
1036
1036
1037
1036
1025
1010
988
978
978
995
1020
1050
1072
1093
1110
1120
1120
1103
1083
1059
1036
1019
999
976
955
935
925
918
917
917
916
918
928
937
949
956
960
961
960
963
971
972
970
969
970
972
977
978
976
975
975
973
977
975
976
976
975
976
984
986
984
979
983
985
989
990
988
988
991
998
1000
1004
1005
1002
1004
1010
1013
1014
1011
1015
1015
1020
1024
1030
1028
1025
1027
1033
1040
1043
1044
1048
1049
1051
1058
1058
1060
1057
1062
1066
1069
1073
1075
1075
1076
1078
1079
1079
1075
1073
1072
1069
1068
1064
1057
1051
1046
1043
1042
1037
1030
1023
1020
1020
1018
1020
1017
1011
1009
1010
1011
1011
1006
1000
998
1003
1005
1004
1002
999
999
1000
1007
1004
1003
999
998
1002
1006
1008
1006
998
1003
1004
1007
1007
1006
1002
1003
1005
1009
1010
1007
1005
1005
1009
1013
1013
1012
1006
1008
1011
1013
1012
1013
1011
1011
1013
1015
1016
1016
1010
1005
1008
1012
1013
1010
1008
1011
1011
1014
1013
1014
1011
1010
1012
1017
1016
1014
1009
1010
1014
1017
1016
1013
1014
1011
1016
1019
1018
1014
1010
1015
1016
1018
1020
1017
1018
1017
1022
1026
1028
1028
1025
1023
1027
1029
1032
1031
1032
1033
1037
1043
1042
1039
1035
1037
1038
1039
1037
1036
1033
1033
1035
1037
1037
1033
1030
1028
1031
1032
1029
1028
1024
1023
1022
1024
1027
1028
1028
1028
1029
1033
1028
1027
1025
1026
1029
1035
1036
1030
1030
1031
1035
1038
1037
1034
1033
1036
1039
1042
1040
1037
1040
1038
1040
1046
1045
1044
1042
1041
1047
1048
1050
1051
1053
1056
1068
1076
1085
1093
1100
1110
1120
1125
1125
1117
1099
1077
1063
1051
1048
1053
1069
1090
1115
1139
1155
1167
1167
1162
1149
1137
1122
1105
1087
1073
1058
1047
1036
1024
1018
1015
1016
1020
1027
1034
1038
1045
1054
1062
1067
1065
1063
1064
1063
1067
1070
1068
1067
1069
1072
1076
1075
1071
1069
1071
1074
1077
1077
1074
1074
1074
1076
1080
1082
1079
1078
1080
1082
1086
1088
1088
1085
1088
1092
1098
1100
1101
1101
1103
1108
1112
1114
1113
1111
1115
1119
1125
1129
1127
1124
1126
1136
1142
1141
1143
1145
1144
1148
1152
1151
1154
1151
1153
1158
1161
1164
1163
1160
1162
1166
1166
1164
1161
1154
1153
1149
1147
1144
1135
1130
1123
1120
1120
1115
1112
1104
1103
1103
1104
1103
1097
1094
1090
1090
1092
1089
1088
1084
1084
1085
1086
1088
1083
1081
1078
1081
1083
1084
1082
1081
1082
1083
1084
1085
1081
1078
1079
1083
1082
1083
1082
1080
1080
1081
1085
1084
1080
1082
1081
1081
1084
1086
1085
1081
1080
1084
1085
1086
1084
1084
1081
1084
1086
1085
1082
1079
1078
1081
1084
1083
1083
1080
1075
1078
1079
1079
1077
1078
1076
1079
1079
1078
1076
1074
1073
1076
1077
1078
1075
1073
1074
1074
1078
1078
1073
1073
1069
1070
1076
1074
1074
1070
1070
1071
1074
1071
1069
1070
1071
1075
1078
1077
1076
1074
1073
1080
1081
1083
1082
1079
1078
1081
1085
1085
1085
1085
1086
1088
1089
1088
1085
1082
1083
1080
1082
1086
1082
1078
1075
1077
1077
1077
1073
1070
1067
1070
1074
1071
1069
1067
1065
1066
1070
1066
1063
1058
1059
1063
1065
1065
1064
1059
1055
1053
1059
1060
1054
1054
1056
1056
1058
1058
1053
1052
1051
1052
1055
1055
1052
1050
1052
1052
1053
1057
1053
1051
1053
1054
1054
1055
1053
1046
1045
1050
1053
1052
1052
1050
1051
1053
1057
1062
1064
1066
1072
1085
1100
1107
1115
1116
1120
1119
1111
1098
1079
1062
1055
1060
1074
1089
1109
1132
1152
1177
1193
1201
1200
1191
1174
1156
1138
1121
1100
1079
1056
1036
1019
1004
994
988
987
986
992
994
999
1005
1012
1024
1030
1030
1029
1029
1034
1033
1037
1040
1036
1036
1035
1039
1041
1039
1037
1033
1035
1036
1040
1038
1038
1034
1035
1036
1038
1039
1038
1036
1032
1038
1042
1045
1045
1040
1040
1046
1049
1049
1048
1047
1047
1051
1054
1055
1056
1054
1055
1059
1064
1068
1065
1066
1068
1071
1074
1074
1078
1077
1079
1082
1086
1086
1083
1084
1086
1093
1093
1098
1096
1093
1094
1099
1099
1103
1103
1098
1098
1095
1098
1094
1088
1084
1082
1078
1075
1071
1065
1054
1053
1049
1048
1047
1041
1036
1033
1029
1033
1031
1025
1022
1022
1019
1024
1021
1020
1015
1013
1010
1016
1018
1014
1009
1008
1012
1012
1012
1010
1008
1007
1011
1012
1010
1010
1007
1006
1009
1012
1012
1009
1006
1006
1009
1010
1009
1006
1007
1004
1004
1008
1008
1007
1004
1002
1003
1004
1007
1004
1001
1001
1004
1005
1004
1001
999
997
1000
1003
1002
998
997
994
997
1000
1000
997
997
990
995
997
997
995
992
992
995
995
995
995
991
989
992
996
995
993
990
992
994
997
995
994
988
986
992
992
992
994
985
990
993
998
997
996
994
997
997
1001
1003
1001
999
1001
1004
1008
1005
1005
1001
999
1000
1001
998
999
996
993
994
993
993
993
991
988
990
991
989
988
985
984
985
987
987
985
980
975
978
982
983
980
981
978
980
980
981
978
977
974
977
980
979
976
973
971
974
980
979
975
973
972
975
979
977
977
973
975
974
980
979
975
975
971
976
979
980
978
972
974
977
981
983
983
987
989
997
1006
1014
1022
1031
1040
1047
1052
1047
1034
1020
1005
992
990
993
997
1012
1031
1061
1087
1106
1119
1128
1133
1124
1111
1091
1068
1047
1029
1012
992
975
953
935
927
922
923
921
924
926
935
946
956
963
964
966
964
967
971
970
966
967
967
969
972
972
970
969
972
973
977
976
973
971
969
973
977
975
972
970
969
973
975
975
978
976
978
980
984
985
983
981
984
988
989
990
990
990
990
995
998
1000
1002
998
999
1003
1008
1010
1011
1009
1009
1015
1020
1023
1022
1020
1022
1026
1030
1031
1029
1031
1031
1033
1035
1037
1041
1041
1040
1041
1043
1042
1041
1032
1027
1027
1024
1021
1016
1009
1004
1001
1001
997
990
985
981
979
979
977
970
968
967
967
969
968
966
961
961
959
963
963
961
959
955
957
958
957
955
953
952
953
955
955
953
949
948
952
954
954
953
949
949
949
955
957
954
951
948
952
955
955
953
951
950
952
954
952
951
945
945
946
948
950
949
946
944
945
946
948
945
942
941
941
945
946
944
939
941
940
939
938
937
934
932
933
936
937
936
934
935
933
935
935
934
933
926
927
930
930
928
927
927
929
933
936
935
934
934
939
940
938
936
932
934
936
943
943
944
940
940
941
942
940
937
933
931
936
938
934
930
925
925
923
926
925
925
921
921
925
924
921
921
919
918
913
911
905
900
897
901
901
904
905
901
899
900
897
899
898
892
890
891
896
895
896
895
894
893
898
895
892
888
889
889
890
892
894
889
884
887
889
891
893
889
887
888
891
893
893
892
897
900
909
919
928
945
954
966
973
976
968
952
933
910
901
905
920
942
972
1002
1030
1053
1062
1063
1055
1033
1011
992
973
952
928
906
885
871
855
839
832
827
833
836
842
844
847
851
860
865
863
864
859
859
859
861
862
860
856
857
860
863
864
863
864
864
864
866
863
862
858
853
855
856
862
860
863
865
870
873
874
871
861
859
861
867
869
871
867
874
876
885
884
889
887
889
893
900
907
907
905
907
910
914
917
917
918
922
930
934
937
934
933
933
934
936
934
929
922
916
918
916
912
905
901
897
892
893
891
884
884
881
879
881
880
875
871
872
872
873
872
871
868
866
867
868
866
865
865
865
867
866
869
865
864
865
868
868
873
868
867
864
869
873
871
873
869
866
869
872
873
871
871
873
872
875
875
877
873
873
876
880
881
880
877
876
877
880
881
881
878
879
878
885
885
885
882
882
885
882
882
883
880
880
882
885
887
884
883
879
886
890
890
889
889
886
891
892
893
892
888
891
895
901
901
904
900
898
902
904
908
906
906
907
912
914
916
914
912
908
913
915
914
913
907
909
909
910
909
907
905
903
902
904
908
905
902
900
904
903
902
900
897
894
898
904
903
900
896
894
895
901
902
896
895
893
898
903
902
903
901
899
901
904
902
902
902
899
902
906
906
904
901
900
903
908
905
907
903
904
905
910
909
910
910
911
919
923
930
934
938
950
969
989
1009
1022
1031
1036
1033
1028
1021
1011
1004
1011
1023
1041
1063
1088
1104
1121
1135
1136
1122
1102
1083
1063
1050
1036
1017
991
962
933
917
901
888
876
871
870
876
885
890
890
892
891
894
897
897
894
892
891
892
895
897
895
894
892
892
893
894
896
890
891
893
896
896
893
891
891
894
896
896
897
896
896
899
904
906
904
901
902
905
907
907
909
909
909
912
917
917
918
917
917
924
927
928
926
926
927
936
941
944
945
944
947
950
956
961
964
962
964
976
980
985
985
980
976
977
975
973
967
961
955
954
952
948
941
933
931
930
929
927
925
920
918
920
922
921
919
916
914
915
914
916
913
910
910
908
911
911
911
911
910
913
916
917
915
913
913
915
917
919
918
915
911
914
917
917
916
914
913
915
916
917
915
914
912
913
914
915
914
911
907
908
913
913
912
908
910
911
913
915
912
912
908
910
910
912
912
908
906
909
908
912
911
905
906
908
910
909
909
905
904
909
906
909
907
906
905
908
911
911
912
911
913
915
917
920
917
916
915
917
921
923
924
922
922
921
922
924
922
919
919
919
919
919
914
909
910
909
911
911
907
906
904
906
905
909
906
904
902
901
902
902
900
900
902
901
901
900
901
897
896
899
903
901
901
898
897
898
901
903
901
898
900
897
900
905
901
899
897
902
905
905
904
902
901
904
905
904
906
907
905
908
911
917
919
920
928
940
960
984
1008
1028
1038
1043
1040
1033
1021
1012
1016
1030
1051
1073
1099
1124
1144
1165
1176
1173
1155
1133
1115
1101
1087
1070
1042
1008
972
944
921
898
883
871
864
868
876
879
882
880
882
887
888
886
884
884
882
885
888
889
886
884
883
886
889
886
886
884
881
885
887
888
886
885
884
886
889
888
888
886
887
888
896
897
896
892
891
895
898
899
900
900
898
902
907
911
911
908
909
913
919
922
920
918
921
925
932
934
936
935
936
942
945
949
953
956
958
963
969
972
977
973
977
978
976
973
970
965
956
955
951
950
945
938
935
932
932
930
927
921
919
923
922
922
920
915
912
917
919
916
916
914
912
912
914
912
913
911
910
910
915
909
910
907
906
909
911
912
913
909
906
907
911
908
911
909
905
907
907
909
908
905
903
905
906
909
907
906
905
905
908
908
904
906
906
906
905
909
905
903
903
905
907
908
905
904
902
905
905
907
908
905
903
904
905
905
906
903
903
904
908
909
909
903
901
901
903
903
909
906
904
907
910
914
910
910
912
914
915
917
919
915
916
919
924
924
922
921
917
917
922
921
919
917
914
913
914
913
911
907
905
906
906
907
904
899
901
902
903
903
902
899
897
894
895
895
897
891
893
888
894
896
892
893
891
892
893
894
894
891
891
890
895
895
894
893
890
892
895
894
894
892
889
890
896
893
896
892
894
896
898
899
899
896
901
904
908
912
915
918
925
942
959
980
1000
1018
1025
1031
1029
1018
1005
995
996
1007
1031
1062
1092
1121
1141
1158
1163
1156
1135
1108
1087
1067
1043
1014
979
944
918
894
883
870
864
858
855
862
869
874
879
880
882
884
888
889
886
885
883
885
889
890
890
889
886
889
893
894
893
889
888
891
894
895
895
895
893
894
897
900
896
897
896
899
903
905
906
905
905
908
911
915
914
914
913
913
920
923
925
926
926
931
936
941
940
941
941
942
949
953
952
953
953
957
962
969
971
971
974
979
982
984
986
983
980
982
982
978
975
966
964
958
956
954
950
944
939
937
938
936
934
929
927
929
928
929
925
924
922
923
924
926
926
922
921
922
924
923
924
921
918
921
926
926
922
923
924
922
925
923
924
921
922
923
924
926
924
921
918
919
922
924
927
921
920
920
923
924
922
921
918
919
923
924
924
922
920
921
917
924
920
921
918
922
922
925
923
918
912
919
921
922
922
921
918
918
920
919
921
917
917
915
921
922
918
918
917
920
922
925
925
926
927
929
932
933
935
936
934
935
938
940
941
936
936
936
937
939
935
930
929
928
930
930
928
924
923
923
925
928
926
923
919
920
921
920
917
921
917
920
926
923
919
918
918
918
922
923
922
917
917
917
920
924
922
920
915
916
922
923
922
919
918
918
924
925
923
918
917
917
921
922
923
924
922
920
924
928
928
928
930
936
944
951
957
969
984
1006
1029
1042
1050
1047
1037
1026
1021
1018
1020
1030
1051
1081
1116
1146
1167
1180
1188
1179
1169
1148
1128
1101
1080
1052
1023
989
955
927
907
894
887
887
884
883
889
896
902
908
906
909
904
905
908
909
910
907
906
908
909
911
911
909
908
911
913
916
915
912
910
914
917
917
919
916
915
920
922
924
922
920
921
924
925
928
927
926
926
929
933
936
936
935
934
938
943
944
945
943
945
949
952
959
959
958
959
963
966
970
970
974
971
977
979
983
982
981
984
992
997
1000
1001
1002
1000
1005
1010
1009
1002
995
990
987
985
980
976
970
962
960
959
959
954
948
946
947
946
945
942
936
935
937
935
938
931
934
931
933
935
939
934
929
928
931
933
934
935
930
927
929
933
934
935
929
931
931
933
936
935
928
927
931
934
934
935
931
930
930
932
935
934
932
930
931
934
935
934
931
932
934
933
935
933
930
930
929
936
935
934
930
928
929
931
933
933
928
930
927
933
936
935
930
928
929
933
934
933
930
929
931
935
934
931
928
927
928
931
932
931
927
925
928
932
934
933
933
934
937
940
942
941
938
936
940
943
943
945
945
942
945
948
949
946
944
940
940
940
939
939
935
928
930
935
934
933
930
927
927
929
929
929
927
926
926
925
922
919
917
919
920
923
923
922
916
915
914
921
923
920
919
915
915
920
923
921
918
915
917
918
922
918
918
916
919
920
922
919
921
916
918
920
923
922
920
918
918
921
919
920
919
920
927
936
943
952
960
971
990
1012
1025
1033
1033
1020
1009
996
985
984
986
1001
1025
1057
1089
1116
1135
1147
1148
1139
1118
1092
1070
1046
1022
998
968
937
907
889
880
874
872
869
868
873
879
890
897
902
902
904
904
906
911
907
905
900
900
902
909
909
908
908
911
912
916
911
910
910
912
916
918
918
918
913
919
921
925
924
922
922
923
926
929
930
930
930
934
938
941
941
939
935
938
943
944
950
948
951
955
963
961
964
967
965
969
973
978
978
977
981
982
989
989
990
990
994
996
999
1002
1005
1003
1003
1005
1008
1007
1004
996
992
986
987
984
977
970
964
959
957
957
953
943
939
941
937
935
934
928
926
928
929
927
928
926
923
924
927
927
925
920
919
917
922
922
921
920
918
923
923
924
922
920
921
921
924
924
923
920
919
920
923
926
924
921
918
920
919
921
918
916
915
919
921
922
921
918
918
916
918
919
920
918
917
920
923
923
922
920
916
916
917
917
918
913
914
917
921
921
917
915
912
915
919
917
915
913
911
914
917
919
918
915
917
917
918
919
918
912
915
918
919
919
920
917
914
917
919
922
921
922
922
922
927
928
928
924
923
927
932
935
934
932
929
930
935
934
934
933
929
928
930
932
930
927
922
922
926
926
925
922
921
920
921
922
920
916
915
912
918
918
917
915
916
917
919
919
914
912
913
913
917
920
917
915
911
914
918
917
919
915
912
915
917
919
915
915
914
913
918
916
918
916
912
915
918
920
921
916
916
915
921
923
926
927
927
933
939
953
966
978
990
1002
1009
1014
1007
991
971
955
946
952
966
986
1012
1042
1072
1092
1096
1095
1078
1062
1047
1028
1006
979
953
934
915
903
892
882
876
874
874
876
879
882
883
891
901
905
909
906
905
907
910
911
910
910
910
909
911
911
910
910
908
908
913
915
912
912
911
912
911
917
916
914
917
918
919
925
919
921
918
920
929
931
931
932
934
936
939
942
942
944
943
946
947
955
953
954
957
962
967
973
978
975
973
976
978
982
984
984
986
988
997
999
1001
1001
1003
1006
1010
1013
1013
1013
1012
1010
1014
1011
1011
1005
1003
1002
1000
1000
992
988
984
984
988
990
990
983
974
963
954
948
941
936
936
940
946
950
947
945
945
945
948
948
948
946
945
947
952
954
953
950
944
947
947
948
949
948
947
950
954
958
958
956
959
963
962
959
956
949
948
948
955
957
956
953
952
953
960
962
962
958
956
955
955
950
952
949
950
955
962
964
960
957
951
954
955
956
958
955
953
953
953
956
959
958
957
960
957
955
954
947
950
951
958
963
966
967
963
963
955
951
943
940
942
945
952
957
957
958
960
964
964
965
957
953
952
954
959
961
961
960
959
963
968
971
966
964
954
956
957
959
962
957
955
957
959
960
959
956
953
955
959
957
953
949
946
946
948
949
946
945
940
944
947
954
951
950
948
950
950
947
941
940
937
940
936
940
938
936
932
935
942
943
947
943
939
940
944
944
945
942
942
944
947
951
948
946
947
950
957
960
964
968
972
981
996
1010
1021
1031
1036
1041
1039
1032
1017
1006
1000
1004
1025
1051
1074
1097
1113
1123
1125
1114
1094
1069
1046
1029
1012
994
970
948
932
922
918
916
918
918
925
932
940
945
944
942
941
944
949
950
951
948
945
948
949
954
950
948
945
950
954
954
955
954
952
956
959
961
962
959
958
960
965
968
969
967
966
971
975
979
978
979
977
980
983
986
985
984
988
990
996
999
1002
1002
1002
1003
1009
1012
1011
