926
924
920
923
924
929
930
927
923
921
922
924
927
925
927
925
925
927
931
928
929
930
933
935
938
931
925
921
920
926
929
928
920
913
915
920
924
927
923
922
922
923
927
922
918
917
917
922
925
927
926
924
925
930
935
936
934
932
926
925
925
919
911
911
911
916
921
922
916
918
919
923
928
929
927
926
926
927
932
932
931
931
933
937
943
944
943
940
940
942
949
948
949
949
952
955
957
951
951
949
949
953
956
955
949
949
950
948
950
950
945
944
944
948
951
949
943
946
943
946
943
945
943
944
945
951
949
950
950
950
949
952
953
950
945
940
939
943
947
950
944
941
939
944
951
949
948
946
945
952
955
954
948
949
948
954
956
956
954
953
953
957
961
965
967
972
980
991
1004
1015
1027
1034
1041
1048
1047
1041
1023
1004
989
983
992
1007
1024
1043
1065
1086
1100
1106
1096
1075
1056
1045
1033
1017
1000
980
960
945
939
929
919
918
918
923
932
938
941
945
949
951
957
957
954
950
947
948
951
954
952
952
952
955
959
959
954
953
954
955
960
960
958
957
958
960
963
964
960
962
962
966
970
973
973
971
973
976
982
983
982
982
980
987
992
994
994
993
995
999
1007
1006
1005
1007
1007
1011
1015
1018
1017
1021
1020
1027
1029
1036
1038
1035
1039
1044
1049
1051
1050
1044
1045
1046
1046
1042
1035
1027
1021
1018
1018
1012
1004
998
995
992
994
990
985
982
977
977
981
979
975
974
972
972
972
973
970
971
971
972
975
974
970
968
966
969
972
969
967
965
968
970
974
972
973
969
970
972
978
978
975
972
973
977
979
978
974
974
973
976
978
978
976
974
975
978
980
979
975
974
970
975
977
978
978
973
972
973
977
977
974
970
970
972
976
976
974
971
971
971
975
976
972
972
973
977
982
980
979
975
974
974
979
979
976
969
966
966
966
968
973
974
975
977
977
978
978
978
978
982
985
982
982
980
978
984
985
984
982
978
976
976
975
969
966
961
962
965
967
966
965
967
966
968
972
964
956
947
948
954
957
956
956
954
952
954
957
957
955
953
952
954
958
961
956
952
953
957
958
957
955
953
954
958
961
958
956
957
957
961
963
967
966
965
966
969
975
980
986
999
1012
1029
1047
1058
1065
1063
1055
1044
1033
1022
1022
1031
1048
1077
1105
1130
1147
1160
1157
1146
1125
1105
1085
1067
1049
1032
1013
991
965
946
934
928
926
926
926
930
935
942
950
948
948
946
945
949
954
955
953
951
950
954
956
954
952
952
953
951
955
954
953
954
955
957
961
963
961
957
958
961
964
961
961
960
964
969
971
971
971
970
970
975
980
984
984
986
989
994
999
999
997
994
997
1004
1012
1016
1017
1018
1020
1022
1026
1025
1027
1024
1029
1032
1035
1033
1028
1026
1027
1030
1032
1029
1024
1015
1011
1010
1008
1001
994
985
982
978
981
974
969
962
960
960
958
957
954
951
947
941
942
943
937
933
932
936
941
944
945
941
939
938
937
936
934
929
929
930
937
935
931
930
930
933
937
935
927
927
926
926
933
933
930
926
925
925
930
929
927
921
923
923
927
928
923
919
919
919
923
921
919
916
917
915
920
919
917
914
913
917
919
918
915
913
911
913
914
915
914
909
907
916
921
918
915
910
903
905
913
914
909
909
907
911
916
913
914
910
911
915
915
915
914
911
915
919
925
923
923
920
921
923
925
924
921
920
918
920
925
922
917
916
916
917
920
916
916
913
911
916
917
915
913
907
905
908
908
905
904
901
907
912
916
912
912
908
909
912
917
917
917
915
914
918
920
922
920
920
919
923
927
926
927
927
925
930
933
932
933
932
931
936
938
940
939
939
939
942
949
953
956
960
967
979
993
1007
1020
1027
1029
1035
1030
1016
997
974
961
959
969
988
1008
1027
1048
1070
1087
1091
1087
1066
1053
1040
1027
1015
996
975
955
939
928
917
913
906
904
906
915
923
926
932
935
937
941
939
937
935
936
941
946
947
946
943
944
945
948
950
946
945
948
948
951
951
950
947
945
950
951
955
955
954
955
959
961
963
961
966
965
968
971
972
974
975
978
979
987
987
989
988
988
993
1000
1002
1003
1004
1003
1008
1013
1017
1017
1014
1019
1020
1025
1029
1026
1031
1034
1039
1045
1048
1045
1044
1043
1047
1051
1049
1045
1039
1034
1031
1032
1029
1024
1018
1014
1009
1004
1000
995
989
991
990
990
994
992
988
985
984
986
983
981
980
978
978
983
981
981
981
978
983
989
986
983
980
983
987
988
987
986
985
986
988
991
990
988
986
987
990
996
994
993
991
990
991
995
996
994
993
992
995
998
997
993
991
991
995
998
996
996
998
997
999
996
988
984
979
980
983
987
988
988
983
981
986
990
990
988
985
985
989
989
987
985
984
981
987
989
988
985
981
984
987
991
992
992
994
993
996
998
998
997
994
996
998
1002
1000
1001
999
997
1000
999
995
992
987
987
987
987
985
984
983
983
982
985
987
986
982
978
976
980
981
982
979
974
978
978
976
974
974
974
978
980
980
975
972
971
971
975
975
973
970
968
972
976
976
975
976
972
978
977
979
979
975
976
978
985
985
987
988
992
998
1009
1021
1034
1046
1059
1067
1071
1065
1055
1036
1021
1014
1015
1023
1041
1065
1093
1121
1143
1155
1156
1147
1125
1109
1091
1074
1057
1037
1014
993
977
962
946
937
931
931
938
945
950
955
957
964
971
973
970
967
966
968
971
971
970
968
969
974
977
978
977
975
975
978
981
981
979
978
974
978
983
979
981
982
982
983
988
989
989
985
987
993
996
997
997
995
996
1001
1002
1005
1003
1002
1002
1010
1012
1017
1017
1018
1018
1023
1024
1027
1029
1031
1032
1038
1041
1043
1043
1039
1040
1046
1050
1054
1052
1050
1052
1058
1062
1065
1063
1061
1059
1061
1061
1056
1051
1042
1039
1037
1034
1027
1023
1016
1011
1006
1007
1001
998
993
990
990
991
991
990
984
985
987
986
987
984
978
979
980
984
982
982
979
977
980
982
982
982
980
982
984
984
981
976
975
974
974
978
980
976
975
977
981
983
982
982
978
978
979
983
984
979
976
974
974
979
976
976
971
974
977
980
981
977
975
975
975
979
979
977
972
971
975
977
975
975
972
971
973
976
974
975
974
970
972
974
975
973
971
972
970
973
976
975
971
970
975
974
974
971
970
970
972
971
973
970
971
972
977
981
980
979
980
975
979
983
984
980
983
986
989
990
988
986
982
981
984
985
984
980
976
975
976
976
973
969
967
965
968
970
971
967
964
962
963
964
962
959
961
961
966
964
965
963
960
957
960
963
963
960
958
955
960
961
963
959
955
958
958
962
962
960
957
955
959
963
963
961
958
958
963
964
964
967
964
964
966
976
981
985
989
999
1018
1033
1048
1059
1063
1062
1054
1043
1026
1013
1011
1020
1039
1062
1088
1116
1139
1153
1162
1166
1153
1131
1106
1090
1071
1055
1029
998
969
945
931
924
917
914
911
915
924
935
940
943
942
942
947
950
948
946
942
945
947
952
951
952
950
949
953
956
957
951
948
948
954
957
957
957
955
953
955
958
961
960
960
961
966
968
973
970
969
968
971
977
979
981
977
981
982
985
989
989
990
992
997
1003
1005
1005
1006
1007
1010
1013
1017
1018
1018
1021
1023
1026
1029
1030
1031
1032
1037
1041
1045
1043
1041
1041
1043
1046
1045
1036
1028
1024
1019
1015
1014
1008
999
998
996
995
990
985
981
980
979
978
977
971
969
967
967
969
967
966
963
961
967
971
970
966
965
961
963
967
963
962
958
963
964
967
970
966
961
962
964
966
967
964
963
961
963
965
963
962
961
960
963
967
966
963
960
961
959
962
962
960
959
962
963
965
966
962
957
952
954
956
955
952
953
954
954
958
955
953
950
949
953
955
957
954
954
954
956
957
956
956
953
951
955
956
957
956
952
955
955
958
958
953
947
947
951
954
955
954
951
951
951
957
961
961
960
963
964
967
968
969
966
967
968
974
974
972
969
964
967
967
968
963
964
960
960
961
964
961
956
955
955
958
957
956
952
948
953
955
954
951
947
946
947
950
953
953
945
945
945
947
946
944
946
943
946
948
951
949
946
946
947
950
949
946
944
943
945
947
942
945
943
942
946
948
948
944
947
946
948
951
952
958
959
964
973
982
996
1009
1020
1030
1036
1038
1028
1016
999
984
979
984
996
1015
1035
1062
1088
1107
1117
1120
1106
1088
1069
1050
1030
1010
986
962
937
917
903
891
886
884
887
897
907
911
915
925
928
934
936
932
929
929
935
938
939
935
936
937
939
942
944
945
944
942
943
946
948
946
944
944
947
950
952
952
953
951
957
962
961
963
963
962
965
971
977
975
974
977
981
987
989
990
989
991
995
1002
1005
1001
1002
1004
1006
1013
1018
1019
1018
1020
1022
1027
1028
1028
1026
1027
1031
1038
1036
1033
1032
1034
1036
1037
1036
1033
1031
1028
1023
1023
1017
1009
1003
999
996
993
988
985
977
974
973
969
970
967
962
959
959
961
960
958
953
952
953
958
955
951
950
945
950
948
946
947
944
945
947
950
948
946
945
945
947
949
949
948
945
944
948
947
948
945
943
943
942
945
944
944
939
940
942
946
944
945
939
938
940
943
943
942
941
941
942
943
938
933
931
931
935
937
935
938
931
932
936
938
939
935
933
931
931
935
931
931
928
924
927
931
930
931
929
928
928
931
930
926
926
926
925
928
929
926
923
922
925
928
927
926
922
924
927
930
930
927
930
928
932
934
934
932
931
933
936
942
940
938
933
931
933
932
936
934
930
927
928
929
927
925
919
918
920
921
919
916
914
915
917
916
915
910
908
907
907
911
914
913
905
905
907
909
905
905
901
901
903
906
906
901
897
896
902
903
905
902
896
896
897
904
906
901
899
897
899
902
899
898
898
897
899
902
905
909
911
917
929
943
958
972
978
981
979
970
951
922
897
891
900
918
943
970
994
1014
1025
1028
1014
995
970
943
924
903
882
864
848
840
839
839
843
844
845
850
860
870
875
879
879
879
880
882
885
882
880
879
883
886
887
886
885
883
886
886
884
887
885
887
891
898
897
897
893
891
896
902
904
903
906
908
914
918
923
921
918
912
918
928
932
935
932
938
940
946
950
949
951
949
953
956
957
960
959
960
968
972
973
971
972
966
969
972
969
963
956
951
949
949
940
935
928
924
919
920
920
912
909
905
907
906
906
902
900
896
900
899
899
897
893
893
892
895
897
897
895
892
892
897
897
893
892
892
892
895
898
896
895
892
895
896
898
897
894
898
897
900
895
893
892
893
896
899
898
898
894
892
894
899
897
896
896
894
897
900
899
898
895
899
898
900
898
897
898
897
897
899
897
901
898
894
896
899
900
899
895
894
895
900
901
897
894
892
895
900
900
898
895
892
895
899
901
902
902
899
900
905
905
904
904
905
910
913
916
914
913
912
909
913
914
909
909
907
908
910
910
906
903
901
900
903
899
898
897
894
898
899
900
894
894
891
892
894
897
894
896
896
895
898
895
896
893
889
891
897
896
895
891
893
894
897
899
898
894
894
896
900
901
899
896
896
898
902
903
902
897
900
902
904
906
909
910
914
920
928
937
946
957
974
992
1009
1017
1016
1005
992
977
960
947
943
944
957
980
1010
1032
1050
1061
1066
1062
1055
1042
1024
1006
991
974
960
945
926
911
897
888
882
879
876
871
876
882
893
895
896
895
897
897
901
900
899
897
895
901
903
904
900
900
902
906
909
910
907
906
904
907
909
913
909
909
905
909
914
919
918
918
919
922
926
929
927
927
929
931
937
942
941
944
945
948
955
957
957
959
961
966
970
973
974
973
976
983
987
992
991
991
993
998
1002
1008
1009
1007
1009
1012
1016
1020
1018
1014
1010
1008
1009
1005
1000
993
987
985
981
977
974
967
961
962
961
958
956
953
950
948
951
950
946
944
942
945
947
948
943
943
942
942
945
947
944
939
942
942
947
947
947
945
944
944
950
950
950
946
947
949
951
950
950
949
948
952
955
953
953
950
949
950
951
956
953
949
951
951
955
954
951
950
950
951
957
957
954
951
947
953
957
957
957
952
952
952
956
955
955
952
951
954
957
958
957
953
953
956
960
959
957
955
955
956
957
959
959
957
956
959
961
959
960
959
960
964
970
972
969
967
967
967
976
977
978
977
975
978
984
984
982
979
975
975
977
977
974
969
967
967
974
972
968
965
965
964
967
967
968
964
963
962
963
961
960
957
953
957
961
961
958
954
955
955
959
958
958
954
954
954
953
955
954
954
958
958
961
960
960
954
955
956
960
958
959
956
955
956
959
963
963
963
965
970
977
982
991
1002
1020
1043
1069
1086
1095
1096
1094
1087
1077
1071
1067
1070
1084
1109
1139
1162
1180
1189
1192
1187
1171
1156
1136
1119
1097
1075
1052
1024
994
969
948
939
931
928
925
920
924
929
935
938
936
932
930
928
935
935
935
933
931
931
936
935
935
932
932
934
938
939
935
935
930
933
938
940
936
934
935
939
944
944
945
942
942
943
945
946
948
949
949
951
955
958
960
959
958
961
967
969
971
969
971
975
978
980
985
981
984
989
992
995
996
995
994
1000
1004
1010
1013
1014
1022
1027
1029
1031
1027
1022
1016
1015
1010
1002
1001
995
992
990
987
983
976
971
970
972
973
970
970
963
960
962
966
966
964
961
958
960
964
966
964
963
961
962
965
965
961
960
957
959
962
960
962
963
961
961
964
967
963
965
964
963
964
963
965
963
964
966
968
966
958
961
957
957
962
964
963
959
958
960
963
960
960
960
957
958
962
964
964
961
959
959
965
965
964
960
958
958
961
963
962
960
959
961
964
966
964
962
961
962
964
966
964
963
961
965
968
972
974
973
972
974
977
976
976
976
976
981
986
990
990
987
980
981
984
986
984
978
977
978
983
981
980
975
975
975
978
976
974
971
970
972
973
973
972
968
969
969
972
973
970
969
967
968
973
974
973
971
969
970
973
976
973
970
969
970
973
977
976
971
970
972
975
977
977
976
977
975
980
981
978
978
981
986
994
1002
1008
1016
1031
1050
1072
1087
1094
1098
1093
1089
1078
1069
1061
1066
1085
1118
1150
1176
1191
1201
1200
1185
1170
1151
1136
1118
1094
1062
1032
999
972
956
946
943
943
942
943
945
954
963
973
975
972
965
958
953
950
952
955
953
952
951
950
954
957
961
964
967
967
965
959
955
954
959
966
970
970
965
959
962
969
969
969
965
964
966
973
978
978
977
978
982
983
987
983
982
988
989
997
1000
1002
999
998
1000
1003
1010
1012
1010
1013
1013
1014
1015
1023
1029
1036
1042
1041
1042
1037
1035
1031
1038
1042
1046
1045
1043
1040
1039
1034
1027
1017
1004
994
990
991
994
995
990
986
981
983
978
975
973
970
971
976
973
974
967
968
972
976
975
975
971
972
971
971
972
971
972
972
968
966
968
971
973
972
972
974
975
973
968
967
967
976
979
977
975
969
971
970
972
970
968
966
968
972
975
970
966
966
969
973
973
971
967
963
966
971
972
972
967
968
972
973
975
975
972
970
972
974
976
976
972
971
975
977
976
975
971
968
972
973
977
979
980
979
981
985
985
983
980
984
988
992
995
993
988
989
988
987
984
987
981
982
984
983
979
976
974
976
975
976
978
974
970
971
971
971
972
971
968
968
969
970
970
970
969
968
967
970
970
972
968
966
966
969
970
969
967
963
967
970
969
968
966
964
966
970
973
972
970
970
970
971
972
972
970
973
983
989
997
1004
1015
1028
1049
1066
1079
1078
1069
1057
1044
1037
1041
1055
1073
1102
1132
1156
1174
1181
1178
1163
1146
1132
1113
1098
1072
1047
1020
993
972
957
943
933
927
933
936
939
939
945
950
954
957
956
954
953
954
959
960
962
960
958
958
961
961
965
964
961
962
965
969
968
963
963
966
971
972
973
973
970
972
975
976
973
972
973
978
981
983
983
981
982
986
992
997
996
993
997
1003
1006
1010
1009
1010
1011
1013
1019
1021
1023
1022
1025
1026
1031
1036
1038
1038
1038
1037
1042
1044
1045
1044
1046
1050
1055
1059
1056
1054
1052
1047
1045
1041
1034
1028
1021
1017
1015
1014
1007
1003
997
996
998
996
992
988
987
989
990
990
987
982
978
974
976
980
981
977
977
977
982
985
983
977
976
977
982
983
982
977
974
978
981
990
988
986
981
979
981
985
988
986
982
979
978
980
983
981
977
976
981
981
980
976
974
979
981
982
979
978
978
980
983
981
980
981
981
984
985
985
980
977
976
972
971
974
976
977
976
980
981
983
978
978
974
978
978
977
975
972
971
974
977
976
976
972
970
973
977
976
976
976
977
982
986
988
986
985
982
986
991
993
996
994
997
999
997
993
989
989
986
986
989
995
994
994
987
988
987
989
986
983
985
982
979
975
969
968
966
972
976
979
979
978
972
971
970
972
970
967
968
967
970
972
972
969
967
966
967
965
968
971
972
975
973
973
970
965
964
969
970
974
970
966
964
965
964
969
973
971
969
969
970
976
980
981
982
987
993
998
1005
1015
1027
1039
1053
1054
1046
1029
1014
1001
994
993
998
1013
1037
1071
1099
1118
1129
1131
1126
1115
1104
1086
1071
1047
1029
1017
997
977
955
939
927
920
