967
966
966
966
968
968
974
976
973
971
973
979
983
982
985
981
984
988
994
997
996
995
999
1003
1007
1010
1009
1009
1011
1015
1023
1022
1023
1025
1028
1033
1037
1039
1038
1042
1043
1046
1051
1052
1048
1046
1042
1043
1042
1037
1032
1024
1019
1018
1016
1010
1006
1002
998
998
997
995
991
987
987
989
990
990
984
983
983
985
987
986
981
980
980
980
985
984
981
979
980
981
985
981
981
978
981
983
985
986
982
982
981
984
986
984
981
977
981
985
985
983
983
984
982
985
987
985
979
980
978
982
984
981
978
976
977
978
980
982
980
977
976
981
983
980
979
979
976
979
982
982
980
978
978
981
984
982
980
975
980
982
985
983
981
976
977
980
983
982
979
978
980
982
985
986
983
982
985
990
991
993
990
988
990
992
996
995
995
996
997
1000
1001
1002
1000
998
999
999
997
998
993
989
992
992
993
992
988
985
986
989
991
988
984
982
981
986
985
985
981
977
978
980
986
986
980
975
975
979
980
979
978
977
978
980
982
981
979
977
977
981
985
984
984
980
978
975
980
982
981
979
980
983
987
985
984
982
984
985
991
991
992
994
999
1004
1014
1025
1032
1047
1068
1089
1102
1109
1106
1092
1083
1072
1072
1076
1088
1105
1133
1162
1187
1204
1212
1212
1203
1182
1164
1147
1127
1107
1082
1055
1030
1003
982
963
954
950
949
951
951
955
962
969
972
972
970
969
971
973
977
977
975
973
974
976
977
975
976
973
973
973
976
975
979
979
979
981
982
982
981
980
982
987
990
991
991
985
991
997
999
1000
999
999
1001
1005
1012
1014
1014
1015
1015
1022
1024
1028
1029
1029
1029
1037
1043
1044
1042
1043
1043
1048
1055
1056
1058
1055
1058
1066
1070
1072
1070
1069
1069
1074
1075
1069
1063
1057
1054
1050
1049
1042
1035
1028
1026
1026
1025
1021
1016
1012
1010
1013
1014
1012
1006
1005
1004
1004
1008
1007
1007
1001
1001
1002
1003
1003
1001
997
999
1003
1005
1005
1003
999
1002
1000
1003
1004
1004
1000
1001
1001
1008
1005
1002
1002
1003
1002
1004
1000
997
999
1000
1002
1004
999
1000
994
997
1000
1002
1002
998
997
999
999
1001
1002
999
995
995
999
999
1000
996
996
995
999
998
999
998
995
995
997
1000
1000
997
994
996
998
1000
1001
998
995
995
998
1000
998
998
998
999
1004
1008
1009
1008
1006
1006
1010
1010
1012
1011
1012
1014
1016
1019
1019
1017
1014
1014
1017
1018
1014
1010
1008
1009
1010
1010
1007
1001
1001
1002
1005
1007
1003
1001
999
999
1002
1000
1000
997
994
996
998
997
997
994
993
994
995
998
996
995
988
993
997
997
999
996
994
996
1000
1001
1000
996
996
997
1000
999
999
1000
999
998
1002
1005
1004
1001
1001
1002
1006
1008
1010
1012
1016
1024
1033
1048
1063
1081
1089
1101
1106
1107
1095
1074
1064
1065
1078
1095
1124
1156
1181
1199
1219
1224
1214
1190
1166
1145
1130
1109
1080
1048
1020
994
978
972
965
953
951
955
966
974
979
982
981
983
983
987
985
986
984
986
990
992
992
989
987
988
990
992
990
992
988
990
991
996
997
995
993
995
998
1002
1004
1002
1000
1002
1009
1012
1014
1015
1011
1015
1018
1025
1024
1023
1022
1026
1029
1037
1038
1038
1040
1044
1047
1050
1051
1052
1054
1056
1062
1066
1068
1068
1068
1069
1076
1080
1082
1080
1080
1084
1086
1088
1085
1081
1078
1072
1069
1066
1060
1053
1048
1040
1038
1039
1035
1026
1022
1021
1018
1021
1020
1017
1012
1010
1011
1014
1015
1010
1007
1006
1005
1010
1010
1007
1006
1003
1006
1010
1011
1006
1005
1004
1006
1008
1009
1003
1004
1005
1007
1010
1009
1006
1004
1004
1005
1010
1009
1002
1001
1001
1005
1008
1003
1002
998
997
1001
1006
1005
1005
1001
1002
1002
1006
1006
1002
999
998
999
1004
1002
999
998
999
1001
1002
1000
998
997
996
1000
1004
1001
998
996
993
997
998
999
998
994
993
997
1000
998
997
994
993
999
1000
1005
1005
1004
1004
1007
1010
1011
1009
1006
1007
1011
1017
1017
1018
1012
1012
1013
1013
1015
1011
1009
1008
1010
1011
1007
1004
1001
999
1001
1003
1000
1000
995
996
1000
1002
997
994
989
989
993
995
995
993
988
990
992
993
993
988
986
988
988
996
994
991
986
986
989
991
991
989
988
987
990
994
993
991
987
987
991
994
991
992
992
990
993
1000
1004
1006
1010
1016
1031
1045
1058
1073
1082
1087
1088
1078
1058
1042
1037
1040
1060
1090
1117
1145
1170
1189
1199
1196
1175
1147
1121
1103
1086
1064
1033
1000
972
954
948
943
941
939
943
951
961
969
976
978
978
977
978
982
980
982
980
980
985
988
986
986
986
985
986
987
992
989
989
986
990
995
997
994
995
996
999
1003
1006
1003
1000
1005
1009
1016
1016
1016
1016
1018
1025
1029
1030
1031
1032
1034
1039
1045
1048
1045
1049
1050
1059
1064
1065
1064
1064
1069
1070
1073
1075
1075
1075
1078
1080
1087
1083
1085
1079
1079
1078
1079
1074
1066
1061
1054
1051
1052
1045
1038
1031
1026
1026
1023
1021
1016
1014
1013
1012
1012
1010
1005
1004
1003
1003
1003
1004
1001
1000
997
998
1002
1003
1000
994
996
999
1001
999
998
994
994
996
1001
997
995
994
994
994
997
999
993
994
993
994
996
997
996
994
991
994
994
996
994
994
991
995
998
996
993
994
993
994
997
997
994
991
990
993
996
996
992
989
988
993
993
992
992
989
989
992
991
995
992
989
989
990
993
993
990
990
989
993
995
994
995
995
996
999
1003
1002
1002
998
1000
1002
1005
1007
1007
1006
1008
1011
1012
1010
1005
1003
1003
1003
1007
1002
1001
996
996
996
997
998
996
990
992
992
994
996
993
989
988
989
990
988
985
983
986
986
990
988
984
983
983
987
990
988
984
980
981
983
985
986
983
982
983
983
987
988
986
983
984
982
987
986
985
981
983
984
989
986
986
984
985
986
987
995
995
995
1004
1010
1020
1032
1045
1054
1064
1073
1077
1070
1054
1033
1019
1017
1024
1040
1063
1089
1120
1146
1165
1174
1172
1159
1140
1119
1100
1084
1058
1030
999
972
953
938
928
918
916
919
924
932
937
944
949
955
962
962
960
958
958
962
964
962
962
962
960
964
966
968
963
964
960
965
968
964
963
962
963
967
967
967
970
968
967
972
975
974
975
974
975
979
981
986
983
982
984
989
991
995
995
992
994
999
1006
1006
1004
1003
1005
1014
1022
1022
1023
1020
1023
1029
1034
1035
1035
1035
1035
1039
1041
1045
1041
1042
1042
1046
1048
1051
1050
1049
1044
1045
1045
1041
1035
1030
1023
1021
1014
1010
1003
996
990
993
991
985
980
977
973
971
974
971
967
963
965
963
966
961
961
958
956
963
965
963
961
956
957
961
963
962
959
955
954
959
960
961
958
956
955
960
960
960
956
954
953
959
960
959
958
954
955
959
961
960
958
956
954
956
961
958
958
955
955
958
961
960
958
955
955
959
959
960
959
959
958
958
961
960
955
954
956
958
963
961
958
958
957
960
962
962
959
958
956
958
962
964
961
958
959
960
966
963
961
958
958
962
960
969
968
966
966
969
975
975
975
974
974
977
983
984
981
979
981
983
986
985
982
976
975
978
980
980
977
972
973
974
977
975
975
974
971
972
975
974
971
966
966
970
970
969
967
966
968
973
974
972
970
966
967
967
973
973
973
969
969
971
975
974
972
970
972
972
975
975
974
971
975
975
982
978
977
974
974
978
983
982
979
975
979
985
988
992
998
999
1004
1015
1026
1042
1052
1057
1063
1066
1060
1051
1033
1016
998
1000
1011
1027
1043
1068
1095
1121
1140
1150
1149
1138
1119
1101
1089
1072
1052
1033
1014
993
975
962
951
940
934
938
940
950
955
962
965
973
978
982
979
980
978
983
982
983
979
979
976
980
984
985
984
980
981
985
988
988
985
984
985
990
993
992
994
989
992
997
1002
1002
1001
1001
1003
1006
1009
1015
1015
1013
1016
1021
1026
1025
1028
1028
1030
1034
1040
1042
1043
1044
1044
1050
1053
1058
1054
1055
1056
1058
1063
1066
1065
1066
1067
1070
1075
1075
1076
1073
1076
1080
1081
1080
1081
1077
1073
1073
1072
1066
1061
1054
1050
1043
1040
1036
1031
1027
1017
1019
1018
1014
1009
1006
1004
1006
1008
1008
1003
1001
1000
1002
1000
1001
997
995
996
999
999
998
996
994
995
997
999
1000
996
991
994
995
999
997
996
994
990
995
996
997
996
992
992
992
999
999
997
994
992
997
1000
998
995
991
993
992
997
998
996
993
989
994
996
995
995
988
987
989
995
994
992
989
990
992
993
995
992
987
988
989
992
991
990
988
988
988
992
992
990
987
987
990
993
992
989
986
986
988
991
989
989
986
986
991
997
997
997
997
999
999
1001
1003
1000
999
1000
1006
1009
1010
1009
1007
1006
1007
1007
1006
1002
997
997
998
1000
999
995
993
992
993
995
993
992
989
986
988
990
992
988
984
980
983
986
985
982
980
980
978
982
981
979
978
979
980
978
980
982
980
977
979
980
979
980
978
981
983
984
982
980
979
979
982
984
984
983
982
980
984
986
985
986
989
993
1000
1007
1013
1018
1030
1044
1056
1063
1066
1061
1049
1032
1012
1002
1000
1006
1024
1048
1083
1117
1140
1152
1156
1153
1138
1119
1098
1078
1056
1038
1019
997
976
954
938
928
920
925
927
933
936
944
954
959
963
967
968
969
970
972
973
975
974
974
980
983
981
981
980
978
981
983
985
986
983
985
989
993
998
991
991
989
989
993
994
997
995
998
1002
1008
1009
1006
1003
1005
1005
1012
1015
1016
1017
1020
1023
1029
1030
1031
1029
1029
1036
1043
1047
1046
1047
1046
1050
1057
1059
1060
1062
1064
1065
1068
1067
1067
1066
1066
1073
1078
1081
1081
1080
1076
1076
1077
1074
1068
1065
1059
1055
1055
1051
1045
1037
1030
1023
1022
1017
1011
1005
1004
1003
1004
1005
1001
998
994
994
994
993
991
988
988
986
988
986
984
979
979
981
983
985
987
981
981
984
987
986
983
979
976
977
982
983
979
978
974
973
975
977
974
970
967
970
976
977
975
969
967
969
966
971
970
968
965
968
971
971
966
959
960
962
964
966
964
959
959
958
962
962
960
958
959
960
962
962
957
953
954
954
959
958
955
953
954
958
964
963
959
955
954
956
957
957
954
949
950
952
956
957
959
958
960
960
961
956
956
952
952
956
959
961
963
963
962
966
968
963
954
948
949
950
954
951
947
943
941
947
950
947
945
940
944
943
943
940
941
939
937
937
943
942
939
935
935
938
944
940
936
931
930
930
934
936
932
931
936
940
945
943
936
934
934
939
945
949
945
939
936
938
941
949
953
958
959
963
975
999
1024
1040
1047
1043
1024
1000
976
975
997
1030
1066
1092
1109
1118
1119
1116
1103
1083
1061
1043
1028
1012
998
976
954
937
926
919
916
912
910
911
914
918
924
931
932
935
935
938
941
940
940
937
935
937
936
938
941
939
942
942
943
944
947
948
947
949
954
955
955
956
955
960
964
965
961
961
963
969
973
975
977
979
976
980
985
991
989
992
993
998
1002
1009
1007
1008
1012
1015
1018
1021
1026
1026
1028
1034
1039
1046
1045
1042
1041
1037
1045
1049
1048
1049
1051
1056
1064
1066
1065
1060
1063
1063
1066
1065
1055
1045
1041
1036
1034
1026
1014
999
987
985
987
992
992
989
984
985
988
989
986
985
983
982
982
982
981
978
979
978
985
985
984
981
981
980
983
983
981
981
980
984
988
990
990
990
989
989
988
987
984
984
980
981
982
986
986
987
986
988
990
990
991
987
989
990
995
995
992
990
990
993
996
996
995
994
992
993
999
1000
999
994
992
991
995
996
1000
998
992
993
993
991
989
987
988
991
998
996
995
994
995
999
1000
998
996
990
994
998
1003
1006
1005
1004
1003
1007
1010
1014
1017
1012
1009
1008
1012
1013
1016
1018
1016
1018
1019
1017
1016
1012
1010
1015
1016
1017
1016
1011
1010
1010
1010
1011
1006
1005
1004
1005
1005
1007
1005
1005
1005
1006
1005
1003
1001
998
1000
999
999
998
996
995
997
996
994
995
992
992
991
990
995
994
994
993
993
993
996
998
998
995
994
995
994
997
992
993
995
997
1000
999
999
999
1001
1006
1016
1021
1025
1026
1033
1051
1070
1080
1086
1085
1075
1069
1058
1043
1037
1036
1046
1068
1100
1129
1147
1162
1168
1169
1161
1144
1127
1112
1099
1086
1068
1050
1028
1005
986
972
967
962
956
957
959
964
971
973
975
975
975
974
979
982
985
985
986
983
983
981
979
980
979
983
985
987
986
984
982
986
990
992
992
989
988
993
999
999
999
998
998
1000
1004
1004
1003
1002
1008
1011
1016
1017
1016
1013
1012
1018
1020
1025
1023
1025
1024
1026
1031
1038
1041
1043
1045
1047
1052
1054
1057
1055
1058
1060
1064
1068
1066
1066
1069
1071
1079
1078
1080
1076
1073
1074
1071
1071
1062
1055
1048
1044
1044
1041
1037
1030
1023
1019
1020
1016
1011
1006
1004
1005
1008
1007
1005
1000
999
1002
1001
1002
999
995
997
999
1000
1002
1002
999
999
1001
1002
1003
998
1001
1000
998
1001
1001
1001
999
997
1001
1006
1004
1003
1001
995
1003
1008
1010
1007
1001
998
997
1000
1000
996
989
985
991
993
996
995
993
995
994
995
994
993
990
993
994
994
995
993
989
987
992
994
995
992
985
987
986
989
992
991
989
991
992
990
992
987
983
986
988
994
989
992
992
990
991
995
998
994
991
992
997
1001
1002
1001
1001
1004
1005
1007
1008
1004
1000
1000
1001
1005
1002
996
993
994
994
995
994
993
992
992
993
994
993
986
982
981
980
982
981
981
980
981
980
982
982
981
979
980
975
981
983
982
979
975
978
982
983
983
977
978
981
981
983
981
980
978
981
983
986
985
982
980
984
987
992
993
993
1000
1009
1024
1037
1050
1058
1060
1060
1056
1041
1021
1003
996
1007
1030
1059
1083
1107
1127
1142
1150
1146
1126
1102
1083
1070
1059
1043
1017
988
966
955
947
945
936
937
938
944
953
961
969
973
970
969
969
971
973
973
974
977
981
983
982
981
983
983
986
985
987
986
984
987
988
990
989
987
988
992
997
1003
1004
1002
997
998
1002
1008
1006
1006
1011
1013
1015
1020
1023
1023
1025
1029
1034
1038
1044
1041
1041
1047
1050
1049
1052
1051
1053
1058
1063
1066
1069
1070
1067
1069
1074
1079
1076
1074
1072
1074
1080
1081
1082
1077
1072
1070
1067
1063
1056
1048
1044
1048
1045
1038
1030
1022
1016
1011
1007
1006
1005
1001
999
999
997
1003
1005
1001
1001
1005
1006
1008
1002
995
988
987
992
998
997
991
989
984
987
990
992
990
986
986
990
994
992
988
985
986
994
1001
1009
1009
1004
997
996
993
995
998
999
1004
1004
1005
1007
1004
1005
1007
1008
1007
1010
1004
996
991
988
987
986
987
987
991
993
1000
1000
996
992
989
990
995
997
995
992
995
995
996
991
988
986
990
992
994
994
994
993
994
998
1002
1002
1002
998
991
987
990
991
993
995
998
1001
1000
1004
1006
1012
1021
1020
1012
1000
988
988
993
1002
1005
1001
998
1002
1008
1017
1022
1014
994
977
968
970
973
979
981
981
984
986
988
983
977
972
975
977
982
980
978
978
979
978
980
981
979
980
979
982
983
977
969
964
968
973
975
977
977
973
979
982
980
979
977
975
976
979
980
981
978
980
985
994
1001
1001
997
994
1010
1029
1042
1051
1047
1037
1025
1008
995
990
993
1008
1035
1070
1102
1123
1132
1138
1133
1119
1096
1069
1048
1026
1009
987
962
934
912
895
889
890
896
896
902
914
924
934
939
937
934
933
937
942
948
947
942
941
941
944
947
944
946
944
949
948
954
949
950
948
947
953
956
955
951
952
951
957
961
962
960
962
962
968
971
972
970
971
974
981
987
984
983
986
991
997
1002
1003
1003
1004
1008
1014
1018
1018
1020
1021
1024
1026
1030
1031
1032
1031
1034
1037
1040
1039
1035
1027
1027
1034
1033
1029
1022
1016
1011
1007
1003
996
986
980
978
974
971
965
961
959
959
960
958
956
957
953
954
954
953
955
949
950
953
956
956
955
951
950
951
955
959
957
954
955
958
967
968
962
952
944
935
935
939
940
943
942
939
941
944
944
944
945
948
948
948
947
946
945
946
951
952
950
947
947
949
950
952
950
947
942
947
953
957
955
951
947
946
949
947
943
940
943
947
951
951
952
954
955
958
961
962
958
950
950
952
958
961
962
968
964
965
960
956
956
951
953
961
968
973
970
968
967
970
971
973
973
970
966
966
966
968
966
961
959
960
964
969
970
967
963
962
956
953
948
945
945
953
957
957
956
954
956
958
962
963
963
962
958
957
960
962
962
962
962
964
966
968
965
964
961
964
962
963
964
963
964
963
972
974
973
971
969
975
979
986
991
994
997
1009
1019
1031
1038
1040
1040
1044
1044
1037
1023
1007
994
989
996
1010
1027
1044
1061
1079
1095
1103
1099
1087
1074
1062
1050
1039
1021
1005
986
972
962
955
944
941
938
940
943
947
948
949
955
963
965
969
967
965
963
964
973
975
975
969
968
969
972
979
976
974
975
973
976
975
975
973
975
980
980
983
982
984
987
986
988
990
985
985
983
989
993
996
997
996
998
1004
1007
1010
1013
1014
1017
1022
1030
1034
1033
1032
1029
1031
1038
1042
1039
1033
1029
1033
1038
1046
1050
1052
1056
1059
1064
1065
1070
1068
1067
1068
1071
1071
1066
1062
1061
1059
1059
1052
1041
1032
1023
1022
1024
1026
1020
1014
1006
1000
1001
1001
999
996
996
997
999
997
995
990
987
990
993
998
996
996
994
998
1000
999
994
987
988
989
994
995
996
994
999
999
1001
1001
996
996
995
998
997
1003
1002
1001
1005
1006
1006
1006
1002
999
996
996
1000
1004
1003
997
996
998
1004
1011
1009
1000
992
991
996
1000
999
994
990
992
995
1000
1000
994
992
988
992
992
990
987
985
990
992
995
993
989
987
990
993
995
1000
997
995
989
987
987
987
988
991
997
1004
1008
1005
999
991
987
992
997
997
995
994
995
1002
1007
1005
1004
1001
1004
1007
1008
1005
1002
998
995
994
995
995
993
989
992
993
996
994
995
992
992
993
989
985
979
972
972
972
978
978
980
979
980
979
982
985
984
985
984
