858
857
858
859
859
860
862
863
864
865
864
864
862
863
865
869
880
890
906
929
951
974
993
1005
1004
989
963
935
908
878
851
824
807
803
803
808
811
817
821
826
827
831
833
838
840
840
840
839
839
840
838
839
840
841
841
840
838
839
839
837
837
836
835
830
834
836
835
837
836
835
833
832
831
830
829
829
832
834
835
835
834
833
830
831
828
825
825
824
823
826
828
828
827
826
823
819
818
818
813
816
814
815
815
817
817
817
814
813
811
813
813
814
819
820
822
823
825
827
826
826
827
828
830
832
837
839
845
851
853
852
858
861
864
867
868
872
875
882
882
888
889
890
890
888
886
887
886
886
888
889
890
892
891
890
886
883
881
881
878
879
880
881
880
880
880
878
877
876
873
874
873
872
872
873
876
877
874
875
872
873
872
868
870
870
873
875
877
878
876
875
873
873
871
870
868
869
871
871
873
876
873
873
874
872
871
870
872
872
874
876
877
878
878
880
882
883
884
882
884
886
889
892
889
892
892
891
890
887
887
890
889
891
891
891
891
891
888
885
880
878
878
877
877
875
874
872
870
869
865
863
862
860
859
860
859
860
861
862
862
865
862
860
857
857
856
856
854
855
858
859
861
864
863
863
865
866
869
877
887
900
923
945
970
989
1002
1004
992
971
946
920
896
866
838
813
797
797
799
804
806
810
813
816
820
825
829
835
839
842
843
842
842
841
839
837
837
837
836
835
838
839
840
838
838
836
835
834
832
833
833
832
832
834
832
831
832
829
830
828
827
826
828
828
830
831
830
829
828
827
824
824
822
820
826
826
825
822
823
821
818
817
818
819
817
816
819
819
821
824
822
822
821
820
819
822
821
823
825
826
827
830
830
831
832
832
833
835
838
843
847
853
857
865
866
870
872
874
877
879
880
885
889
893
893
894
892
891
892
887
890
888
886
886
887
888
886
887
887
884
883
881
880
878
876
874
876
877
880
882
880
880
878
876
875
873
872
873
873
874
874
876
878
877
873
874
872
871
871
870
871
875
875
876
875
872
870
870
868
869
867
867
870
870
872
873
873
874
874
874
876
877
878
880
884
888
889
892
891
890
888
886
886
885
885
886
888
891
892
891
889
886
882
877
875
873
874
876
876
877
874
872
867
865
862
862
859
858
857
857
857
857
860
860
861
858
858
856
857
855
853
855
856
859
862
863
862
860
860
859
860
862
865
873
884
902
919
945
969
989
999
991
973
946
913
880
846
819
804
801
803
804
810
812
815
814
820
827
833
837
841
844
844
842
840
840
840
838
837
836
837
841
842
846
846
846
842
841
839
838
834
835
836
838
838
837
839
837
835
836
832
832
832
833
834
833
834
836
836
834
831
832
828
826
825
826
827
827
827
826
828
827
823
822
816
817
815
817
817
816
817
821
823
822
822
820
823
822
819
824
824
832
831
835
835
837
836
838
841
843
846
851
854
862
867
870
873
876
876
881
883
882
886
887
888
890
893
892
892
891
890
891
888
888
886
886
885
888
887
886
888
885
884
883
881
879
880
877
876
875
877
877
880
879
881
873
875
873
871
872
873
876
873
875
874
877
875
874
871
872
869
870
871
870
874
874
876
873
874
874
876
873
874
873
873
875
879
879
881
882
879
878
880
878
880
883
884
889
892
894
894
896
894
894
893
891
890
893
894
898
904
903
903
898
892
888
884
881
881
879
882
883
882
880
876
870
868
864
863
862
860
860
861
865
866
865
866
864
863
862
859
859
862
860
861
865
866
868
866
868
867
867
868
870
878
889
905
924
948
974
995
1009
1015
1008
986
961
938
915
887
858
834
815
811
813
816
818
817
815
816
820
826
833
836
843
847
848
847
846
845
844
842
841
841
845
845
846
845
844
845
843
841
836
838
837
839
841
841
842
843
840
838
836
835
834
836
835
838
835
836
838
838
835
834
833
830
830
827
829
829
831
833
832
832
829
826
824
823
822
821
820
823
824
824
823
822
822
823
825
826
824
826
825
831
832
835
836
838
840
839
841
842
846
848
850
855
861
868
872
874
877
878
880
881
883
885
888
890
891
891
893
894
894
894
888
887
886
888
888
887
888
888
887
886
884
885
881
881
881
877
879
879
879
879
880
881
878
876
875
875
876
874
876
877
877
877
877
880
880
878
877
877
876
876
878
878
878
878
878
881
876
874
875
873
873
876
875
874
877
876
875
874
873
873
872
871
873
874
876
878
883
887
889
891
893
894
891
892
890
890
892
892
893
895
897
901
902
902
897
892
888
885
883
881
884
883
885
887
886
881
875
871
868
866
863
864
865
862
865
862
865
863
864
862
863
863
862
863
865
868
867
869
864
865
865
863
863
863
864
862
866
868
871
877
884
896
909
931
956
982
1002
1014
1015
999
976
951
919
884
849
820
805
805
812
820
821
822
822
822
826
827
830
835
836
839
841
842
844
842
843
842
842
843
841
842
840
837
841
841
842
843
844
844
843
844
840
836
835
836
837
839
838
840
840
841
839
838
834
834
832
831
828
828
828
832
831
832
830
829
826
827
825
825
826
825
828
829
830
830
828
829
827
824
823
821
820
821
824
824
823
825
825
825
824
822
820
820
825
827
829
830
834
835
834
835
836
841
840
843
846
850
856
860
865
870
873
877
878
879
881
883
883
885
891
893
893
895
894
890
891
889
885
885
883
884
882
884
884
885
882
882
881
881
878
879
879
881
882
884
883
884
884
880
881
880
880
876
874
875
875
875
876
874
875
873
875
874
875
873
874
874
875
876
877
880
879
877
874
874
872
871
872
875
873
875
875
879
877
877
876
878
876
876
877
879
885
886
889
888
891
890
891
891
889
889
888
889
893
898
899
901
900
896
893
887
884
879
881
880
882
883
886
885
881
874
871
868
864
860
858
857
857
857
859
864
863
862
860
861
860
860
860
862
863
864
866
867
867
862
862
861
863
862
863
870
879
894
909
929
952
980
1000
1019
1024
1017
998
971
943
917
892
860
828
809
799
798
802
806
807
819
825
831
834
839
838
839
843
839
840
838
840
839
841
841
842
842
842
842
840
838
835
835
835
838
835
840
839
840
842
837
837
836
835
832
829
828
829
831
832
832
829
829
826
826
823
823
821
822
821
824
825
825
823
823
820
819
816
815
816
816
817
816
819
820
818
819
815
815
815
814
815
816
815
817
819
822
821
822
823
819
820
821
824
826
830
835
839
843
846
850
854
860
862
869
871
878
882
885
887
890
890
890
887
888
887
886
883
886
885
886
883
887
888
886
883
878
875
874
874
874
876
878
878
879
879
877
876
875
875
874
874
872
873
875
876
877
877
875
873
874
871
870
868
870
870
870
875
876
875
874
873
872
873
871
871
871
868
871
871
873
874
876
873
870
871
870
870
872
876
879
885
889
891
893
890
889
889
885
884
886
887
891
895
898
898
896
893
889
884
879
879
879
879
882
883
883
879
877
871
865
861
859
860
859
860
858
860
863
863
863
862
861
860
857
854
856
858
858
860
862
861
860
858
860
857
857
856
860
860
864
873
885
895
913
934
957
984
1005
1016
1014
994
966
932
895
853
817
796
786
788
795
807
813
822
828
833
834
835
835
834
833
832
833
831
833
835
835
836
838
835
835
833
833
829
827
827
827
830
829
829
828
829
830
831
827
828
826
826
827
827
828
827
827
823
821
821
818
819
819
818
817
819
819
819
818
817
817
813
813
810
809
809
806
808
808
810
807
806
806
804
805
804
804
802
804
808
810
811
812
811
813
814
814
816
818
821
824
826
828
833
838
843
846
850
852
855
860
862
867
870
874
876
879
881
881
881
881
880
879
878
879
879
880
883
880
878
877
876
873
873
872
872
872
871
870
868
868
866
867
868
866
867
867
865
866
868
867
869
869
868
867
867
866
864
861
861
863
861
863
867
867
864
865
862
862
860
861
861
860
863
862
865
868
866
865
864
864
864
866
868
870
876
877
875
882
882
883
882
881
878
878
878
878
881
886
886
889
886
885
878
874
871
868
868
866
872
874
870
872
867
863
855
852
848
850
848
849
849
850
850
852
851
848
849
848
849
847
846
848
847
848
851
853
854
854
853
854
856
859
867
877
896
924
951
979
1000
1013
1013
995
968
938
907
879
845
814
792
783
784
786
793
800
804
808
814
815
819
823
827
832
833
831
831
828
826
826
824
826
827
828
829
829
824
823
824
824
824
820
818
819
820
820
822
824
824
821
822
822
819
821
816
819
818
819
818
820
819
818
816
816
811
812
811
810
811
810
807
810
804
806
807
804
802
798
799
800
802
803
802
800
804
803
801
799
802
801
801
802
803
806
807
809
811
810
811
811
810
811
810
815
819
824
827
832
833
838
842
847
850
854
859
862
867
870
873
873
876
876
875
873
872
872
872
869
872
872
872
873
872
870
868
865
865
863
861
861
860
862
862
865
865
861
861
861
862
860
861
860
863
865
864
866
863
862
858
860
859
859
858
858
857
859
857
856
858
858
855
853
854
855
854
856
859
860
860
858
861
858
860
857
857
857
854
859
860
863
864
869
870
871
872
874
874
873
872
871
872
875
878
881
881
879
879
879
878
876
871
870
867
866
867
868
869
866
863
860
856
855
852
849
850
851
849
850
846
847
846
846
843
843
841
840
843
845
845
847
847
843
845
846
845
843
840
846
847
848
849
852
851
854
860
870
884
901
925
954
980
997
1001
988
963
929
891
848
809
780
767
769
777
788
799
810
814
817
820
820
821
824
822
824
825
826
825
828
826
826
824
822
821
818
818
820
819
821
823
822
822
822
820
819
818
818
818
816
816
818
819
822
820
815
818
814
814
813
809
811
813
813
812
814
812
810
811
809
808
805
804
805
807
806
806
808
808
806
806
805
800
797
798
799
803
805
805
809
808
809
811
806
808
808
809
810
814
817
822
829
834
834
837
840
841
846
850
854
859
863
867
870
873
872
874
873
874
874
872
871
872
874
876
877
875
872
871
868
865
865
864
863
864
865
864
866
866
865
865
865
863
860
858
860
862
863
862
862
862
861
860
860
854
854
857
856
858
858
856
860
857
860
857
857
855
854
852
852
854
858
858
861
861
861
859
858
857
856
856
857
857
859
860
862
863
862
863
865
867
869
870
870
874
873
875
876
875
875
875
878
877
878
877
876
876
870
869
872
868
867
867
865
864
864
860
857
854
853
849
848
847
843
842
840
840
840
840
842
843
843
843
845
843
842
843
843
839
839
837
838
840
841
843
844
847
852
861
873
886
908
932
957
978
989
988
974
950
921
894
864
830
802
783
778
781
787
789
794
796
798
802
806
808
813
816
817
820
821
821
820
820
819
820
820
819
817
818
818
819
820
821
819
818
816
819
815
812
811
813
811
813
813
811
814
814
814
813
811
813
810
811
809
809
808
807
804
804
804
803
802
803
802
800
800
800
802
801
804
803
800
797
797
796
796
792
790
794
796
797
798
800
801
802
802
801
800
804
807
808
809
813
815
817
818
821
824
826
830
834
837
842
847
852
857
860
862
863
864
863
862
863
864
866
865
864
865
866
865
863
862
862
860
857
859
860
859
861
859
859
859
857
856
854
854
857
855
854
854
853
855
857
855
855
854
852
852
851
852
851
852
853
855
853
854
854
851
850
849
849
851
851
849
850
852
851
849
849
847
848
848
847
847
850
850
851
852
854
853
855
857
859
857
860
862
863
865
866
866
864
866
868
868
870
871
869
868
865
863
861
863
862
859
859
857
858
854
851
848
849
843
840
843
844
841
841
840
838
837
834
835
834
835
837
836
838
839
837
837
839
837
836
836
837
838
840
841
844
846
847
847
854
860
873
887
912
937
962
980
989
983
964
937
908
877
842
812
789
785
789
796
795
799
798
796
801
804
808
812
816
818
820
821
822
817
819
814
814
814
816
815
816
814
815
815
816
818
815
813
812
811
810
812
813
813
814
815
816
816
813
810
810
809
807
809
809
810
812
809
809
808
809
807
804
802
802
801
803
802
804
806
805
803
801
799
796
794
794
794
797
796
801
804
805
805
806
801
801
800
802
805
804
806
809
811
816
818
821
821
825
824
828
831
835
840
843
846
853
856
859
861
860
861
864
865
868
870
873
873
872
871
871
870
868
866
863
862
861
864
862
863
865
864
862
861
859
860
859
858
860
858
859
861
858
858
857
856
855
854
853
852
853
855
856
857
859
855
855
851
854
851
852
852
852
853
856
857
857
858
857
856
855
853
853
851
852
851
854
859
859
857
856
857
856
854
854
856
856
861
861
865
869
869
870
870
870
867
870
871
873
875
876
878
879
879
879
876
880
876
872
870
867
866
864
867
869
868
867
863
859
854
849
848
846
847
848
847
849
852
850
846
847
846
844
847
848
850
850
849
852
848
848
847
847
847
846
848
851
851
852
855
860
865
874
884
899
920
942
965
984
998
1002
995
976
952
928
901
870
839
811
793
789
799
804
809
809
805
804
807
811
814
817
821
825
828
828
832
832
831
828
828
827
826
824
828
826
829
831
831
829
830
827
825
823
822
818
820
821
820
822
825
825
823
822
821
818
817
816
815
816
818
816
820
818
819
818
816
814
814
809
810
808
808
810
813
814
811
813
810
807
807
807
805
805
805
807
808
809
808
811
809
807
808
806
809
812
815
815
815
819
821
821
823
827
827
829
834
837
841
846
850
854
857
857
860
865
865
867
868
872
874
874
877
876
877
874
873
874
872
869
870
870
870
872
871
869
871
871
867
865
863
862
865
868
867
868
867
868
869
868
866
865
863
862
864
862
860
862
864
864
864
863
864
861
859
858
859
859
861
864
864
865
865
864
864
861
858
857
861
860
863
862
866
864
863
862
860
859
860
862
866
865
873
875
877
882
880
881
882
880
878
878
880
883
883
886
885
882
877
873
869
867
867
867
868
869
867
864
862
859
856
856
858
852
850
850
852
852
854
852
854
857
855
853
852
853
854
852
853
852
852
854
855
854
857
857
855
856
859
866
875
889
907
931
954
979
999
1018
1020
1006
984
953
919
883
845
819
800
796
799
806
815
823
827
828
828
827
830
830
833
835
833
833
831
831
826
826
827
828
832
832
834
836
832
829
828
827
821
821
822
824
826
829
828
826
826
825
820
817
818
816
817
817
817
819
817
819
817
817
815
813
814
813
810
809
813
811
812
812
810
807
807
805
805
801
798
798
799
801
802
802
801
802
804
802
801
801
801
805
806
809
812
813
813
814
816
818
818
824
824
828
835
841
845
851
855
861
859
863
865
867
867
872
873
876
876
879
880
878
877
877
876
874
873
873
872
872
876
877
876
875
872
870
869
868
868
869
870
871
871
871
870
866
862
861
860
860
860
860
860
862
866
867
867
864
862
863
860
859
858
859
860
862
864
866
867
866
863
860
860
856
858
859
858
863
866
867
867
867
867
868
865
868
868
873
877
879
878
879
880
878
875
877
877
880
881
882
883
885
883
882
876
874
871
868
869
868
867
867
867
865
861
860
857
853
853
852
849
849
845
846
844
847
848
851
850
853
850
847
844
846
847
846
848
850
851
852
852
850
850
854
861
871
884
906
931
958
983
1003
1015
1007
989
961
935
908
881
851
826
806
799
799
802
806
813
816
820
822
818
816
819
823
825
827
827
826
825
824
824
820
821
824
823
823
824
827
822
823
819
817
818
814
816
818
818
821
820
819
819
817
814
813
810
808
811
811
812
813
811
813
811
810
810
805
802
803
801
801
801
800
803
804
803
801
799
796
793
792
794
795
797
797
797
799
798
798
797
796
795
794
795
797
797
798
802
806
806
806
808
811
813
815
818
822
828
831
838
843
847
847
852
857
860
863
864
865
867
870
871
871
870
870
870
868
867
866
864
863
862
862
861
862
863
863
860
859
859
857
854
856
857
858
861
861
861
861
859
855
853
853
853
851
853
855
857
857
856
855
855
853
852
853
850
851
851
851
853
854
854
854
855
853
850
851
849
852
852
854
856
858
856
855
854
854
856
860
861
863
868
869
869
874
872
870
872
873
874
874
875
873
871
873
869
865
865
862
862
861
859
855
852
851
848
852
846
846
845
843
840
839
837
838
838
838
839
840
840
841
842
843
842
841
838
838
836
837
840
843
843
843
846
847
844
844
844
851
860
870
886
908
937
963
986
1001
