861
865
865
866
867
867
865
863
865
861
862
862
864
865
865
866
870
871
869
870
871
870
871
874
876
879
881
885
888
887
886
885
883
880
881
879
885
887
891
892
893
890
888
884
878
875
873
870
871
869
870
869
867
864
866
860
856
856
854
853
855
854
856
856
857
858
859
857
854
854
854
852
855
856
857
858
859
859
860
860
861
863
873
885
900
920
944
970
995
1011
1021
1016
994
969
941
916
886
856
826
801
791
791
796
801
806
811
813
818
822
825
825
831
835
836
837
840
836
837
836
835
834
835
837
838
838
837
837
833
831
830
832
831
830
833
831
833
832
832
832
832
830
830
828
827
826
827
828
828
829
829
827
826
826
825
824
825
824
821
823
822
823
821
822
819
817
815
815
816
814
815
817
820
821
821
823
821
822
823
822
822
829
829
831
833
834
837
838
839
841
843
846
850
855
859
862
867
872
876
878
884
884
886
888
888
891
892
893
895
897
897
894
890
886
885
883
884
888
886
888
885
884
885
882
883
881
880
878
875
877
875
880
880
880
879
878
875
873
871
868
868
872
872
872
871
871
871
872
871
871
868
868
866
867
866
868
870
872
873
873
871
871
869
867
867
867
869
873
875
879
882
883
884
885
887
890
889
888
890
889
890
890
890
892
894
895
896
896
892
890
888
886
883
885
882
881
879
877
875
873
869
867
866
864
862
864
862
862
859
858
858
858
858
857
858
861
860
863
864
862
861
859
858
859
854
856
861
863
866
867
869
875
883
896
912
937
964
991
1014
1023
1013
990
956
924
886
848
815
791
785
787
795
803
809
817
820
823
826
827
833
836
839
839
840
839
839
843
839
841
839
839
839
835
837
837
839
839
839
841
839
838
837
833
832
832
836
834
835
835
838
839
839
836
834
829
832
829
830
828
829
829
831
831
829
829
827
825
822
821
821
823
823
825
823
824
825
824
821
821
819
818
816
818
823
822
823
827
826
826
826
826
826
825
828
828
833
833
836
840
844
847
845
849
854
855
858
863
866
874
878
885
886
887
889
890
893
892
892
893
897
897
899
900
899
896
894
891
891
890
887
886
886
887
888
889
888
883
884
880
881
878
878
878
878
880
881
880
878
875
875
874
873
870
872
870
872
872
873
877
875
875
874
871
869
869
868
870
871
873
875
877
875
875
871
870
870
870
871
870
871
873
877
878
879
882
883
881
882
885
887
890
891
893
895
896
891
890
892
895
896
897
896
898
897
892
889
889
884
884
884
882
881
877
876
873
873
870
869
870
866
864
862
860
859
858
857
857
860
859
860
861
860
859
861
860
860
862
862
864
865
869
871
877
884
893
903
921
946
973
995
1012
1021
1018
1002
976
948
921
893
854
822
800
791
792
798
807
813
823
825
830
832
833
836
842
841
842
843
844
846
847
847
844
843
841
841
839
838
839
840
841
842
844
842
840
841
838
837
837
835
835
835
836
838
839
836
834
835
830
828
828
827
828
828
830
833
834
832
831
830
830
828
828
822
821
822
827
827
827
826
826
825
822
824
827
826
827
827
827
831
835
836
837
839
838
838
841
845
847
851
854
859
865
866
870
873
874
876
879
882
886
892
897
899
903
902
899
899
896
894
893
890
887
888
890
889
890
888
889
887
887
884
882
879
881
881
879
880
877
877
879
879
878
876
875
873
874
874
875
878
878
878
877
877
874
874
873
872
871
870
874
871
876
872
875
876
875
872
872
874
874
874
874
873
874
877
879
878
875
878
881
885
886
889
892
895
898
896
893
892
891
891
890
892
897
899
901
900
898
895
890
888
885
883
884
882
881
882
880
875
874
871
870
866
865
861
860
860
860
861
861
862
865
864
862
861
860
859
858
857
859
859
861
864
867
867
867
866
865
868
869
876
886
899
915
936
959
987
1010
1021
1019
1002
974
945
911
875
840
811
796
793
797
803
808
816
819
821
827
834
841
845
846
848
847
844
842
841
840
839
841
840
842
843
846
847
844
842
842
841
839
838
836
838
839
842
842
842
841
838
835
836
836
833
833
834
836
838
840
838
837
836
836
834
832
831
830
829
831
830
829
834
832
829
829
829
827
827
827
826
827
827
830
832
829
829
826
825
823
825
824
829
832
834
837
839
839
840
841
841
844
844
847
850
856
857
865
867
871
873
875
878
881
882
885
890
893
894
898
897
899
899
896
896
894
890
889
893
894
894
891
891
891
889
888
886
884
883
882
883
882
882
883
883
882
881
878
879
878
877
876
877
876
875
875
879
878
875
874
872
872
868
870
871
871
873
873
874
871
869
868
866
869
868
868
870
872
875
874
877
876
876
875
876
877
878
881
884
889
891
895
894
892
893
891
891
890
890
890
895
897
898
896
892
887
884
879
877
876
877
878
878
877
875
876
868
866
864
860
856
856
856
855
856
859
859
858
860
860
858
856
858
857
856
857
858
860
862
861
862
863
861
861
864
871
882
897
917
941
968
993
1012
1019
1012
992
963
936
906
876
843
815
796
791
797
800
807
809
811
814
816
821
827
831
838
840
844
842
841
839
837
836
835
835
835
837
838
838
839
840
837
838
836
832
832
832
832
831
834
835
838
835
836
831
830
827
828
828
828
828
827
827
826
827
823
822
823
822
822
823
823
825
824
823
823
820
822
820
820
818
815
818
817
818
819
820
819
821
820
820
820
821
821
824
828
828
832
834
835
838
842
840
842
844
847
851
852
857
865
869
874
877
879
879
881
883
882
887
887
890
891
894
891
893
890
889
888
887
883
884
883
882
882
883
882
882
882
879
879
876
873
873
874
875
874
874
876
874
872
872
871
869
867
868
868
868
868
871
872
870
868
869
868
867
866
864
865
868
866
864
862
861
864
862
865
863
863
868
868
868
870
871
873
872
873
871
871
871
872
875
878
881
885
889
889
887
885
887
889
887
888
888
887
891
889
884
882
880
879
877
875
875
873
870
867
865
862
861
860
858
857
856
854
852
851
852
855
855
855
854
856
854
853
854
850
852
849
849
848
852
854
857
859
859
860
858
858
859
864
872
888
903
926
954
977
998
1012
1012
1001
980
954
926
901
869
836
812
797
792
797
799
803
802
803
813
817
823
827
832
835
833
833
830
830
831
828
830
831
831
830
834
832
830
831
829
828
827
823
824
827
825
827
827
828
827
827
824
823
824
822
822
822
822
823
824
823
822
820
817
817
817
816
816
816
814
817
815
815
815
815
814
814
812
812
812
810
811
813
813
813
815
815
815
816
815
817
817
818
823
822
824
824
827
829
832
832
834
837
838
841
847
855
860
865
868
869
869
871
872
875
876
877
880
882
884
883
884
884
884
880
878
875
872
874
875
875
873
875
873
872
870
869
865
864
862
864
866
865
865
865
863
864
863
861
862
859
859
858
861
862
862
862
862
860
857
855
854
852
852
854
856
857
858
860
858
859
860
858
857
856
856
856
857
860
861
863
864
863
863
862
862
863
865
867
870
876
879
878
876
875
872
872
871
873
872
878
880
884
885
882
879
875
870
867
866
862
863
863
865
863
857
854
852
849
845
845
843
842
841
843
845
845
847
848
848
848
848
846
844
839
840
841
841
845
849
848
850
850
849
849
851
858
868
884
907
933
961
985
1004
1012
1004
986
960
934
908
878
842
814
796
794
799
803
800
800
797
796
797
807
810
820
827
830
831
828
826
825
821
820
822
823
826
822
825
826
826
824
824
824
822
824
820
821
822
824
825
825
822
820
823
820
821
819
817
816
816
817
819
819
820
819
816
816
814
813
810
815
812
814
814
814
813
812
810
810
809
805
807
807
807
811
812
810
810
811
807
807
809
809
809
812
813
817
819
822
821
823
822
825
826
828
831
832
841
845
850
854
859
858
861
863
864
866
869
872
874
878
879
880
880
878
876
876
876
875
875
873
876
874
872
871
871
873
871
869
866
864
865
863
866
865
866
866
866
865
863
862
861
856
859
858
860
859
863
862
863
863
864
856
853
852
853
854
853
854
857
860
856
855
856
856
856
853
855
857
855
858
861
860
858
859
858
857
857
858
861
865
866
871
874
877
878
876
877
872
870
872
872
873
876
878
880
886
886
884
881
877
870
865
863
864
865
867
867
866
861
858
853
849
846
845
845
847
848
851
850
853
851
851
849
847
844
843
844
845
849
851
852
851
854
854
854
850
849
848
849
851
856
862
874
888
908
930
955
977
997
1012
1014
1007
986
964
939
913
883
851
820
798
791
794
802
806
809
807
808
811
814
819
824
827
830
828
826
828
829
828
829
829
829
829
829
826
825
823
825
825
824
826
827
829
828
826
827
825
825
826
823
823
824
824
825
827
825
825
821
818
819
818
817
817
818
818
820
820
820
819
819
815
812
810
812
812
812
810
813
816
816
815
811
813
810
809
809
813
814
817
818
821
821
819
817
815
818
817
820
823
828
830
834
841
842
846
851
855
858
862
866
869
872
877
879
883
883
885
884
884
881
881
882
881
881
882
883
884
881
880
879
879
875
875
872
871
874
874
873
875
875
875
872
870
866
867
867
866
868
870
872
874
871
872
868
867
865
865
866
866
866
869
870
871
869
869
865
864
863
864
862
863
863
865
867
872
871
870
869
869
870
872
873
875
877
878
883
887
887
886
884
884
884
884
883
883
885
890
892
895
894
889
887
881
877
872
872
872
873
875
875
874
871
865
861
860
857
857
853
854
855
854
857
859
856
857
856
854
854
855
852
854
854
854
855
860
858
858
857
858
857
857
858
862
872
888
908
937
965
993
1020
1032
1026
1005
978
949
922
893
863
831
812
801
802
805
808
812
818
823
827
831
833
836
837
837
836
839
838
838
834
835
834
835
837
837
838
836
835
836
834
831
830
830
831
832
833
835
832
834
835
834
832
832
829
831
830
832
833
833
832
830
829
826
824
822
819
821
822
824
823
824
823
820
821
819
815
813
813
810
810
813
811
815
813
812
811
811
812
812
812
813
815
817
818
822
822
823
824
824
823
826
828
831
833
839
843
847
850
855
857
861
865
868
869
875
878
883
885
887
891
891
891
890
888
886
887
886
887
887
892
890
890
888
887
884
883
883
881
880
881
880
882
883
882
882
880
877
877
875
875
875
876
878
878
880
878
876
875
873
871
870
870
868
867
871
874
875
875
874
875
872
870
871
872
869
869
871
872
876
875
876
875
874
872
873
873
876
879
882
887
889
893
894
892
892
888
887
888
889
891
891
892
895
897
897
896
895
892
886
879
878
877
876
880
881
879
878
873
868
862
861
858
857
858
858
861
864
862
863
860
859
858
856
857
860
861
861
863
862
863
864
863
863
862
861
861
862
867
877
886
902
919
941
966
992
1011
1027
1025
1011
988
962
936
910
878
849
821
801
795
796
801
808
814
820
826
830
832
835
835
839
840
841
838
837
840
841
838
841
839
840
839
838
837
837
835
834
835
838
838
838
836
836
835
834
832
832
832
833
832
835
835
835
834
834
833
829
824
823
823
822
826
828
829
828
826
825
822
821
818
818
819
817
816
818
819
818
815
817
816
815
815
816
813
813
815
816
816
820
819
819
821
822
824
823
824
829
833
837
844
848
851
851
858
860
865
869
875
876
882
885
886
889
888
889
889
889
889
888
889
888
889
889
892
892
891
890
888
885
883
881
878
877
878
881
881
881
879
880
881
880
879
878
877
878
876
876
877
879
880
880
879
875
874
873
872
872
873
875
876
878
877
876
873
872
873
867
869
868
871
870
872
875
876
875
875
873
871
872
876
876
875
880
885
890
891
893
893
890
891
891
887
890
891
893
896
898
900
900
900
897
892
888
880
878
880
880
882
886
887
884
880
877
872
868
864
864
862
864
864
865
865
865
864
862
862
860
858
859
860
863
863
865
864
863
865
863
862
861
861
862
864
865
866
867
876
881
895
909
928
954
978
1002
1020
1026
1017
997
968
941
913
885
856
823
802
795
795
800
807
813
819
821
825
828
828
831
837
841
844
846
849
847
847
845
845
842
840
839
839
839
843
841
842
843
843
844
841
840
840
841
839
837
838
838
839
840
843
838
838
837
835
834
833
832
833
834
833
837
835
833
834
831
830
830
828
827
827
830
831
831
829
826
824
823
822
819
820
820
820
821
823
823
825
824
825
824
825
822
825
826
825
829
828
831
833
833
837
837
839
844
844
848
852
857
860
867
872
876
878
880
883
884
887
890
891
895
895
900
901
901
898
898
897
894
893
893
893
892
893
895
896
895
895
892
892
890
888
890
886
890
886
887
885
884
887
885
885
883
883
884
886
886
883
884
884
883
883
882
882
881
878
879
880
881
881
882
884
882
882
881
880
878
878
876
878
880
880
882
882
880
881
881
880
882
879
880
882
883
885
888
890
893
896
897
895
893
896
896
897
900
898
903
901
904
905
904
903
904
901
898
894
891
892
892
893
891
889
883
879
875
872
868
867
868
867
869
872
870
869
868
867
865
866
867
867
867
871
870
872
870
869
869
868
868
869
871
871
873
875
881
887
898
908
924
947
972
997
1018
1028
1028
1012
989
962
933
904
870
841
814
799
798
801
807
813
821
825
828
832
834
837
839
842
845
845
846
848
848
848
850
845
843
841
842
840
841
844
846
845
845
844
842
842
841
840
837
835
839
838
838
839
838
839
837
837
836
832
832
830
831
830
831
833
831
831
830
829
829
828
825
826
824
822
825
823
824
823
822
823
820
818
817
816
816
816
817
819
821
824
823
823
823
822
823
824
823
827
829
834
834
839
843
845
851
853
855
859
863
869
874
880
882
886
886
885
885
887
891
892
891
892
894
892
896
895
889
888
888
886
886
882
884
885
884
885
885
883
882
880
880
876
877
875
874
874
874
875
876
877
880
874
875
875
871
872
872
874
874
875
874
876
876
873
871
869
867
868
871
868
870
870
870
873
871
872
872
870
871
872
874
874
877
877
877
877
878
874
874
877
877
879
882
885
888
884
888
888
888
888
888
889
888
890
893
898
895
894
891
887
887
885
881
880
880
878
880
879
877
874
868
865
865
866
861
862
859
859
857
857
859
860
859
861
864
862
860
856
858
857
859
860
862
863
862
864
865
864
862
864
865
865
871
881
896
914
941
969
996
1015
1025
1020
1003
980
955
930
907
873
843
814
806
808
812
815
815
813
811
813
819
824
832
836
839
841
839
837
837
838
838
837
838
839
840
837
836
835
833
835
835
837
835
837
839
838
839
840
840
838
837
832
833
831
831
833
832
833
834
836
833
833
831
830
828
826
826
828
826
827
827
828
823
825
824
823
821
819
819
818
819
820
821
822
822
821
822
822
819
818
819
819
821
823
823
823
825
826
827
830
830
832
833
836
841
841
848
851
854
859
858
862
863
864
870
877
879
885
887
889
889
888
889
887
885
885
884
885
886
887
885
885
886
882
880
876
873
874
874
875
874
875
874
875
872
872
870
867
865
863
866
868
866
864
866
868
865
866
866
863
862
866
861
862
863
867
866
866
868
866
864
864
860
860
860
861
861
861
863
864
865
864
862
863
862
862
865
862
866
870
873
873
875
875
872
873
873
872
877
876
879
879
882
883
884
882
878
875
871
869
868
866
871
868
868
866
862
856
853
850
847
846
846
846
847
848
849
849
849
848
850
851
851
847
845
845
847
848
851
851
853
852
850
849
849
849
849
849
858
873
887
908
935
963
988
1006
1021
1021
1004
980
952
926
899
869
834
803
788
786
792
797
797
798
798
804
811
819
824
825
826
826
819
816
818
820
823
825
826
828
828
826
822
820
817
815
815
816
816
819
821
822
822
819
819
817
815
814
814
814
815
816
817
815
813
814
810
808
808
805
805
805
806
806
807
807
804
805
802
799
799
797
794
794
797
801
799
800
799
796
797
797
794
796
798
797
800
803
803
806
804
801
800
803
805
807
812
818
822
825
830
834
838
840
842
845
851
849
851
853
856
863
869
870
868
871
867
866
866
865
864
865
865
864
866
866
865
864
862
860
858
856
857
857
860
861
863
861
863
859
857
854
853
851
851
852
856
856
856
858
855
854
853
853
852
851
853
850
854
852
854
856
854
854
851
852
851
849
851
850
849
854
855
854
856
853
854
854
853
852
850
851
855
855
858
861
861
863
864
864
864
864
865
866
868
871
874
872
874
875
876
877
878
877
877
877
875
872
868
864
865
862
862
860
858
