965
963
964
962
961
959
957
954
951
948
945
941
942
940
939
939
940
944
944
941
941
939
937
937
936
938
941
943
943
944
941
940
940
942
940
946
952
965
981
1002
1024
1052
1078
1097
1106
1098
1078
1048
1019
992
968
936
906
881
868
864
867
871
874
880
885
892
901
906
911
917
917
918
917
914
913
911
910
910
912
913
914
915
913
910
910
909
907
908
907
909
909
908
906
910
909
906
903
901
896
896
896
896
896
899
898
900
901
899
896
894
891
888
887
887
889
888
888
888
888
887
885
885
883
882
881
879
880
882
881
882
881
879
877
877
876
872
872
876
875
880
882
886
887
887
890
891
892
893
897
899
902
907
911
917
919
922
925
929
930
931
933
935
938
944
943
946
944
943
944
942
940
940
935
938
938
940
938
943
940
939
937
938
933
933
931
932
931
933
936
934
936
935
932
929
927
925
925
923
925
925
925
926
928
927
924
922
923
921
919
922
922
924
924
920
918
916
916
917
915
919
920
921
922
923
924
921
919
918
919
916
916
914
913
914
916
914
915
916
915
915
917
919
923
925
924
925
927
930
929
930
930
932
930
930
932
928
933
932
938
937
938
940
937
936
933
930
926
924
921
919
918
917
916
916
913
911
907
904
900
900
898
897
899
900
902
903
904
906
904
903
903
898
899
901
903
905
906
907
909
909
915
930
946
968
991
1019
1043
1059
1064
1058
1034
1005
974
945
911
877
841
812
801
802
810
821
825
828
831
836
843
849
857
866
874
876
879
880
875
871
870
868
868
867
865
867
865
864
866
867
867
868
866
866
866
863
862
860
864
867
867
868
865
864
864
861
859
857
857
855
855
853
853
854
856
854
855
852
851
851
848
847
848
848
846
848
846
845
845
843
841
841
839
838
841
842
844
846
846
844
840
842
837
839
842
845
846
851
851
854
855
856
859
862
864
868
871
873
877
886
892
897
900
901
904
905
905
906
904
909
910
910
910
916
915
912
912
909
908
904
903
901
902
905
906
910
909
908
906
904
902
898
896
898
897
903
904
903
901
900
898
896
894
897
898
898
899
901
902
902
901
899
896
897
896
894
896
896
897
897
898
901
900
899
898
898
899
896
896
897
897
896
897
898
896
895
891
895
897
896
896
896
896
895
897
901
904
904
907
905
906
904
905
908
908
911
915
918
921
921
922
917
913
911
910
909
907
907
908
909
906
903
902
897
892
887
885
887
885
886
886
888
887
888
886
886
886
887
885
885
887
888
890
889
889
887
884
886
888
890
894
901
914
931
949
972
996
1020
1042
1056
1055
1044
1017
981
944
905
864
821
791
781
784
792
799
807
815
825
837
850
858
867
871
870
869
864
864
864
863
865
866
867
868
870
871
867
867
865
864
864
861
860
861
864
863
864
863
865
865
865
864
864
862
860
862
860
859
860
859
861
858
853
852
850
849
851
852
853
854
857
857
856
854
854
853
849
849
848
847
845
847
849
846
847
848
844
844
842
841
845
845
845
849
848
850
852
852
850
851
852
853
855
861
863
869
874
877
879
881
885
887
887
893
896
900
905
911
914
918
917
918
918
917
913
912
915
916
919
921
922
922
920
920
918
917
913
912
912
913
914
917
918
916
915
916
913
914
911
913
912
912
915
915
916
916
915
913
910
909
907
908
907
908
907
910
911
911
911
908
908
904
905
904
907
907
909
907
908
910
909
909
908
908
906
906
905
907
907
907
906
910
907
906
907
906
903
904
904
908
907
906
913
913
913
912
911
910
911
912
913
913
917
921
925
925
925
925
924
921
918
923
923
924
927
929
927
926
924
922
921
918
914
914
912
910
908
907
905
903
900
898
895
895
894
893
890
894
895
895
897
897
896
895
893
894
892
891
891
893
893
898
899
903
912
922
937
959
983
1007
1033
1053
1064
1060
1042
1016
985
955
921
885
851
820
800
795
798
803
815
824
837
846
853
859
861
864
868
873
872
873
874
876
875
872
872
871
871
870
871
869
872
873
872
871
871
870
869
867
864
866
866
867
866
866
865
865
864
862
860
859
858
858
856
855
856
857
857
857
856
854
851
851
848
846
845
846
847
850
849
847
846
843
840
839
838
836
837
838
838
843
842
842
842
840
839
838
839
841
841
843
845
847
850
854
857
857
860
865
869
870
874
879
886
891
895
901
903
905
905
907
908
909
910
912
914
915
916
916
916
915
912
912
911
909
911
908
911
911
912
911
913
909
908
908
904
901
903
905
905
906
905
906
905
900
901
901
900
899
899
898
899
900
901
902
902
900
898
896
895
897
897
897
898
899
898
899
899
896
895
893
893
894
896
895
897
899
897
899
896
896
894
895
894
893
892
895
894
897
899
898
899
899
898
898
900
901
903
905
908
908
909
912
911
909
910
908
908
908
909
911
913
916
915
917
914
914
907
908
906
903
900
898
899
898
896
896
891
890
887
883
881
880
879
880
880
881
882
878
879
878
878
878
878
876
877
879
877
881
883
883
883
881
888
891
902
915
938
964
993
1018
1042
1056
1053
1035
1005
973
942
910
878
841
810
792
786
792
799
812
821
832
838
845
847
850
852
855
858
858
858
858
858
856
855
853
853
852
855
854
856
856
856
856
852
849
849
850
848
849
849
850
849
851
850
847
846
845
845
845
843
844
846
844
844
846
843
839
838
837
837
837
835
835
835
834
835
833
834
832
827
826
826
824
824
825
824
826
824
826
826
826
823
823
820
821
823
824
824
826
829
831
830
830
831
831
829
831
834
841
843
847
851
857
858
862
866
869
874
876
879
882
886
889
894
895
897
898
898
897
897
896
897
895
899
900
900
901
901
899
896
893
892
890
889
891
892
892
892
892
891
891
889
889
887
885
885
887
888
889
889
890
889
887
884
884
884
884
884
884
884
887
888
892
890
888
886
884
884
882
882
885
884
887
888
887
887
887
888
886
885
884
884
886
888
887
884
888
888
889
888
888
885
886
881
884
888
888
888
889
891
890
892
891
891
892
893
893
897
899
901
903
904
904
903
902
902
905
904
905
905
908
907
905
904
900
896
894
891
889
889
886
884
882
881
878
876
875
873
871
871
870
869
869
872
872
870
870
870
871
872
870
867
867
867
867
869
871
875
876
879
884
893
906
923
949
978
1007
1032
1044
1038
1013
983
949
913
875
836
802
784
777
782
793
808
824
834
840
843
842
845
845
846
843
848
850
851
849
848
849
847
847
846
846
842
845
847
848
848
850
847
847
845
842
843
841
840
843
844
842
846
846
846
843
839
839
839
838
837
837
836
838
837
837
837
835
831
833
829
826
828
828
824
823
825
824
828
826
825
823
821
819
820
818
820
822
821
824
825
822
821
819
818
819
820
825
829
835
837
836
833
834
839
841
847
849
850
851
852
854
859
866
868
872
874
875
878
877
878
880
882
884
888
892
888
888
890
891
892
890
888
886
884
882
880
880
876
874
871
868
868
867
869
868
869
871
872
874
872
869
864
862
860
860
859
858
858
859
858
856
858
855
856
858
856
858
859
860
862
862
866
868
869
869
869
869
872
875
877
880
883
883
883
883
884
881
880
873
872
869
866
864
866
864
865
862
861
858
858
857
856
855
854
856
857
859
860
863
862
862
861
861
861
862
861
862
863
864
867
872
877
886
902
917
936
961
979
997
1007
1000
983
960
930
895
856
822
802
800
814
828
839
839
836
837
836
836
839
840
841
843
842
843
844
844
846
845
843
843
840
840
840
840
839
839
838
841
841
842
842
839
839
836
836
836
835
835
835
835
836
838
838
835
836
831
830
830
831
829
830
833
830
835
832
831
828
824
824
824
821
822
820
820
817
820
817
814
814
812
812
810
807
807
811
812
811
815
814
815
814
813
815
817
816
817
820
822
828
831
832
832
833
836
838
843
844
852
857
863
867
872
874
878
879
882
881
884
885
886
891
892
892
894
895
894
892
893
893
891
889
890
891
894
894
895
893
891
890
887
888
887
882
884
884
885
884
886
887
887
884
885
883
882
882
879
881
881
884
887
886
886
884
883
880
880
880
880
882
883
883
884
884
883
880
881
880
880
881
880
883
882
884
886
886
883
882
883
882
883
881
881
882
883
883
884
886
883
882
881
882
881
879
880
882
882
885
884
885
884
883
883
880
878
879
878
880
881
883
884
885
883
882
880
881
882
881
882
882
884
884
884
885
883
882
881
880
880
878
878
878
880
881
883
882
882
877
878
879
877
880
879
879
882
883
885
884
883
882
880
880
877
879
878
880
881
883
885
882
881
878
878
876
875
877
878
879
880
881
883
883
885
885
882
883
883
884
882
883
884
884
887
885
880
880
881
880
884
884
885
884
886
884
882
882
880
879
879
879
879
878
881
880
880
880
879
876
873
871
869
869
868
870
870
872
872
873
874
875
873
870
870
871
869
868
869
873
879
889
903
918
938
961
986
1010
1030
1046
1047
1035
1011
983
955
923
888
852
819
796
791
796
815
836
857
866
870
865
854
848
842
839
841
841
844
845
848
848
849
848
848
845
844
842
842
842
841
840
844
844
846
843
844
839
839
839
837
834
831
832
837
836
837
839
837
834
834
832
832
831
830
829
829
831
833
832
831
830
830
828
826
827
826
828
828
829
831
829
829
830
827
824
824
824
825
826
831
832
832
834
836
835
834
835
837
839
841
842
847
849
850
853
855
857
858
864
866
868
873
875
881
886
891
892
892
896
897
896
896
898
900
898
901
902
902
902
903
901
901
900
896
897
894
893
894
894
896
894
892
893
890
888
886
887
888
889
890
888
887
882
883
884
883
881
876
874
873
876
877
878
879
877
876
874
874
870
869
871
870
872
872
876
875
875
875
874
873
871
869
868
869
870
873
872
871
873
870
870
871
866
864
865
866
868
868
868
871
873
870
869
872
869
868
866
868
870
871
872
873
873
872
871
868
868
866
865
863
864
866
868
873
873
872
873
871
869
870
871
869
870
873
875
879
880
879
877
875
873
869
868
871
873
875
876
877
876
874
873
873
868
866
865
863
865
866
867
868
868
869
868
866
860
858
854
852
854
854
854
857
858
857
861
858
859
855
856
856
858
857
858
860
863
862
869
881
893
910
933
957
982
1005
1021
1027
1012
985
954
920
889
853
817
787
776
776
785
796
813
822
831
833
835
833
829
831
832
834
834
835
835
833
833
833
831
831
829
830
830
830
832
835
834
835
831
831
825
823
824
824
828
829
830
830
829
826
826
821
821
817
817
817
816
818
817
816
816
818
816
815
814
810
811
808
808
808
811
810
809
807
806
802
802
802
800
801
801
802
801
802
804
800
799
800
799
798
797
798
800
797
799
802
803
806
810
811
814
818
820
825
829
831
837
840
847
848
854
858
862
865
865
870
874
875
876
880
882
881
879
878
875
876
876
877
877
879
879
882
882
881
881
877
877
874
871
871
871
872
874
876
876
875
874
873
869
871
871
870
870
874
874
875
872
873
869
867
868
865
867
865
868
870
871
874
875
874
871
868
867
865
867
870
870
873
873
874
873
872
872
872
871
871
868
870
867
868
869
869
869
871
871
871
871
870
868
870
869
872
873
875
876
873
873
872
873
870
870
869
869
869
871
874
874
875
874
872
872
869
870
867
867
869
868
867
867
867
868
867
868
868
870
872
875
877
879
880
883
882
880
877
877
873
872
869
868
869
872
879
879
882
880
878
874
869
864
866
867
871
872
874
874
873
868
860
858
857
855
857
859
858
860
858
861
860
860
860
857
851
854
857
860
861
863
864
864
868
867
869
878
888
902
920
944
971
999
1022
1035
1035
1019
986
953
923
887
852
817
783
762
759
770
779
787
793
800
810
817
823
828
834
835
838
835
835
834
833
831
832
831
832
834
834
835
834
834
833
832
829
830
827
826
825
824
827
828
829
829
827
827
825
824
824
822
821
821
822
822
820
821
820
822
821
818
816
817
815
813
812
812
809
810
809
810
811
809
809
808
808
809
807
810
808
811
810
810
808
804
806
803
807
809
810
815
816
819
817
821
821
822
822
825
828
831
832
840
846
851
854
855
858
862
864
865
866
873
875
876
879
882
880
879
877
878
877
875
878
877
877
876
875
875
877
875
875
875
875
872
873
872
871
872
869
871
869
868
867
868
866
865
867
864
866
864
866
865
865
867
866
866
864
862
862
862
862
864
866
868
868
866
863
862
862
862
862
862
862
861
864
865
865
864
863
863
861
861
860
863
863
865
865
869
867
868
867
865
864
863
864
865
866
868
867
870
870
868
867
867
866
867
866
868
870
871
870
870
871
871
871
873
874
875
875
878
879
882
883
882
884
882
883
880
883
882
882
882
882
880
879
881
880
879
874
873
869
867
865
864
865
862
862
862
860
858
854
851
850
848
848
850
853
855
856
856
855
854
851
856
856
854
853
855
858
859
861
869
878
887
902
919
943
969
996
1021
1037
1037
1024
999
962
928
895
864
829
791
764
752
754
764
775
785
789
795
803
814
823
832
833
838
841
841
840
842
839
837
839
838
839
838
838
838
839
840
843
840
840
841
840
838
838
836
835
835
835
838
840
840
841
838
838
836
835
832
832
833
834
836
835
837
836
834
833
831
829
829
828
826
826
827
827
830
828
828
826
823
822
822
821
821
822
824
826
825
827
823
824
824
823
822
822
824
829
832
833
838
843
843
841
841
843
846
849
853
858
863
868
873
878
879
882
883
884
885
889
892
897
900
901
905
904
901
902
901
902
901
900
902
903
903
904
902
900
901
901
899
898
896
895
895
897
896
899
899
897
897
899
896
894
895
895
890
890
887
888
889
889
888
887
889
888
886
887
884
889
890
891
894
893
893
892
888
888
889
889
887
889
893
893
893
892
893
891
887
889
889
889
887
887
891
890
893
894
895
893
891
890
894
893
892
894
895
897
899
901
903
900
903
902
903
903
905
905
907
909
910
911
912
916
916
914
912
910
909
909
908
907
908
906
905
897
895
892
889
887
885
885
884
884
883
881
879
880
879
878
878
876
880
882
881
883
886
885
886
884
885
888
894
905
920
941
968
999
1030
1055
1068
1068
1050
1017
980
943
904
865
824
792
776
771
775
787
797
813
823
834
842
850
856
861
864
866
861
862
860
860
858
859
858
859
862
860
861
862
860
861
859
857
854
853
854
853
854
855
856
855
855
852
851
849
849
849
847
847
847
852
853
851
847
846
842
841
836
837
837
838
841
839
840
839
835
835
833
832
830
828
831
829
830
832
833
829
826
824
823
820
820
822
824
825
826
828
830
832
831
830
830
831
832
834
838
840
848
855
859
863
866
873
878
881
884
889
893
895
900
904
905
905
905
904
906
908
906
907
906
906
907
908
909
905
904
902
901
899
899
898
897
898
898
897
899
897
898
899
897
895
894
895
892
895
896
897
900
899
899
898
897
893
890
892
891
892
893
894
896
891
893
893
893
890
889
889
890
890
891
892
893
893
892
893
889
889
889
890
890
891
893
893
895
894
894
895
889
890
891
889
890
892
896
896
898
900
898
904
903
902
903
903
904
903
907
908
910
913
915
915
914
912
911
911
908
907
908
908
906
904
900
895
891
889
885
883
884
884
884
884
883
882
879
880
878
878
878
878
878
878
881
882
883
882
883
884
881
881
880
878
877
882
887
892
902
912
930
953
981
1009
1035
1053
1060
1047
1023
986
958
924
890
852
816
786
772
771
777
789
805
818
832
840
845
843
850
851
854
856
857
856
857
859
859
858
857
856
856
852
852
850
849
853
852
851
853
856
855
853
854
852
851
848
847
848
847
850
852
851
851
848
846
843
841
838
839
838
838
838
839
840
839
836
832
829
829
828
830
827
827
828
829
830
826
829
823
821
820
821
822
822
823
822
824
824
821
821
822
820
821
823
823
827
831
833
837
842
846
848
850
852
854
858
862
868
873
880
883
887
891
892
894
895
895
895
897
898
900
901
899
902
898
900
897
895
893
893
892
892
893
894
896
895
894
892
890
887
885
887
886
889
890
890
893
891
889
889
886
882
884
883
882
881
885
885
886
884
882
881
880
880
877
880
880
880
881
883
880
884
884
885
885
886
883
883
881
883
883
885
884
887
886
886
884
880
881
878
880
881
881
884
886
887
887
891
891
891
894
891
893
895
894
896
898
898
899
901
901
899
899
897
897
896
896
891
891
888
887
884
880
877
875
873
869
871
869
868
870
871
866
867
867
