891
889
884
880
876
875
872
874
871
868
866
866
864
863
861
859
857
856
855
851
852
853
853
856
855
855
856
854
854
853
851
851
852
853
854
855
857
858
857
859
860
862
876
889
904
928
956
983
1005
1016
1013
996
967
941
913
885
857
827
806
794
794
797
803
804
808
815
820
824
830
834
836
837
834
836
835
834
832
831
832
830
829
829
830
833
834
834
831
830
829
830
828
828
826
827
828
831
830
831
829
828
827
825
823
823
823
825
823
824
824
824
827
824
823
819
818
818
816
818
818
819
820
819
821
815
815
814
814
812
812
813
815
819
820
823
822
819
821
823
826
827
828
831
833
837
840
847
849
852
856
857
860
864
865
867
873
878
883
888
888
888
889
888
889
889
886
886
887
885
887
886
884
884
881
877
878
875
875
875
875
877
877
878
876
875
874
873
871
867
868
866
868
871
870
874
872
871
869
869
863
862
861
862
865
863
865
866
865
867
866
865
863
861
860
861
863
863
865
867
866
865
864
862
862
861
861
861
864
867
867
870
873
874
875
875
877
876
878
878
879
881
882
883
884
886
887
887
887
887
883
880
878
877
875
874
878
875
874
869
866
862
857
856
856
857
858
856
855
855
853
852
850
851
848
847
849
851
852
855
851
854
852
853
851
852
851
853
858
868
878
896
916
939
965
985
1004
1011
1011
999
976
953
927
904
872
835
808
793
796
802
811
809
805
802
802
806
813
819
823
828
829
830
830
830
826
828
830
833
834
835
832
831
828
827
825
826
826
828
831
831
829
830
829
829
824
825
825
825
826
827
828
830
828
826
824
822
820
820
820
819
821
821
821
823
825
823
822
819
817
816
814
816
816
818
818
821
819
818
815
814
812
810
810
813
813
818
822
825
826
824
824
824
828
828
830
835
838
841
845
850
851
854
856
857
860
860
865
866
873
877
880
882
884
885
885
885
887
885
885
882
883
886
885
886
885
885
883
880
879
876
874
877
876
878
879
879
877
877
873
873
871
870
867
868
868
870
871
872
872
873
868
866
863
865
864
864
863
869
870
874
876
874
873
871
870
867
865
867
867
869
871
872
871
869
870
869
867
868
869
871
872
874
877
877
880
879
881
882
884
883
884
884
884
886
885
891
892
893
896
896
894
893
888
885
882
883
881
882
880
876
874
871
870
867
864
863
861
859
862
861
859
862
861
862
862
861
859
861
861
865
864
866
866
865
866
865
866
868
866
871
882
894
912
934
960
988
1011
1030
1037
1037
1020
995
966
944
918
888
856
822
805
804
808
819
821
822
819
819
826
834
841
846
847
846
845
845
843
841
844
846
846
845
845
846
843
844
842
842
839
839
843
842
842
841
841
841
840
840
838
837
836
837
838
840
839
843
843
842
838
837
833
832
832
834
834
836
837
836
835
834
833
831
830
831
829
829
829
831
831
831
832
830
830
828
828
825
827
826
828
830
830
831
835
833
836
837
839
841
844
847
850
856
859
864
870
871
876
880
881
881
887
890
895
894
901
901
902
904
904
903
902
902
901
901
900
901
901
903
902
901
900
897
894
891
893
893
894
894
895
895
896
896
896
894
891
890
891
890
889
888
892
892
891
890
890
890
889
886
888
888
888
888
890
892
891
891
888
888
888
887
887
886
890
890
893
894
895
894
893
894
894
893
893
895
896
901
903
906
908
908
910
908
907
903
902
901
903
908
912
914
918
916
915
913
914
911
908
907
906
906
906
904
902
899
897
897
892
886
884
882
881
883
883
885
884
883
881
879
880
879
880
880
882
882
883
885
883
885
884
885
885
885
884
882
884
887
890
897
910
926
951
981
1012
1039
1059
1063
1053
1029
1003
973
946
909
875
845
830
826
830
834
839
843
849
854
856
857
861
862
863
863
865
865
865
865
862
864
866
864
865
865
861
862
860
861
859
861
862
861
864
863
863
862
863
859
855
855
857
857
858
860
860
860
856
854
851
851
850
850
851
851
851
853
853
851
850
844
842
841
839
839
836
837
838
842
843
842
839
837
837
832
832
834
836
837
838
840
840
838
839
835
836
837
840
843
845
851
853
858
860
862
865
867
868
873
875
880
885
892
898
904
907
908
911
911
911
909
910
910
911
911
913
914
913
911
909
908
909
906
904
905
906
906
906
907
908
906
902
901
902
902
898
900
898
900
900
902
902
902
900
899
896
896
896
895
896
897
900
900
894
896
897
896
895
893
891
890
893
895
895
897
896
897
895
892
893
892
890
892
895
895
901
903
905
905
907
908
906
909
910
908
910
910
910
911
916
917
916
913
914
914
911
910
909
908
906
906
904
902
898
895
893
886
882
882
881
882
881
881
884
884
884
881
881
879
878
877
878
877
880
882
884
883
881
880
880
877
880
885
892
905
920
940
967
997
1026
1048
1060
1054
1037
1011
981
951
921
890
859
841
831
829
833
839
846
851
859
860
858
860
856
857
857
856
853
853
852
854
855
857
858
857
858
856
858
855
853
853
850
850
852
852
852
853
853
851
850
850
848
848
845
846
845
846
846
846
846
844
842
841
839
838
836
836
836
838
839
837
837
835
835
832
829
829
828
827
826
827
828
828
828
826
825
822
823
822
823
824
824
826
827
831
831
830
833
831
831
831
834
834
839
841
846
851
855
855
861
863
868
869
875
879
887
889
896
897
900
901
902
901
899
900
898
897
898
900
901
902
902
903
900
896
896
892
893
894
892
892
894
894
893
892
893
891
890
889
888
886
889
891
891
892
891
892
891
888
887
886
885
887
884
885
886
886
888
886
888
886
885
886
880
882
884
885
885
886
888
889
885
885
883
884
883
885
884
889
892
897
902
901
903
902
901
899
903
901
901
902
905
908
910
910
909
909
907
905
902
900
899
896
897
896
896
894
890
887
883
881
877
879
876
878
880
877
878
877
876
874
872
872
869
871
870
873
874
875
875
873
874
873
874
874
874
873
875
878
884
895
907
923
942
964
991
1016
1036
1045
1039
1022
993
961
928
887
850
824
814
813
818
828
838
848
849
851
850
850
849
850
846
851
852
852
852
851
850
850
850
849
850
850
850
849
845
845
845
845
844
845
846
845
847
845
844
843
841
843
842
843
845
844
844
842
840
840
838
836
833
831
830
831
833
833
835
833
834
831
827
824
824
823
825
823
823
822
820
823
821
821
820
820
818
818
821
821
824
827
828
829
831
832
833
833
837
839
842
850
856
859
864
869
871
875
878
882
883
884
890
895
899
902
903
903
902
902
901
901
901
900
901
901
898
900
899
899
894
897
895
894
893
892
892
890
894
894
894
893
890
889
890
889
887
887
887
887
887
889
891
891
890
889
884
883
880
880
881
883
883
884
888
886
885
883
884
884
883
882
883
885
888
889
891
890
890
890
890
890
889
890
897
899
902
904
906
907
907
909
908
906
906
906
907
909
914
915
917
915
911
908
905
900
900
899
896
897
899
897
894
890
887
883
883
880
874
873
871
877
879
878
879
880
879
878
875
877
876
875
874
876
879
880
881
879
880
878
878
883
888
899
917
935
961
988
1016
1035
1044
1039
1019
992
960
932
904
872
841
821
816
817
821
829
833
840
843
845
847
850
850
857
857
858
858
857
855
855
854
852
852
855
854
856
858
857
855
856
853
852
850
849
845
850
848
847
851
849
848
849
846
844
843
843
842
845
844
844
846
843
842
843
840
839
836
834
835
835
836
835
836
836
834
833
831
829
831
830
832
830
833
833
833
832
829
831
829
828
828
829
829
830
833
836
838
839
838
836
838
838
839
844
845
850
856
858
862
865
869
874
878
880
885
888
892
895
901
904
906
906
906
906
906
903
902
902
901
902
902
901
903
904
904
902
900
899
896
896
896
896
897
897
898
898
893
895
893
890
890
888
889
891
891
891
894
892
891
891
890
888
890
888
888
888
890
892
891
890
888
889
888
887
887
886
887
888
890
888
891
893
891
890
889
888
888
889
891
892
896
900
903
903
905
905
907
907
908
906
907
908
908
911
912
915
913
913
909
909
909
904
903
901
902
898
898
897
893
891
887
885
882
877
875
876
877
878
879
877
877
877
877
872
873
874
875
876
878
878
880
881
882
881
880
879
879
880
883
892
903
919
935
954
980
1005
1027
1040
1033
1011
981
947
916
876
843
814
806
805
811
821
830
838
844
849
851
855
859
858
859
858
856
856
855
852
853
853
855
855
858
859
857
855
853
852
852
850
852
853
853
855
855
855
853
850
847
850
847
843
848
849
848
848
850
849
846
843
844
842
843
841
840
843
844
845
843
842
841
837
836
836
835
834
834
834
832
833
833
832
831
831
832
832
831
831
831
833
834
838
841
843
843
846
845
849
849
853
855
860
867
869
876
880
882
885
889
891
895
898
901
904
906
907
910
909
911
910
909
908
907
905
903
905
906
905
905
906
903
902
900
898
896
897
896
895
897
899
899
897
898
894
893
891
888
888
888
889
890
891
894
891
889
889
887
884
882
883
885
885
885
889
890
888
890
887
887
885
884
884
885
884
883
887
890
888
890
888
885
887
889
889
890
894
896
898
900
899
900
902
901
900
900
900
901
903
905
908
910
910
910
909
906
905
900
897
895
892
894
893
894
893
890
888
885
880
878
875
875
875
876
877
878
877
879
879
878
875
876
874
874
873
873
877
877
878
879
879
878
878
882
888
900
914
934
960
988
1014
1031
1040
1033
1013
985
953
925
893
859
827
809
800
804
809
816
822
826
832
837
841
844
850
854
855
856
854
851
850
851
849
850
849
851
852
854
852
853
851
852
850
847
846
847
851
851
851
853
852
852
850
848
847
846
844
842
842
841
842
844
845
843
841
838
834
833
833
834
836
838
839
837
838
836
835
832
831
828
829
828
827
827
828
832
832
831
830
831
831
831
831
832
835
836
838
841
843
845
846
846
847
851
852
853
860
865
869
873
879
880
883
887
888
890
893
899
901
904
903
907
906
907
905
905
904
900
900
899
897
899
900
901
902
899
898
896
894
890
890
891
890
891
892
894
895
893
891
890
887
886
886
884
885
888
887
886
890
887
887
886
884
885
882
885
884
885
885
888
889
888
886
884
884
884
884
884
885
887
889
889
890
890
889
886
887
886
883
884
888
888
890
893
900
899
901
901
899
899
902
901
903
907
905
909
912
913
914
911
910
910
908
903
903
902
901
900
901
898
897
892
890
885
884
881
881
880
879
880
880
877
879
878
877
875
874
876
877
879
879
881
879
879
880
876
877
878
880
880
881
884
888
897
912
923
942
963
988
1011
1030
1038
1033
1015
989
959
926
887
850
818
803
801
805
813
823
831
839
843
846
851
853
855
858
858
859
858
856
857
858
858
858
859
856
857
856
855
854
853
853
856
857
857
857
855
855
854
851
848
846
847
849
851
850
853
851
849
848
846
844
845
843
844
842
843
845
844
845
845
843
840
842
838
837
838
838
837
838
838
839
835
834
834
833
831
831
832
834
834
837
836
838
841
841
841
838
838
839
843
846
848
853
858
861
861
863
867
869
870
875
880
883
891
894
899
903
905
906
906
907
904
904
907
906
906
909
910
910
909
908
905
902
902
897
897
899
902
900
902
901
900
897
898
896
895
893
893
894
896
894
895
895
895
892
890
889
887
886
885
885
889
887
889
889
889
887
885
884
883
882
881
884
883
886
887
885
888
890
888
887
886
885
886
887
888
891
892
893
894
892
891
890
886
889
890
894
897
899
901
904
905
908
909
908
906
905
905
906
909
911
914
915
915
914
912
908
904
901
899
899
899
899
899
898
892
892
888
883
880
876
874
875
872
875
877
877
878
878
875
875
875
872
874
876
878
881
880
881
881
880
881
880
879
881
889
899
909
928
949
971
996
1016
1031
1035
1030
1009
986
961
936
913
882
852
822
806
801
803
810
818
823
832
835
837
843
844
851
855
856
857
859
855
856
856
855
856
857
858
857
857
855
854
852
851
850
850
851
852
855
853
854
854
850
847
847
846
848
846
847
848
849
851
850
849
847
843
843
842
841
842
843
843
842
841
840
839
837
835
836
833
833
834
835
836
838
836
836
833
832
833
829
831
829
833
834
836
838
839
839
841
840
841
839
842
842
844
848
852
853
856
857
866
867
872
875
876
882
885
891
897
900
902
905
907
907
908
906
906
906
906
907
904
903
902
901
902
897
895
891
892
893
895
895
896
896
897
895
895
893
890
890
885
886
888
890
890
890
892
889
887
888
884
884
883
882
884
885
884
887
887
887
887
885
883
884
881
881
882
884
884
886
886
887
885
886
884
883
883
882
884
884
886
888
889
886
889
890
889
893
894
898
899
902
902
901
901
902
904
904
905
907
906
904
903
904
904
903
904
900
898
896
894
892
889
885
883
880
878
876
874
871
870
870
866
865
862
864
865
866
869
868
872
873
873
870
868
866
868
869
870
875
874
874
876
876
885
896
908
924
944
970
995
1020
1031
1030
1009
981
950
914
874
839
811
800
799
803
807
811
814
817
823
829
833
838
838
840
840
841
841
840
839
837
837
839
837
836
836
837
837
837
836
836
836
836
836
838
835
830
830
828
825
827
830
830
831
831
830
830
830
826
824
820
820
820
822
824
827
826
824
822
820
817
815
815
811
815
816
817
820
819
818
816
814
813
811
810
811
813
812
815
817
818
819
818
815
817
815
818
819
823
827
832
835
836
839
842
847
848
850
854
860
865
867
872
877
880
881
880
886
888
885
887
886
886
888
890
889
887
888
883
881
880
882
880
879
882
882
883
885
883
884
883
879
878
875
876
877
877
878
880
880
879
880
877
877
874
876
874
874
875
878
876
876
879
879
877
876
876
875
873
875
878
878
876
879
879
877
878
878
875
876
875
877
876
879
883
883
887
881
883
882
884
886
886
890
890
893
897
898
899
900
901
899
896
898
897
900
904
907
907
908
906
903
902
899
897
896
894
893
894
893
890
889
885
882
880
877
874
872
873
872
872
876
875
876
875
879
876
875
874
873
873
876
876
878
880
880
879
881
883
885
895
908
924
947
976
1004
1027
1046
1051
1040
1017
990
963
938
908
875
842
822
816
823
831
834
831
828
829
831
834
844
851
859
859
860
860
858
858
853
853
853
854
854
857
856
857
858
854
854
852
851
852
850
850
849
850
852
850
852
850
850
852
848
846
844
845
846
846
846
847
848
846
846
844
843
842
840
841
839
840
841
840
840
840
839
836
836
835
832
834
835
835
837
837
839
840
837
835
835
835
833
836
837
839
842
844
849
849
850
851
851
854
855
858
862
864
870
876
883
883
885
889
893
896
903
903
906
909
909
910
913
911
911
911
906
907
906
903
905
907
906
905
905
904
901
900
899
894
893
895
894
894
895
897
898
896
895
896
894
893
890
889
889
888
892
892
892
891
889
888
886
885
885
883
884
886
887
885
888
890
888
888
886
886
884
882
883
884
886
888
888
891
889
889
889
888
886
887
890
892
894
896
899
900
900
898
898
897
898
898
900
903
906
909
911
911
908
906
902
899
899
896
896
895
894
891
889
888
883
882
876
874
872
870
866
868
870
870
872
872
871
871
869
867
866
867
867
868
868
867
871
872
871
871
868
866
867
868
866
872
879
890
908
929
952
980
1010
1032
1041
1034
1012
985
957
929
900
866
836
818
814
816
819
828
837
843
846
845
844
842
841
841
841
842
843
842
843
842
843
844
846
845
841
843
841
839
839
838
835
836
836
838
839
838
837
836
832
832
829
828
828
828
828
829
832
827
826
828
824
824
823
822
822
823
823
823
824
824
821
820
818
817
816
814
814
813
815
815
815
815
814
810
810
808
810
805
811
812
811
814
816
818
819
817
817
818
819
819
821
825
828
832
837
838
841
845
846
851
854
859
861
868
871
874
879
885
884
888
889
889
889
890
889
890
891
892
892
890
890
887
887
884
884
881
884
883
883
884
887
884
884
883
881
881
878
878
878
878
877
878
880
878
877
877
872
869
869
869
866
869
868
871
871
873
871
870
869
866
866
864
863
863
868
866
870
870
870
867
865
867
867
866
865
868
870
871
873
873
872
874
873
873
875
874
879
880
883
884
886
889
886
886
885
883
882
888
888
892
893
893
894
891
888
885
882
877
878
875
873
872
873
870
870
866
865
861
857
856
853
852
851
852
853
854
854
857
857
853
853
853
854
852
853
854
855
854
858
861
867
879
890
910
932
961
988
