824
824
826
826
823
819
817
814
813
812
812
814
815
817
815
814
811
808
805
805
803
803
800
799
800
800
801
803
802
799
799
797
795
793
798
797
799
801
802
804
803
804
804
807
805
806
810
813
819
824
831
836
844
847
851
856
859
861
862
867
871
876
879
882
879
879
879
877
875
876
873
875
874
874
876
875
872
873
874
873
869
869
868
868
869
870
871
870
870
870
869
868
867
867
865
863
867
867
870
869
868
868
868
868
865
862
864
863
865
865
867
870
867
866
866
867
865
862
863
865
868
870
871
869
868
868
867
870
873
877
880
881
884
885
884
883
883
881
879
880
880
882
884
887
888
888
885
880
878
872
865
863
863
864
864
863
862
861
859
856
854
851
848
844
846
849
848
848
849
849
848
848
850
848
847
847
845
845
842
846
849
850
853
856
858
866
881
898
924
952
983
1009
1029
1035
1024
997
962
924
891
851
811
778
761
754
758
767
780
793
801
807
810
810
809
812
815
818
821
821
820
823
823
821
821
818
820
819
818
817
817
816
815
820
817
819
817
812
810
809
809
810
810
812
813
813
812
810
809
808
805
805
804
804
808
808
809
809
803
802
797
794
792
790
789
790
792
796
793
793
793
789
786
783
783
782
781
781
783
783
784
783
784
784
783
783
780
782
782
784
786
787
789
789
791
791
793
795
797
800
804
809
813
819
824
830
834
838
840
843
847
848
854
856
859
863
866
867
866
866
865
866
863
864
862
863
865
863
863
864
864
862
861
859
857
856
856
856
856
856
857
857
857
855
854
854
853
851
851
852
855
854
854
856
855
854
852
852
852
850
850
852
851
853
851
853
852
852
852
851
850
850
849
849
851
849
852
852
854
853
854
851
853
851
856
859
864
866
866
870
872
872
871
869
867
867
866
868
868
870
873
874
876
880
879
871
867
863
858
856
856
855
856
855
857
857
854
850
848
843
838
838
836
837
837
842
841
842
840
838
836
836
835
837
839
839
843
839
838
838
834
836
839
841
852
865
882
898
924
954
979
1005
1019
1027
1015
986
954
919
886
849
812
780
756
741
740
751
764
773
786
793
800
805
807
812
814
815
813
814
812
810
807
807
809
808
811
811
808
811
811
808
805
806
803
804
807
808
810
809
808
805
803
800
800
799
798
796
794
795
797
798
797
794
794
793
793
794
792
792
793
793
793
792
789
786
784
782
780
776
778
778
781
780
781
782
780
781
779
779
778
776
777
779
782
783
786
791
790
792
794
794
796
795
796
800
804
808
815
820
824
831
833
836
838
844
847
850
855
861
864
866
866
864
862
856
855
855
856
858
858
861
862
860
858
857
854
851
848
849
850
852
853
853
855
856
854
854
851
851
850
850
849
850
850
852
852
854
851
850
849
846
847
849
848
848
852
853
855
857
856
853
856
853
852
848
846
847
850
849
850
852
855
856
855
853
852
854
856
859
863
866
873
875
876
876
873
870
870
869
871
871
875
876
876
874
871
867
864
860
859
855
854
856
855
852
852
848
843
844
840
841
838
839
837
839
840
841
843
842
843
841
839
838
839
838
838
839
842
843
843
846
845
846
845
842
846
849
863
880
900
924
954
980
1004
1019
1021
1005
977
942
907
872
834
795
766
752
751
758
772
785
796
803
809
810
814
815
817
818
817
817
816
815
812
813
813
816
816
819
819
822
821
818
816
816
812
814
813
813
812
815
813
815
812
811
810
808
805
805
805
807
807
808
809
810
806
806
806
801
801
801
800
798
801
801
800
802
800
799
796
793
792
791
789
789
788
791
792
793
792
791
789
787
784
786
785
789
790
792
796
800
802
801
803
804
805
806
810
811
818
824
829
832
840
839
841
843
846
848
851
856
858
859
861
865
867
865
866
865
863
864
860
862
863
863
863
863
863
864
861
859
855
856
854
853
853
854
855
856
854
852
853
850
850
847
848
847
847
847
847
851
852
852
851
847
846
846
847
847
846
847
849
851
850
849
848
846
844
844
840
841
847
850
849
853
850
848
849
847
846
848
849
851
855
858
861
865
867
869
866
864
864
864
863
861
863
866
867
871
869
871
870
867
862
857
855
851
852
853
854
854
853
850
846
845
842
839
840
837
836
835
840
843
839
839
839
837
838
838
836
835
837
837
838
841
842
841
843
848
855
865
881
903
931
961
991
1013
1020
1014
989
954
916
877
842
804
773
756
751
758
765
776
785
791
794
799
804
808
812
817
819
822
823
819
818
818
817
819
814
815
815
816
819
821
821
820
819
818
817
815
810
811
812
813
815
815
813
812
813
811
810
810
808
807
806
808
808
808
809
807
803
802
800
799
799
798
798
799
798
801
799
800
797
794
796
795
793
796
796
797
800
801
802
801
800
800
801
801
802
804
806
811
815
821
824
828
831
833
837
842
845
849
853
858
862
868
868
870
870
872
871
871
872
872
875
876
874
877
875
872
871
870
866
865
867
865
866
863
864
865
864
863
861
861
859
857
853
854
856
855
856
859
858
859
855
855
855
853
853
855
855
855
858
856
856
858
857
853
853
853
851
851
852
852
854
856
855
854
853
852
851
853
850
849
850
853
856
858
858
860
862
862
861
862
862
865
867
869
869
870
870
870
872
872
872
873
875
877
877
875
873
869
865
861
862
859
858
857
856
853
851
851
849
849
847
845
843
842
840
836
838
838
840
841
843
844
843
841
839
839
836
837
837
837
838
838
841
843
846
845
850
856
866
879
895
917
942
969
987
1002
1006
998
979
947
917
888
852
819
787
767
763
770
775
780
785
789
796
801
804
808
810
814
814
815
816
815
812
812
810
811
810
811
812
815
815
816
816
812
811
809
808
810
809
808
809
810
811
811
810
809
808
806
803
803
802
803
804
803
803
803
806
803
804
801
799
798
798
796
797
798
799
802
801
796
797
797
791
793
792
792
791
794
791
790
791
791
791
793
791
789
792
793
794
797
798
802
803
806
808
808
809
812
811
816
822
829
833
837
842
847
848
850
851
855
858
861
864
864
865
867
870
868
867
867
865
865
864
864
867
863
866
867
865
864
863
863
856
855
853
854
854
855
853
855
856
856
855
853
852
851
850
850
850
849
851
851
851
852
852
849
848
846
846
847
847
849
851
853
853
850
850
847
848
844
843
845
847
848
849
851
852
852
851
852
851
852
854
854
858
861
865
868
868
869
869
868
866
863
865
868
871
872
874
875
877
876
870
866
861
857
855
856
855
855
855
855
852
849
846
842
841
840
836
837
836
837
838
838
839
839
840
837
837
837
835
837
838
839
841
841
843
842
843
841
845
851
862
876
892
917
946
974
995
1009
1010
994
968
938
908
876
845
814
792
781
781
783
790
795
802
806
807
810
813
813
817
820
822
822
819
817
818
817
815
818
820
821
822
824
824
823
823
822
820
819
817
818
818
819
815
816
818
818
816
815
813
812
810
810
812
811
813
816
815
813
813
810
808
805
806
804
807
806
806
808
808
807
805
803
803
802
799
800
798
801
800
801
800
801
799
800
802
802
801
801
805
806
807
811
813
813
815
817
816
818
821
825
828
833
839
844
849
852
854
857
859
862
863
865
869
872
875
876
877
879
876
875
872
870
869
869
870
869
868
872
873
872
869
867
867
865
862
864
864
863
864
865
862
859
860
858
857
856
854
855
855
857
858
861
860
858
858
857
857
855
853
854
854
857
857
859
859
859
858
858
857
856
855
856
858
859
859
861
862
862
863
862
863
864
863
864
866
868
871
874
876
876
874
875
874
875
877
878
880
881
883
884
883
878
872
866
863
858
859
860
860
861
860
857
855
855
850
847
846
846
842
843
844
843
848
848
849
848
849
847
843
843
843
843
843
846
847
850
847
848
849
847
848
853
859
871
885
907
935
962
987
1006
1011
1001
979
950
923
897
866
834
804
790
787
788
791
795
797
799
803
809
813
821
826
827
828
826
827
824
822
823
824
824
824
824
828
826
826
827
825
824
822
822
819
820
819
819
821
823
823
822
820
817
817
816
813
814
816
816
817
817
819
819
816
812
811
811
810
811
810
811
812
813
813
809
810
810
810
809
808
804
804
805
805
809
809
809
807
809
809
805
806
809
811
812
817
820
820
822
826
829
830
833
831
839
843
850
852
860
865
865
868
871
872
875
875
878
875
880
880
879
878
878
878
878
876
872
873
871
870
873
871
872
874
872
872
869
867
865
865
866
866
868
868
869
870
867
868
865
863
862
860
861
862
865
866
867
867
866
865
863
861
861
858
859
860
860
862
859
861
863
862
860
861
860
858
860
862
866
867
871
872
870
873
872
874
873
871
875
877
878
878
880
883
881
885
885
884
884
885
882
882
880
880
878
875
871
871
868
868
865
862
860
859
856
854
853
851
850
849
850
848
850
849
852
851
851
852
853
854
854
851
852
847
847
848
848
850
855
859
862
868
878
891
908
932
957
983
1006
1018
1017
1001
971
945
916
886
849
816
794
786
791
799
807
807
807
807
809
813
817
820
826
829
828
832
833
833
830
832
831
830
829
827
828
823
827
826
825
827
831
831
831
830
826
822
823
822
825
825
825
829
827
829
831
827
825
825
824
823
822
821
819
821
819
818
817
818
818
818
816
815
813
813
815
817
816
814
813
813
814
812
811
810
809
809
810
810
812
815
812
811
812
813
812
811
810
811
811
817
825
827
827
831
831
833
835
838
845
850
855
860
866
871
872
873
875
876
877
878
881
881
884
884
888
887
885
883
882
881
878
877
877
875
875
875
875
880
872
873
875
874
872
872
873
873
874
876
876
877
874
874
870
871
869
870
867
869
868
870
871
872
871
870
863
865
863
862
863
866
868
871
871
872
872
870
869
870
867
867
867
868
867
868
873
875
873
873
874
872
872
872
872
877
880
881
885
888
889
889
888
888
886
885
885
883
886
889
894
895
896
895
897
893
889
883
879
879
878
879
881
881
877
877
872
871
868
865
862
862
861
859
864
863
865
862
862
860
861
860
862
862
863
865
868
867
867
868
867
867
867
867
870
877
888
902
919
944
968
994
1020
1037
1043
1034
1010
982
954
927
898
864
830
810
803
805
812
816
817
815
818
821
826
835
843
848
848
850
850
848
846
846
847
850
852
850
851
850
849
844
845
843
845
846
846
846
850
851
850
847
847
847
846
844
844
845
845
849
848
850
849
848
848
847
843
844
842
843
844
844
844
843
843
844
839
838
838
837
836
835
838
838
836
842
840
839
838
838
838
838
837
838
842
843
845
847
847
848
850
846
848
848
850
853
857
862
867
874
877
881
885
888
889
891
894
900
906
908
909
915
914
917
917
914
915
913
914
914
912
913
913
918
917
916
912
911
908
911
908
909
909
911
907
909
908
906
907
906
904
903
902
904
903
905
904
907
907
908
906
905
903
904
903
903
902
907
907
909
909
907
906
906
903
901
904
904
903
904
907
908
907
909
911
911
912
916
917
919
920
922
921
923
922
921
923
923
925
928
927
931
932
931
931
929
926
922
921
917
915
912
909
907
907
907
905
905
902
900
900
893
892
892
893
894
897
895
898
899
898
898
897
896
893
894
893
896
895
897
899
899
897
898
899
903
913
926
945
971
1001
1035
1063
1078
1075
1057
1024
989
950
907
870
846
836
836
842
856
865
872
876
876
875
872
872
873
876
876
877
881
880
878
878
876
874
874
871
871
872
876
876
878
876
875
875
872
870
869
872
871
871
873
874
874
874
870
869
868
865
864
863
864
865
864
866
867
865
863
862
860
857
857
854
855
856
856
856
856
854
853
852
850
845
847
843
844
843
845
846
849
850
848
844
845
845
849
850
850
852
855
859
862
864
866
867
870
872
874
879
885
890
898
901
907
911
914
916
918
919
920
920
922
925
926
927
929
928
927
925
925
925
924
922
924
924
925
927
927
928
925
925
922
921
920
921
921
921
922
921
924
922
920
917
915
916
914
914
914
917
916
917
918
918
916
916
914
913
910
913
914
913
915
915
917
915
915
916
914
913
911
910
909
912
914
915
921
921
919
922
922
925
924
927
930
932
933
933
935
935
936
936
934
934
935
938
937
938
937
937
935
930
927
923
920
917
915
912
911
911
908
910
907
905
902
901
896
898
897
899
899
898
901
901
904
904
904
903
901
897
901
900
902
903
902
907
911
915
926
939
957
978
1006
1034
1056
1073
1075
1063
1041
1011
982
950
917
883
858
848
848
854
863
871
879
884
883
881
879
876
874
873
875
877
875
879
879
879
878
879
876
874
872
873
874
876
874
875
876
876
874
873
871
869
868
868
867
868
867
868
871
870
869
867
862
864
862
860
861
862
862
861
863
861
862
858
858
857
855
855
853
852
854
856
855
853
854
851
851
848
848
846
845
847
847
849
851
851
849
850
849
851
851
852
854
857
859
864
867
869
871
874
878
881
884
889
894
898
903
909
914
917
921
921
922
921
922
922
922
924
924
928
927
927
925
926
921
920
921
918
918
915
919
919
918
920
918
918
917
915
912
911
914
914
915
914
918
916
915
912
910
908
910
908
908
906
907
910
910
910
910
910
907
907
904
906
905
905
907
906
908
905
908
909
907
906
903
903
905
905
907
908
909
913
914
916
918
919
921
921
923
925
925
925
925
925
924
926
927
926
928
927
927
926
925
921
919
916
915
915
912
911
908
905
904
901
901
899
896
894
893
893
891
889
888
888
890
892
893
892
895
898
897
895
891
893
892
892
893
894
894
896
902
899
899
901
906
913
922
935
952
975
1003
1027
1048
1062
1064
1049
1024
995
969
941
911
880
857
840
838
844
851
856
862
868
866
865
865
863
867
871
874
875
872
871
868
866
863
865
863
863
865
865
866
866
864
866
863
861
859
861
862
865
864
865
866
867
865
861
862
858
859
857
858
857
857
857
855
854
855
854
852
851
850
848
848
846
848
845
847
848
849
847
844
845
841
836
838
838
840
840
838
840
839
839
837
837
836
835
837
838
841
842
843
844
843
846
847
851
851
855
857
862
870
873
879
881
887
889
888
892
894
900
903
905
907
909
911
912
914
914
913
912
913
911
907
909
909
911
909
908
906
908
907
905
902
899
902
902
903
905
905
905
902
900
897
899
895
895
896
897
897
896
898
899
899
897
896
893
892
891
890
892
893
892
894
896
897
896
895
893
894
892
895
895
896
897
897
899
897
898
897
899
899
900
902
906
911
912
915
917
916
917
913
913
909
910
912
915
918
922
924
922
921
914
909
905
902
901
903
904
901
902
902
900
897
896
890
888
885
882
881
881
883
884
881
885
883
883
883
881
881
879
880
880
881
883
886
887
886
888
889
893
901
914
934
957
984
1011
1034
1050
1052
1036
1012
984
956
927
902
869
841
826
820
822
829
835
838
842
848
849
848
851
852
858
861
863
864
865
862
859
860
857
856
857
858
860
860
859
860
859
856
853
852
851
852
851
852
854
854
854
852
852
850
846
844
844
847
848
847
849
849
847
846
844
842
841
836
834
837
837
839
839
840
841
841
841
838
834
833
831
834
836
835
835
836
838
840
841
840
839
838
838
839
841
840
843
846
847
849
850
851
853
851
854
858
862
866
872
877
883
887
889
891
895
897
898
898
902
905
909
911
912
909
909
910
910
908
907
903
904
904
905
905
903
905
903
901
900
897
897
896
896
898
897
898
897
899
897
896
894
893
890
890
892
892
894
894
894
891
891
891
889
889
888
886
887
888
887
889
891
889
889
887
890
887
887
889
891
892
894
895
895
895
893
891
893
895
898
899
900
906
906
911
912
912
912
913
909
907
906
906
911
913
917
917
914
907
903
898
898
899
899
897
897
895
896
892
890
889
885
882
880
879
878
878
880
879
880
882
881
880
882
879
877
878
873
874
875
878
879
880
883
883
883
883
883
889
898
911
927
950
977
1004
1027
1042
1046
1029
1000
974
946
916
885
854
828
815
814
815
822
827
831
838
841
846
849
854
859
863
864
864
862
857
859
857
854
856
859
857
859
860
861
856
855
854
850
853
850
848
849
851
854
854
856
854
854
854
853
850
849
847
848
848
851
846
850
848
848
845
845
841
840
841
840
843
841
843
842
841
840
840
838
838
837
835
834
832
835
835
839
839
839
837
838
837
839
839
842
846
848
851
855
855
859
860
862
865
870
875
878
885
891
896
902
904
905
907
907
906
907
909
911
912
914
915
914
913
913
912
912
909
907
