882
881
882
881
883
883
888
891
893
891
888
887
882
877
877
873
872
870
871
869
867
866
863
858
854
850
849
847
850
849
851
852
854
852
851
852
853
849
852
852
851
852
855
854
858
855
855
853
853
858
866
878
895
918
946
975
1002
1024
1031
1026
1003
975
946
918
888
854
823
801
792
791
797
805
810
817
822
823
824
825
828
826
829
826
829
826
825
828
826
827
827
826
825
827
828
827
827
827
825
824
824
823
823
821
822
826
829
829
827
821
819
819
819
817
817
818
816
818
819
818
815
811
807
808
807
805
808
809
808
811
813
813
812
810
808
806
804
803
803
803
802
803
804
803
803
798
798
798
797
796
797
799
799
802
803
804
804
800
801
801
803
807
812
819
822
830
835
839
843
847
849
854
858
858
865
867
871
873
878
877
876
878
873
871
874
872
872
872
873
876
876
875
875
873
871
870
870
870
870
871
871
871
873
872
869
870
868
868
865
865
864
867
866
869
870
868
869
867
864
863
862
859
860
862
863
863
865
866
867
866
864
861
862
863
861
866
865
866
868
866
866
867
866
865
866
867
871
875
877
880
883
881
880
879
879
879
877
880
880
882
886
885
888
886
885
881
876
872
866
864
863
863
862
861
862
858
856
855
852
851
849
845
847
847
847
847
849
847
848
850
848
845
849
846
847
847
848
850
853
852
852
855
856
863
875
894
917
948
980
1008
1025
1026
1006
978
945
907
870
834
807
788
784
786
793
802
805
808
813
815
816
817
818
822
826
825
825
825
824
824
824
823
822
820
821
820
823
822
823
823
824
818
819
818
816
815
815
815
819
818
820
817
817
816
814
813
812
809
810
810
813
813
814
811
809
809
806
803
802
800
800
801
800
799
799
794
792
792
792
793
790
789
789
789
790
792
793
795
792
793
792
792
793
794
795
796
796
797
804
805
811
811
813
814
817
821
821
830
835
844
846
851
853
858
859
859
862
862
865
866
868
871
874
874
872
871
866
867
867
866
865
867
867
867
868
865
864
861
858
860
860
857
856
855
856
856
859
859
855
854
853
850
849
851
851
850
851
853
854
854
851
854
854
848
851
848
848
850
851
853
856
854
854
852
849
850
848
851
850
850
851
852
856
858
857
858
857
858
858
861
861
863
866
866
868
868
867
868
867
868
868
868
869
870
871
870
872
870
869
867
863
858
855
854
850
848
848
845
846
842
839
838
837
835
837
834
832
833
835
834
836
837
837
835
833
834
835
834
835
838
839
841
843
842
848
850
859
870
886
908
933
962
987
1006
1014
1006
984
958
929
903
876
844
810
783
771
772
780
784
786
784
782
783
789
794
801
808
814
815
818
815
815
812
811
808
807
807
807
808
811
811
812
813
811
811
810
809
808
805
804
807
808
807
807
808
806
805
805
804
800
798
799
798
801
801
804
802
800
799
795
791
787
787
787
790
789
790
792
791
793
790
786
785
782
783
785
784
784
785
785
785
785
786
783
785
782
784
782
782
783
785
787
785
788
788
790
790
791
793
796
800
806
810
814
815
818
821
826
827
831
836
840
843
847
849
850
854
854
855
853
852
853
852
850
851
850
848
849
848
847
845
845
844
842
843
843
843
844
845
845
846
846
845
843
842
840
839
838
837
842
842
842
844
843
839
836
834
831
830
830
828
828
831
835
839
840
838
840
838
838
834
833
833
835
836
837
837
836
839
840
842
843
844
846
844
846
845
846
847
849
849
850
853
856
856
853
854
852
850
847
844
842
839
832
831
829
826
825
826
826
826
824
824
821
821
818
817
816
816
817
817
818
817
817
817
815
817
817
817
815
816
817
819
821
824
828
833
847
859
878
901
927
956
980
997
1004
995
977
949
919
887
856
821
785
752
737
734
743
754
757
761
763
769
774
782
787
792
792
792
793
794
794
793
793
793
794
790
789
788
788
791
791
791
794
795
793
792
791
790
788
787
786
785
786
787
784
787
788
789
789
785
783
781
779
780
782
784
785
783
783
780
781
779
778
777
779
779
780
778
780
779
777
777
775
771
772
771
769
771
770
770
770
772
774
775
774
775
776
775
778
779
782
781
788
793
794
796
798
802
805
809
813
819
823
827
832
834
839
841
841
842
839
841
844
843
848
852
853
853
852
852
851
846
846
847
848
849
850
852
853
853
851
847
843
843
838
843
841
842
844
847
848
847
846
845
844
843
842
842
839
841
842
843
844
845
846
846
845
844
844
842
841
842
841
842
844
844
846
846
844
844
844
843
842
844
846
844
848
846
847
848
848
848
848
850
852
853
857
857
862
863
864
864
863
861
860
861
861
864
868
868
868
870
870
869
865
862
860
858
853
853
853
852
851
850
847
843
841
838
835
836
834
833
834
836
836
840
840
840
838
836
836
835
836
836
839
841
845
845
846
847
847
853
863
876
895
919
949
978
1003
1024
1028
1023
1002
973
942
911
883
850
812
782
767
769
776
784
785
786
786
789
800
808
815
821
823
824
824
822
819
820
817
817
816
818
819
822
823
825
824
821
821
821
820
818
819
819
822
822
821
820
821
819
817
816
815
817
817
817
816
815
814
813
809
809
809
807
806
805
803
806
806
806
808
810
807
806
805
803
801
799
799
800
800
800
803
803
803
805
803
802
802
801
802
801
802
804
806
812
811
812
814
816
820
821
822
828
831
837
843
848
851
855
858
861
864
866
870
873
877
879
880
882
881
882
881
876
874
874
872
875
878
877
879
878
876
876
875
872
872
871
869
871
874
874
873
875
874
874
870
872
871
869
871
870
869
873
873
873
871
868
868
867
867
866
865
868
869
869
871
873
871
872
871
869
868
870
870
871
871
874
878
880
881
881
880
882
881
883
884
884
885
887
891
891
892
891
892
890
887
885
884
883
878
879
877
877
876
871
868
866
864
860
858
857
858
860
860
860
859
858
857
853
851
853
852
854
855
857
858
859
859
859
859
855
855
855
857
863
872
887
904
929
956
987
1014
1036
1045
1040
1018
992
962
933
905
876
845
817
801
797
800
806
816
825
834
836
840
837
837
836
834
834
833
834
834
834
834
834
835
832
835
833
833
830
828
827
826
826
829
830
830
833
830
828
827
824
820
821
822
818
823
823
824
825
823
818
818
820
817
816
816
816
815
817
815
818
815
814
811
810
807
805
805
803
805
806
807
807
808
804
804
801
799
799
797
798
799
804
804
805
804
806
806
807
806
807
812
813
818
821
827
830
835
838
842
845
847
852
856
860
864
869
872
877
880
881
882
881
880
881
880
882
882
882
884
886
883
880
880
880
877
875
874
877
878
879
881
880
879
877
874
870
869
870
869
869
871
875
870
870
874
872
871
868
867
868
868
867
869
869
871
871
873
872
870
869
868
867
866
867
867
870
872
872
871
871
868
869
865
865
866
870
870
874
877
882
884
883
884
882
882
882
883
884
887
889
893
895
896
895
891
884
886
881
880
877
879
878
879
874
871
869
863
860
859
856
852
851
853
852
856
856
856
855
855
854
851
848
850
848
849
853
855
858
854
855
854
854
853
851
854
861
872
892
915
953
986
1017
1035
1036
1019
989
957
927
893
861
830
811
805
807
812
821
828
832
837
839
837
835
831
828
830
829
830
831
830
828
828
828
828
827
827
832
830
829
826
826
825
821
822
821
823
824
825
826
824
822
822
820
820
818
815
815
816
815
816
816
816
814
812
810
809
805
806
805
806
805
807
807
807
804
803
798
796
794
796
794
795
796
796
796
795
795
791
791
792
792
790
792
794
795
799
801
802
804
804
803
805
805
809
814
821
823
827
836
839
844
847
848
853
856
858
863
869
866
868
870
874
875
875
874
872
871
871
871
874
874
872
875
872
871
870
869
868
865
864
864
864
866
865
868
866
864
862
861
859
858
856
858
856
859
860
862
861
859
858
857
857
854
852
855
856
857
858
858
858
855
853
854
851
851
850
852
852
854
857
858
856
858
859
862
860
862
865
868
869
871
872
875
875
875
875
874
874
875
876
878
880
879
878
878
877
876
870
868
866
861
858
856
854
852
850
850
849
843
841
841
839
838
838
837
839
839
839
845
845
843
845
843
841
840
841
843
845
847
846
849
850
854
861
876
892
915
942
975
1001
1021
1024
1008
982
954
921
891
856
824
804
798
803
812
822
833
836
836
833
828
823
820
818
819
820
824
824
825
827
827
823
819
820
820
819
819
820
822
822
824
824
823
822
821
820
817
816
817
818
818
819
820
818
815
815
814
812
810
809
808
808
809
809
811
810
806
807
804
802
803
800
800
801
802
803
803
802
801
800
799
798
797
797
796
798
797
800
800
800
801
801
798
800
799
798
800
806
809
810
814
813
817
820
821
824
827
832
837
841
849
853
861
864
866
867
869
871
872
872
875
876
878
879
879
878
876
876
874
874
873
871
869
872
871
870
873
870
869
868
867
867
865
864
863
863
865
864
865
862
861
861
861
856
856
855
856
859
858
859
861
859
857
857
855
854
849
855
857
859
859
860
863
860
859
859
859
858
860
858
859
861
861
866
867
870
870
871
869
869
870
870
876
876
879
881
882
883
883
884
883
882
880
879
877
873
871
869
867
867
867
865
862
856
852
851
850
848
847
850
849
847
844
844
842
840
842
842
844
844
846
846
848
850
850
846
848
848
847
847
848
851
852
859
867
879
895
916
939
963
992
1009
1010
999
974
944
915
883
847
819
799
793
797
803
811
820
827
829
828
829
824
824
823
824
826
824
825
825
824
824
825
821
823
823
823
820
821
819
822
822
823
824
825
823
821
820
820
819
817
814
815
818
819
818
820
819
816
816
811
810
808
808
809
808
809
809
809
808
811
806
808
807
806
805
804
807
806
803
805
806
804
804
800
799
801
801
802
802
805
807
807
808
807
808
807
809
808
809
811
816
818
822
828
831
833
834
838
839
845
850
853
854
860
862
871
872
874
874
874
876
873
872
873
874
875
875
875
875
873
870
870
865
864
864
864
865
868
866
870
866
866
865
864
861
861
859
858
856
858
856
861
860
859
856
854
851
851
847
849
850
852
855
854
853
854
850
848
846
848
847
845
848
852
853
855
856
853
850
851
849
849
849
853
856
858
860
865
864
865
865
864
866
862
863
861
863
867
868
870
872
873
872
869
863
859
858
857
856
855
853
857
853
849
848
844
839
834
832
833
831
829
832
833
831
824
828
828
826
826
824
825
828
831
832
833
832
829
830
828
830
830
834
842
853
871
888
912
938
960
981
993
993
978
954
927
902
874
842
809
784
770
768
770
775
774
774
779
782
789
795
799
804
807
806
803
803
800
798
799
800
802
802
800
797
797
796
794
792
795
791
793
794
795
798
801
800
799
799
796
793
791
790
791
793
793
792
793
794
793
792
789
787
785
782
783
783
785
786
787
789
785
785
782
782
780
780
779
779
781
780
782
779
779
780
779
778
779
779
782
783
783
783
786
783
787
787
788
790
791
793
795
797
799
805
809
812
815
819
823
829
832
834
836
838
841
844
846
850
849
852
851
852
851
850
849
848
847
848
847
847
845
843
841
841
834
832
834
834
835
838
838
840
838
836
834
832
828
825
829
825
826
829
829
833
831
830
830
827
822
821
820
821
823
826
825
827
829
830
826
825
823
822
822
820
822
824
827
828
825
824
823
820
820
821
824
827
833
835
839
840
843
840
841
839
839
836
838
838
842
842
844
849
848
848
846
843
838
834
832
829
829
828
829
826
823
820
815
812
810
809
805
803
805
806
809
809
808
808
810
804
805
804
804
804
805
809
811
814
812
813
815
817
823
834
851
873
901
931
954
976
984
978
960
925
893
863
828
793
760
738
735
741
755
760
761
755
748
746
752
763
768
778
782
786
784
783
778
778
778
778
779
780
782
780
782
779
778
777
779
775
772
771
772
771
773
778
778
779
778
774
770
770
769
767
768
765
768
768
769
773
771
772
770
769
764
762
764
764
760
763
765
767
763
763
762
760
760
759
756
756
757
757
756
759
761
761
763
762
761
760
759
763
764
768
770
771
772
773
774
779
782
784
791
796
799
806
812
818
819
821
823
824
823
825
827
830
834
833
834
834
832
832
828
823
822
820
821
821
821
822
822
825
823
823
821
820
818
817
815
815
815
816
819
820
818
819
817
816
816
813
813
813
815
816
817
818
817
817
817
816
815
811
810
811
811
811
813
815
817
818
817
813
815
815
816
816
818
821
822
823
826
827
827
828
828
826
826
825
827
827
831
836
837
837
838
837
832
831
827
825
826
828
829
829
829
826
819
815
810
809
807
805
807
806
806
806
806
804
801
801
799
799
801
798
799
799
800
801
802
802
801
804
802
807
808
810
818
828
846
869
897
926
956
976
987
977
951
919
884
847
805
768
739
728
734
740
742
743
745
745
753
762
770
779
783
786
785
782
782
781
777
777
782
782
782
783
782
782
783
783
780
779
777
778
777
775
777
780
779
780
778
773
774
774
773
774
777
776
779
778
777
775
772
774
773
772
771
772
772
770
768
770
769
768
769
767
767
764
762
760
762
763
762
766
763
765
764
764
763
764
764
766
767
769
771
770
771
772
771
772
774
774
779
782
787
789
792
797
800
801
805
808
813
814
819
824
829
832
835
837
836
839
840
839
836
835
839
837
838
837
838
838
838
839
836
834
833
832
832
830
830
830
831
831
829
827
824
826
824
822
823
825
826
827
824
825
824
823
821
819
823
822
821
821
821
823
823
825
824
824
822
819
817
817
819
820
821
824
828
829
826
828
825
827
828
830
828
835
838
841
844
843
841
842
840
839
839
839
840
843
845
849
850
853
849
847
845
842
838
837
835
834
834
832
830
828
827
823
820
818
814
812
814
813
816
815
815
816
813
815
813
812
811
810
813
812
813
815
817
816
818
817
817
822
832
843
857
880
908
938
966
990
1001
1002
985
956
926
895
862
829
793
765
750
749
754
757
760
762
768
773
775
782
786
792
793
797
794
794
795
793
791
792
791
792
791
792
793
794
793
794
793
793
791
786
787
789
790
791
790
790
788
787
785
784
782
778
780
779
780
780
784
782
783
781
779
778
777
774
773
775
774
775
778
775
774
774
772
771
767
765
766
765
765
765
768
768
768
767
767
766
765
764
764
766
772
772
776
779
779
779
781
782
782
783
787
790
793
798
802
805
810
813
816
819
821
824
829
831
835
838
841
846
843
844
844
845
842
841
838
840
840
843
842
842
841
840
839
839
837
835
835
836
834
833
834
834
833
831
830
832
828
830
827
830
830
832
832
832
830
831
829
828
828
828
828
828
829
829
830
830
829
825
826
824
824
823
823
823
827
826
829
830
831
834
833
836
835
835
837
840
841
841
842
845
848
849
851
851
850
850
845
843
845
843
843
842
839
838
834
831
827
824
822
819
818
819
818
821
818
817
815
814
813
815
815
816
816
817
818
816
819
817
816
815
814
815
814
815
816
819
820
824
831
840
853
869
891
917
945
970
990
1000
997
981
955
929
902
874
844
813
783
768
761
765
770
778
785
790
794
792
792
791
791
792
795
796
796
797
796
797
795
794
792
791
791
790
791
791
791
794
793
792
793
792
787
789
787
790
790
791
789
791
789
787
788
784
785
784
780
779
780
780
780
781
781
780
778
773
776
773
772
771
775
773
771
772
771
771
771
769
769
768
767
765
762
766
768
766
766
768
768
768
767
767
768
770
776
780
783
786
789
793
795
799
803
806
809
814
820
824
830
835
837
841
841
842
842
842
839
841
843
844
846
847
843
845
842
842
840
840
839
839
840
841
842
843
843
840
838
839
836
836
835
835
835
837
839
838
839
834
833
829
829
827
828
829
830
833
832
832
834
829
831
828
828
828
827
830
833
833
835
837
836
833
833
832
828
829
828
829
826
831
834
840
842
842
842
842
845
844
844
844
848
847
850
851
853
854
855
855
855
855
851
848
848
843
840
838
834
833
832
830
826
824
818
815
815
814
812
813
815
813
813
811
808
808
808
809
808
808
815
817
816
815
815
815
814
812
811
814
815
823
835
849
872
898
929
957
979
991
992
974
950
924
899
871
843
807
781
765
761
762
768
778
785
792
799
798
797
795
791
791
791
789
789
789
791
789
791
792
791
794
792
793
790
790
790
790
790
794
793
794
794
794
793
791
792
786
789
789
789
790
791
789
790
