788
787
783
783
781
780
777
779
780
779
780
783
779
778
777
777
772
771
770
771
774
775
777
778
778
776
773
772
771
772
772
771
773
775
775
776
775
775
775
777
775
777
780
781
783
788
791
794
796
798
800
805
808
812
817
822
827
831
835
839
840
840
842
843
846
844
847
849
849
852
852
852
851
849
844
846
846
845
845
846
845
846
846
845
843
842
841
839
838
837
837
836
839
840
840
839
837
836
836
831
831
831
831
833
833
835
834
835
835
836
832
831
833
830
829
833
833
835
836
837
837
837
836
835
835
836
837
839
841
844
845
848
851
851
848
851
851
852
850
853
853
856
856
861
862
862
858
858
858
853
853
852
850
849
846
843
840
835
834
832
828
826
824
823
824
825
828
827
829
824
825
823
821
823
824
823
825
824
827
828
828
828
826
827
826
829
838
850
863
887
914
943
971
993
1004
1002
983
955
924
894
864
832
803
778
769
772
777
784
792
799
803
805
805
803
805
804
805
805
806
805
805
802
803
804
805
805
804
804
804
804
801
799
797
796
799
800
800
800
802
799
802
800
799
797
795
792
792
791
792
793
794
793
794
788
790
787
785
785
784
783
783
783
785
784
782
780
776
775
773
773
773
775
779
781
781
784
781
784
783
780
779
780
780
785
789
789
792
793
792
793
795
799
799
805
810
817
820
828
835
840
844
847
846
850
851
853
855
856
859
858
860
857
857
856
856
853
852
851
850
850
851
851
851
851
849
846
848
846
843
843
843
843
843
845
845
847
844
843
843
841
840
838
839
840
839
840
837
841
840
839
839
836
836
837
836
837
836
841
838
838
840
840
838
839
837
836
838
844
845
846
849
851
856
858
856
857
858
859
860
860
861
862
864
867
867
867
865
864
862
857
855
857
855
853
853
851
849
848
844
840
839
833
836
833
836
833
834
834
831
833
832
830
830
828
828
830
830
835
838
837
834
834
832
832
832
831
831
832
835
842
852
866
883
908
934
962
987
1001
1002
984
957
929
898
865
831
798
773
765
768
776
787
798
804
807
810
806
805
805
807
806
807
808
807
809
809
810
813
811
811
810
809
804
806
806
804
805
806
807
809
807
805
806
804
801
799
796
796
797
800
801
801
800
801
800
799
796
795
796
795
798
799
797
797
795
793
794
792
792
789
786
789
789
789
789
790
791
789
788
785
785
783
784
783
786
787
790
789
791
792
793
793
794
793
797
799
802
804
810
813
817
818
822
827
828
831
836
840
847
851
854
861
861
861
861
861
864
861
859
863
862
867
867
868
867
867
867
865
860
857
859
857
857
858
860
859
860
857
856
855
854
851
849
848
848
847
850
850
850
848
846
843
845
842
843
844
846
847
846
849
849
850
848
847
847
846
845
846
846
846
846
849
849
847
849
848
846
846
848
850
853
856
859
863
866
863
861
864
862
865
861
864
865
868
869
871
875
875
871
867
863
863
858
856
851
852
852
851
850
849
847
842
841
836
835
834
836
835
838
836
839
837
838
836
834
833
832
834
834
836
836
840
840
840
843
839
848
857
871
889
914
944
970
994
1004
1002
984
958
928
898
868
834
803
777
766
767
774
782
792
800
803
803
802
803
804
806
807
810
813
813
812
812
812
808
807
806
808
813
814
814
816
814
814
812
810
809
808
809
809
809
811
810
811
809
808
807
805
802
802
802
803
805
805
804
804
802
802
800
800
798
796
795
797
796
797
800
800
799
798
796
795
792
792
792
793
793
794
796
797
793
795
794
792
792
792
794
796
800
802
805
804
808
810
810
814
817
819
819
827
831
836
840
842
847
853
854
858
858
864
866
869
872
873
873
875
873
874
872
871
869
870
868
866
865
869
869
868
867
867
862
858
858
856
859
857
857
858
860
860
859
858
855
854
849
848
850
847
849
850
851
855
854
855
852
851
850
848
851
851
853
851
853
853
851
852
852
850
851
850
849
850
853
853
857
857
858
859
859
858
858
858
861
864
865
872
872
875
873
873
874
873
871
874
875
877
875
875
875
873
871
867
865
862
860
856
855
851
849
850
849
847
847
846
842
841
840
838
840
840
843
842
842
844
844
845
843
846
845
841
843
845
849
848
851
853
855
860
871
885
901
924
948
975
996
1010
1016
1004
981
954
923
893
864
827
797
774
770
771
779
792
803
811
812
815
815
815
818
820
823
824
825
828
825
825
821
820
818
816
816
818
821
821
824
825
823
822
820
818
819
817
817
816
815
816
816
817
820
819
813
816
813
812
812
813
813
814
813
813
812
810
810
809
807
805
804
805
806
807
808
809
810
807
805
804
801
798
799
803
804
805
807
807
806
808
808
808
810
809
811
812
816
819
822
823
826
832
835
840
840
843
848
855
860
863
866
871
874
876
877
878
879
878
880
882
882
883
885
883
882
880
881
878
875
874
873
875
873
874
874
875
875
872
872
870
867
866
866
866
868
867
867
866
867
865
862
861
862
860
861
861
859
862
863
863
861
862
860
859
856
857
858
858
858
857
858
858
862
859
860
860
861
859
858
858
860
862
866
868
870
870
869
867
865
869
868
869
870
871
873
875
877
878
878
878
876
874
875
874
871
872
870
871
869
863
863
857
853
850
848
845
847
848
847
848
846
843
839
840
839
838
837
841
839
841
841
844
842
845
843
842
841
840
840
841
845
853
861
875
899
922
951
977
997
1008
1003
985
955
929
899
873
842
806
782
770
766
772
777
781
782
786
794
798
806
811
814
816
815
813
811
810
812
815
814
817
816
815
812
810
810
810
809
810
813
812
812
815
815
816
813
812
812
811
809
809
809
809
811
809
808
808
806
804
802
803
804
803
806
804
805
805
802
800
799
797
798
796
795
795
798
798
797
801
800
800
800
799
800
799
797
797
798
799
801
803
802
804
806
807
807
806
809
810
813
816
820
827
828
831
833
835
837
841
844
849
853
859
860
866
868
868
868
870
869
866
865
865
868
869
871
871
871
869
867
864
862
859
857
856
859
856
859
857
854
852
850
850
850
848
848
850
849
849
851
851
851
852
849
848
846
842
842
840
842
843
846
849
851
850
847
846
842
841
839
842
841
844
846
848
852
848
847
847
844
846
847
849
853
856
860
859
861
857
854
853
851
853
857
862
864
867
871
875
873
872
871
865
863
861
855
856
853
852
851
851
848
844
841
839
835
833
832
830
832
834
835
838
836
835
834
832
833
830
828
831
834
837
837
838
837
836
836
836
841
846
854
868
887
909
936
964
990
1010
1023
1024
1012
987
954
922
893
861
824
791
767
760
763
776
783
786
782
785
785
792
799
811
813
815
817
816
815
813
813
813
812
813
816
818
817
817
817
816
814
813
812
813
815
818
816
819
817
816
814
812
810
812
812
813
814
809
810
813
811
813
814
811
809
806
803
803
806
808
810
811
809
806
807
807
805
802
804
803
804
802
803
804
805
804
804
804
803
802
801
800
802
804
810
810
811
812
814
816
817
816
819
822
827
832
837
839
845
844
849
850
856
856
859
864
869
872
875
878
879
878
880
879
879
877
880
879
881
882
882
880
878
875
873
869
867
867
867
866
869
869
870
869
870
868
866
863
863
865
863
866
866
869
869
874
869
873
871
868
867
866
865
866
865
868
869
870
870
870
866
864
863
862
857
857
864
867
869
871
869
870
868
868
870
871
875
879
883
886
885
889
888
887
883
882
879
880
878
885
885
888
887
886
884
884
882
879
876
873
870
869
866
867
866
865
865
863
861
858
858
855
854
854
855
857
857
860
860
861
859
858
857
859
858
858
862
863
864
866
868
868
869
873
879
891
908
929
955
989
1019
1045
1053
1048
1020
986
948
905
862
818
792
782
787
798
805
808
813
815
820
827
828
835
840
841
844
845
844
848
846
844
844
844
844
844
845
848
850
852
849
850
849
845
846
846
844
845
846
848
847
849
845
847
845
846
843
842
839
843
843
843
842
846
844
843
844
842
845
843
843
843
843
845
843
847
845
844
843
842
839
838
839
839
840
840
841
842
843
843
843
841
842
840
841
842
844
851
852
856
858
859
861
860
863
867
872
876
880
888
891
898
902
903
904
908
910
909
913
915
918
919
920
925
921
922
923
921
921
919
921
920
921
923
922
924
924
921
921
917
916
914
914
915
916
917
917
918
917
917
915
912
914
911
911
911
911
910
913
911
913
912
910
912
911
913
911
911
911
913
914
914
915
915
912
912
913
910
911
913
915
921
924
925
927
926
927
926
924
922
923
925
928
933
938
940
943
942
939
937
932
927
924
926
923
923
925
923
918
916
914
911
908
907
905
903
899
902
901
901
900
898
899
894
893
894
897
899
897
900
903
904
904
905
902
901
901
901
906
914
927
946
967
998
1025
1053
1076
1087
1082
1060
1031
1000
968
934
897
867
851
848
852
857
861
870
875
878
878
878
877
875
875
876
875
875
874
873
871
872
873
873
875
874
874
874
871
870
868
869
868
869
867
869
868
871
868
868
867
866
864
861
860
859
859
860
861
862
860
858
853
852
850
850
846
847
849
847
849
848
849
847
847
843
841
838
838
836
837
836
839
839
838
838
837
836
835
834
834
836
835
835
838
841
843
844
845
847
850
852
856
859
864
869
875
879
883
887
893
896
897
901
903
906
910
913
916
917
917
918
918
916
915
911
911
909
911
910
909
913
912
911
910
906
905
906
903
905
903
906
905
908
905
903
905
902
899
902
899
899
900
900
901
900
902
900
899
897
896
897
895
894
898
899
897
901
899
901
899
898
897
899
898
896
898
899
905
906
910
910
911
913
912
910
909
908
911
913
915
919
918
918
922
919
918
916
915
913
912
910
909
907
906
903
900
892
889
887
885
882
886
883
883
883
882
882
881
878
876
875
876
877
877
880
880
880
884
884
883
883
883
880
881
882
884
891
903
918
937
960
988
1014
1038
1056
1061
1050
1028
1003
979
952
923
891
858
839
829
827
834
842
849
857
862
866
868
863
856
852
848
848
848
852
852
856
855
855
854
852
851
850
849
845
846
847
847
848
846
848
848
846
844
843
842
842
840
840
840
842
841
840
841
841
837
835
832
831
833
829
829
831
831
829
830
832
830
828
828
825
823
821
822
821
820
821
821
819
820
819
818
816
814
814
814
816
817
818
820
820
819
819
817
818
816
819
821
822
824
828
830
833
835
835
837
841
845
849
854
862
868
874
880
883
886
888
889
890
890
892
895
895
896
897
894
895
895
894
889
889
886
884
888
888
888
889
889
888
884
881
879
880
878
877
877
880
882
881
883
879
880
878
878
875
875
875
874
877
876
876
877
876
876
874
873
870
871
870
868
869
871
873
874
873
872
869
869
870
872
872
875
878
880
884
886
888
887
886
887
886
885
886
889
891
892
897
901
900
895
894
892
888
885
883
882
883
877
881
879
877
875
870
868
867
864
860
860
860
857
857
861
858
857
856
855
855
853
854
856
855
857
858
857
857
859
856
856
854
852
856
863
871
887
904
924
951
978
1003
1023
1031
1027
1006
978
948
916
878
840
808
792
786
796
808
823
830
837
833
830
826
824
822
826
825
827
827
824
823
823
825
827
827
827
827
825
823
823
821
820
823
822
820
822
822
823
820
817
815
814
814
813
814
813
816
816
817
816
814
813
812
810
808
807
806
807
807
807
807
806
803
804
804
801
798
795
796
795
794
796
796
794
794
792
791
790
790
787
789
791
793
794
798
799
801
801
800
800
804
806
810
812
819
824
829
835
840
841
843
847
851
855
857
862
863
869
871
871
872
872
868
868
868
864
864
865
868
869
870
871
870
869
867
860
858
859
859
859
860
862
864
864
864
860
859
855
854
849
849
847
849
851
853
855
854
853
850
849
847
845
847
847
850
852
853
854
853
853
850
849
847
846
847
846
849
849
850
852
852
854
855
854
856
854
857
859
864
865
868
869
872
869
869
870
870
869
867
869
869
869
869
868
866
864
862
857
854
852
849
846
845
839
841
843
842
837
837
834
835
835
833
834
834
834
837
837
837
835
834
834
833
832
834
833
834
837
841
852
862
878
895
919
947
973
994
1009
1007
993
968
939
910
880
845
809
778
763
763
769
780
791
803
812
813
812
809
805
802
802
804
806
808
810
809
811
810
807
806
804
803
804
802
803
803
804
805
804
804
802
801
801
799
799
797
799
799
799
798
800
798
798
793
794
789
789
789
789
788
789
789
791
790
788
785
783
784
781
779
779
779
778
778
778
777
774
774
774
770
771
770
769
772
772
773
775
777
778
777
777
775
774
777
779
784
786
790
790
795
797
800
803
804
808
813
819
826
829
833
840
842
844
844
846
851
851
849
849
850
852
852
857
853
851
852
850
849
846
845
845
847
847
849
850
849
847
845
843
842
839
837
838
837
837
838
840
837
837
838
835
832
833
833
835
835
837
839
843
840
841
838
836
835
834
834
834
835
836
834
835
835
838
836
837
836
835
837
839
842
844
847
849
850
848
850
849
847
847
847
847
850
853
856
858
856
855
852
848
846
843
840
839
838
836
835
835
831
826
821
818
813
814
814
815
816
816
817
818
817
816
816
814
813
812
812
816
817
817
820
822
821
824
828
838
852
871
899
925
954
976
986
981
959
928
896
861
825
787
759
741
742
750
762
774
784
789
791
790
788
784
786
789
793
794
796
798
794
792
789
787
787
787
781
783
785
787
787
790
791
788
787
783
782
785
784
784
785
784
783
787
785
782
781
778
780
778
776
774
774
777
775
776
774
771
772
769
768
767
765
767
766
766
770
769
767
766
764
762
762
765
764
767
768
767
768
770
771
770
768
768
769
771
772
772
776
782
786
792
795
800
804
804
810
815
818
823
828
832
835
840
841
841
840
838
837
838
837
837
841
839
839
837
835
833
830
830
830
828
827
826
830
830
831
831
830
828
828
824
824
822
819
823
823
824
824
826
826
824
822
821
820
820
817
818
818
818
820
823
822
819
818
817
818
819
817
819
822
823
823
824
824
825
825
824
824
827
829
828
832
832
837
840
840
839
837
838
837
835
836
838
841
845
845
847
845
841
838
835
831
829
827
826
826
824
821
821
814
815
815
812
808
809
807
807
809
809
809
811
811
809
808
806
806
806
806
807
808
808
810
812
814
813
815
814
815
819
830
840
857
884
913
942
967
981
982
963
934
900
865
831
793
759
737
731
735
743
756
767
775
779
781
781
781
784
787
790
789
790
788
790
788
786
785
786
785
787
786
791
790
787
786
784
781
785
784
781
783
782
780
785
784
784
783
781
783
781
778
779
779
778
781
784
782
779
777
774
773
771
767
769
771
771
771
773
772
772
767
767
763
763
764
764
762
766
767
768
765
767
766
764
764
763
765
768
766
770
770
777
777
781
781
784
787
787
791
791
800
805
808
815
818
825
824
827
829
835
838
839
841
844
847
849
849
848
845
845
842
843
838
838
837
839
838
839
839
835
836
832
832
829
828
827
830
830
828
833
830
831
830
827
826
827
826
824
824
824
824
825
826
822
821
821
819
818
820
818
817
820
820
821
821
819
818
820
819
819
818
819
819
821
824
829
828
828
828
829
829
830
830
834
837
838
840
840
840
840
840
840
842
840
839
839
839
835
835
834
832
831
830
826
822
821
817
816
814
813
814
812
812
810
808
807
806
805
806
806
807
806
807
810
810
808
807
810
807
809
811
815
821
833
846
865
889
914
941
964
978
977
961
934
900
872
839
801
764
738
722
721
726
737
747
760
770
776
780
779
785
781
785
786
785
785
784
783
786
785
787
787
788
786
786
783
784
781
784
784
783
785
785
785
781
782
778
779
778
776
775
776
777
775
776
778
780
781
776
775
773
768
769
769
770
772
770
770
770
770
766
763
765
766
765
764
762
764
763
763
764
764
763
761
761
762
760
762
766
768
766
769
771
770
771
771
771
773
777
781
783
790
795
799
802
807
809
812
816
817
820
823
827
831
833
837
842
844
844
843
844
842
841
837
839
838
837
837
839
836
835
833
832
831
829
828
828
828
826
827
827
827
827
821
821
820
820
820
823
824
824
826
826
825
822
821
820
819
818
819
821
821
823
823
824
823
823
820
820
819
817
818
818
820
822
823
826
826
826
826
828
829
828
828
832
834
837
839
841
841
839
838
837
838
838
844
844
845
844
846
844
839
839
835
831
828
825
824
818
817
817
