1000
984
959
928
891
856
822
797
787
786
789
796
803
809
811
810
812
816
817
821
824
826
826
827
824
824
823
820
821
820
821
822
823
822
821
820
820
816
816
814
813
812
814
811
813
815
814
813
812
813
810
809
811
809
811
812
811
814
812
810
808
805
805
803
801
799
805
805
805
806
805
801
798
795
795
795
795
797
795
798
800
800
797
796
794
794
792
791
793
795
796
798
802
802
804
805
803
802
804
805
807
809
810
816
820
824
826
829
831
833
837
839
843
848
852
856
860
865
866
866
870
871
868
868
869
868
869
870
869
869
868
865
867
867
863
862
859
862
863
863
864
865
863
864
859
859
857
856
854
856
857
858
859
859
859
858
856
852
851
852
851
852
853
854
855
859
855
855
852
851
850
851
852
850
853
852
853
855
853
853
851
851
850
850
849
850
854
855
855
857
858
857
856
856
859
858
861
866
868
870
873
874
874
872
871
869
871
872
874
877
875
873
873
868
866
866
863
861
859
857
856
856
856
856
856
854
851
848
846
844
842
841
841
842
842
843
844
845
844
843
844
840
841
841
839
840
840
842
841
845
845
842
844
842
844
847
850
861
872
887
908
931
960
984
1000
1003
993
972
943
914
889
860
827
800
786
777
781
784
789
790
799
804
809
816
819
825
828
829
827
825
824
819
821
821
822
823
824
827
825
822
820
820
820
818
818
818
820
821
822
825
824
820
821
818
817
815
817
816
815
816
818
818
818
817
813
814
814
810
807
808
808
809
809
810
809
808
804
803
803
801
802
801
801
802
804
805
804
804
801
799
801
802
801
803
804
806
808
811
813
815
817
816
818
818
821
823
827
831
836
841
842
847
849
854
856
860
863
866
868
872
874
877
878
878
876
876
876
871
870
871
872
872
871
873
872
872
866
866
867
864
862
863
866
867
867
869
869
868
865
863
864
862
861
862
861
863
862
863
865
864
861
859
859
858
858
858
861
863
861
864
864
863
864
859
861
856
856
857
860
862
863
864
864
864
863
863
861
859
861
861
865
868
871
877
880
879
881
878
877
875
877
880
883
886
888
887
884
881
877
873
870
868
867
868
868
870
871
868
867
862
858
854
851
850
849
848
846
848
849
851
851
850
849
848
848
849
850
852
853
854
854
853
854
851
853
850
850
849
850
851
852
860
865
874
887
907
928
952
974
995
1007
1003
987
961
930
900
864
825
796
782
781
783
791
799
805
812
819
825
830
829
832
832
831
831
830
829
829
833
830
830
832
833
830
830
830
829
827
826
829
827
827
831
831
831
826
828
825
825
823
822
826
825
826
827
826
824
824
825
820
821
819
820
819
818
817
820
819
818
817
813
810
810
808
806
806
809
810
809
811
812
810
811
810
807
805
805
808
808
812
815
816
816
819
818
816
817
818
818
819
823
825
832
837
840
843
846
849
853
857
862
864
870
872
874
877
877
878
878
880
876
879
877
880
881
881
882
882
880
881
880
878
875
874
874
873
873
873
875
873
874
875
871
869
868
869
865
866
865
867
868
867
867
868
866
867
866
867
863
865
865
865
866
867
866
863
864
860
859
858
861
863
863
863
866
867
867
864
862
863
860
860
863
863
865
866
866
870
869
868
867
868
865
864
867
871
873
875
879
880
882
881
879
880
882
882
883
886
887
890
889
884
884
878
873
869
869
867
870
869
871
869
867
867
862
857
853
850
849
846
847
848
850
851
850
850
851
852
851
850
848
847
848
849
852
854
854
855
855
856
858
863
871
882
903
928
955
982
1003
1013
1008
990
964
937
908
877
843
812
795
799
801
808
808
808
808
807
809
814
820
824
830
833
835
836
834
832
832
830
827
827
826
827
827
831
832
834
833
831
826
827
824
824
822
825
824
826
826
828
826
825
825
824
822
819
819
819
815
818
818
823
822
822
821
819
819
815
814
812
811
814
816
815
812
811
809
808
810
807
807
808
808
811
814
813
813
812
810
809
808
807
813
814
817
820
825
827
828
831
830
834
835
836
842
850
856
861
865
871
870
873
871
874
874
870
873
875
876
875
877
876
876
875
874
871
869
869
867
869
868
871
871
870
870
869
866
866
865
863
861
859
863
863
861
865
862
862
861
861
859
858
859
859
858
859
860
861
859
858
857
855
853
852
853
854
855
855
854
855
854
855
854
854
855
852
853
854
853
857
859
859
862
860
861
859
854
854
856
857
862
868
870
873
873
874
870
867
864
864
867
871
876
879
882
879
877
870
868
862
859
862
859
862
862
862
861
860
855
852
848
845
845
843
842
841
842
842
844
842
843
842
842
844
842
842
842
842
842
843
845
845
843
842
839
840
840
838
842
843
845
851
858
870
886
908
934
962
989
1007
1012
999
977
949
919
886
852
815
788
776
781
789
796
797
793
795
794
797
805
809
816
818
822
819
817
819
819
818
819
818
821
818
819
819
816
816
815
816
816
817
821
821
820
818
819
818
815
813
812
814
814
817
815
817
818
815
813
811
811
809
808
809
810
811
810
813
811
809
807
804
802
801
800
799
800
801
799
801
801
798
797
797
795
794
794
793
795
797
799
800
799
800
799
799
799
799
800
803
805
808
811
818
819
822
821
824
825
828
834
838
843
847
855
858
862
866
867
867
868
864
865
869
869
867
869
872
872
872
868
869
865
863
861
861
864
863
862
864
863
863
862
859
857
855
855
856
858
860
860
862
862
860
857
855
855
854
854
854
855
857
858
858
858
859
855
857
857
855
854
855
853
856
859
858
861
861
859
859
858
856
853
857
858
857
859
862
860
861
861
859
860
859
860
864
866
871
873
875
874
873
875
874
871
873
874
877
879
881
880
878
872
870
865
864
862
859
860
859
855
852
850
850
850
850
848
847
847
845
845
848
847
848
847
849
848
847
848
845
845
846
845
846
847
850
851
852
852
852
857
864
877
891
913
942
970
998
1017
1024
1016
995
967
938
912
881
845
813
793
789
794
803
803
802
801
802
803
807
811
817
824
828
828
830
829
827
827
824
823
822
821
822
821
822
825
826
826
826
823
823
822
818
818
821
821
822
823
823
821
818
816
814
815
812
812
815
815
815
817
818
816
815
813
813
811
810
807
807
807
805
807
808
809
807
805
804
802
799
797
801
802
804
803
806
804
804
803
803
801
799
803
802
804
808
812
814
817
817
820
821
823
825
832
836
842
848
852
857
861
867
867
869
871
870
871
871
873
871
878
880
879
879
876
874
869
870
871
871
873
874
873
873
873
872
873
872
871
869
869
868
869
869
869
869
867
867
865
864
862
860
862
863
863
864
863
864
861
864
863
862
862
861
857
860
861
859
862
861
862
859
860
859
859
860
860
860
860
859
864
864
862
863
861
865
868
867
867
870
873
874
880
880
878
879
877
876
878
881
883
884
884
886
883
879
875
871
869
867
866
866
866
866
865
863
860
859
857
851
853
850
848
848
847
847
849
848
851
855
852
851
850
848
847
845
846
846
847
849
852
854
857
856
855
855
851
854
861
873
890
913
941
972
1001
1020
1030
1021
998
968
939
910
880
847
820
808
802
801
806
807
809
816
820
825
824
828
828
828
832
828
830
831
829
830
827
827
829
826
829
829
829
827
825
825
821
821
820
822
823
824
824
826
824
823
825
821
822
819
820
819
820
820
818
820
819
817
816
815
812
811
808
808
805
807
808
808
807
805
801
800
800
798
796
795
796
796
795
799
796
794
792
792
792
791
790
790
792
792
796
795
798
799
799
800
800
802
802
805
811
815
821
827
828
834
837
838
841
847
850
851
858
860
866
870
871
871
874
874
871
871
868
869
872
873
871
876
875
874
872
870
867
863
864
866
867
864
869
869
869
868
867
864
861
860
860
861
861
863
863
867
864
865
863
861
858
858
856
857
859
863
863
864
863
862
860
860
856
859
858
858
857
858
859
862
861
858
860
857
860
859
860
860
862
867
870
874
875
874
874
874
873
873
873
874
875
876
879
882
887
887
886
882
878
873
869
867
864
865
867
868
865
864
857
856
850
850
846
846
845
847
846
849
847
846
845
845
843
843
842
841
843
845
846
847
847
848
847
846
845
845
845
844
846
848
852
862
874
887
903
927
955
981
1003
1019
1019
1006
982
955
929
904
872
840
814
799
792
795
801
806
816
823
829
831
827
824
820
820
819
820
823
824
826
828
827
827
827
825
823
824
822
820
824
824
823
824
825
826
821
821
819
819
816
817
817
817
819
820
819
818
816
812
813
811
810
810
808
807
809
810
808
807
806
805
805
803
800
799
800
802
800
800
799
799
797
794
793
791
792
794
793
796
796
798
797
797
797
795
794
792
792
792
795
796
802
803
804
807
810
814
818
819
824
828
835
841
847
849
853
855
861
861
865
864
866
866
868
870
870
874
873
870
870
869
865
866
864
863
865
868
868
869
870
867
866
864
863
861
860
861
862
864
863
866
862
860
861
856
858
857
857
858
859
858
860
860
860
862
859
858
855
856
855
855
856
858
860
861
861
860
859
858
857
857
858
856
856
859
860
861
861
859
859
858
858
859
859
862
865
870
873
875
879
879
876
874
871
871
871
873
876
879
881
884
884
881
879
875
870
866
864
863
863
865
867
866
866
858
852
848
844
844
844
843
843
845
846
845
846
846
842
842
841
842
842
840
841
845
845
848
847
845
847
843
845
845
844
844
846
853
860
876
896
920
949
980
1003
1013
1006
983
952
923
891
855
825
801
789
786
791
796
802
810
814
821
821
821
819
819
818
822
822
822
822
823
822
821
822
822
823
823
824
823
823
820
820
817
818
822
820
822
823
821
820
817
816
818
815
816
817
815
816
816
816
815
813
809
809
807
805
804
806
811
808
811
810
809
807
803
803
800
799
797
796
797
796
798
798
796
795
795
794
793
791
792
793
793
795
797
796
798
800
800
802
800
801
805
806
813
814
819
824
825
828
832
834
840
841
847
851
859
860
864
866
866
869
869
867
868
868
869
867
868
868
867
869
870
866
864
862
858
858
859
859
859
862
860
861
858
856
853
857
855
854
854
855
856
855
855
856
856
854
855
853
849
851
846
851
851
851
853
851
855
852
851
851
849
851
851
851
854
854
856
855
856
854
852
851
849
849
850
850
854
856
861
865
868
870
870
868
870
869
869
866
865
867
872
874
875
876
874
874
873
870
864
861
858
861
860
862
862
862
856
850
845
840
840
838
837
840
840
839
839
840
837
839
838
840
839
840
840
838
839
838
839
840
837
835
837
839
839
840
841
846
855
862
874
894
916
943
968
986
1001
1000
984
962
935
907
877
843
807
787
776
778
780
787
790
792
794
798
800
807
812
816
816
816
816
816
817
816
818
819
817
815
814
813
812
812
810
813
812
812
812
812
811
811
806
808
803
807
807
807
808
809
810
809
808
807
804
802
801
798
800
802
802
800
804
803
803
801
800
797
796
795
796
795
796
795
796
795
794
790
787
787
788
786
786
788
788
790
791
793
793
792
794
792
792
794
794
798
800
799
802
807
812
811
816
819
825
830
837
841
846
849
852
855
855
853
855
857
856
856
855
855
857
859
856
858
856
853
851
849
849
848
847
848
848
847
848
848
848
846
846
842
843
842
843
845
844
845
841
845
845
844
843
840
839
839
837
839
839
837
842
844
843
842
840
839
837
837
837
838
839
841
842
841
842
838
836
835
834
835
834
838
837
841
841
843
844
847
848
848
851
850
850
849
852
851
853
855
854
853
853
853
856
859
859
856
855
855
854
854
849
847
844
841
843
839
836
835
831
829
827
828
826
824
825
822
823
822
824
821
823
825
827
829
828
824
821
822
817
818
821
821
825
827
826
828
829
830
833
841
853
875
902
934
965
986
996
988
966
935
902
870
838
801
768
755
759
767
776
779
778
776
778
780
786
790
793
796
801
802
804
804
804
804
802
801
798
797
798
794
798
795
795
794
794
795
795
795
795
795
794
797
797
797
798
799
796
795
794
792
790
789
785
787
787
783
785
786
789
787
785
782
781
780
778
779
779
782
782
783
781
780
778
775
773
768
767
768
771
775
777
778
775
773
773
771
768
767
768
773
776
778
781
787
789
790
791
792
793
794
799
804
808
813
815
822
822
825
826
826
830
828
831
831
836
839
842
843
843
842
840
838
832
828
833
830
832
831
833
833
832
831
830
830
829
828
825
827
828
826
825
824
826
824
822
826
826
826
824
821
818
815
811
812
812
814
816
818
818
817
816
816
816
814
815
817
816
816
815
813
813
812
813
815
816
817
817
816
815
816
815
816
814
815
819
823
826
828
831
831
831
825
824
822
823
823
824
825
831
830
834
835
836
833
830
826
823
819
816
814
817
817
818
815
813
810
806
805
803
802
800
797
801
798
797
800
796
795
795
793
794
793
792
794
795
800
801
802
800
801
798
798
797
800
801
805
812
823
837
854
876
900
927
953
972
982
980
962
934
903
873
844
813
778
747
730
728
735
741
748
750
746
747
751
756
762
769
772
777
777
779
777
778
779
780
779
780
780
777
776
777
776
777
778
779
780
782
783
781
778
773
771
770
770
773
772
774
774
777
778
774
774
773
772
773
773
772
771
770
770
771
770
765
762
762
760
756
759
758
760
759
760
759
758
755
754
755
752
751
750
750
751
753
755
758
759
759
759
756
754
753
753
754
757
760
764
766
770
771
777
777
778
780
783
787
792
795
801
807
814
816
819
820
821
821
823
823
825
828
830
832
832
830
829
824
820
824
823
825
825
827
828
828
828
825
823
818
815
813
811
812
814
817
820
821
822
820
818
816
817
815
815
815
817
818
819
818
819
821
821
819
817
817
818
814
817
818
816
811
811
811
809
811
811
813
811
812
810
813
812
817
820
821
822
821
823
826
828
827
829
833
831
832
835
833
834
835
835
838
838
838
838
836
834
831
829
827
824
820
819
817
817
815
812
811
810
810
811
807
804
804
800
799
799
797
798
802
804
805
807
805
807
805
807
804
806
804
802
804
805
808
811
811
813
815
821
832
851
877
916
949
977
994
991
967
933
898
860
822
778
748
735
735
742
746
751
753
757
762
768
773
779
782
783
787
789
789
793
790
790
789
784
783
780
778
780
782
784
785
787
787
784
785
780
778
777
775
776
779
782
785
789
787
785
781
779
777
776
775
776
779
780
779
782
781
780
775
777
774
775
772
772
774
775
772
778
773
772
769
765
762
763
762
760
761
763
763
769
768
767
768
767
766
768
769
768
771
775
776
780
782
785
789
792
794
797
799
805
810
816
821
826
830
829
833
834
835
838
839
842
846
848
849
850
850
849
848
846
846
843
841
839
841
842
844
845
846
843
843
843
842
839
840
840
843
844
845
845
846
843
844
841
838
834
832
833
837
840
841
844
842
841
841
840
838
838
838
840
840
840
844
844
840
839
845
841
841
840
840
841
844
847
848
849
849
851
855
852
854
855
857
854
856
860
863
864
864
863
863
864
864
867
868
870
871
870
866
862
856
853
852
850
851
850
851
848
847
845
844
843
839
841
840
838
837
837
836
837
840
843
841
841
843
843
842
840
840
839
839
840
842
844
844
848
846
849
854
866
880
900
924
954
983
1009
1030
1036
1026
999
968
936
905
875
842
809
789
783
783
786
791
797
801
809
812
813
817
820
821
821
825
824
828
826
826
825
823
823
821
822
823
824
823
828
830
824
825
823
822
819
818
819
818
819
818
821
820
817
820
820
817
815
814
815
816
816
816
816
817
812
812
808
809
805
802
801
801
805
804
806
806
803
802
799
800
797
796
796
794
797
799
799
799
797
796
796
792
796
797
796
799
800
803
806
805
808
809
808
810
811
815
817
823
828
838
844
851
854
860
866
869
872
873
876
873
875
876
878
876
876
875
873
875
875
874
874
878
878
876
876
874
874
871
873
871
867
868
866
866
867
868
871
870
872
871
870
865
866
863
866
866
867
870
869
869
869
865
866
864
863
861
862
864
866
867
868
870
869
870
868
867
864
868
868
871
874
878
882
884
885
881
878
878
877
876
883
888
888
888
888
882
879
874
871
867
866
868
867
867
868
864
862
858
858
854
851
847
845
844
844
848
849
850
854
852
851
848
846
843
845
844
842
844
847
850
852
850
849
850
850
849
850
857
871
885
906
935
967
998
1024
1033
1024
999
963
926
886
843
807
781
776
