887
885
883
883
886
889
893
895
896
890
887
885
880
879
878
877
879
880
883
886
890
891
887
883
879
873
873
875
879
881
884
886
887
884
882
880
878
884
888
892
893
892
887
878
869
862
859
863
869
877
886
891
891
886
885
882
879
883
888
897
902
904
907
903
901
895
892
891
891
892
894
897
898
900
902
902
901
898
897
890
882
875
877
881
888
891
890
883
877
871
870
873
875
875
874
874
873
873
872
872
871
869
867
867
867
869
874
881
880
880
879
881
886
901
922
953
986
1019
1049
1063
1053
1026
982
935
890
844
803
775
761
763
775
786
794
804
816
831
848
859
858
849
838
830
827
831
837
847
856
862
859
856
850
843
842
849
851
856
857
856
854
855
856
867
870
873
869
856
847
840
836
836
838
842
845
852
856
861
866
868
864
853
843
834
830
836
847
858
864
860
845
829
818
819
826
839
844
842
833
826
821
823
830
836
843
847
844
839
832
823
821
823
831
848
863
871
870
861
849
835
829
831
840
850
863
874
881
892
897
901
902
901
887
874
865
861
862
871
886
901
913
920
926
933
940
938
932
919
902
886
885
893
899
905
906
908
910
906
902
894
891
888
894
898
905
909
908
904
899
892
888
885
879
879
878
880
884
894
902
913
918
914
906
898
891
887
887
884
883
880
881
887
893
902
909
914
909
896
883
874
873
881
896
907
916
924
925
925
920
909
909
904
903
898
890
884
887
898
913
918
924
921
911
902
898
893
890
893
894
896
894
892
892
899
910
919
923
915
899
880
867
867
873
877
884
885
880
880
887
892
898
901
899
894
889
883
878
874
878
883
895
907
924
945
971
998
1023
1035
1032
1016
989
960
935
911
882
851
830
821
829
842
850
852
843
827
814
810
810
822
842
859
871
873
869
856
846
840
841
848
860
868
877
880
875
869
868
865
859
853
845
836
835
841
843
850
854
862
862
864
861
856
849
845
844
845
852
861
864
865
858
848
843
838
831
832
829
828
827
828
829
832
836
840
848
856
866
870
867
859
847
832
822
818
824
831
842
849
851
849
848
850
851
853
852
853
861
869
879
886
883
877
866
858
857
863
869
876
882
886
890
888
889
893
895
896
896
897
898
900
903
906
908
904
895
887
882
882
885
892
902
913
915
908
894
872
858
855
860
871
882
889
885
877
868
857
853
852
856
863
871
876
880
882
883
882
886
891
893
892
885
878
871
865
860
858
860
861
868
877
882
886
884
882
877
873
872
871
874
879
882
889
893
891
888
882
871
866
867
870
876
884
888
885
882
878
876
877
878
881
879
875
873
873
873
870
867
867
868
870
877
881
875
867
860
857
861
863
859
854
852
852
857
857
854
845
838
835
834
840
848
857
869
880
891
905
923
944
966
992
1011
1024
1024
1012
990
971
944
914
877
831
790
764
760
776
796
812
815
809
798
793
800
808
817
828
839
846
853
851
852
850
842
839
838
844
853
852
840
827
815
811
815
821
829
833
835
832
834
832
830
831
834
837
843
842
840
829
823
819
816
818
824
831
837
839
838
837
834
837
839
836
831
821
816
811
814
815
821
824
829
829
827
820
811
805
801
803
811
817
820
819
815
813
816
820
822
826
827
832
834
839
842
848
847
851
857
862
871
881
887
890
887
886
880
877
873
874
880
883
888
890
891
888
884
881
878
876
876
875
873
869
866
864
863
864
866
869
875
878
882
886
885
889
891
891
887
886
885
891
893
891
883
869
855
846
849
856
868
875
878
875
871
871
871
872
867
860
858
858
860
867
871
875
879
880
880
880
882
882
887
887
887
885
883
883
885
891
892
895
894
886
879
875
875
880
889
894
898
900
899
896
895
894
891
889
890
888
885
880
870
858
843
835
839
845
858
871
877
879
875
866
856
855
856
861
865
863
859
859
857
859
863
868
873
879
891
906
924
939
955
974
989
1009
1022
1030
1021
1004
973
932
884
831
786
759
756
772
790
805
815
820
826
831
837
845
847
846
844
841
843
847
852
855
854
850
846
843
842
843
852
866
873
870
862
850
846
852
863
873
874
863
842
824
811
807
814
826
836
843
851
853
854
853
849
841
835
830
829
834
836
838
841
839
841
840
841
845
853
852
846
833
822
807
799
799
807
818
826
831
831
826
820
818
822
828
837
838
835
823
816
811
816
826
836
850
855
854
851
852
849
849
850
854
859
866
872
879
887
893
898
898
894
888
881
875
877
883
891
907
922
932
926
911
892
875
870
877
889
899
904
904
896
888
878
873
872
875
877
881
882
888
891
891
891
888
884
882
877
874
872
876
879
885
886
891
894
892
887
880
879
877
881
888
898
901
901
892
882
877
874
876
878
877
878
881
884
883
883
881
880
875
872
875
879
884
888
892
895
894
892
891
885
883
882
887
891
897
903
909
916
919
921
916
903
887
872
862
863
872
887
900
905
895
878
863
851
845
847
850
854
856
861
863
864
866
865
867
865
864
863
864
865
864
865
866
872
878
884
882
887
892
905
921
937
951
965
979
988
1000
1007
1007
988
962
935
905
879
851
819
789
770
767
772
782
789
797
802
809
821
831
841
849
849
851
853
853
852
849
850
845
840
836
839
845
857
868
874
866
849
827
812
811
820
835
848
853
856
852
847
840
833
829
834
843
853
855
845
826
815
805
801
806
814
826
837
842
841
833
821
812
807
811
820
831
839
845
846
839
826
816
807
804
805
810
813
819
824
828
827
825
824
822
820
819
815
814
811
815
821
826
830
836
841
848
853
860
866
867
863
861
864
866
871
875
878
875
874
874
879
889
904
914
910
897
880
864
857
855
858
867
878
888
896
898
891
884
874
867
866
865
865
870
875
880
883
885
880
876
871
862
861
857
862
872
877
882
877
868
854
850
851
860
871
877
876
869
863
857
856
858
867
875
880
879
877
868
861
856
856
860
867
875
884
888
895
900
911
929
954
981
1009
1026
1031
1016
986
943
894
841
792
759
743
739
749
766
780
793
812
821
830
835
841
843
848
851
854
862
866
870
867
860
848
841
837
838
841
845
845
843
838
836
834
834
837
837
844
850
855
857
853
846
838
829
830
836
843
846
847
842
838
831
831
831
834
836
835
829
824
817
815
817
816
813
811
805
801
800
804
806
807
808
806
803
800
791
789
791
793
800
805
807
803
798
792
788
790
798
809
818
826
825
824
821
817
817
824
832
843
849
850
848
846
847
851
857
862
862
864
860
857
859
863
870
874
878
879
877
872
867
861
861
861
866
874
881
884
886
892
890
884
874
861
850
846
848
860
875
884
885
879
864
849
838
839
844
850
858
864
864
864
861
859
857
859
864
870
873
874
873
870
868
862
864
869
873
877
879
881
879
874
868
857
847
841
840
846
853
862
871
876
879
877
874
870
869
868
873
880
883
880
873
866
865
865
873
880
881
876
866
855
849
846
851
853
853
854
854
857
862
866
867
867
869
869
869
868
866
869
868
871
874
878
882
883
885
885
883
884
883
884
888
892
897
903
908
911
908
903
891
878
867
857
853
850
856
859
864
868
866
866
862
861
858
856
853
856
854
852
857
857
855
854
854
852
855
854
852
854
857
859
862
863
869
872
874
874
875
873
871
872
880
893
914
938
963
993
1017
1035
1032
1009
971
922
878
832
794
764
752
751
755
760
769
777
789
803
811
822
828
832
831
833
834
835
836
839
840
836
836
829
829
830
830
833
833
832
828
824
828
835
842
843
840
832
819
809
802
803
807
810
816
819
822
829
833
833
834
832
826
821
815
811
809
810
815
817
821
821
815
810
803
805
807
806
809
809
814
818
822
824
822
819
819
821
822
824
826
829
832
830
835
836
834
831
832
833
837
844
848
850
845
846
846
849
859
868
876
883
888
891
892
888
886
884
885
888
891
898
905
911
911
906
895
882
872
866
869
876
883
889
890
888
883
877
870
869
866
864
864
867
869
872
873
870
871
873
870
867
863
858
857
858
861
865
866
868
868
866
867
868
868
864
862
862
867
870
874
880
879
874
866
860
852
849
850
855
863
871
876
875
874
871
865
864
868
870
875
883
884
887
886
884
884
878
876
875
874
873
874
878
879
883
882
880
872
868
868
868
864
859
850
840
831
826
825
828
833
841
849
850
852
851
855
856
853
849
843
839
837
839
841
851
865
875
894
914
939
962
989
1009
1021
1026
1013
991
964
938
913
878
835
793
764
757
758
766
772
775
780
787
791
798
803
810
819
823
823
823
820
817
819
822
824
829
827
825
824
823
822
819
823
826
831
835
842
841
835
826
824
821
822
826
834
837
833
826
821
817
806
796
790
787
792
796
805
810
813
814
817
811
811
808
807
804
803
805
808
815
816
818
814
812
807
800
797
792
787
788
791
792
798
801
806
808
809
805
796
785
778
773
770
772
778
786
794
803
807
803
805
804
806
809
814
820
828
834
843
850
857
859
857
855
855
865
873
884
890
894
891
883
872
854
846
842
848
859
867
871
874
874
870
868
866
869
871
870
869
867
865
863
863
861
863
864
867
868
871
872
870
861
855
852
848
852
861
865
868
866
864
862
859
858
858
861
863
872
880
891
899
898
891
877
857
840
830
829
836
849
863
875
881
882
884
879
875
871
869
869
869
871
875
882
882
884
884
880
879
880
880
884
886
886
887
883
877
872
867
864
860
860
861
865
866
863
856
850
843
840
845
848
851
851
852
851
850
851
850
854
855
857
858
854
854
853
857
864
875
887
900
919
941
969
994
1016
1030
1033
1017
989
954
918
882
836
798
771
758
756
761
775
794
809
818
823
825
828
831
834
841
844
847
843
833
826
820
817
818
822
824
829
831
832
832
828
828
831
835
841
839
833
821
815
814
819
828
833
833
829
827
828
826
825
827
826
825
821
816
808
801
796
796
800
809
818
823
825
820
811
804
792
791
793
799
811
821
827
824
817
805
791
787
790
794
801
809
814
815
812
809
810
804
801
800
804
811
821
830
837
843
848
851
852
859
861
864
870
874
878
886
891
895
902
902
898
893
882
880
882
884
884
880
871
864
861
864
868
870
876
871
870
870
868
869
869
869
871
872
873
873
873
874
873
877
882
887
894
894
892
884
876
870
863
859
858
861
865
865
863
861
862
861
865
869
867
870
871
877
879
879
874
871
868
865
866
870
874
875
878
875
880
882
883
887
893
899
900
901
897
893
886
884
880
881
885
891
899
903
909
906
893
880
865
854
850
852
859
868
870
871
870
869
863
863
863
861
859
858
857
854
854
855
858
862
865
865
866
867
867
866
863
859
857
857
864
880
901
930
964
997
1026
1047
1058
1052
1031
999
958
915
870
823
784
753
742
744
758
775
787
802
809
816
819
821
826
828
831
836
838
838
841
842
844
849
847
845
841
835
832
833
836
837
833
832
830
830
825
830
832
836
840
848
852
847
840
829
820
819
819
821
822
826
825
828
826
825
825
824
824
825
825
822
818
813
812
812
815
820
824
824
818
811
804
798
798
802
808
807
811
810
811
807
803
805
806
807
810
813
817
818
817
809
809
803
804
806
813
821
826
831
840
847
854
857
859
856
856
860
862
866
867
874
881
886
891
892
897
898
895
891
889
885
882
880
876
879
883
882
884
881
877
877
875
877
877
877
878
877
877
876
877
873
871
871
870
871
873
879
886
890
891
889
885
879
871
867
866
865
868
868
874
876
877
874
876
880
879
881
882
884
883
882
875
871
869
866
869
872
877
884
890
891
888
883
878
874
875
877
885
891
893
893
891
890
891
894
902
909
913
912
908
900
891
886
883
883
880
873
868
860
858
860
867
873
876
880
882
878
871
870
863
861
859
861
867
867
870
874
878
880
879
875
872
871
870
866
862
858
852
855
866
881
903
924
951
980
1010
1035
1055
1057
1042
1017
981
948
917
887
850
813
779
760
760
767
780
795
806
820
833
845
853
858
853
843
839
828
827
829
836
842
850
850
852
848
843
838
835
831
832
832
834
836
836
839
838
841
841
840
836
834
833
832
832
833
831
829
830
829
831
833
837
837
835
835
834
834
832
827
826
824
828
831
835
838
837
831
823
815
811
812
814
817
818
821
819
819
819
815
813
811
810
815
817
820
816
812
811
810
811
816
820
830
839
848
854
859
859
860
860
865
871
877
880
883
884
886
892
893
896
900
907
915
920
923
919
914
907
897
890
887
889
888
887
886
878
875
874
879
882
888
894
894
894
892
893
894
891
889
886
882
884
884
887
889
890
890
892
889
890
891
891
888
887
884
884
887
891
891
897
898
900
896
895
893
891
887
879
873
870
873
880
888
891
895
896
892
892
893
895
897
895
897
896
897
895
898
899
898
900
899
899
901
904
909
911
912
912
909
910
909
910
911
911
910
908
903
898
895
891
885
878
874
872
867
865
866
868
876
881
883
883
882
879
874
870
869
871
875
880
878
876
875
875
876
876
877
881
886
898
915
937
961
989
1017
1037
1051
1051
1039
1012
983
952
922
885
843
806
778
764
758
764
776
792
810
826
837
843
847
852
852
852
849
847
846
847
849
850
851
853
857
860
861
860
858
857
857
854
852
852
849
846
841
836
832
831
834
842
850
852
852
848
841
836
832
831
836
839
841
840
839
841
839
837
833
833
837
837
837
832
830
831
829
823
822
821
824
824
825
827
833
839
845
849
846
834
816
798
789
786
793
804
813
819
823
819
815
813
812
810
814
817
821
827
831
839
843
848
853
859
864
865
871
872
877
880
884
890
892
892
894
895
897
902
908
910
909
905
897
890
888
889
890
894
898
899
895
892
890
891
894
897
897
898
901
896
890
885
879
876
875
878
876
880
885
890
893
898
901
897
893
891
890
891
897
896
892
887
877
865
861
859
865
873
883
890
894
896
897
895
891
887
883
884
890
891
897
898
904
909
913
914
910
902
901
899
903
907
909
910
907
904
901
900
897
896
896
895
898
896
901
901
899
896
892
887
885
883
885
884
884
880
879
877
883
888
892
888
878
872
863
862
868
874
880
882
878
872
870
872
870
875
880
886
894
904
921
941
969
999
1026
1049
1061
1056
1039
1013
977
947
909
869
827
793
777
777
782
789
795
803
813
824
833
840
843
840
844
844
844
845
845
846
850
851
854
857
857
857
854
853
851
850
845
848
848
848
849
852
858
864
869
870
869
861
855
856
857
856
850
840
835
832
835
835
835
830
818
815
817
819
824
830
835
841
843
845
842
837
835
831
826
820
819
822
824
826
827
831
830
833
837
843
849
856
853
844
838
830
829
831
832
830
828
826
825
824
827
830
838
847
858
869
877
880
883
888
887
888
891
899
903
908
911
908
907
906
903
905
906
910
911
914
919
924
929
929
922
909
896
889
887
892
896
901
906
904
900
895
889
886
882
881
878
881
883
889
893
893
895
893
891
891
887
888
890
891
893
894
898
899
900
900
899
900
896
896
896
895
898
895
893
889
881
871
870
874
883
892
903
906
910
906
900
898
898
898
896
899
899
899
899
898
900
903
909
918
928
928
927
920
914
908
905
900
897
899
903
901
898
895
891
888
887
886
890
897
900
902
899
892
885
880
876
876
877
882
884
888
891
894
899
901
897
892
890
888
888
884
883
880
880
890
907
932
957
989
1021
1046
1064
1071
1057
1027
991
958
922
890
855
820
791
779
777
785
800
815
828
838
852
856
861
866
868
870
872
873
875
877
877
878
875
869
868
862
851
844
840
840
848
856
863
871
874
872
868
863
851
847
847
851
854
860
864
866
866
864
860
854
851
850
853
857
861
862
860
860
860
858
860
856
853
846
834
823
817
816
821
828
838
842
845
842
840
834
833
831
832
836
843
848
849
852
850
849
846
840
839
837
842
851
865
879
890
890
882
869
860
855
852
860
876
890
902
912
921
926
927
925
918
909
907
903
902
907
909
913
915
918
917
913
907
903
899
901
907
916
923
923
920
911
904
896
893
896
903
909
919
937
954
962
961
950
931
912
897
889
888
889
886
884
882
882
887
893
898
902
899
895
888
885
889
890
894
899
900
900
900
895
894
893
899
902
908
910
914
912
920
923
933
935
934
927
911
897
887
881
881
884
891
898
906
910
912
914
915
919
922
923
920
918
918
918
918
920
920
924
928
922
915
904
889
880
874
873
872
875
874
869
866
858
860
866
875
885
893
896
893
888
880
874
874
877
878
879
882
886
889
896
908
923
943
968
995
1028
1054
1071
1079
