858
870
888
934
1002
1097
1197
1282
1335
1350
1323
1241
1113
985
857
813
831
848
853
852
850
848
851
858
867
881
889
890
888
886
894
895
896
894
891
891
895
899
899
899
897
898
898
899
904
901
901
900
904
906
911
907
906
906
909
911
913
911
910
910
912
916
915
917
913
913
915
920
919
920
918
916
922
927
930
928
925
929
932
935
937
935
937
938
941
947
946
945
948
947
953
961
963
965
966
966
973
981
985
987
987
991
995
1004
1009
1013
1016
1021
1029
1041
1045
1048
1053
1058
1065
1074
1078
1083
1087
1089
1097
1107
1110
1112
1111
1112
1113
1111
1107
1098
1087
1075
1068
1057
1044
1027
1013
1002
990
981
970
961
947
938
934
931
925
919
911
906
907
906
903
901
896
895
898
899
897
893
890
890
892
892
892
893
889
887
890
895
894
894
891
889
892
895
893
893
892
890
892
896
896
896
891
890
893
896
898
896
892
893
898
903
902
901
897
896
899
901
900
898
896
895
895
895
896
897
892
894
895
899
900
895
895
894
895
898
897
895
893
896
897
899
900
897
896
894
899
899
900
897
894
894
894
898
898
898
896
896
898
901
901
898
895
896
896
900
899
896
895
896
899
901
901
902
899
899
902
904
903
900
900
899
900
905
903
901
902
900
904
907
907
903
901
904
907
905
908
908
904
905
907
907
906
903
904
906
905
909
910
912
911
912
914
919
921
920
919
921
924
927
925
923
921
918
918
916
918
912
909
907
910
914
913
913
914
910
912
915
917
916
914
912
915
919
922
919
917
911
903
902
898
901
913
949
1021
1116
1218
1306
1355
1380
1351
1259
1131
1003
875
852
883
896
898
890
886
890
896
907
915
921
925
928
930
933
935
933
933
934
934
938
940
937
936
937
941
945
947
945
940
940
942
948
948
949
946
948
949
949
953
947
951
951
955
956
958
955
956
957
957
964
962
962
957
961
965
969
967
968
967
968
972
976
976
975
977
977
982
988
988
989
989
994
998
999
1004
1006
1003
1008
1012
1018
1021
1024
1026
1031
1034
1042
1050
1053
1056
1062
1069
1077
1085
1088
1094
1098
1105
1113
1121
1123
1126
1132
1136
1145
1151
1152
1154
1158
1161
1161
1161
1156
1153
1146
1139
1134
1120
1108
1096
1085
1070
1059
1049
1038
1023
1010
1004
996
989
979
970
965
965
959
956
953
946
940
942
944
942
939
935
935
938
938
940
935
933
934
935
937
936
935
933
934
935
935
935
937
933
932
937
940
936
933
931
932
938
938
941
938
934
935
937
941
942
937
936
934
938
940
944
939
938
939
941
944
945
943
941
940
943
946
945
942
940
940
942
945
946
943
941
940
938
945
947
941
941
940
943
945
946
946
940
938
939
943
944
942
940
939
942
944
944
943
937
939
941
943
945
940
938
938
937
941
943
939
936
939
939
941
939
940
940
939
941
942
942
940
938
937
938
941
942
939
936
937
939
940
936
935
934
934
939
944
944
940
940
940
941
943
943
941
935
938
942
943
942
941
935
939
941
944
944
942
938
938
941
944
945
942
941
941
944
947
950
949
946
946
952
955
958
956
956
955
956
961
963
961
959
958
959
964
961
960
954
953
953
952
951
947
942
941
946
950
947
946
943
944
945
949
950
948
947
946
946
948
950
947
950
951
951
955
958
954
945
939
934
934
939
941
955
993
1063
1164
1265
1347
1401
1426
1412
1343
1215
1087
959
879
901
924
925
920
915
919
925
936
946
951
954
957
958
962
960
959
955
957
958
959
964
961
961
960
963
966
966
964
964
963
966
968
970
971
965
968
971
973
976
971
971
973
973
977
979
976
972
977
979
980
982
981
978
977
979
985
984
985
983
984
987
991
993
992
988
990
993
999
1001
1001
1000
998
1003
1011
1012
1012
1013
1013
1017
1024
1027
1024
1027
1030
1034
1041
1047
1049
1052
1056
1064
1071
1074
1078
1084
1088
1097
1104
1108
1113
1116
1119
1126
1135
1139
1142
1145
1149
1151
1159
1163
1166
1167
1167
1165
1167
1164
1153
1143
1136
1129
1121
1109
1097
1084
1072
1062
1049
1039
1025
1014
1004
997
995
985
980
973
967
964
963
962
959
952
950
952
952
951
944
941
944
943
946
944
944
935
937
940
944
943
940
937
936
939
944
942
941
938
940
940
942
943
939
935
936
941
942
941
938
936
938
941
941
943
939
938
937
943
944
943
941
936
938
939
943
942
939
935
939
937
941
943
940
937
935
938
942
941
938
936
935
936
938
938
936
931
932
934
933
937
936
933
931
933
937
936
933
931
931
929
935
936
933
930
931
933
936
934
934
930
931
932
936
937
934
930
930
933
937
936
932
928
930
932
935
932
931
930
929
931
932
935
930
928
927
930
934
934
929
927
926
930
933
931
931
927
926
926
932
932
930
928
924
929
932
931
931
927
926
930
934
932
928
926
927
927
932
930
929
927
927
927
932
929
927
926
926
929
935
933
928
922
925
929
931
933
930
927
925
930
933
931
931
927
928
930
933
933
932
931
928
931
933
935
932
929
931
932
936
939
938
936
940
943
948
947
945
943
947
952
953
953
950
947
946
946
948
949
948
941
938
938
939
940
938
934
933
937
939
940
938
934
935
937
941
942
941
939
940
943
945
946
946
944
941
948
949
946
937
929
922
922
928
942
968
1021
1101
1195
1286
1357
1404
1418
1397
1333
1211
1083
955
879
888
909
918
917
910
909
910
921
931
942
945
949
951
952
955
955
955
954
953
955
957
958
957
953
954
958
960
961
961
956
957
962
962
963
963
960
961
964
969
968
964
962
963
967
971
970
968
967
967
970
973
971
973
967
968
973
973
977
974
972
972
974
979
981
981
982
983
985
988
990
991
987
988
992
998
999
998
998
1000
1005
1007
1011
1008
1010
1013
1018
1025
1028
1030
1028
1032
1037
1043
1048
1051
1050
1057
1062
1071
1076
1080
1077
1086
1095
1101
1106
1109
1113
1114
1125
1130
1133
1137
1139
1142
1146
1150
1159
1157
1154
1158
1162
1161
1159
1150
1143
1133
1126
1120
1111
1096
1082
1069
1061
1053
1043
1028
1017
1008
1002
997
991
982
972
968
966
965
960
954
949
946
946
949
946
943
938
941
941
943
941
938
937
936
935
937
939
934
935
935
938
937
933
931
932
932
934
936
938
935
933
931
935
937
936
933
928
928
932
933
935
934
932
931
931
937
937
933
933
933
935
938
937
933
933
933
934
935
936
934
932
931
934
935
935
932
928
928
931
934
933
931
927
929
930
931
932
927
926
927
930
931
931
931
927
927
929
930
932
929
925
926
928
928
932
928
928
924
926
929
929
927
923
924
927
929
928
926
924
921
924
928
927
926
923
920
922
928
925
924
922
922
924
927
926
927
923
922
925
925
928
926
922
923
927
927
927
927
922
919
925
924
924
924
923
920
923
929
928
924
923
924
923
927
928
926
922
923
925
928
928
927
923
923
926
929
930
927
924
924
925
928
927
925
921
920
924
925
926
926
925
927
927
934
936
937
933
936
940
943
944
944
942
939
943
944
938
938
937
934
930
929
927
925
925
924
926
929
929
931
928
928
928
932
933
932
928
929
934
938
935
930
925
917
914
914
916
925
948
997
1077
1171
1261
1338
1381
1392
1363
1278
1150
1022
894
863
884
904
904
900
893
892
900
911
920
926
929
937
939
942
943
941
941
939
942
943
945
943
939
940
944
946
947
945
943
943
947
949
947
947
945
946
951
951
950
949
950
950
953
957
957
953
952
954
958
961
962
960
955
954
961
963
965
960
960
961
964
967
970
967
965
966
970
974
976
975
974
975
979
982
988
984
984
986
990
996
997
997
1000
1005
1008
1014
1018
1017
1018
1020
1029
1035
1042
1042
1045
1050
1057
1065
1072
1077
1075
1085
1092
1099
1102
1108
1113
1116
1122
1127
1133
1133
1136
1135
1139
1144
1143
1137
1134
1126
1122
1118
1106
1093
1078
1065
1052
1045
1033
1020
1005
994
985
982
972
963
954
945
944
942
941
935
928
928
926
927
926
924
915
917
920
923
921
918
914
915
916
921
922
919
913
914
915
918
921
917
915
915
916
919
919
916
915
915
918
922
921
918
915
918
919
924
923
922
917
916
921
923
925
921
913
914
915
922
920
919
916
916
918
920
917
915
913
911
914
915
917
916
914
911
914
912
916
915
912
912
913
915
915
913
910
910
914
915
913
910
900
907
913
916
915
912
907
905
909
914
915
913
909
910
908
912
911
908
906
907
909
911
912
911
907
907
911
912
910
911
908
907
910
912
910
909
905
906
908
908
911
907
908
908
909
912
912
910
909
907
909
913
911
911
907
907
912
914
915
911
910
912
917
923
923
922
918
920
923
928
927
927
922
919
923
927
923
920
916
915
915
917
915
912
909
910
910
916
916
913
910
909
913
916
915
916
912
912
914
918
920
917
916
915
917
919
908
903
897
892
901
918
950
1008
1086
1185
1281
1354
1387
1377
1316
1189
1061
933
855
869
887
891
891
891
893
894
900
907
920
930
932
931
926
928
932
930
932
933
930
931
934
937
939
937
933
934
936
936
941
941
937
938
941
944
944
943
942
941
943
950
950
947
943
945
952
953
952
950
950
949
954
956
958
953
952
957
957
961
960
960
961
962
967
969
969
968
969
972
976
980
981
984
984
988
989
997
1000
1001
1002
1006
1013
1014
1021
1021
1025
1031
1039
1046
1053
1053
1057
1063
1071
1080
1085
1088
1094
1099
1106
1112
1119
1121
1123
1131
1136
1141
1146
1147
1145
1140
1144
1141
1133
1124
1113
1100
1091
1081
1065
1051
1033
1020
1012
1003
993
982
972
966
962
955
950
943
937
935
932
933
929
921
920
920
919
922
922
917
917
914
915
916
918
916
914
912
917
918
919
919
914
916
916
921
922
917
916
917
918
923
923
919
918
918
920
919
924
922
920
921
922
926
924
922
920
921
922
924
922
923
919
918
922
924
922
921
919
920
920
924
924
920
919
918
920
924
922
922
918
917
920
921
920
920
918
916
917
920
920
915
918
915
917
919
918
917
914
916
917
918
919
919
912
914
914
919
918
918
913
914
916
919
920
917
915
917
919
921
920
919
918
918
920
921
923
920
918
917
920
923
923
921
918
919
921
924
921
919
918
919
920
925
924
923
921
920
922
926
923
923
920
921
925
926
926
925
923
920
928
928
931
928
931
932
933
940
938
937
936
936
943
945
943
940
938
937
940
943
945
940
936
931
934
934
933
929
929
929
930
932
930
930
928
929
932
934
934
931
927
929
932
936
937
939
935
935
939
941
940
931
923
917
915
915
921
931
962
1010
1091
1178
1264
1336
1385
1411
1403
1358
1247
1119
991
874
877
901
911
908
902
903
909
917
925
933
940
944
944
949
950
944
945
945
948
952
955
951
947
949
952
956
957
954
950
949
956
961
959
957
955
955
959
962
966
961
960
960
964
967
967
966
967
966
970
970
972
971
969
971
973
976
974
975
975
974
979
982
983
985
983
982
986
992
993
990
991
991
997
1001
1004
1006
1002
1007
1011
1016
1018
1022
1023
1026
1031
1035
1040
1042
1046
1048
1054
1066
1069
1073
1078
1083
1093
1098
1108
1110
1112
1116
1127
1134
1141
1142
1144
1152
1157
1165
1168
1167
1168
1169
1171
1172
1165
1155
1146
1139
1131
1123
1108
1093
1072
1060
1049
1040
1027
1015
1001
993
988
984
980
974
965
963
963
963
963
956
954
951
952
953
953
949
946
946
949
951
950
948
947
947
948
951
949
950
947
945
948
951
949
949
945
947
950
954
954
951
950
950
953
958
954
954
951
951
956
955
956
954
953
953
954
955
956
952
953
952
953
955
955
953
950
950
955
957
955
950
948
949
953
957
955
952
950
948
953
954
955
953
952
950
954
957
955
952
948
951
953
954
956
952
951
951
953
958
958
955
952
952
955
958
959
956
954
956
956
960
959
956
952
954
956
959
962
956
954
952
954
957
958
957
956
956
957
960
959
958
957
957
957
960
962
959
957
957
960
965
964
960
959
961
963
964
965
962
962
962
963
967
964
962
958
961
964
966
969
968
966
969
974
978
977
976
973
977
981
982
980
978
972
976
977
980
981
978
972
969
967
970
968
967
965
962
967
970
968
968
966
967
971
975
972
971
967
968
972
975
975
975
971
973
977
978
974
963
956
952
956
964
982
1016
1080
1171
1272
1359
1418
1451
1450
1410
1321
1193
1065
943
919
934
948
952
948
944
944
950
957
970
978
985
985
986
989
991
992
988
986
987
993
997
997
994
993
993
995
1001
999
997
998
999
1000
1002
1004
997
995
997
1004
1006
1007
1006
1004
1003
1006
1010
1013
1006
1007
1008
1012
1015
1018
1016
1013
1014
1016
1021
1023
1021
1017
1022
1025
1027
1030
1028
1028
1029
1032
1039
1039
1039
1037
1040
1043
1047
1051
1050
1053
1055
1058
1065
1068
1068
1072
1076
1079
1085
1091
1095
1095
1100
1108
1117
1120
1122
1126
1130
1140
1148
1153
1155
1160
1165
1175
1183
1187
1190
1192
1196
1204
1206
1211
1211
1210
1206
1204
1205
1197
1186
1177
1164
1157
1147
1135
1119
1102
1088
1080
1070
1060
1048
1038
1027
1025
1024
1015
1006
1003
1001
1000
998
999
993
990
990
990
991
991
988
985
985
987
989
988
985
983
982
987
989
987
987
984
984
987
988
987
983
981
983
984
986
988
984
984
983
987
991
991
988
983
983
986
988
989
985
982
984
986
988
988
984
982
985
987
990
988
982
980
981
984
985
984
981
981
982
983
984
986
984
981
981
985
986
987
986
979
981
983
988
988
987
982
986
987
990
990
989
984
985
986
989
988
986
984
984
989
990
988
987
983
985
986
990
990
986
984
984
987
991
991
988
985
985
988
990
991
988
988
988
990
996
991
991
986
988
991
994
995
989
986
986
988
993
994
989
987
988
992
994
994
990
989
990
991
993
993
992
990
989
992
995
995
990
992
990
994
995
996
995
994
993
996
998
997
995
993
992
994
998
998
996
994
994
996
1002
998
1000
995
997
1000
1005
1006
1006
1004
1003
1008
1014
1011
1009
1011
1011
1015
1020
1018
1014
1011
1008
1013
1020
1017
1013
1009
1006
1009
1010
1009
1005
1002
1002
1004
1008
1001
1005
1002
1003
1006
1012
1010
1008
1006
1003
1007
1010
1011
1009
1010
1010
1013
1016
1018
1013
1008
996
997
994
993
998
1017
1051
1120
1210
1305
1386
1442
1481
1480
1434
1323
1195
1067
948
954
982
990
983
977
978
979
990
998
1005
1012
1019
1023
1027
1026
1020
1020
1022
1023
1027
1027
1027
1024
1025
1027
1029
1028
1027
1027
1029
1031
1033
1035
1034
1030
1031
1034
1039
1038
1036
1033
1034
1037
1038
1041
1039
1037
1035
1042
1046
1046
1041
1043
1039
1047
1049
1050
1048
1046
1047
1047
1056
1057
1057
1055
1056
1060
1065
1064
1064
1063
1063
1065
1072
1075
1074
1075
1080
1085
1089
1091
1092
1092
1091
1102
1105
1111
1113
1114
1118
1125
1134
1136
1141
1145
1150
1156
1164
1170
1176
1181
1186
1194
1200
1204
1206
1211
1215
1221
1227
1232
1231
1233
1233
1235
1235
1230
1223
1212
1205
1196
1190
1178
1165
1151
1138
1129
1118
1105
1093
1083
1073
1068
1062
1052
1046
1041
1034
1028
1030
1026
1020
1013
1011
1015
1015
1015
1012
1007
1010
1009
1011
1010
1008
1004
1006
1006
1008
1009
1008
1001
1004
1005
1006
1006
1002
1005
1004
1007
1009
1009
1008
1005
1004
1010
1010
1012
1006
1005
1006
1010
1010
1012
1010
1007
1008
1010
1013
1010
1011
1010
1007
1012
1013
1011
1007
1008
1005
1008
1010
1009
1008
1007
1004
1008
1011
1008
1002
1003
1004
1004
1008
1004
1005
1003
1002
1005
1007
1006
1004
1005
1002
1005
1006
1004
1004
1002
1001
1004
1008
1006
1005
1003
1004
1003
1006
1002
1002
1000
999
1003
1003
1006
1005
1002
1000
1003
1008
1004
1003
1002
999
1004
1005
1004
1001
1002
1001
1004
1007
1005
1004
1001
1001
1004
1009
1008
1005
1000
1002
1007
1007
1009
1003
1002
1002
1004
1007
1007
1005
1000
999
1000
1004
1004
1006
1000
1000
1007
1009
1007
1005
1004
1004
1008
1011
1009
1008
1010
1008
1016
1020
1021
1017
1014
1014
1019
1022
1024
1020
1015
1017
1021
1022
1023
1019
1015
1012
1015
1014
1012
1006
1004
1003
1005
1005
1007
1006
1003
1000
1006
1009
1008
1005
1002
1006
1010
1013
1012
1009
1009
1008
1012
1017
1012
1006
994
990
988
991
998
1029
1084
1172
1280
1377
1447
1473
1460
1389
1261
1133
1005
939
957
976
984
978
976
975
976
984
993
1009
1012
1015
1016
1017
1017
1020
1021
1019
1018
1019
1020
1024
1026
1023
1023
1021
1025
1030
1028
1028
1024
1024
1029
1030
1032
1031
1026
1030
1031
1035
1034
1033
1032
1033
1037
1037
1037
1038
1034
1036
1041
1044
1044
1041
1039
1040
1044
1047
1045
1046
1044
1043
1052
1054
1057
1055
1058
1057
1062
1065
1067
1067
1070
1070
1075
1079
1081
1082
1083
1086
1093
1096
1098
1097
1103
1105
1113
1118
1125
1127
1128
1131
1140
1147
1153
1157
1163
1167
1174
1185
1189
1191
1193
1199
1209
1215
1221
1222
1225
1230
1235
1241
1244
1242
1240
1234
1234
1232
1224
1212
1197
1187
1179
1171
1154
1140
1127
1112
1105
1098
1085
1073
1064
1056
1052
1048
1043
1036
1029
1026
1024
1024
1019
1017
1014
1013
1011
1014
1012
1005
1007
1004
1007
1009
1008
1006
1003
1004
1004
1006
1008
1005
1004
1004
1008
1009
1009
1006
1003
1004
1006
1008
1010
1008
1003
1006
1006
1011
1006
1006
1006
1007
1009
1013
1011
1008
1009
1005
1010
1012
1011
1010
1008
1007
1009
1012
1007
1009
1005
1006
1006
1012
1009
1005
1006
1005
1010
1013
1008
1006
1003
1003
1006
1011
1008
1005
1005
1004
1006
1008
1008
1006
1003
1002
1005
1009
1004
1003
1001
1002
1002
1005
1005
1000
1000
1001
1006
1006
1007
1002
1001
1000
1004
1008
1006
1003
1001
999
1002
1003
1002
1000
996
998
1002
1003
1004
1000
999
999
1003
1004
1003
1003
996
1000
