940
939
937
943
946
945
940
936
937
938
936
934
931
930
934
937
934
934
932
930
932
937
938
936
935
934
937
941
942
942
942
939
941
942
938
929
918
915
920
936
966
1021
1099
1205
1308
1389
1435
1446
1413
1324
1196
1068
940
883
893
908
913
914
911
911
915
923
932
946
951
953
951
950
954
954
960
959
956
956
956
961
961
961
960
957
960
964
965
963
962
960
962
967
970
967
967
966
965
970
970
971
968
965
971
974
978
975
973
974
975
977
979
979
977
981
983
985
985
987
985
985
989
992
995
994
993
993
996
1003
1005
1005
1003
1003
1008
1012
1015
1016
1018
1016
1022
1028
1032
1035
1032
1036
1042
1049
1054
1057
1059
1063
1068
1074
1081
1087
1089
1092
1103
1112
1119
1123
1127
1132
1140
1149
1158
1160
1164
1168
1170
1177
1186
1182
1184
1180
1182
1180
1173
1167
1156
1140
1133
1123
1110
1095
1083
1068
1057
1046
1036
1021
1007
1000
994
991
987
978
972
967
966
965
961
958
955
951
954
955
954
953
950
947
946
952
950
950
944
946
945
947
948
948
946
945
947
949
951
949
947
945
948
948
947
950
947
948
949
951
951
951
946
947
950
953
954
953
949
948
949
951
952
952
950
949
951
952
953
951
948
947
949
953
952
950
948
948
950
952
951
950
944
943
944
948
950
949
946
947
947
952
950
948
945
948
951
953
952
951
949
947
950
951
953
950
948
946
948
949
953
948
946
947
949
953
951
951
948
950
950
953
951
954
951
948
952
954
956
953
952
952
955
955
957
956
953
950
953
958
958
953
952
954
957
959
959
958
956
953
958
959
959
960
954
957
959
961
963
961
960
954
958
963
963
960
958
961
963
967
967
967
966
967
968
972
975
976
974
973
974
979
981
981
982
980
979
981
982
980
976
976
974
978
975
973
968
966
966
970
970
971
967
969
971
972
974
972
970
966
971
975
976
974
970
974
977
980
981
980
973
968
962
961
957
954
957
972
1010
1072
1160
1253
1337
1399
1439
1449
1411
1309
1181
1053
925
917
939
952
947
939
943
949
950
955
958
966
979
985
992
988
986
986
986
991
994
990
989
991
993
997
998
998
994
993
998
1001
1001
998
999
995
997
1002
1001
1003
1000
999
1002
1007
1007
1008
1002
1004
1006
1009
1009
1008
1006
1007
1012
1013
1016
1015
1013
1013
1016
1020
1019
1021
1020
1018
1021
1023
1027
1027
1027
1027
1027
1035
1038
1037
1037
1037
1042
1045
1052
1048
1051
1048
1055
1057
1062
1064
1063
1064
1074
1077
1083
1084
1089
1093
1101
1107
1112
1120
1121
1124
1132
1140
1147
1152
1154
1158
1165
1171
1178
1180
1183
1185
1191
1199
1207
1209
1208
1206
1209
1210
1204
1195
1190
1178
1171
1164
1154
1141
1125
1112
1103
1092
1078
1064
1051
1039
1031
1025
1020
1011
1002
996
994
992
988
982
977
976
975
977
976
974
968
969
970
972
971
968
965
965
967
968
967
967
963
963
963
966
967
965
963
961
964
967
970
966
965
964
963
967
969
969
966
966
966
969
970
967
963
966
968
970
967
968
964
965
966
970
969
967
963
963
964
968
968
965
960
959
962
964
965
963
962
960
959
960
961
961
960
955
960
961
961
959
957
956
958
962
957
957
954
953
957
957
960
958
955
954
955
957
958
956
954
956
953
958
958
956
954
952
956
956
956
957
952
952
953
957
959
956
954
956
963
966
970
968
966
966
967
972
976
976
976
978
979
982
982
976
966
966
967
968
971
969
964
960
960
960
960
953
952
956
956
958
956
957
955
955
957
960
958
958
956
955
957
960
962
961
958
959
963
964
963
960
954
945
939
936
938
946
965
1009
1075
1166
1256
1334
1390
1428
1440
1419
1339
1211
1083
955
892
905
924
926
917
918
922
928
930
934
943
952
959
966
964
964
962
958
963
966
965
966
964
967
967
970
971
967
965
967
970
969
971
971
967
967
972
975
978
976
971
974
972
977
977
979
975
974
977
980
981
983
982
980
983
986
988
990
984
987
987
992
994
994
993
993
996
1001
1004
1001
1000
1000
1001
1007
1011
1011
1011
1012
1015
1020
1024
1023
1026
1027
1031
1034
1038
1040
1042
1046
1051
1057
1062
1066
1066
1073
1078
1086
1092
1100
1101
1105
1111
1118
1130
1136
1138
1145
1153
1160
1167
1171
1171
1175
1184
1189
1196
1193
1193
1190
1187
1186
1180
1168
1155
1143
1129
1119
1105
1090
1073
1057
1046
1036
1027
1015
1005
996
987
986
980
974
966
961
961
960
959
957
949
950
950
949
950
949
945
945
946
945
946
947
944
942
944
947
949
947
946
943
944
949
948
945
947
946
947
948
950
948
947
946
949
950
952
946
946
945
949
951
952
950
948
950
949
952
953
950
949
947
947
953
951
948
943
946
946
949
947
946
943
946
946
945
948
946
943
943
945
947
947
947
943
940
941
947
949
946
942
937
941
942
947
946
942
942
944
946
945
941
938
939
940
944
945
943
940
941
939
944
944
944
942
939
945
943
947
946
944
941
945
946
947
945
940
940
943
943
944
942
942
946
945
946
947
944
945
945
947
953
956
956
957
958
958
959
960
963
962
966
965
970
974
971
967
967
967
966
965
961
957
957
952
954
953
952
946
943
948
950
949
946
944
947
950
951
951
950
948
949
952
954
954
950
952
954
956
961
961
959
954
948
946
942
939
938
943
965
1012
1086
1189
1291
1374
1428
1450
1422
1326
1198
1070
942
888
916
930
928
922
922
928
939
946
954
960
967
967
970
969
971
967
967
965
972
974
972
970
972
972
976
976
975
976
975
977
979
979
975
976
977
976
979
982
981
980
978
980
983
986
985
983
981
986
988
991
987
988
988
990
992
996
993
993
992
996
1000
1002
1002
998
998
1003
1008
1009
1008
1009
1009
1014
1019
1021
1022
1022
1025
1029
1034
1037
1038
1039
1040
1045
1050
1052
1057
1059
1060
1067
1074
1079
1084
1086
1089
1098
1106
1113
1118
1120
1127
1131
1139
1149
1151
1152
1158
1164
1170
1177
1182
1179
1185
1189
1193
1194
1190
1184
1178
1175
1168
1161
1148
1135
1123
1109
1101
1088
1073
1058
1048
1034
1031
1021
1011
1001
995
990
989
982
977
971
969
965
966
965
961
959
955
957
958
958
956
952
952
952
955
954
953
951
947
949
956
954
953
953
949
954
954
956
954
954
950
956
957
957
958
954
956
956
958
959
956
952
953
953
958
958
956
954
953
957
959
960
956
952
954
957
959
959
957
955
954
956
956
958
954
951
951
952
953
954
952
952
950
951
951
951
952
952
950
950
953
949
949
948
946
949
952
954
951
950
947
948
953
951
951
949
945
947
948
952
951
949
947
945
947
952
948
946
947
949
950
949
946
947
946
948
951
953
948
948
946
949
950
952
949
950
948
949
951
952
949
947
946
949
952
952
952
950
948
949
951
952
951
950
948
950
952
956
952
946
946
950
950
952
951
948
950
952
953
954
950
946
947
949
954
955
954
952
951
954
956
957
957
953
951
957
959
962
961
959
962
966
972
970
967
966
968
973
976
974
969
967
966
967
973
970
969
961
960
959
963
960
958
956
956
956
959
961
959
958
956
959
960
962
962
958
958
960
965
965
965
964
965
966
964
955
949
942
942
953
986
1054
1151
1261
1357
1425
1452
1423
1331
1203
1075
947
899
928
941
935
930
932
939
947
955
960
968
974
976
975
974
968
971
973
975
979
977
976
976
979
980
982
979
978
977
981
981
984
984
981
981
982
983
987
984
983
982
985
986
990
988
988
985
989
994
995
992
990
990
994
996
999
998
995
996
999
1002
1003
1004
1000
1003
1005
1009
1008
1011
1011
1010
1014
1020
1020
1021
1021
1022
1026
1029
1033
1032
1033
1035
1041
1048
1050
1051
1048
1052
1061
1068
1071
1074
1077
1084
1091
1099
1105
1109
1113
1115
1126
1133
1140
1145
1147
1154
1162
1168
1174
1175
1176
1181
1184
1191
1194
1192
1185
1183
1174
1176
1168
1157
1140
1131
1120
1108
1095
1081
1061
1049
1039
1030
1020
1007
997
991
988
985
983
975
969
966
963
966
967
964
959
957
957
957
960
956
954
953
956
955
957
952
952
952
953
955
953
954
951
950
951
958
956
953
951
952
950
953
951
953
952
952
952
955
956
952
951
949
952
955
957
954
950
949
954
952
955
953
948
949
953
952
956
952
950
948
950
954
952
950
945
943
949
952
954
950
948
946
949
952
951
949
948
944
949
949
950
946
943
942
944
948
951
947
947
944
945
948
948
947
940
942
944
947
947
945
945
942
946
947
949
947
944
943
946
946
947
946
942
940
943
946
945
942
941
943
942
946
946
944
942
940
941
946
949
948
945
947
948
950
949
949
944
944
946
949
947
946
944
945
947
947
949
946
940
945
945
950
949
949
944
945
947
952
952
953
953
951
959
960
962
963
959
960
962
968
967
966
961
961
962
965
967
963
957
956
957
956
955
953
952
949
950
953
956
953
950
949
949
953
956
953
950
946
952
953
957
957
956
957
959
961
957
948
937
932
932
942
962
999
1062
1155
1259
1348
1408
1429
1413
1348
1226
1098
970
892
897
917
925
925
923
919
922
925
934
946
959
964
964
963
963
966
967
967
966
964
966
971
972
970
972
970
972
974
978
978
976
974
976
982
982
981
979
978
981
982
981
979
982
982
986
987
986
986
987
985
989
992
991
991
992
993
995
997
997
999
1000
998
1003
1005
1007
1009
1008
1008
1012
1017
1021
1020
1021
1024
1029
1032
1038
1037
1039
1043
1050
1054
1060
1063
1063
1068
1077
1086
1090
1097
1099
1104
1110
1119
1128
1133
1135
1140
1147
1155
1161
1166
1168
1173
1177
1184
1186
1184
1182
1178
1175
1170
1162
1151
1133
1123
1110
1099
1083
1066
1053
1038
1024
1017
1008
998
988
978
976
975
974
967
963
959
960
960
960
952
948
950
948
950
952
950
948
946
948
951
952
949
949
945
946
949
949
948
946
946
945
953
953
952
948
948
952
954
957
953
952
950
954
955
956
954
952
950
953
956
957
956
952
950
948
952
955
953
948
949
949
951
952
950
946
945
947
951
952
948
946
946
946
951
952
951
949
946
949
950
951
947
945
944
947
949
947
949
945
946
945
948
949
942
943
944
947
949
948
946
944
944
946
949
947
947
944
945
946
950
950
947
943
944
948
949
948
950
943
942
946
951
953
953
951
952
956
962
964
961
959
960
963
967
970
970
969
966
969
966
966
960
956
957
957
958
956
952
947
948
944
948
946
946
947
942
945
951
951
950
948
947
949
951
953
951
948
952
953
957
956
959
952
945
941
937
932
932
934
953
996
1067
1167
1267
1352
1406
1431
1408
1316
1188
1060
932
884
913
930
927
918
917
922
931
941
949
955
960
963
964
965
965
962
961
961
968
970
968
964
965
966
971
972
970
967
967
969
974
975
975
973
973
971
977
979
975
977
977
978
980
985
984
983
980
982
984
986
986
983
986
986
990
993
993
990
991
993
998
1000
1002
995
999
1005
1008
1010
1010
1009
1012
1017
1024
1025
1027
1028
1032
1036
1043
1044
1051
1051
1053
1063
1069
1076
1083
1082
1089
1101
1108
1113
1116
1119
1127
1135
1145
1148
1154
1157
1161
1168
1177
1179
1180
1181
1180
1182
1179
1174
1165
1154
1143
1134
1122
1111
1096
1079
1066
1053
1045
1035
1020
1011
1000
993
989
984
978
970
964
963
963
959
956
950
949
949
952
951
949
947
943
946
947
947
943
942
941
942
945
945
943
942
942
945
944
947
947
945
942
945
949
947
949
945
943
947
949
952
949
948
947
948
948
949
947
945
945
944
949
951
950
946
946
945
946
949
947
942
943
943
944
945
947
942
944
943
946
946
948
943
944
943
947
946
945
943
941
942
944
946
943
939
941
940
944
944
941
940
940
941
945
945
942
941
941
944
947
945
944
942
939
942
944
941
941
938
937
940
941
942
942
937
938
941
942
944
942
941
941
943
946
946
940
941
941
942
941
941
945
943
943
943
942
947
945
944
941
941
946
947
944
943
941
943
943
944
944
941
936
941
944
946
940
941
942
944
943
945
943
942
939
942
945
946
945
944
944
943
943
947
942
944
941
943
946
947
944
943
944
945
948
950
949
947
947
950
957
958
958
959
957
956
960
963
961
957
955
956
961
965
959
955
953
951
952
950
948
947
945
947
948
949
949
946
948
949
951
954
954
950
950
951
956
957
956
951
953
951
952
943
934
929
930
950
987
1051
1134
1232
1324
1394
1426
1417
1347
1219
1091
963
880
903
924
922
919
917
923
933
938
948
955
960
961
962
959
957
957
959
963
965
963
958
957
961
963
964
961
961
963
965
968
969
963
965
965
965
969
970
967
966
966
968
974
975
974
971
973
975
980
979
978
974
975
980
984
986
981
981
982
986
991
991
990
986
988
989
997
996
999
996
996
1003
1004
1008
1008
1010
1008
1016
1020
1024
1025
1024
1028
1032
1040
1044
1046
1046
1049
1058
1063
1069
1072
1076
1078
1085
1093
1099
1103
1106
1110
1117
1127
1132
1133
1137
1138
1145
1155
1160
1162
1164
1164
1168
1171
1177
1173
1167
1161
1154
1151
1145
1134
1120
1110
1098
1090
1077
1064
1047
1036
1029
1020
1012
1003
993
981
978
976
971
967
961
957
954
954
950
948
944
942
943
945
942
940
938
936
938
940
939
935
933
936
938
940
940
939
934
934
938
938
939
937
934
935
935
937
938
935
934
935
938
938
938
936
935
935
936
938
938
937
933
935
937
939
941
937
933
931
935
937
937
936
934
934
935
936
936
935
929
930
933
934
934
935
928
928
931
931
933
929
927
927
930
932
932
932
931
932
931
933
934
934
929
927
931
933
933
930
927
929
929
932
933
928
926
928
930
931
931
932
930
929
929
933
933
930
927
930
928
933
933
931
928
928
930
930
932
930
927
927
929
932
932
931
928
924
929
929
929
929
929
931
931
933
933
931
928
928
929
929
930
931
930
928
931
934
933
933
931
932
933
936
935
935
931
933
931
935
935
934
932
929
933
936
936
933
929
929
930
935
934
935
931
929
933
936
936
934
934
930
935
938
937
933
933
931
936
937
938
936
932
933
937
939
937
936
930
932
935
939
939
936
933
931
936
937
938
940
936
935
940
942
943
945
944
946
949
951
953
952
949
949
952
952
954
955
951
946
950
956
957
952
950
946
949
951
948
944
939
939
942
944
943
941
941
940
942
946
947
945
944
940
948
948
949
948
945
945
948
953
954
952
945
941
935
932
927
927
928
944
976
1031
1113
1203
1290
1368
1419
1444
1431
1368
1256
1128
1000
903
896
909
915
910
911
914
921
920
926
934
945
955
959
962
958
959
960
963
965
962
964
960
966
969
967
964
966
964
964
970
971
971
966
966
970
972
973
970
970
972
972
977
977
976
973
973
978
980
978
978
978
978
980
982
984
983
981
981
987
987
989
987
986
989
992
995
997
994
993
993
995
1000
1003
1001
1002
1005
1009
1013
1014
1014
1013
1015
1018
1021
1026
1029
1030
1030
1034
1038
1043
1045
1050
1055
1061
1069
1072
1076
1079
1083
1090
1098
1103
1106
1109
1115
1121
1127
1135
1140
1143
1148
1150
1158
1164
1170
1172
1176
1178
1183
1187
1186
1181
1179
1178
1175
1169
1158
1146
1136
1127
1116
1106
1091
1075
1060
1053
1045
1032
1019
1008
999
996
993
984
975
969
965
965
966
959
957
953
950
949
950
952
947
944
939
944
945
947
941
941
939
942
944
945
943
939
937
939
943
943
943
938
939
941
944
944
942
940
937
938
946
944
945
943
942
942
942
944
944
941
939
942
945
944
943
941
939
943
944
946
944
940
941
940
943
945
942
936
935
941
944
943
941
940
936
940
940
942
938
935
935
938
941
941
938
937
937
936
939
937
939
936
936
936
939
937
935
930
933
934
933
938
935
933
934
938
940
937
938
934
933
937
939
939
936
933
933
937
938
937
935
935
933
936
937
938
935
933
931
934
938
938
938
933
933
937
939
938
936
935
935
936
940
938
937
935
935
938
941
939
937
935
937
937
942
941
938
936
938
940
941
940
942
939
939
939
942
944
943
938
938
939
943
945
941
938
941
942
948
949
945
944
947
951
955
957
956
953
957
960
964
960
956
957
959
961
964
964
959
954
951
952
952
951
947
944
946
947
949
947
948
947
947
950
952
951
952
949
947
951
954
955
953
952
950
955
957
956
950
938
933
931
933
939
955
993
1061
1157
1259
1341
1393
1413
1396
1332
1222
1094
966
894
897
917
928
925
921
918
923
924
936
944
954
959
964
966
970
968
970
969
967
968
972
973
973
971
971
975
976
977
975
973
974
975
978
979
979
978
979
981
982
984
981
981
977
982
985
984
982
983
985
986
991
990
990
988
989
989
996
996
992
991
993
999
1003
1004
1001
1001
1001
1004
1009
1011
1011
1014
1014
1015
1019
1023
1021
1022
1024
1026
1031
1034
1036
1040
1040
1046
1054
1055
1058
1058
1062
1072
1076
1083
1086
1088
1093
1098
1105
1113
1116
1121
1128
1134
1143
1148
1150
1152
1157
1165
1170
1177
1178
1178
1180
1182
1185
1183
1174
1165
1158
1152
1141
1130
1115
1100
1085
1075
1063
1052
1039
1025
1016
1008
1003
997
988
980
973
972
970
971
969
962
960
958
964
962
960
956
954
956
956
956
954
952
952
952
955
954
952
947
950
951
956
957
956
955
955
956
958
957
958
957
955
959
960
961
960
958
957
958
961
960
960
954
955
957
958
960
960
954
955
957
959
960
959
953
953
952
958
956
952
949
952
954
954
953
953
950
950
953
954
954
950
