928
929
932
931
928
928
928
931
933
931
927
925
929
933
930
932
930
929
930
934
934
933
929
927
927
933
937
934
932
931
932
934
933
934
930
928
930
934
934
933
930
928
929
932
933
933
929
927
928
928
932
932
924
927
927
930
928
928
925
926
927
931
932
930
926
926
926
930
931
929
927
926
928
929
929
931
929
926
930
932
931
930
927
923
927
931
933
933
930
926
931
933
933
932
928
930
930
931
934
933
932
929
930
932
936
933
931
931
933
933
935
933
930
928
933
936
938
934
933
932
933
936
939
937
933
933
931
937
939
937
935
933
938
939
940
939
936
936
939
938
942
940
938
936
938
940
938
941
939
936
941
941
944
943
943
940
945
947
947
950
949
949
951
955
954
955
956
956
955
957
959
959
958
954
953
955
955
952
947
943
946
948
948
946
945
945
945
947
952
948
948
948
951
953
954
952
951
952
957
959
961
960
957
949
943
940
939
935
941
962
1003
1073
1162
1258
1343
1402
1436
1431
1365
1237
1109
981
901
908
927
929
929
923
929
933
936
947
952
960
967
971
972
970
967
967
969
973
974
974
970
969
971
976
978
978
975
973
976
979
983
981
978
978
983
985
988
985
983
982
985
988
989
987
987
987
988
988
992
991
992
991
994
997
997
999
996
996
995
1000
1002
1001
1000
1002
1004
1010
1012
1014
1010
1011
1015
1016
1022
1020
1019
1021
1026
1030
1034
1032
1033
1036
1040
1044
1052
1053
1052
1056
1062
1066
1074
1077
1080
1083
1089
1100
1105
1109
1110
1114
1123
1130
1136
1141
1144
1147
1155
1162
1168
1173
1172
1178
1183
1188
1191
1188
1186
1182
1182
1174
1171
1158
1147
1131
1124
1114
1103
1091
1076
1063
1053
1047
1040
1031
1022
1014
1005
1006
1003
997
991
987
986
984
983
978
975
974
973
975
974
975
970
967
970
972
970
968
965
967
969
972
971
970
965
967
969
971
971
974
970
971
971
973
973
974
972
971
971
976
976
973
972
969
972
974
976
979
974
974
975
976
977
975
972
971
975
975
977
976
972
969
973
974
977
973
972
971
971
973
976
974
970
971
972
976
975
974
973
970
973
975
977
974
972
969
971
974
976
971
969
968
970
972
972
972
968
967
969
972
976
973
972
971
972
976
977
977
973
972
974
976
978
975
970
972
973
977
978
972
973
971
972
975
976
974
973
971
974
977
976
978
974
971
973
976
979
976
973
973
975
976
980
980
976
974
976
979
979
979
977
977
974
979
982
979
976
978
978
980
983
980
981
979
982
983
983
980
980
976
981
984
986
986
985
984
988
992
995
998
993
991
991
996
996
1000
999
998
997
998
1001
1001
999
997
996
996
998
993
987
986
986
988
990
986
987
985
987
990
992
991
989
987
986
988
993
992
991
988
993
995
996
996
995
990
993
992
985
976
971
968
976
990
1023
1073
1150
1240
1331
1404
1450
1466
1441
1363
1235
1107
979
941
948
964
967
968
968
969
968
972
984
992
1002
1007
1006
1008
1010
1016
1018
1012
1010
1009
1013
1017
1018
1015
1014
1014
1016
1019
1021
1019
1018
1020
1022
1024
1026
1026
1021
1022
1023
1026
1026
1027
1024
1023
1024
1027
1030
1030
1029
1029
1032
1036
1035
1034
1032
1034
1034
1039
1040
1041
1040
1040
1041
1047
1049
1048
1048
1047
1050
1054
1059
1056
1057
1057
1061
1068
1069
1072
1070
1069
1072
1079
1083
1085
1084
1087
1092
1098
1103
1106
1108
1111
1117
1125
1128
1133
1136
1140
1149
1155
1163
1166
1169
1172
1177
1186
1191
1195
1198
1203
1210
1216
1220
1224
1222
1223
1227
1228
1224
1220
1210
1203
1194
1184
1172
1157
1144
1130
1119
1110
1098
1087
1075
1064
1054
1051
1047
1037
1030
1025
1020
1020
1018
1014
1010
1006
1006
1003
1007
1005
1001
999
1001
1002
1005
1002
1002
999
1002
1003
1006
1004
1001
1000
999
1003
1005
1005
1003
1002
1001
1003
1006
1006
1001
1002
1006
1008
1010
1009
1005
1002
1004
1008
1010
1008
1007
1004
1005
1009
1008
1005
1005
1003
1004
1008
1005
1005
1002
1000
1002
1006
1008
1005
1005
1002
1003
1005
1005
1005
1000
998
1000
1002
1003
1003
1001
995
996
1000
1006
1000
998
995
999
1001
1003
1003
999
999
1001
1001
1002
1000
997
996
997
1000
1001
999
999
996
996
1000
1000
1000
998
996
997
1000
1001
998
997
996
999
1001
1000
998
997
995
997
1001
1002
997
995
993
997
1001
1000
1000
999
1000
1004
1008
1008
1011
1009
1008
1009
1013
1016
1015
1015
1016
1018
1020
1020
1015
1010
1007
1009
1011
1008
1004
999
994
999
1000
1000
998
995
997
998
1001
1003
1001
998
996
996
1001
1001
1002
1000
999
1000
1004
1008
1007
1005
1003
1001
995
989
984
982
985
1009
1055
1125
1212
1306
1387
1445
1471
1451
1378
1250
1122
994
944
955
971
972
967
969
972
977
980
986
995
1004
1013
1016
1012
1010
1009
1011
1014
1016
1015
1012
1010
1012
1016
1018
1018
1017
1012
1015
1019
1020
1022
1020
1017
1020
1024
1025
1023
1020
1020
1024
1025
1029
1024
1024
1024
1026
1029
1029
1028
1025
1026
1029
1033
1033
1035
1032
1031
1035
1038
1041
1038
1039
1038
1041
1045
1046
1046
1045
1044
1050
1053
1056
1058
1057
1058
1063
1067
1069
1068
1065
1070
1078
1083
1089
1090
1088
1092
1098
1108
1115
1117
1117
1122
1129
1139
1146
1150
1154
1156
1167
1173
1180
1182
1185
1189
1197
1200
1208
1211
1213
1212
1215
1220
1219
1218
1209
1202
1198
1194
1184
1171
1155
1142
1131
1122
1111
1099
1084
1071
1063
1056
1049
1040
1032
1022
1020
1017
1017
1008
1004
1000
999
998
996
995
989
989
990
995
995
992
990
989
990
992
991
987
988
985
986
990
992
990
989
986
989
992
993
989
987
987
987
993
993
991
986
986
988
991
992
991
987
987
986
992
991
992
985
986
988
991
990
989
985
985
985
988
988
985
984
984
984
988
985
983
981
980
982
985
986
985
983
981
982
985
985
985
981
981
982
983
985
982
976
978
979
983
984
981
979
974
979
980
981
983
981
976
979
981
982
978
974
978
977
980
981
980
978
976
974
979
984
981
978
976
977
977
979
980
974
977
978
981
982
979
977
978
979
979
979
977
974
974
975
980
984
980
978
976
978
981
979
978
977
979
980
981
981
979
978
978
981
982
979
979
978
978
982
985
988
989
986
986
989
992
994
993
995
994
993
996
997
995
992
993
991
992
990
983
979
980
979
981
981
981
978
979
978
980
984
983
977
981
983
984
987
985
984
983
985
987
991
988
984
980
977
973
969
966
970
985
1021
1086
1175
1268
1352
1411
1440
1433
1371
1246
1118
990
915
931
954
957
950
949
950
960
970
976
981
985
990
991
992
993
989
989
992
997
997
993
992
993
995
994
1000
996
994
996
997
999
1000
999
997
996
999
1002
1004
1003
999
1000
1002
1006
1007
1006
1005
1004
1006
1008
1012
1011
1008
1010
1010
1012
1016
1014
1013
1011
1015
1021
1023
1020
1018
1021
1025
1026
1031
1029
1029
1029
1032
1040
1042
1042
1043
1043
1050
1054
1060
1060
1060
1061
1066
1077
1082
1086
1088
1091
1099
1108
1111
1115
1118
1124
1133
1142
1149
1153
1155
1157
1166
1175
1177
1182
1182
1184
1187
1193
1193
1191
1184
1181
1175
1169
1159
1145
1136
1123
1111
1102
1090
1075
1061
1047
1040
1032
1026
1017
1007
999
994
995
991
986
981
974
976
976
976
974
971
968
970
973
970
967
966
965
966
971
967
966
963
964
965
967
967
967
964
964
966
969
969
966
965
964
967
969
971
968
967
966
967
971
969
967
965
965
964
969
971
967
965
965
966
970
969
964
963
961
964
965
966
963
959
958
958
959
961
960
958
955
956
960
960
959
956
955
957
960
959
960
953
953
956
957
957
956
954
954
954
958
958
957
952
951
954
956
959
956
953
952
952
956
959
956
951
949
953
953
957
954
953
951
954
955
955
953
950
949
950
957
954
955
948
951
952
955
954
954
952
950
950
954
956
951
950
950
951
955
955
955
952
948
949
950
954
953
948
950
951
956
954
954
950
949
950
953
954
948
948
950
948
953
955
949
949
948
948
950
953
952
946
945
950
951
954
952
947
946
948
951
953
953
951
951
953
956
959
960
961
962
963
965
968
968
967
968
967
970
968
966
964
965
964
964
964
959
957
953
953
959
958
959
956
957
958
960
960
957
956
957
960
962
962
962
960
960
962
967
969
967
964
957
955
952
949
948
954
975
1023
1097
1193
1293
1373
1424
1440
1407
1302
1174
1046
918
907
933
945
941
937
938
945
957
968
975
978
978
978
982
985
983
979
981
985
985
988
987
985
986
988
991
993
991
989
989
989
994
997
996
994
994
998
997
1001
1001
1000
1000
1004
1007
1011
1011
1008
1009
1010
1016
1018
1020
1021
1022
1025
1029
1035
1038
1039
1040
1046
1053
1056
1060
1058
1063
1069
1077
1084
1089
1090
1097
1103
1113
1118
1125
1130
1135
1143
1151
1157
1162
1163
1168
1174
1183
1192
1194
1194
1198
1205
1208
1210
1208
1203
1195
1192
1188
1179
1168
1153
1142
1130
1120
1108
1094
1080
1068
1057
1052
1041
1036
1025
1018
1012
1009
1008
1003
999
995
994
997
995
992
985
986
985
988
987
987
984
984
984
987
986
985
980
982
987
986
985
987
984
985
986
989
990
987
986
981
982
989
991
990
985
986
988
989
990
991
990
985
987
992
993
989
988
986
987
990
990
986
985
985
985
988
990
988
985
981
986
987
989
987
986
984
985
989
987
984
982
981
980
983
984
986
980
980
982
983
984
983
980
980
982
986
987
986
984
979
982
983
984
984
979
978
981
983
983
983
982
980
979
982
982
983
982
981
983
987
986
984
982
980
983
986
987
984
981
980
982
983
984
983
979
980
983
985
985
985
983
982
983
983
985
982
979
982
985
984
986
986
981
983
984
987
988
986
981
982
984
988
988
985
984
984
986
988
990
987
984
983
988
988
985
984
984
982
986
989
986
983
983
982
985
990
990
990
986
988
987
992
990
988
987
987
988
992
991
986
990
985
988
990
991
990
985
986
990
991
992
996
993
992
995
1001
1002
1003
1002
1001
1003
1007
1011
1011
1010
1008
1008
1010
1010
1007
1006
1005
1008
1003
1005
1001
997
994
997
998
999
1000
996
997
998
1001
1002
1001
1000
997
1003
1006
1007
1005
1006
1005
1009
1008
1009
1009
999
992
989
985
986
994
1013
1055
1126
1210
1295
1370
1420
1450
1452
1421
1339
1211
1083
968
949
969
986
987
983
980
982
989
998
1003
1013
1017
1027
1031
1034
1032
1031
1033
1036
1038
1038
1037
1035
1034
1037
1039
1041
1041
1037
1039
1041
1047
1046
1048
1044
1048
1050
1055
1055
1055
1051
1050
1054
1058
1057
1061
1057
1056
1059
1062
1064
1062
1062
1061
1064
1071
1072
1069
1067
1070
1071
1077
1081
1081
1080
1079
1081
1087
1088
1090
1088
1089
1093
1099
1100
1099
1098
1099
1103
1109
1110
1113
1113
1113
1116
1120
1129
1128
1129
1131
1136
1141
1148
1149
1150
1151
1156
1166
1170
1174
1176
1178
1184
1192
1197
1201
1203
1209
1213
1219
1222
1227
1231
1233
1240
1245
1250
1253
1253
1256
1258
1259
1262
1259
1252
1248
1242
1238
1230
1219
1206
1193
1186
1179
1171
1159
1149
1138
1132
1128
1121
1113
1102
1096
1092
1091
1086
1081
1076
1071
1069
1069
1070
1067
1063
1063
1062
1065
1063
1061
1060
1057
1060
1058
1061
1058
1058
1058
1059
1062
1062
1061
1059
1059
1060
1060
1065
1061
1060
1057
1062
1065
1065
1065
1059
1058
1062
1066
1068
1065
1065
1060
1065
1070
1069
1065
1062
1063
1065
1069
1067
1068
1066
1064
1068
1069
1070
1065
1062
1063
1066
1064
1067
1067
1065
1062
1065
1066
1069
1068
1064
1063
1064
1065
1067
1064
1061
1059
1064
1066
1068
1063
1060
1061
1062
1065
1065
1063
1060
1062
1062
1067
1064
1061
1062
1061
1063
1067
1067
1066
1059
1061
1063
1065
1065
1063
1059
1060
1061
1067
1066
1065
1061
1059
1060
1065
1063
1060
1059
1058
1061
1062
1065
1062
1059
1057
1059
1064
1063
1062
1057
1058
1059
1063
1065
1063
1058
1056
1060
1063
1065
1064
1058
1057
1057
1062
1063
1060
1059
1060
1061
1064
1065
1066
1061
1059
1060
1065
1065
1065
1063
1065
1068
1070
1074
1075
1072
1072
1070
1073
1073
1077
1076
1075
1078
1077
1077
1078
1073
1071
1069
1071
1071
1068
1063
1062
1060
1063
1064
1064
1060
1060
1061
1063
1063
1062
1059
1058
1060
1065
1064
1061
1059
1062
1066
1064
1070
1067
1065
1061
1058
1054
1049
1041
1036
1043
1064
1102
1164
1245
1329
1394
1441
1459
1442
1393
1285
1157
1029
993
1009
1029
1035
1028
1031
1033
1037
1040
1047
1056
1066
1075
1077
1074
1073
1074
1075
1079
1079
1078
1075
1071
1076
1078
1079
1078
1075
1075
1080
1079
1082
1081
1080
1078
1081
1084
1084
1083
1081
1081
1084
1086
1086
1085
1083
1082
1082
1089
1085
1086
1082
1083
1085
1086
1089
1090
1086
1087
1091
1092
1093
1090
1090
1089
1093
1097
1097
1097
1092
1093
1096
1102
1103
1103
1103
1106
1109
1112
1115
1117
1114
1115
1122
1124
1127
1131
1129
1133
1137
1143
1145
1148
1150
1153
1158
1166
1169
1171
1172
1175
1180
1187
1193
1197
1199
1204
1207
1216
1219
1222
1220
1228
1234
1238
1241
1240
1236
1236
1233
1231
1227
1216
1205
1198
1187
1182
1170
1157
1146
1135
1124
1116
1109
1097
1087
1080
1074
1069
1063
1058
1052
1046
1045
1046
1043
1039
1034
1031
1028
1031
1031
1028
1023
1022
1024
1024
1023
1020
1019
1016
1020
1023
1021
1021
1015
1015
1016
1019
1020
1020
1016
1016
1017
1019
1019
1019
1015
1014
1016
1017
1020
1017
1016
1015
1017
1019
1020
1015
1013
1012
1013
1015
1015
1015
1012
1010
1012
1013
1015
1011
1009
1007
1007
1010
1012
1010
1005
1001
1005
1008
1008
1008
1003
1003
1004
1007
1007
1003
999
999
1000
1003
1006
1002
997
997
999
1002
1001
1001
996
992
995
996
997
995
995
994
995
996
996
995
991
990
992
993
993
992
990
988
988
991
992
989
986
986
988
988
989
986
984
983
985
987
987
986
984
978
982
985
985
982
980
976
982
984
984
981
979
978
977
980
977
976
975
977
978
979
980
979
976
975
975
976
979
978
976
973
972
975
979
974
974
970
975
978
980
980
981
980
983
985
983
983
987
985
988
988
987
984
979
982
982
980
980
978
972
968
970
970
969
967
964
962
964
965
969
967
965
965
968
970
971
967
963
964
969
970
971
968
964
960
954
950
942
940
942
961
1003
1074
1162
1252
1318
1358
1367
1339
1245
1117
989
881
890
921
932
927
919
923
932
944
955
961
964
963
965
969
970
968
967
967
970
971
973
971
969
966
970
973
975
969
966
970
971
975
972
970
968
968
972
973
971
971
970
969
972
973
972
971
974
972
976
979
980
977
974
972
977
982
980
980
979
981
983
988
989
991
989
991
995
998
1001
1003
1001
999
1005
1011
1015
1015
1018
1021
1028
1034
1039
1042
1046
1051
1055
1065
1068
1074
1078
1079
1088
1093
1100
1097
1101
1107
1111
1119
1123
1126
1125
1130
1137
1138
1135
1129
1125
1118
1114
1108
1103
1089
1078
1067
1057
1045
1031
1021
1010
999
991
987
978
970
961
954
953
949
946
938
934
930
930
927
927
921
919
916
917
916
916
914
913
911
911
912
912
914
910
909
911
914
916
914
907
906
911
912
913
912
907
909
910
913
914
910
907
908
907
911
911
910
909
907
908
910
912
910
907
905
906
912
911
908
904
902
905
905
907
904
901
902
901
903
903
904
900
901
899
901
901
901
897
895
896
899
901
899
896
892
894
897
898
895
893
894
894
897
898
897
891
892
895
896
894
891
888
889
889
890
893
890
887
885
890
888
890
888
884
886
887
887
888
890
886
884
886
890
887
887
883
882
885
889
889
889
883
885
886
889
889
887
885
883
887
889
888
887
884
884
883
888
887
886
885
884
884
886
885
884
883
883
884
886
888
885
881
882
883
883
886
883
884
885
882
886
886
885
881
880
880
884
883
882
880
880
882
885
885
881
882
882
883
887
887
883
880
878
879
882
884
883
882
879
884
887
889
888
888
886
893
894
897
895
894
893
899
901
902
899
895
892
897
897
899
896
894
891
893
893
890
885
879
881
884
883
886
884
881
880
881
882
885
884
882
882
881
887
889
887
883
884
888
892
891
887
879
873
867
868
871
874
890
926
988
1067
1152
1232
1294
1329
1340
1309
1224
1096
968
840
819
841
856
857
850
850
852
861
866
875
881
888
893
897
895
895
890
892
893
901
900
900
899
900
899
906
905
904
901
902
902
908
907
906
904
903
905
909
910
909
905
902
907
911
909
909
909
907
910
911
913
913
913
910
915
915
915
916
915
917
917
921
920
922
918
919
923
927
929
927
928
930
935
939
939
942
940
941
948
951
956
955
955
956
961
967
973
973
974
979
982
988
996
998
1001
1005
1013
1017
1023
1027
1031
1035
1043
1050
1055
1058
1058
1061
1070
1077
1082
1085
1085
1087
1091
1096
1097
1092
1085
1079
1075
1070
1060
1048
1033
1023
1013
1001
988
975
959
949
942
933
926
913
906
902
899
895
890
887
882
880
876
877
879
877
872
872
874
876
874
870
869
867
872
874
871
870
869
869
872
872
872
869
869
867
869
869
872
869
868
866
867
872
873
871
867
867
868
873
871
873
866
866
871
870
873
870
865
865
866
868
869
870
863
863
866
868
868
865
862
860
863
867
865
865
862
860
862
865
865
863
858
860
861
864
864
861
861
858
860
861
862
865
859
857
863
865
863
861
859
860
861
860
863
858
857
859
860
860
862
859
856
858
856
858
861
858
857
858
858
859
860
858
858
856
861
861
861
860
858
861
863
863
863
861
859
860
860
866
863
861
858
859
862
863
863
861
862
856
862
863
865
863
862
861
863
865
866
865
861
859
863
866
865
863
862
862
862
866
864
862
862
861
863
867
868
866
863
864
865
868
872
871
869
871
877
879
881
879
877
877
881
886
888
885
881
882
884
886
886
880
875
873
874
877
876
873
871
868
872
874
874
874
872
871
873
877
876
876
871
871
876
878
878
877
874
876
878
880
875
867
858
856
