1001
1004
1005
1000
999
1002
1002
1006
1004
1003
1000
1002
1006
1008
1008
1004
1002
1001
1005
1007
1008
1006
1001
1004
1006
1009
1009
1007
1004
1008
1010
1015
1017
1017
1017
1015
1016
1020
1024
1022
1015
1016
1021
1021
1022
1019
1013
1012
1011
1011
1008
1005
1003
1004
1008
1010
1005
1005
1003
1006
1008
1011
1011
1010
1005
1008
1009
1013
1013
1011
1010
1010
1015
1012
1008
1001
993
987
990
995
1008
1042
1101
1187
1290
1383
1452
1491
1490
1450
1351
1223
1095
967
939
965
979
982
976
976
979
980
990
1003
1010
1015
1015
1014
1016
1021
1020
1016
1016
1013
1017
1021
1020
1021
1020
1020
1024
1029
1026
1020
1021
1021
1027
1030
1029
1024
1025
1022
1028
1033
1032
1029
1027
1027
1030
1032
1036
1036
1032
1032
1034
1042
1040
1037
1038
1038
1041
1045
1044
1045
1045
1045
1049
1052
1051
1053
1050
1052
1053
1059
1062
1060
1059
1063
1067
1068
1072
1070
1071
1074
1083
1087
1087
1085
1087
1091
1098
1103
1108
1111
1113
1118
1123
1132
1138
1139
1142
1147
1155
1163
1170
1174
1179
1184
1191
1198
1205
1208
1212
1218
1224
1231
1237
1237
1237
1244
1247
1248
1245
1241
1234
1227
1221
1217
1203
1193
1180
1166
1156
1147
1133
1117
1103
1091
1087
1080
1072
1061
1053
1050
1046
1044
1039
1035
1028
1026
1028
1027
1026
1023
1019
1019
1020
1022
1021
1018
1017
1016
1018
1023
1022
1017
1016
1015
1020
1020
1021
1021
1019
1021
1023
1025
1025
1023
1020
1021
1023
1028
1026
1023
1023
1024
1028
1030
1030
1030
1027
1027
1031
1033
1035
1033
1029
1031
1031
1036
1035
1032
1029
1031
1034
1038
1037
1034
1033
1031
1033
1035
1037
1033
1032
1031
1033
1038
1037
1035
1032
1033
1037
1038
1035
1032
1032
1033
1033
1037
1039
1036
1036
1036
1039
1040
1041
1036
1033
1035
1039
1042
1039
1038
1037
1037
1040
1041
1043
1039
1039
1036
1042
1044
1044
1044
1041
1042
1045
1046
1046
1044
1039
1043
1046
1047
1046
1045
1042
1041
1049
1050
1049
1048
1045
1047
1047
1052
1051
1049
1046
1046
1049
1051
1051
1050
1049
1050
1051
1055
1054
1051
1050
1050
1054
1055
1054
1052
1049
1053
1054
1059
1060
1057
1056
1055
1059
1059
1058
1056
1054
1056
1059
1062
1061
1058
1057
1058
1062
1062
1065
1061
1061
1060
1062
1065
1064
1063
1062
1063
1066
1068
1067
1065
1066
1067
1072
1074
1075
1075
1075
1078
1082
1085
1084
1084
1082
1086
1088
1087
1086
1082
1082
1083
1084
1084
1081
1076
1071
1071
1071
1076
1073
1071
1069
1072
1073
1078
1076
1075
1074
1074
1076
1081
1079
1077
1078
1078
1083
1085
1085
1079
1074
1069
1064
1061
1060
1062
1078
1114
1181
1271
1361
1442
1501
1529
1527
1481
1365
1237
1109
1011
1028
1055
1061
1054
1050
1054
1062
1075
1084
1091
1094
1096
1098
1099
1101
1096
1094
1096
1100
1103
1101
1101
1099
1098
1100
1105
1105
1106
1102
1103
1106
1110
1111
1106
1105
1105
1108
1114
1112
1109
1109
1109
1112
1117
1119
1116
1114
1115
1117
1122
1122
1120
1119
1119
1123
1125
1124
1124
1121
1125
1128
1133
1134
1132
1132
1135
1139
1145
1147
1142
1143
1147
1151
1155
1159
1157
1157
1161
1165
1170
1173
1172
1175
1181
1183
1194
1194
1196
1198
1204
1211
1218
1223
1226
1226
1232
1238
1249
1252
1255
1259
1263
1269
1280
1284
1285
1288
1293
1300
1303
1301
1296
1295
1292
1291
1287
1276
1263
1251
1241
1232
1221
1210
1195
1181
1169
1162
1156
1145
1134
1122
1116
1113
1110
1104
1097
1088
1089
1092
1092
1088
1083
1079
1081
1080
1084
1082
1080
1077
1076
1077
1077
1074
1074
1073
1073
1076
1076
1078
1072
1073
1074
1079
1079
1079
1073
1070
1072
1072
1078
1079
1075
1071
1075
1079
1080
1079
1077
1075
1076
1075
1081
1078
1077
1073
1074
1077
1078
1078
1078
1071
1072
1075
1075
1076
1071
1071
1072
1073
1076
1074
1072
1069
1070
1069
1074
1073
1070
1068
1065
1068
1071
1068
1068
1065
1066
1065
1068
1070
1064
1062
1064
1067
1071
1068
1064
1063
1061
1066
1068
1064
1062
1061
1059
1063
1063
1064
1060
1059
1062
1064
1065
1063
1060
1059
1058
1062
1062
1060
1057
1059
1060
1059
1064
1061
1058
1056
1054
1059
1060
1059
1056
1057
1057
1060
1063
1061
1059
1054
1056
1057
1061
1059
1058
1055
1055
1055
1059
1058
1057
1056
1058
1057
1063
1062
1058
1055
1056
1056
1058
1057
1057
1052
1057
1058
1060
1059
1057
1054
1052
1056
1057
1057
1052
1051
1056
1056
1060
1061
1057
1056
1057
1059
1062
1064
1065
1065
1065
1065
1068
1070
1071
1070
1062
1068
1068
1070
1068
1063
1060
1061
1061
1058
1055
1051
1051
1051
1054
1053
1049
1050
1051
1053
1057
1056
1055
1050
1050
1051
1057
1055
1053
1052
1054
1057
1057
1052
1042
1031
1028
1029
1041
1064
1112
1186
1291
1387
1458
1489
1482
1423
1295
1167
1039
982
1001
1019
1020
1018
1018
1019
1024
1034
1046
1054
1064
1063
1062
1061
1063
1065
1067
1066
1065
1060
1062
1064
1071
1069
1068
1063
1066
1070
1072
1072
1069
1070
1072
1073
1075
1077
1072
1070
1071
1076
1079
1078
1075
1075
1073
1077
1078
1077
1077
1074
1078
1081
1084
1083
1083
1080
1084
1087
1091
1092
1089
1087
1089
1093
1097
1098
1098
1097
1098
1105
1109
1111
1111
1111
1117
1120
1124
1125
1127
1129
1133
1138
1143
1145
1147
1149
1153
1160
1166
1171
1172
1173
1181
1188
1195
1201
1203
1208
1211
1219
1227
1232
1232
1235
1240
1248
1252
1255
1253
1252
1249
1246
1244
1234
1228
1215
1203
1192
1181
1169
1157
1140
1129
1118
1108
1100
1088
1079
1069
1063
1064
1057
1049
1042
1038
1038
1037
1036
1031
1029
1023
1026
1030
1027
1023
1019
1021
1023
1025
1023
1021
1017
1021
1023
1023
1023
1020
1020
1019
1021
1026
1024
1020
1019
1021
1023
1025
1025
1020
1020
1019
1022
1024
1022
1022
1018
1019
1019
1022
1022
1020
1020
1017
1016
1022
1020
1018
1014
1015
1016
1016
1015
1012
1010
1011
1013
1016
1016
1015
1011
1012
1013
1016
1014
1012
1008
1009
1011
1015
1014
1009
1007
1007
1011
1012
1011
1009
1007
1006
1009
1011
1010
1009
1006
1009
1007
1011
1010
1007
1006
1005
1009
1010
1009
1007
1005
1004
1006
1011
1009
1007
1006
1007
1006
1009
1010
1007
1005
1005
1008
1009
1010
1008
1006
1005
1007
1010
1010
1008
1005
1006
1007
1009
1008
1008
1009
1009
1015
1018
1018
1019
1018
1016
1019
1023
1024
1021
1022
1025
1021
1021
1024
1020
1019
1017
1016
1017
1015
1011
1004
1003
1007
1006
1008
1005
1003
1003
1007
1009
1008
1005
1002
1005
1006
1007
1009
1004
1003
1004
1010
1014
1012
1010
1009
1010
1010
1009
1004
995
986
986
988
1002
1026
1071
1140
1227
1312
1383
1433
1455
1451
1405
1314
1186
1058
952
941
961
978
982
977
973
972
979
989
998
1008
1012
1014
1017
1019
1019
1020
1017
1015
1015
1020
1023
1022
1021
1019
1018
1020
1023
1023
1020
1019
1021
1024
1024
1025
1022
1021
1023
1025
1027
1027
1024
1023
1022
1027
1029
1031
1026
1024
1028
1029
1034
1032
1032
1030
1031
1034
1035
1037
1033
1032
1034
1037
1040
1040
1038
1037
1039
1045
1045
1047
1044
1046
1047
1052
1055
1055
1057
1055
1060
1064
1070
1069
1070
1071
1076
1080
1086
1089
1088
1088
1092
1096
1105
1109
1110
1111
1118
1123
1134
1137
1143
1145
1150
1157
1167
1171
1174
1177
1183
1192
1198
1201
1201
1205
1210
1214
1219
1224
1220
1216
1214
1211
1209
1201
1189
1176
1167
1156
1145
1134
1121
1104
1093
1085
1075
1064
1052
1042
1034
1029
1025
1022
1013
1008
1008
1005
1006
1002
998
994
992
993
995
994
992
988
992
991
995
993
991
988
989
992
992
992
992
992
990
992
998
996
992
991
993
994
996
997
997
993
996
999
1001
1002
997
997
997
1000
1003
1002
1001
1002
1002
1003
1008
1005
1007
1004
1005
1006
1008
1007
1004
1001
1005
1008
1008
1007
1005
1004
1007
1009
1012
1011
1007
1004
1007
1009
1011
1012
1008
1008
1008
1013
1015
1014
1011
1011
1009
1013
1016
1017
1013
1010
1009
1016
1019
1019
1017
1013
1015
1021
1019
1022
1019
1016
1017
1017
1022
1021
1021
1017
1018
1021
1027
1025
1024
1022
1023
1025
1029
1028
1026
1024
1025
1029
1034
1032
1030
1028
1029
1031
1034
1034
1030
1028
1030
1035
1035
1039
1033
1033
1033
1037
1040
1039
1035
1037
1034
1036
1040
1038
1037
1040
1041
1042
1045
1045
1046
1044
1043
1048
1050
1050
1048
1046
1048
1048
1055
1051
1047
1047
1050
1053
1057
1054
1054
1054
1056
1060
1064
1063
1062
1064
1066
1071
1077
1077
1076
1071
1074
1078
1084
1082
1082
1079
1079
1082
1083
1085
1077
1075
1074
1076
1078
1075
1070
1065
1068
1071
1074
1070
1071
1067
1070
1075
1077
1075
1075
1071
1076
1076
1079
1079
1077
1077
1079
1081
1084
1081
1083
1081
1079
1076
1072
1063
1059
1057
1063
1084
1121
1185
1262
1349
1430
1482
1511
1503
1464
1374
1246
1118
1026
1023
1045
1057
1059
1062
1063
1066
1069
1077
1087
1097
1106
1108
1103
1101
1105
1108
1111
1110
1106
1107
1105
1110
1113
1112
1111
1111
1113
1117
1119
1117
1115
1115
1119
1122
1122
1123
1120
1117
1119
1124
1127
1127
1125
1122
1123
1126
1128
1129
1126
1127
1127
1129
1134
1134
1131
1130
1129
1137
1140
1139
1139
1137
1137
1141
1147
1147
1142
1146
1147
1151
1155
1153
1156
1152
1157
1162
1167
1169
1169
1168
1170
1175
1181
1184
1181
1183
1189
1194
1201
1201
1202
1203
1207
1218
1224
1226
1231
1235
1242
1245
1251
1255
1258
1260
1267
1272
1279
1284
1287
1288
1295
1301
1311
1310
1311
1311
1312
1311
1311
1307
1299
1290
1281
1276
1268
1258
1242
1230
1220
1210
1203
1191
1180
1170
1162
1154
1149
1142
1135
1127
1126
1123
1121
1114
1111
1109
1105
1106
1106
1106
1102
1099
1099
1102
1102
1102
1096
1095
1094
1098
1103
1101
1098
1094
1095
1096
1099
1100
1098
1096
1093
1097
1101
1102
1100
1096
1097
1097
1101
1098
1095
1091
1093
1096
1100
1099
1095
1094
1094
1095
1098
1096
1094
1092
1092
1092
1096
1093
1091
1089
1087
1092
1093
1091
1088
1084
1087
1087
1090
1088
1085
1084
1084
1085
1087
1086
1083
1080
1079
1082
1084
1084
1077
1072
1078
1079
1083
1082
1078
1075
1077
1078
1078
1080
1078
1074
1073
1076
1082
1076
1074
1073
1073
1075
1078
1078
1075
1073
1074
1073
1077
1078
1074
1072
1072
1072
1071
1075
1070
1068
1069
1073
1073
1072
1068
1065
1069
1070
1074
1072
1070
1066
1069
1070
1074
1073
1068
1068
1069
1070
1072
1069
1066
1065
1064
1067
1068
1067
1065
1063
1063
1066
1067
1067
1061
1059
1061
1063
1066
1065
1059
1058
1057
1060
1064
1063
1060
1057
1058
1060
1063
1062
1061
1057
1056
1060
1061
1061
1058
1055
1055
1055
1058
1062
1059
1056
1058
1059
1060
1061
1061
1062
1063
1070
1071
1069
1064
1064
1064
1070
1072
1072
1066
1066
1064
1069
1071
1068
1062
1059
1054
1056
1059
1056
1053
1052
1050
1054
1056
1055
1051
1050
1050
1053
1052
1052
1048
1048
1050
1054
1057
1053
1051
1052
1054
1054
1053
1047
1037
1029
1027
1027
1035
1053
1091
1152
1234
1315
1380
1420
1431
1419
1372
1278
1150
1022
971
988
1013
1020
1020
1014
1013
1017
1027
1041
1049
1056
1058
1056
1056
1058
1060
1059
1059
1057
1057
1058
1063
1057
1056
1059
1058
1061
1062
1063
1060
1060
1057
1060
1063
1061
1057
1059
1061
1061
1063
1063
1057
1058
1057
1061
1064
1063
1062
1058
1060
1064
1069
1067
1063
1062
1064
1068
1072
1071
1069
1068
1069
1071
1071
1073
1072
1069
1072
1079
1081
1083
1080
1080
1082
1084
1090
1090
1090
1093
1096
1101
1102
1106
1105
1108
1114
1117
1121
1123
1125
1128
1132
1138
1144
1146
1151
1152
1158
1166
1172
1177
1179
1178
1185
1193
1202
1202
1203
1206
1211
1216
1220
1218
1217
1212
1210
1204
1198
1187
1176
1162
1154
1146
1136
1124
1108
1095
1087
1084
1075
1067
1054
1046
1042
1035
1033
1028
1021
1019
1018
1016
1016
1012
1009
1007
1007
1010
1012
1008
1005
1003
999
1007
1006
1003
1002
999
1001
1003
1005
1001
999
996
996
999
1001
998
996
995
994
997
998
994
995
994
993
994
995
994
992
989
988
991
995
992
994
989
988
993
992
990
990
988
990
991
992
989
987
984
984
985
987
987
982
979
984
985
985
985
982
981
980
983
985
980
977
975
978
979
982
979
976
972
973
976
975
976
971
971
968
975
976
974
969
967
970
972
974
970
971
967
969
970
971
970
967
965
968
970
969
966
965
962
963
966
966
969
965
963
962
965
963
965
963
961
963
965
970
966
964
961
963
966
968
967
963
955
959
962
965
960
961
958
962
962
966
965
958
959
961
965
967
967
966
965
966
971
968
969
970
971
972
976
977
976
971
968
968
969
974
971
962
959
959
962
961
960
958
954
955
956
961
959
956
956
957
958
960
959
957
957
959
962
964
962
956
949
944
938
934
928
934
950
992
1056
1143
1230
1301
1345
1357
1334
1252
1124
996
879
882
913
926
924
914
914
919
930
940
951
957
962
964
966
968
966
963
963
964
966
966
965
966
964
968
973
972
971
970
973
973
977
978
978
976
971
974
973
975
974
973
975
975
978
982
979
976
975
977
976
982
983
978
978
977
984
987
986
986
986
986
989
993
992
989
991
993
996
1002
1000
1000
1000
1001
1008
1012
1012
1012
1015
1016
1023
1023
1028
1029
1031
1036
1039
1048
1051
1053
1053
1059
1066
1070
1076
1081
1083
1088
1096
1103
1107
1108
1110
1115
1123
1131
1135
1136
1139
1145
1148
1150
1153
1151
1147
1146
1144
1138
1130
1117
1107
1093
1083
1075
1061
1048
1036
1026
1015
1006
998
985
977
971
969
966
962
950
945
947
947
944
939
935
931
932
931
935
932
926
923
924
927
928
927
921
920
922
924
927
924
921
923
922
925
926
923
922
920
925
926
928
928
923
921
923
925
929
929
922
923
925
928
931
927
926
923
925
928
932
926
926
923
926
929
928
927
924
924
921
926
928
926
922
921
921
925
925
922
922
921
922
920
925
920
920
917
918
918
923
923
919
915
916
919
920
919
915
914
915
917
917
916
912
912
914
918
918
916
914
912
918
919
922
917
917
913
915
918
919
919
916
911
915
915
920
918
915
913
914
917
920
919
915
915
917
917
920
915
914
915
917
918
922
919
918
920
921
926
930
929
930
929
928
933
933
937
934
935
938
939
939
936
931
926
927
928
930
926
917
914
917
918
919
918
914
913
914
918
918
918
916
915
917
919
919
918
918
918
919
923
924
924
923
921
914
912
907
902
898
902
925
969
1043
1132
1224
1306
1357
1375
1354
1277
1149
1021
893
851
872
891
892
884
888
891
898
904
912
918
924
929
931
931
930
927
929
934
935
932
931
931
933
937
939
936
933
935
934
938
941
939
936
938
941
943
946
945
943
943
946
947
948
947
945
947
945
947
950
949
949
946
950
951
956
954
954
955
952
958
959
960
958
960
961
966
969
967
970
971
971
978
980
982
983
980
985
992
999
1000
999
1002
1004
1011
1014
1019
1021
1024
1029
1034
1043
1046
1049
1052
1059
1068
1076
1077
1080
1084
1090
1101
1106
1110
1114
1118
1125
1132
1135
1140
1139
1143
1144
1145
1145
1140
1132
1121
1113
1105
1097
1085
1071
1055
1043
1031
1023
1011
997
985
980
976
967
960
954
946
943
942
941
936
931
926
927
928
928
926
923
921
921
924
922
922
919
918
919
923
924
924
921
917
920
922
926
923
922
920
923
925
925
926
925
924
925
930
932
930
928
926
926
931
931
931
928
928
930
934
934
936
933
932
933
936
936
936
935
932
935
936
940
938
936
933
934
938
938
940
938
935
938
941
943
938
936
936
939
939
942
939
938
937
939
939
943
944
940
937
940
945
950
945
945
943
945
949
947
949
948
947
949
954
952
951
952
949
953
956
956
957
956
955
955
959
961
959
958
958
961
963
964
964
961
961
963
966
968
968
965
963
968
971
972
973
972
971
971
976
976
978
973
977
978
981
981
984
979
978
980
984
984
984
984
982
987
989
990
988
985
987
989
993
997
997
991
990
991
996
996
999
996
997
998
1002
1004
1004
1002
1001
1002
1005
1009
1009
1009
1012
1013
1019
1024
1026
1022
1021
1027
1031
1036
1034
1033
1030
1031
1034
1037
1035
1032
1028
1029
1025
1027
1026
1022
1021
1023
1026
1029
1030
1030
1024
1027
1032
1034
1033
1031
1034
1036
1040
1043
1042
1041
1043
1043
1043
1040
1033
1023
1018
1025
1034
1063
1109
1183
1267
1357
1429
1475
1486
1462
1392
1264
1136
1008
984
1013
1027
1030
1028
1032
1039
1047
1053
1064
1073
1077
1077
1075
1073
1074
1079
1081
1084
1082
1079
1081
1085
1089
1089
1087
1086
1090
1094
1096
1094
1091
1093
1089
1095
1097
1099
1098
1095
1098
1103
1103
1104
1103
1101
1103
1104
1108
1108
1108
1107
1110
1108
1115
1114
1116
1116
1113
1120
1122
1124
1124
1123
1125
1129
1133
1132
1132
1132
1133
1141
1146
1148
1146
1145
1149
1156
1157
1162
1162
1162
1169
1175
1179
1182
1182
1185
1191
1198
1206
1206
1213
1216
1223
1232
1240
1245
1248
1255
1263
1273
1281
1286
1291
1293
1298
1300
1300
1292
1281
1269
1259
1249
1236
1221
1201
1188
1177
1169
1159
1150
1141
1131
1128
1125
1122
1118
1112
1110
1110
1110
1109
1110
1104
1102
1102
1104
1106
1103
1100
1100
1100
1105
1104
1102
1103
1103
1102
1105
1106
1105
1103
1101
1102
1105
1107
1107
1104
1103
1102
1105
1107
1106
1104
1102
1104
1107
1110
1106
1105
1104
1105
1107
1109
1107
1105
1101
1101
1104
1106
1102
1103
1102
1102
1102
1105
1103
1101
1101
1098
1101
1102
1100
1099
1096
1098
1099
1099
1098
1092
1092
1093
1097
1100
1095
1093
1091
1092
1096
1096
1095
1092
1092
1094
1097
1097
1095
1092
1091
1090
1094
1097
1095
1090
1089
1092
1094
1096
1092
1090
1090
1093
1094
1094
1093
1092
1089
1090
1092
1094
1092
1088
1087
1089
1090
1091
1091
1089
1085
1088
1090
1091
1089
1087
1084
1089
1089
1093
1091
1088
1086
1087
1089
1090
1089
1083
1086
1087
1088
1088
1087
1084
1079
1084
1084
1087
1088
1086
1084
1083
1090
1091
1087
1088
1088
1091
1095
1095
1092
1091
1089
1090
1099
1100
1093
1090
1089
1090
1095
1095
1089
1087
1082
1083
1083
1081
1077
1077
1077
1077
1081
1081
1078
1077
1076
1079
1080
1081
1080
1078
1077
1078
1082
1084
1080
1079
1079
1081
1079
1077
1069
1060
1052
1052
1061
1078
1115
1171
1244
1330
1394
1437
1450
1436
1383
1280
1152
1035
1003
1021
1044
1048
1050
1050
1047
1049
1049
1059
1068
1080
1085
1084
1085
1085
1091
1091
1089
1086
1082
1087
1087
1092
1089
1087
1083
1085
1092
1091
1091
1087
1088
1085
1093
1093
1092
1089
1088
1091
1091
1095
1092
1089
1090
1091
1094
1096
1091
1094
1093
1093
1096
1099
1098
1095
1093
1097
1098
1099
1100
1098
1098
1101
1104
1106
1104
1104
1102
1105
1107
1111
1108
1110
1111
1113
1119
1120
1118
1120
1116
1125
1127
1132
1132
1132
1133
1137
1142
1145
1148
1149
1152
1155
1163
1169
1170
1169
1175
1182
1187
1195
1198
1199
1203
1207
1213
1218
1222
1223
1225
1233
1237
1238
1243
1246
1245
1249
1251
1250
1246
1238
1233
1227
1222
1215
1205
1192
1179
1168
1159
1152
1138
1125
1115
1108
1098
1096
1085
1076
1071
1067
1066
1064
1056
1051
1046
1047
1044
1046
1043
1037
1035
1037
1038
1038
1037
1032
1028
1029
1030
1030
1032
1028
1023
1021
1029
1030
1030
1026
1022
1025
