971
969
967
963
955
953
951
965
998
1059
1152
1265
1367
1437
1462
1433
1325
1197
1069
941
916
944
952
947
944
947
955
964
975
980
984
985
984
986
984
980
984
984
988
991
989
987
988
987
989
994
990
991
991
994
995
999
997
994
995
997
1001
999
998
999
996
998
1001
1004
1000
1000
1000
1002
1007
1009
1009
1007
1007
1009
1015
1018
1014
1013
1014
1018
1022
1027
1024
1023
1025
1029
1032
1036
1037
1036
1039
1041
1049
1052
1049
1053
1054
1060
1067
1073
1076
1075
1079
1085
1092
1097
1103
1105
1112
1116
1125
1134
1139
1142
1145
1154
1160
1167
1169
1170
1175
1181
1187
1193
1195
1194
1195
1196
1195
1192
1187
1176
1166
1155
1149
1135
1126
1109
1093
1084
1075
1065
1054
1041
1030
1026
1019
1016
1007
998
992
990
987
986
982
976
974
974
973
972
969
966
964
967
969
971
969
965
963
964
966
969
968
965
963
963
968
971
968
967
964
964
965
970
969
964
964
967
969
969
968
965
962
962
968
969
967
965
964
966
968
969
966
963
962
964
967
970
965
961
961
964
969
968
966
964
962
965
964
963
965
961
956
959
963
968
962
962
961
962
965
965
963
959
959
963
966
963
962
962
956
959
964
964
963
961
957
962
964
966
964
960
958
961
962
965
965
959
958
958
962
965
963
959
959
961
963
965
964
961
958
961
965
966
967
960
960
965
965
967
964
961
960
963
966
967
964
963
960
962
964
968
967
964
961
965
968
970
969
965
965
967
970
970
968
963
963
966
971
972
968
965
967
967
969
971
969
966
967
968
972
971
970
969
966
968
970
970
969
970
968
970
973
973
973
970
969
972
977
979
979
978
978
984
985
987
985
986
987
989
990
988
988
985
985
985
985
984
977
976
972
972
976
976
976
974
972
972
976
973
977
975
975
974
979
979
982
979
978
981
986
987
982
973
965
961
965
976
999
1043
1121
1221
1323
1402
1453
1463
1426
1329
1201
1073
945
918
935
954
957
954
952
954
959
968
979
986
990
989
988
989
992
994
992
991
988
988
997
997
996
992
992
996
999
998
999
995
995
998
1001
1004
1001
1000
999
1003
1005
1006
1005
1002
1002
1004
1006
1008
1008
1003
1005
1006
1012
1010
1012
1012
1010
1013
1016
1017
1019
1015
1013
1019
1021
1025
1025
1023
1024
1028
1028
1036
1035
1032
1034
1039
1043
1047
1047
1045
1049
1052
1057
1063
1061
1063
1068
1073
1081
1087
1087
1089
1096
1100
1109
1117
1121
1122
1128
1135
1145
1149
1156
1158
1164
1170
1178
1184
1186
1191
1192
1198
1200
1201
1201
1195
1189
1185
1177
1167
1151
1139
1125
1112
1103
1091
1074
1060
1047
1039
1030
1022
1015
1004
998
992
994
992
987
979
978
978
977
975
975
970
969
971
972
972
969
967
967
967
969
968
968
968
965
970
970
972
971
969
967
970
973
974
970
967
967
969
971
971
969
966
966
970
969
973
969
967
969
967
971
973
972
969
968
969
973
971
973
969
967
968
971
971
967
966
965
969
971
970
971
967
963
965
967
967
968
963
962
963
966
968
966
964
963
965
969
969
964
965
963
966
962
964
966
963
961
964
964
965
965
963
962
962
967
966
966
959
957
957
963
964
964
961
960
963
963
964
963
962
962
966
967
968
967
964
963
966
965
966
965
961
962
965
966
966
966
963
963
963
965
967
965
964
965
964
966
968
967
964
961
963
968
967
967
964
965
968
970
971
968
965
964
968
968
970
969
966
966
969
970
974
973
969
970
972
973
977
977
972
976
980
981
985
981
981
983
983
989
989
990
983
983
985
989
988
984
983
979
981
980
978
976
968
970
974
978
979
978
975
975
980
981
983
980
980
979
978
983
985
983
981
982
983
986
984
978
969
960
959
963
970
983
1013
1079
1169
1271
1357
1420
1449
1445
1394
1287
1159
1031
924
921
945
956
953
947
943
946
954
962
972
979
985
986
988
993
993
991
990
989
995
997
997
994
992
992
995
999
998
997
993
995
997
1001
1003
998
997
997
1000
1002
1003
1005
1001
1001
1001
1007
1007
1003
1002
1004
1005
1007
1007
1010
1007
1004
1007
1012
1015
1016
1012
1014
1014
1019
1023
1022
1020
1020
1024
1026
1031
1032
1029
1032
1035
1041
1044
1045
1047
1047
1054
1060
1063
1065
1067
1071
1077
1085
1092
1097
1101
1108
1116
1124
1131
1134
1139
1144
1153
1158
1168
1169
1172
1176
1183
1188
1193
1195
1191
1190
1186
1181
1171
1158
1141
1130
1114
1106
1091
1077
1061
1049
1042
1033
1023
1014
1003
997
994
992
986
982
977
974
972
973
972
971
967
965
964
965
965
963
960
959
961
963
963
962
959
960
960
962
960
961
960
956
958
960
965
963
958
959
961
965
965
965
962
960
964
967
968
966
962
961
962
964
963
963
958
956
960
963
963
963
960
957
958
960
963
961
955
952
956
959
962
958
955
954
956
957
959
958
956
954
956
955
956
956
952
953
955
955
957
955
953
952
952
955
958
955
952
953
952
954
956
951
951
951
951
956
954
954
952
953
951
954
957
955
950
952
954
955
958
954
952
952
955
957
957
954
951
951
955
958
957
956
951
952
953
955
957
954
953
952
954
957
958
958
956
955
956
963
963
962
961
963
965
970
973
966
965
967
972
974
977
972
969
968
971
973
970
968
965
962
958
960
957
956
954
953
955
959
961
959
957
957
959
959
962
958
958
958
961
966
968
966
964
962
967
969
965
957
948
945
946
955
972
1009
1072
1167
1275
1359
1411
1420
1382
1275
1147
1019
911
910
924
934
934
934
936
935
938
944
956
966
973
974
972
968
969
974
975
973
970
971
975
975
974
974
974
972
976
980
982
981
979
979
980
984
984
982
980
978
983
985
987
985
986
980
986
988
989
989
985
985
989
994
993
992
989
990
991
996
997
996
996
993
995
1003
1003
1001
999
1003
1007
1012
1012
1013
1011
1012
1018
1021
1022
1025
1021
1023
1029
1036
1039
1041
1039
1043
1049
1056
1061
1065
1067
1070
1077
1083
1091
1095
1100
1104
1111
1119
1125
1127
1130
1133
1138
1146
1152
1156
1157
1158
1165
1169
1174
1173
1169
1167
1166
1160
1154
1144
1134
1124
1113
1102
1091
1078
1062
1049
1040
1030
1023
1014
1005
998
991
985
981
972
968
963
959
960
957
955
946
946
948
949
948
945
941
938
939
943
942
942
935
933
935
936
939
938
936
938
938
940
939
939
937
936
940
939
939
941
939
939
942
944
943
942
938
936
939
945
943
940
939
937
941
944
946
942
941
938
939
943
942
940
939
936
937
936
938
936
934
935
935
938
939
936
932
934
935
940
937
936
933
931
933
937
939
935
932
932
934
935
934
932
928
928
931
930
932
930
927
929
930
931
933
931
930
928
930
932
931
930
928
928
930
932
934
929
930
925
930
933
934
931
928
928
928
932
932
930
930
925
929
929
933
930
928
928
929
933
932
929
928
930
929
929
934
930
927
926
928
930
929
930
927
922
928
928
931
926
929
929
932
934
933
930
929
929
930
935
936
933
931
931
931
934
937
934
933
930
931
933
936
934
931
932
937
937
938
938
935
935
937
940
942
943
937
940
943
947
951
949
947
944
949
951
958
955
946
949
946
951
953
951
949
947
945
945
944
940
937
936
938
941
940
939
935
933
943
944
946
942
938
937
939
940
944
946
944
945
948
953
954
951
942
936
933
931
928
927
938
972
1027
1105
1196
1285
1353
1405
1423
1399
1311
1183
1055
927
886
903
920
922
918
916
922
929
933
940
947
954
958
963
963
960
958
956
959
961
961
959
958
960
963
967
966
968
962
962
964
968
969
966
966
966
969
971
972
970
966
966
966
970
973
974
969
969
976
980
979
978
975
976
979
983
985
986
981
979
982
988
990
988
987
987
993
996
999
997
995
997
1000
1004
1007
1007
1006
1008
1013
1016
1018
1020
1021
1023
1029
1037
1040
1040
1044
1047
1047
1056
1064
1067
1068
1077
1085
1091
1095
1099
1100
1105
1115
1125
1130
1133
1132
1136
1146
1153
1160
1161
1163
1166
1169
1172
1171
1168
1163
1159
1154
1149
1139
1125
1113
1098
1089
1076
1067
1051
1036
1026
1019
1011
1002
996
986
975
972
972
967
963
959
951
955
954
954
950
945
943
941
945
948
942
941
936
940
943
945
943
940
938
940
942
942
939
938
938
936
943
941
941
940
938
939
941
942
942
940
939
942
943
945
943
941
939
939
944
942
941
935
935
940
942
943
943
938
938
941
945
943
940
939
939
941
942
941
942
937
935
941
943
940
939
938
936
938
940
940
938
936
937
938
941
940
938
935
933
935
937
936
936
934
935
935
940
940
938
937
934
937
940
939
937
937
935
938
938
941
939
935
937
939
939
939
940
936
937
937
940
939
939
937
935
938
941
942
938
933
935
938
940
941
940
934
936
937
943
942
939
935
935
940
942
943
941
936
939
939
943
944
938
938
940
941
944
946
940
944
942
944
948
949
944
945
941
945
948
945
948
944
940
947
950
948
943
944
944
946
950
949
949
947
944
948
951
951
947
944
947
949
953
951
949
949
952
953
955
953
953
952
951
953
958
960
960
957
958
963
967
969
965
965
965
972
975
972
967
968
967
969
971
969
965
961
958
958
960
961
960
956
958
959
961
960
961
957
958
961
964
964
962
959
963
964
967
967
968
965
964
963
959
956
948
944
947
966
1006
1069
1159
1257
1345
1413
1447
1441
1392
1286
1158
1030
923
916
932
936
934
935
938
939
944
948
956
968
976
978
975
975
974
976
979
980
980
979
978
978
984
985
984
983
984
987
991
992
989
985
988
989
993
993
993
989
991
994
996
998
995
994
991
997
1001
1003
1001
996
997
999
1002
1003
1005
1002
1005
1006
1009
1011
1010
1007
1010
1012
1015
1018
1020
1020
1017
1024
1027
1028
1028
1029
1030
1032
1032
1041
1039
1041
1042
1046
1053
1054
1058
1059
1063
1066
1073
1078
1084
1085
1088
1098
1106
1110
1114
1115
1121
1130
1137
1145
1147
1151
1155
1162
1167
1173
1179
1181
1186
1188
1195
1200
1200
1198
1197
1194
1194
1191
1181
1171
1161
1152
1141
1128
1112
1099
1085
1073
1063
1056
1043
1034
1024
1015
1012
1006
997
992
990
989
987
986
983
977
977
976
977
976
973
970
969
972
977
976
973
968
970
969
972
972
972
969
967
971
974
974
972
968
969
973
977
975
975
969
971
973
976
976
974
971
973
975
979
978
975
972
971
971
977
976
976
973
973
975
979
976
976
975
974
976
979
973
974
975
973
974
978
978
974
970
971
973
977
976
975
973
974
974
976
978
973
973
971
974
979
979
976
973
972
972
976
976
974
970
972
971
974
978
977
975
972
975
978
977
974
971
972
975
977
979
975
973
974
977
977
981
976
975
975
978
979
981
978
975
975
976
982
981
976
976
975
978
979
981
980
977
976
978
980
982
979
974
977
979
980
981
979
978
976
977
978
981
980
977
979
983
982
982
982
981
979
982
984
986
982
980
979
983
982
983
982
979
978
980
984
984
981
978
982
986
990
991
992
991
990
993
996
998
997
996
998
998
1001
1001
999
996
996
999
999
998
994
989
986
984
988
989
987
983
985
989
990
990
989
986
987
989
993
992
991
988
989
990
997
999
996
997
996
996
996
990
982
971
969
975
989
1017
1061
1133
1223
1312
1386
1434
1452
1427
1352
1224
1096
974
938
949
965
970
970
966
965
963
969
978
988
996
1001
1003
1001
1005
1009
1008
1008
1008
1007
1008
1012
1012
1010
1008
1012
1015
1016
1019
1015
1012
1012
1014
1021
1019
1019
1020
1018
1019
1023
1022
1020
1017
1019
1023
1024
1026
1022
1023
1023
1024
1031
1030
1029
1028
1028
1029
1032
1037
1035
1033
1031
1034
1038
1039
1042
1039
1039
1044
1045
1051
1050
1048
1051
1055
1058
1061
1060
1059
1061
1064
1071
1072
1071
1074
1074
1082
1088
1092
1095
1093
1099
1105
1109
1118
1120
1122
1127
1131
1142
1146
1150
1153
1156
1167
1173
1181
1183
1185
1190
1197
1207
1211
1213
1213
1214
1220
1219
1221
1216
1212
1206
1200
1194
1185
1169
1156
1144
1134
1124
1111
1097
1082
1073
1066
1059
1051
1041
1033
1027
1024
1020
1017
1010
1005
1000
1002
1001
1000
996
992
991
992
995
994
992
990
988
989
990
989
991
988
987
990
991
991
989
987
987
986
990
991
989
985
985
987
990
992
990
986
988
990
993
994
989
989
989
988
989
990
992
988
990
990
989
992
992
988
988
984
990
989
988
985
983
985
989
989
986
981
980
983
987
986
985
981
980
984
985
987
984
982
980
982
983
983
982
978
978
981
984
984
983
978
977
979
980
984
981
977
979
979
980
983
979
976
974
976
979
980
979
972
974
976
978
981
979
976
978
979
983
983
979
978
976
980
982
982
979
979
979
981
985
985
982
978
977
976
983
985
981
979
983
989
993
996
992
991
993
994
998
999
999
1001
1002
1004
1003
1001
998
995
992
995
994
996
989
985
981
982
986
985
987
981
982
984
985
987
985
982
983
986
988
989
984
986
989
986
993
992
994
989
990
987
981
976
972
970
974
992
1028
1091
1175
1267
1358
1427
1461
1455
1390
1264
1136
1008
929
941
959
960
958
960
962
966
970
972
982
990
996
1003
1000
998
997
1002
1006
1005
1004
1001
1001
1004
1008
1007
1006
1007
1005
1005
1011
1011
1009
1007
1009
1010
1014
1013
1014
1010
1011
1012
1018
1017
1016
1014
1016
1019
1021
1023
1024
1021
1022
1024
1026
1029
1026
1024
1026
1026
1030
1029
1031
1031
1034
1036
1040
1043
1040
1039
1041
1046
1046
1049
1053
1052
1054
1058
1063
1066
1065
1069
1070
1077
1082
1082
1090
1092
1096
1100
1111
1115
1119
1123
1127
1136
1143
1148
1155
1158
1166
1171
1180
1185
1184
1189
1195
1203
1210
1213
1215
1215
1216
1217
1215
1210
1201
1188
1176
1165
1154
1139
1120
1105
1091
1075
1069
1058
1044
1034
1023
1022
1019
1014
1008
1000
998
999
996
995
991
990
987
991
991
990
987
982
983
984
987
983
985
980
980
983
986
988
984
977
979
983
987
988
987
984
983
986
989
989
986
986
984
986
987
991
988
985
985
987
987
989
987
984
982
986
990
987
987
985
983
985
985
984
984
981
980
982
983
986
983
981
979
981
982
983
981
976
978
978
983
983
983
978
980
980
980
983
979
979
978
979
980
980
979
977
977
977
982
983
978
976
977
979
981
982
979
978
977
981
980
982
980
977
978
980
982
981
980
974
974
980
984
984
982
978
980
981
985
985
982
977
979
981
984
984
982
980
980
980
981
984
981
978
979
979
984
986
982
980
980
982
984
982
981
978
980
981
986
986
984
984
981
985
988
992
991
989
990
989
997
996
996
996
996
1000
1001
997
995
994
996
996
999
994
993
989
985
986
990
988
983
981
986
987
989
989
987
986
985
987
990
990
990
986
988
989
994
996
993
994
990
993
991
984
976
971
973
984
1008
1055
1126
1217
1311
1396
1450
1472
1451
1381
1253
1125
997
931
948
962
965
963
965
968
970
976
984
997
1003
1005
1002
999
1000
1003
1007
1005
1004
1001
1003
1007
1010
1011
1010
1005
1010
1011
1014
1014
1010
1011
1014
1015
1017
1017
1014
1014
1013
1013
1019
1019
1018
1016
1013
1017
1021
1022
1023
1020
1023
1026
1031
1030
1032
1028
1029
1033
1038
1037
1036
1037
1036
1039
1044
1048
1049
1046
1049
1054
1056
1061
1062
1061
1065
1069
1074
1078
1083
1082
1086
1094
1100
1105
1107
1111
1120
1126
1135
1142
1146
1148
1153
1162
1170
1177
1180
1183
1189
1195
1203
1209
1209
1210
1213
1216
1218
1216
1205
1202
1192
1188
1180
1166
1151
1135
1122
1111
1098
1087
1073
1058
1048
1042
1036
1032
1022
1015
1010
1008
1006
1000
997
993
992
992
996
996
990
988
986
987
984
988
989
986
983
986
990
988
986
986
982
988
987
989
986
983
984
985
988
989
989
984
985
987
990
992
987
985
982
984
988
990
988
984
983
984
989
987
981
981
984
982
985
983
983
982
980
981
986
985
984
982
977
982
985
986
980
977
978
982
982
982
982
980
980
980
981
978
977
977
979
979
979
982
981
977
974
979
982
981
980
977
976
978
979
980
976
974
975
980
981
982
983
978
974
978
982
981
978
979
977
978
979
978
977
974
976
981
983
981
982
978
977
978
982
981
980
978
979
981
982
979
982
979
980
981
983
984
977
978
979
982
983
983
980
979
976
980
985
984
980
979
980
980
981
984
984
977
978
981
987
988
987
985
985
990
993
994
994
995
996
998
998
998
998
997
998
999
1000
1000
999
998
995
997
994
992
987
984
982
984
986
988
984
985
985
986
989
988
988
985
982
988
990
991
991
990
992
995
997
998
991
981
974
970
973
983
1009
1059
1144
1253
1350
1422
1463
1465
1426
1332
1204
1076
948
931
947
959
963
961
958
960
964
976
988
997
1001
1000
998
1000
1003
1003
1007
1003
1004
1006
1009
1010
1008
1005
1007
1010
1012
1012
1011
1011
1007
1012
1015
1016
1014
1013
1014
1014
1017
1018
1018
1017
1016
1019
1020
1023
1022
1020
1022
1024
1029
1029
1025
1024
1024
1027
1029
1031
1032
1030
1028
1031
1037
1038
1037
1035
1034
1041
1046
1048
1049
1044
1050
1053
1052
1060
1062
1062
1062
1066
1070
1072
1076
1078
1079
1086
1089
1093
1099
1101
1105
1109
1120
1125
1131
1130
1136
1145
1154
1158
1159
1165
1168
1173
1184
1188
1191
1195
1200
1207
1212
1215
1212
1215
1214
1216
1213
1213
1204
1194
1186
1179
1169
1159
1147
1133
1122
1112
1103
1092
1079
1065
1054
1051
1046
1038
1025
1016
1014
1012
1012
1007
1004
996
993
996
996
995
992
987
988
988
988
988
989
983
981
982
988
989
984
984
978
985
987
987
986
985
983
986
986
988
984
983
984
985
988
989
984
980
982
985
988
989
986
984
983
984
988
987
986
981
982
986
990
987
985
984
982
983
984
984
984
981
