995
1002
1004
1005
1005
1005
1006
1011
1012
1013
1019
1017
1018
1023
1026
1033
1031
1033
1034
1041
1045
1048
1047
1050
1054
1061
1067
1071
1075
1077
1080
1088
1096
1101
1105
1108
1112
1120
1129
1132
1135
1134
1141
1151
1159
1161
1164
1168
1172
1178
1184
1189
1188
1185
1183
1183
1182
1174
1165
1151
1142
1131
1122
1110
1096
1081
1066
1058
1052
1040
1029
1015
1007
1000
998
991
983
978
974
973
971
967
966
961
958
960
960
961
956
954
951
952
954
955
952
951
949
953
956
954
950
949
950
954
958
955
954
952
952
956
957
958
956
955
953
956
959
959
954
952
953
957
959
955
952
949
955
957
958
958
955
952
950
953
955
956
953
950
950
953
954
952
951
950
947
951
951
950
947
944
947
949
952
948
948
944
945
947
948
948
947
947
946
948
950
946
946
942
944
945
948
947
946
944
941
944
948
946
944
946
940
943
948
948
947
944
942
943
947
948
946
940
938
944
949
947
946
941
941
945
946
946
946
941
942
943
947
948
946
943
940
944
946
946
943
943
941
944
946
947
946
943
940
945
946
945
948
943
944
944
946
947
947
939
943
945
948
947
944
942
944
947
947
949
948
946
945
943
946
946
946
945
945
946
951
952
948
947
948
949
953
951
952
949
946
953
960
959
960
961
960
961
966
969
969
966
963
962
966
968
966
963
958
961
961
958
952
949
950
952
953
954
955
950
951
953
955
955
952
953
951
954
959
960
960
955
953
950
940
936
941
961
1023
1136
1263
1380
1435
1413
1302
1174
1046
918
902
931
933
931
931
938
951
962
965
966
970
970
967
968
967
969
975
975
973
973
971
975
976
978
976
974
977
979
981
979
979
978
978
979
983
984
984
986
982
987
988
991
987
985
986
990
995
996
994
991
991
995
1002
1002
1004
1001
1002
1008
1010
1013
1011
1011
1015
1016
1024
1024
1021
1025
1027
1031
1037
1039
1041
1044
1048
1055
1057
1063
1066
1066
1072
1076
1086
1091
1095
1099
1102
1109
1118
1125
1130
1132
1137
1145
1151
1157
1158
1161
1168
1175
1182
1184
1184
1184
1184
1185
1184
1181
1172
1162
1150
1142
1134
1123
1108
1094
1081
1068
1057
1046
1033
1023
1015
1006
1004
996
990
983
978
978
979
977
971
965
963
967
967
967
964
959
961
963
965
962
963
958
961
959
961
962
961
960
957
961
966
966
964
963
962
963
966
965
964
961
962
963
964
963
962
960
961
964
965
966
965
963
962
965
967
965
965
962
961
964
966
962
964
960
960
959
962
964
962
960
958
958
963
965
958
960
960
961
964
964
959
960
959
960
961
961
960
956
957
957
960
962
958
957
957
960
965
961
959
957
956
960
959
960
961
957
955
958
959
962
961
958
958
959
963
963
961
957
959
958
962
960
960
956
956
959
962
960
959
960
957
960
962
963
961
958
958
956
963
963
962
959
959
960
965
964
959
959
957
960
964
964
960
960
958
963
964
965
964
963
963
963
968
969
965
962
962
964
966
967
965
963
964
967
970
968
968
964
964
963
968
969
969
966
966
967
972
970
969
966
968
969
974
977
974
974
973
979
979
979
978
981
983
987
989
985
983
980
981
982
984
984
982
977
974
973
974
976
972
972
969
972
976
978
975
975
975
975
978
980
978
977
975
978
985
986
985
981
980
977
972
967
960
958
971
1003
1059
1143
1235
1322
1389
1433
1443
1400
1301
1173
1045
922
920
941
952
949
945
944
950
954
962
967
980
985
992
990
990
991
991
994
996
998
997
991
991
996
1002
1000
999
997
998
1002
1004
1003
1000
1002
998
1004
1007
1008
1007
1005
1006
1006
1010
1012
1010
1010
1010
1015
1016
1017
1015
1015
1014
1019
1021
1021
1016
1015
1018
1022
1026
1028
1027
1025
1027
1030
1036
1038
1037
1038
1035
1041
1047
1047
1048
1049
1051
1054
1060
1061
1064
1066
1071
1076
1080
1084
1087
1088
1091
1100
1104
1109
1110
1113
1118
1125
1130
1134
1138
1140
1145
1153
1156
1162
1167
1167
1173
1179
1185
1189
1192
1195
1199
1202
1206
1208
1205
1197
1199
1198
1194
1186
1175
1162
1150
1145
1133
1123
1106
1094
1083
1076
1069
1058
1046
1034
1026
1021
1019
1014
1004
998
996
993
993
990
986
982
980
981
984
983
978
977
973
975
976
976
975
971
971
971
974
976
973
968
972
973
976
974
974
970
971
972
976
976
977
975
972
975
977
978
975
973
971
973
980
977
976
974
974
975
976
977
975
973
973
974
976
976
975
972
972
974
975
974
972
972
971
971
973
973
971
969
970
970
972
973
971
966
968
970
972
971
970
963
967
969
968
968
968
965
964
969
969
967
968
966
965
967
970
970
968
962
963
967
969
970
966
965
964
965
969
970
966
966
965
968
971
970
968
965
964
967
970
970
969
965
965
969
968
972
969
966
967
972
973
973
970
967
967
970
972
972
972
970
970
973
977
977
978
975
980
981
983
986
985
984
986
990
992
989
988
983
985
987
987
985
980
978
972
973
974
974
971
969
969
971
973
971
971
968
971
973
976
974
974
970
970
972
974
975
974
972
975
977
975
975
968
961
956
953
957
961
976
1011
1080
1168
1262
1341
1400
1427
1419
1368
1265
1137
1009
922
916
935
946
943
940
937
939
946
953
964
967
973
981
985
988
987
987
982
983
987
992
991
991
986
986
990
993
993
989
987
990
992
996
995
993
993
991
994
996
995
994
994
991
995
999
1000
995
995
997
996
1000
1003
999
1003
1000
1001
1010
1008
1009
1008
1008
1008
1012
1016
1017
1011
1015
1017
1023
1025
1019
1020
1022
1028
1030
1033
1032
1030
1035
1038
1042
1044
1042
1047
1048
1052
1058
1061
1062
1065
1070
1075
1085
1087
1087
1091
1096
1104
1113
1116
1120
1122
1127
1134
1139
1146
1149
1152
1157
1164
1170
1172
1179
1179
1179
1188
1194
1194
1189
1186
1187
1187
1183
1174
1164
1153
1144
1133
1122
1113
1097
1083
1072
1063
1053
1043
1032
1020
1013
1007
1002
996
988
980
976
975
977
973
969
965
963
964
964
961
957
953
954
958
960
959
952
950
951
954
957
955
954
952
947
955
956
957
954
953
951
953
958
954
954
952
953
955
957
956
954
953
955
959
960
960
956
954
954
956
960
960
955
955
954
957
960
957
955
950
949
955
958
956
952
949
950
950
955
954
950
948
947
949
952
951
950
944
947
951
953
951
946
946
944
946
947
947
946
941
941
945
946
946
944
942
943
944
949
946
945
942
944
945
949
946
942
939
942
941
944
945
942
940
938
940
946
946
943
940
938
941
947
947
943
938
937
943
945
943
944
941
941
943
946
944
939
937
938
940
942
943
940
937
935
940
945
943
941
940
939
943
944
939
940
936
937
942
944
943
938
939
940
942
946
944
940
938
940
946
949
949
951
950
950
953
959
961
957
956
955
959
964
966
963
960
957
962
965
963
959
955
953
952
956
953
950
948
947
950
950
952
949
949
951
953
956
955
955
953
955
958
959
960
960
961
962
963
963
958
950
944
940
939
950
971
1011
1076
1168
1269
1354
1413
1436
1419
1351
1223
1095
967
900
915
935
943
943
942
943
947
958
971
982
988
987
987
985
988
990
991
993
990
989
994
1000
1001
999
996
1000
1002
1007
1006
1006
1005
1006
1009
1011
1012
1014
1011
1011
1013
1020
1017
1018
1017
1020
1021
1025
1026
1025
1023
1026
1030
1033
1036
1034
1033
1035
1040
1042
1042
1043
1039
1045
1050
1055
1057
1058
1056
1058
1062
1066
1069
1071
1072
1073
1080
1085
1089
1091
1092
1097
1102
1107
1110
1113
1116
1121
1127
1133
1139
1144
1146
1149
1159
1168
1169
1176
1179
1184
1191
1197
1203
1208
1211
1215
1222
1230
1237
1238
1239
1241
1244
1249
1246
1243
1235
1226
1223
1216
1203
1189
1176
1161
1155
1150
1134
1123
1110
1098
1095
1090
1087
1075
1070
1063
1062
1063
1058
1055
1049
1050
1049
1052
1051
1048
1046
1045
1047
1050
1047
1044
1044
1046
1046
1049
1049
1049
1044
1046
1049
1052
1052
1049
1048
1050
1055
1054
1053
1055
1053
1053
1054
1057
1059
1059
1056
1058
1059
1064
1063
1062
1059
1060
1063
1066
1068
1067
1064
1063
1066
1070
1070
1067
1065
1065
1070
1071
1070
1068
1066
1066
1067
1071
1068
1068
1067
1066
1071
1073
1071
1070
1069
1067
1071
1076
1075
1072
1072
1071
1075
1077
1077
1075
1074
1072
1073
1078
1080
1077
1075
1074
1077
1081
1080
1078
1075
1077
1078
1082
1083
1080
1080
1078
1082
1088
1086
1083
1083
1081
1082
1086
1088
1086
1085
1086
1087
1091
1093
1091
1086
1086
1089
1091
1094
1090
1088
1088
1091
1095
1093
1091
1091
1090
1094
1096
1095
1091
1092
1092
1093
1099
1098
1096
1095
1096
1099
1101
1099
1097
1097
1097
1102
1103
1100
1097
1098
1099
1101
1105
1106
1099
1099
1100
1105
1107
1105
1105
1103
1098
1102
1106
1101
1103
1103
1105
1107
1108
1110
1104
1104
1108
1111
1114
1115
1115
1113
1114
1118
1126
1125
1118
1118
1122
1126
1128
1127
1122
1121
1121
1123
1128
1125
1122
1116
1116
1118
1116
1114
1111
1110
1112
1106
1111
1114
1115
1108
1111
1115
1118
1118
1116
1111
1112
1115
1117
1114
1113
1116
1117
1119
1120
1115
1107
1097
1092
1093
1096
1106
1128
1169
1235
1316
1393
1450
1479
1484
1468
1418
1316
1188
1069
1045
1068
1093
1099
1091
1091
1092
1096
1110
1124
1130
1129
1131
1132
1135
1137
1138
1135
1132
1135
1137
1138
1138
1139
1137
1137
1138
1142
1142
1140
1138
1137
1140
1142
1142
1141
1140
1136
1140
1140
1144
1141
1139
1137
1145
1148
1145
1145
1142
1144
1143
1145
1147
1143
1144
1142
1149
1153
1152
1150
1149
1150
1154
1157
1159
1155
1154
1160
1160
1166
1166
1168
1168
1169
1173
1177
1181
1182
1182
1184
1188
1194
1193
1201
1201
1204
1209
1216
1222
1225
1229
1233
1238
1246
1249
1256
1257
1257
1266
1272
1278
1281
1285
1284
1291
1300
1302
1303
1301
1298
1298
1295
1285
1272
1260
1252
1243
1233
1221
1205
1192
1179
1171
1166
1154
1141
1129
1127
1121
1119
1115
1109
1105
1101
1099
1101
1097
1090
1089
1085
1084
1086
1087
1082
1080
1079
1083
1084
1078
1076
1074
1075
1075
1079
1076
1075
1072
1072
1075
1076
1073
1070
1069
1071
1072
1076
1076
1070
1068
1070
1074
1071
1069
1066
1067
1066
1071
1071
1072
1070
1067
1066
1070
1067
1070
1063
1063
1062
1064
1064
1065
1060
1057
1055
1059
1061
1060
1055
1054
1054
1056
1058
1059
1053
1051
1052
1052
1054
1055
1047
1049
1047
1047
1049
1048
1045
1044
1046
1046
1050
1046
1046
1041
1041
1043
1044
1041
1041
1037
1038
1040
1043
1041
1038
1032
1038
1039
1043
1039
1038
1036
1035
1033
1040
1037
1033
1032
1033
1038
1038
1037
1033
1031
1031
1033
1035
1032
1031
1029
1028
1032
1035
1031
1030
1028
1027
1030
1031
1029
1027
1026
1026
1025
1029
1028
1023
1022
1021
1020
1022
1022
1019
1018
1019
1020
1021
1023
1020
1018
1019
1019
1023
1022
1021
1017
1020
1018
1023
1021
1018
1016
1019
1021
1025
1023
1023
1021
1023
1024
1025
1025
1022
1026
1022
1027
1026
1026
1023
1024
1019
1019
1022
1018
1015
1009
1009
1011
1011
1010
1008
1007
1005
1007
1010
1008
1005
1005
1006
1005
1011
1009
1007
1006
1004
1006
1010
1007
1004
996
986
982
982
981
986
1005
1047
1121
1206
1288
1344
1369
1368
1334
1253
1125
997
922
935
964
977
971
964
962
969
976
989
996
1005
1005
1007
1008
1009
1008
1007
1004
1006
1008
1010
1011
1007
1004
1008
1009
1013
1010
1010
1009
1009
1010
1016
1016
1014
1013
1012
1016
1017
1017
1014
1013
1014
1015
1020
1016
1014
1016
1015
1018
1019
1022
1019
1015
1016
1022
1024
1025
1024
1022
1021
1025
1029
1030
1030
1030
1028
1032
1039
1038
1038
1039
1040
1041
1049
1050
1049
1051
1054
1058
1065
1068
1069
1072
1076
1083
1090
1094
1098
1099
1102
1110
1118
1121
1124
1128
1133
1140
1147
1154
1155
1155
1160
1165
1173
1173
1171
1172
1168
1167
1165
1157
1146
1131
1122
1111
1100
1087
1071
1056
1042
1037
1030
1018
1007
998
991
987
985
981
973
968
965
967
966
964
959
956
953
956
956
954
951
945
946
948
947
949
944
940
942
944
947
945
943
940
940
940
945
945
941
938
939
940
943
942
940
936
933
936
940
942
939
937
940
942
944
940
939
936
937
938
939
936
936
934
932
932
936
935
929
931
929
931
934
933
927
926
922
927
930
928
925
922
922
922
926
927
923
921
920
924
923
923
919
917
916
920
921
922
919
915
915
918
920
919
918
915
913
915
917
918
918
913
910
911
915
916
912
907
907
909
908
910
908
908
906
909
913
910
906
906
905
910
910
911
908
906
906
908
906
910
908
908
906
914
918
920
917
915
915
921
924
922
916
911
914
914
918
913
908
903
902
900
906
902
899
896
897
898
902
902
898
897
897
897
901
901
897
901
901
904
903
905
902
894
889
883
878
876
878
889
926
983
1063
1150
1225
1283
1315
1316
1279
1185
1057
929
836
829
853
867
863
855
859
864
874
880
889
896
903
909
910
910
909
905
906
909
912
912
910
907
909
913
914
914
912
911
909
914
918
916
913
912
913
915
920
920
917
914
915
917
921
924
919
920
920
924
927
926
922
917
923
925
926
926
928
923
926
929
931
934
933
929
931
935
939
940
939
937
939
945
951
950
948
950
953
957
961
964
965
964
966
971
978
981
983
984
990
997
1002
1007
1009
1009
1017
1022
1030
1034
1035
1040
1042
1049
1054
1066
1066
1065
1073
1079
1087
1089
1092
1093
1096
1100
1105
1101
1096
1093
1085
1079
1075
1066
1052
1037
1028
1021
1010
996
984
973
960
954
946
936
927
918
911
907
904
899
892
884
883
883
882
879
873
870
870
872
872
867
867
865
866
867
867
866
862
862
860
864
865
866
863
858
860
864
866
866
863
861
860
863
867
864
864
862
860
864
866
867
862
859
859
864
866
866
860
860
861
864
866
866
864
857
861
861
865
863
863
857
857
858
859
862
859
853
855
856
861
858
858
854
854
857
859
856
853
850
851
853
855
856
853
848
851
853
852
855
850
849
849
852
853
853
849
847
847
848
851
853
848
845
845
847
852
850
849
846
843
847
851
848
851
845
844
849
849
847
844
843
843
847
849
845
843
841
842
845
848
847
843
843
844
845
846
847
845
844
842
843
845
848
842
842
841
843
844
844
845
842
841
841
849
845
841
842
841
842
844
843
838
837
840
841
844
844
841
839
841
843
846
845
842
840
838
841
844
843
841
838
841
842
846
844
840
840
839
844
848
847
845
845
847
852
858
856
854
850
852
858
863
862
856
854
855
857
860
858
854
850
849
850
848
847
843
841
843
843
845
847
844
844
842
848
849
846
846
843
845
849
852
850
848
845
850
851
854
852
846
836
831
828
832
835
847
873
925
1008
1099
1181
1248
1290
1306
1291
1225
1102
974
846
782
796
815
821
815
809
812
820
830
838
842
847
853
854
857
857
857
855
856
859
861
859
859
856
857
863
862
866
863
861
863
865
867
864
865
865
865
867
868
869
866
865
867
867
872
872
870
870
869
875
879
875
876
876
872
876
880
883
881
878
882
884
888
887
886
884
888
890
894
897
896
894
894
897
906
903
902
905
905
912
915
918
918
920
924
929
934
937
939
940
944
950
958
961
963
967
971
981
987
991
995
999
1004
1011
1019
1024
1026
1029
1032
1038
1045
1053
1053
1053
1059
1065
1070
1069
1065
1061
1061
1061
1059
1050
1039
1028
1017
1009
1000
986
972
959
949
941
934
923
912
899
893
890
886
876
870
865
860
860
860
856
849
847
849
849
851
847
842
842
841
843
844
845
842
839
839
840
843
844
841
842
839
842
843
848
845
840
844
845
851
848
847
842
844
844
847
849
847
842
844
847
850
849
847
845
847
850
853
851
850
847
847
851
851
847
846
846
845
846
851
850
847
846
846
847
848
846
841
843
847
848
849
850
846
842
843
846
848
849
845
843
842
846
849
847
847
843
845
845
846
847
846
845
845
846
849
848
844
844
844
845
847
849
845
843
845
848
851
850
848
845
847
850
852
850
847
847
848
850
852
850
849
848
846
851
853
853
852
849
849
854
858
852
853
850
849
851
857
856
852
851
853
856
858
858
854
854
854
858
860
859
856
856
856
858
862
859
859
858
855
858
863
860
860
857
859
862
864
863
862
860
859
859
863
863
862
859
860
865
866
867
862
862
860
865
868
867
864
863
866
867
870
871
870
870
871
877
882
880
877
874
878
885
887
887
883
880
882
884
888
884
881
877
877
876
878
875
870
870
870
874
876
878
874
873
875
873
878
880
880
877
879
881
884
887
885
883
886
887
886
880
872
864
860
870
892
930
993
1080
1179
1268
1329
1356
1350
1299
1202
1074
946
849
833
844
860
858
860
858
860
864
873
883
891
901
901
898
898
901
903
901
900
900
901
904
908
908
906
905
906
909
912
911
908
909
908
913
917
917
915
912
915
915
921
918
918
917
917
921
923
923
922
920
921
923
930
931
928
924
928
931
934
934
934
933
935
940
942
943
941
943
945
951
953
954
947
949
953
959
962
962
960
962
965
971
975
977
980
980
984
991
998
1001
1002
1003
1008
1015
1023
1027
1029
1031
1037
1046
1054
1058
1060
1064
1070
1076
1084
1089
1091
1094
1097
1108
1115
1121
1123
1125
1126
1134
1137
1135
1131
1125
1122
1116
1113
1103
1090
1076
1061
1051
1043
1029
1013
999
991
984
976
967
956
949
942
941
940
935
927
923
919
921
922
921
915
914
914
917
920
917
914
911
910
914
915
915
911
910
914
916
919
918
915
915
915
918
921
920
916
915
913
919
922
921
919
917
918
923
925
922
919
919
919
922
926
925
923
922
922
923
927
925
922
922
924
924
925
926
922
921
922
924
927
927
924
921
922
923
929
925
926
921
921
925
926
927
924
921
919
923
926
926
925
923
924
927
927
928
926
925
925
928
927
928
927
925
926
928
927
930
927
927
926
930
933
931
930
928
930
930
932
929
926
926
929
933
935
934
933
932
