996
997
1000
1000
999
997
995
997
998
1004
1001
998
999
1000
1002
1005
1005
1003
1000
1001
1005
1006
1008
1005
1005
1006
1010
1010
1009
1010
1009
1010
1015
1018
1018
1017
1017
1020
1022
1026
1023
1025
1026
1028
1033
1036
1038
1038
1037
1041
1047
1053
1054
1055
1057
1060
1067
1075
1079
1079
1080
1082
1091
1097
1103
1106
1108
1114
1124
1133
1136
1139
1141
1148
1154
1158
1166
1160
1168
1170
1176
1176
1178
1176
1170
1167
1161
1159
1146
1132
1120
1108
1095
1089
1077
1062
1049
1038
1029
1022
1011
1001
991
988
984
984
978
972
968
967
967
968
964
962
959
958
960
962
959
957
952
952
955
957
956
953
953
953
954
958
957
954
950
950
953
958
956
953
951
948
952
960
955
950
948
952
951
957
953
950
947
950
952
956
953
951
950
949
953
952
950
949
949
950
951
955
952
947
948
947
948
951
950
949
945
946
946
949
948
947
943
941
942
945
950
945
943
942
946
947
945
945
942
942
945
946
945
943
941
937
941
943
942
941
938
937
940
943
942
937
936
938
937
939
941
938
937
937
939
945
944
941
939
939
942
941
940
939
936
939
941
941
941
938
937
938
940
944
942
939
937
939
946
946
946
948
945
944
951
954
954
955
952
952
955
957
956
952
947
949
950
952
947
942
936
940
939
942
939
937
935
936
940
944
940
938
936
935
936
939
938
937
932
937
939
943
943
941
936
930
926
925
919
919
935
985
1073
1191
1304
1380
1403
1335
1207
1079
951
865
904
916
910
909
913
926
937
944
947
947
944
942
942
943
947
951
952
947
945
947
950
951
952
952
948
949
950
954
954
952
949
950
953
957
956
956
954
956
959
962
963
959
958
961
964
969
968
969
967
969
971
974
976
975
974
979
981
986
987
985
989
992
996
1001
1003
1003
1005
1008
1015
1020
1023
1026
1026
1035
1043
1046
1052
1054
1056
1068
1075
1082
1087
1091
1095
1101
1109
1115
1120
1124
1126
1132
1139
1144
1147
1144
1142
1143
1142
1138
1130
1117
1106
1097
1086
1074
1059
1047
1032
1016
1007
999
988
975
964
955
952
948
942
936
929
928
928
925
923
918
915
914
917
915
915
910
909
909
909
910
911
910
906
904
909
912
910
908
904
905
909
913
910
909
907
908
911
913
911
910
907
907
913
913
914
914
912
914
914
917
916
911
908
911
914
916
914
914
911
911
911
913
915
911
908
909
911
913
912
911
908
906
909
908
910
906
906
905
908
911
908
905
903
907
908
910
908
905
899
904
906
906
904
902
901
903
903
904
903
898
900
901
903
906
905
902
900
900
901
902
904
902
898
899
901
901
900
900
898
897
899
904
904
901
896
900
902
905
903
901
900
900
900
903
905
903
899
899
902
901
904
902
900
902
903
907
905
902
900
900
902
908
908
905
903
903
903
907
908
906
903
904
908
911
909
908
905
912
914
919
921
917
916
915
923
926
926
926
920
921
924
926
923
920
919
919
921
920
918
911
909
909
911
912
912
910
908
910
914
914
914
909
908
911
914
919
916
915
913
915
917
918
919
920
917
915
913
909
903
899
898
904
928
969
1030
1112
1203
1290
1353
1390
1395
1354
1267
1139
1011
898
867
874
884
890
887
890
890
891
895
902
915
925
928
925
924
925
928
927
930
926
927
928
931
933
935
932
931
930
933
935
937
932
934
934
939
940
940
936
936
935
940
943
942
939
939
940
940
945
943
943
943
943
948
950
948
947
945
948
950
953
952
949
948
951
953
957
957
955
955
956
963
968
965
967
965
967
971
975
980
977
975
980
985
991
989
991
993
997
1000
1005
1005
1007
1011
1014
1020
1026
1033
1037
1039
1043
1050
1057
1065
1065
1068
1075
1083
1089
1095
1096
1100
1105
1114
1121
1121
1126
1126
1131
1135
1140
1139
1138
1137
1134
1131
1130
1121
1111
1099
1090
1083
1075
1061
1048
1033
1024
1016
1010
998
985
975
966
961
959
953
945
940
935
935
936
932
926
922
921
925
924
922
918
913
916
917
917
918
913
912
912
913
916
915
913
910
913
915
916
914
914
911
912
916
918
916
915
912
914
916
920
921
919
915
915
917
919
918
916
916
918
920
921
920
918
916
914
916
921
924
918
918
915
919
921
921
919
916
916
920
923
921
916
915
915
917
921
918
917
912
915
919
917
917
916
915
917
921
923
922
919
916
917
921
923
922
918
919
916
920
923
926
921
918
921
925
926
928
923
920
922
925
929
927
925
923
924
928
928
929
925
924
927
928
933
932
927
924
926
930
932
932
929
926
928
932
935
937
933
932
933
937
940
937
934
934
934
939
940
938
935
934
936
939
941
939
937
937
938
942
944
943
939
938
940
944
948
946
946
944
944
945
948
947
946
941
945
947
950
952
949
949
948
952
954
954
954
950
950
952
957
957
957
956
957
959
962
962
965
964
969
971
972
974
974
972
976
973
978
974
975
970
974
975
979
977
972
972
969
972
971
967
967
965
967
970
971
974
969
965
969
974
977
976
974
974
974
976
979
980
979
978
982
982
983
980
970
965
960
963
971
984
1016
1077
1172
1282
1377
1436
1455
1431
1350
1222
1094
966
922
942
959
962
959
956
959
963
972
980
988
998
999
1000
996
1002
1003
1005
1003
1001
1005
1011
1008
1008
1008
1007
1010
1011
1017
1017
1012
1010
1013
1017
1020
1018
1017
1016
1017
1021
1024
1023
1020
1020
1022
1026
1030
1029
1027
1027
1025
1029
1035
1033
1031
1030
1033
1034
1038
1036
1036
1032
1038
1044
1047
1047
1044
1046
1049
1052
1057
1057
1055
1056
1060
1064
1070
1071
1071
1072
1074
1079
1085
1088
1089
1089
1097
1102
1106
1110
1111
1116
1124
1132
1136
1141
1143
1147
1156
1164
1169
1172
1174
1174
1182
1187
1192
1200
1200
1204
1206
1211
1217
1222
1220
1218
1218
1220
1218
1212
1206
1193
1187
1181
1176
1165
1152
1135
1128
1120
1111
1100
1087
1071
1063
1058
1053
1045
1039
1032
1029
1027
1028
1025
1019
1016
1017
1018
1019
1018
1011
1011
1010
1009
1013
1012
1010
1007
1005
1009
1011
1012
1010
1006
1007
1010
1013
1011
1011
1010
1007
1011
1013
1010
1008
1007
1007
1011
1013
1012
1009
1008
1009
1008
1012
1010
1008
1006
1010
1011
1013
1012
1010
1009
1012
1013
1015
1012
1008
1008
1008
1010
1011
1010
1008
1005
1006
1008
1012
1012
1007
1006
1005
1010
1011
1009
1005
1005
1007
1010
1011
1007
1003
1004
1004
1006
1007
1004
1004
1002
1004
1005
1007
1007
1003
1000
1002
1005
1008
1006
1003
1000
1000
1006
1005
1005
1002
1002
1000
1004
1004
1006
1002
999
1001
1004
1006
1006
1003
999
1000
999
1002
1001
1002
999
997
1001
1004
1004
998
997
1000
1000
1003
1002
998
996
997
999
1004
1002
1001
999
1001
1003
1005
1003
1002
998
1001
1002
1004
1003
999
998
1000
1002
1005
1003
1001
998
1001
1003
1003
1004
1002
1000
1001
1005
1005
1003
1005
1003
1005
1008
1012
1011
1011
1009
1010
1012
1015
1019
1018
1014
1014
1015
1018
1016
1012
1009
1005
1008
1008
1005
999
996
997
999
1004
1003
1001
1002
1002
1003
1003
1005
1001
999
1002
1003
1007
1004
1003
1004
1001
997
993
987
979
977
994
1028
1094
1185
1283
1365
1426
1447
1424
1329
1201
1073
945
936
967
977
965
961
963
972
984
994
1002
1007
1007
1009
1013
1013
1008
1008
1009
1013
1017
1015
1011
1011
1014
1016
1018
1014
1012
1012
1014
1016
1019
1017
1016
1016
1016
1019
1023
1021
1021
1017
1015
1022
1027
1023
1022
1018
1024
1027
1029
1029
1027
1026
1030
1033
1035
1036
1035
1035
1037
1042
1047
1046
1045
1043
1050
1053
1057
1055
1057
1058
1061
1067
1072
1074
1072
1075
1081
1086
1091
1093
1095
1099
1103
1109
1116
1122
1122
1122
1130
1139
1146
1147
1146
1149
1156
1165
1171
1174
1173
1179
1183
1189
1194
1194
1191
1191
1192
1190
1191
1183
1170
1160
1153
1146
1137
1125
1110
1097
1088
1076
1064
1054
1043
1030
1021
1014
1010
1002
992
986
985
984
981
978
974
967
967
967
966
966
963
958
958
960
960
959
957
955
953
956
957
954
952
954
954
958
953
956
951
953
953
956
958
959
954
952
952
957
958
959
955
951
950
953
953
954
951
947
948
950
951
951
948
945
946
950
949
951
946
943
943
946
949
946
941
941
943
942
943
944
938
938
939
938
943
941
937
935
934
938
940
936
934
934
934
935
939
935
931
927
928
930
935
934
931
931
931
932
932
931
929
927
927
930
932
930
926
923
925
929
931
927
929
924
923
926
931
927
924
922
924
928
930
928
925
925
922
930
931
931
931
930
932
937
937
937
936
934
938
942
945
943
940
936
936
938
936
936
928
927
925
927
921
922
919
918
918
921
922
920
918
915
919
919
920
920
915
916
917
920
921
922
919
917
921
922
923
922
917
908
906
904
903
903
913
942
1002
1091
1189
1277
1336
1367
1366
1321
1216
1088
960
863
860
877
891
886
881
881
886
892
899
905
910
919
924
925
928
927
926
925
927
929
932
931
924
924
927
931
930
931
928
925
927
928
933
930
928
929
930
932
936
932
930
930
934
935
937
935
937
934
936
940
940
942
941
938
940
944
948
944
944
943
946
949
954
954
951
951
955
958
963
962
960
959
958
967
969
972
972
974
976
981
983
987
987
989
992
998
1001
1008
1008
1008
1017
1025
1031
1036
1039
1042
1048
1056
1065
1068
1072
1076
1082
1088
1097
1097
1101
1102
1110
1117
1122
1126
1126
1126
1125
1124
1116
1108
1099
1088
1078
1068
1057
1044
1028
1012
997
988
977
970
958
943
939
932
931
923
917
912
909
909
909
904
902
899
898
899
900
898
896
890
889
895
896
896
892
888
889
893
893
894
892
890
892
894
894
894
892
893
893
897
896
895
893
892
890
893
894
895
893
890
894
895
898
895
897
894
895
897
898
898
896
894
893
893
897
892
892
890
893
893
894
893
891
888
889
891
894
893
887
885
887
890
892
888
886
884
886
889
888
888
888
883
886
890
894
888
886
885
886
888
890
888
886
886
887
888
890
889
887
884
886
887
893
891
887
886
886
889
891
886
885
885
888
889
890
889
887
887
885
889
892
888
885
885
884
888
888
886
888
884
887
890
893
887
889
888
887
891
892
894
891
888
893
893
896
895
894
893
895
898
902
900
899
900
905
910
909
909
907
906
912
915
915
911
905
906
906
911
910
906
902
899
896
896
898
897
893
894
898
901
904
903
898
898
897
903
906
904
902
899
903
904
908
904
905
903
904
906
904
899
890
886
885
891
910
944
997
1075
1173
1260
1329
1365
1367
1323
1231
1103
975
862
849
865
876
880
877
875
874
879
887
900
909
912
912
910
913
914
916
914
913
910
914
917
919
917
914
912
914
915
920
918
918
916
920
921
925
922
919
919
922
923
927
926
924
923
926
927
930
927
926
926
927
929
933
932
934
932
933
935
937
936
937
938
939
943
946
945
945
945
946
952
955
957
956
954
960
964
967
969
969
970
976
981
985
990
990
992
997
1004
1008
1014
1014
1019
1025
1032
1039
1049
1051
1055
1063
1069
1078
1083
1087
1092
1097
1104
1112
1115
1115
1118
1123
1128
1130
1128
1122
1114
1108
1103
1094
1082
1066
1051
1037
1027
1017
1002
992
977
972
963
956
949
940
935
930
928
924
923
917
911
911
910
913
912
907
907
907
909
910
906
906
903
901
902
903
901
900
902
904
907
907
906
902
903
905
907
909
906
902
902
904
904
908
909
904
904
906
908
909
908
904
904
905
908
910
909
906
906
906
909
911
910
907
906
905
908
912
911
908
907
906
907
912
909
907
904
905
909
910
910
906
908
908
910
914
909
906
904
903
904
911
909
908
906
906
907
912
910
909
905
908
910
911
911
908
905
909
910
911
909
908
908
905
911
914
912
909
904
908
910
911
911
909
907
907
910
912
911
910
905
909
913
913
912
912
911
910
914
917
917
914
912
913
914
918
915
913
913
913
914
916
916
915
914
914
919
919
917
916
914
915
916
917
918
916
915
916
918
921
921
920
917
920
922
924
921
921
920
920
925
923
920
921
921
921
922
926
927
923
919
924
925
927
929
927
926
930
935
938
939
938
937
940
943
944
936
933
932
935
935
933
931
925
925
924
929
931
931
927
929
926
931
932
934
931
927
934
935
936
939
936
932
926
923
920
921
940
980
1060
1167
1278
1361
1408
1413
1358
1240
1112
984
876
885
906
912
912
907
911
912
926
939
947
947
946
944
944
946
950
948
943
945
946
948
955
955
951
947
950
953
956
953
953
950
953
954
956
958
954
954
956
960
962
963
959
958
960
963
967
967
963
964
964
968
971
972
969
971
972
974
976
976
974
975
980
981
985
987
985
981
986
990
997
998
998
998
1002
1006
1011
1015
1013
1017
1021
1027
1031
1035
1037
1040
1044
1054
1062
1067
1069
1071
1079
1089
1095
1099
1100
1108
1113
1117
1126
1133
1133
1140
1148
1155
1159
1162
1158
1159
1157
1160
1159
1152
1139
1130
1123
1111
1102
1088
1072
1057
1046
1040
1032
1018
1005
998
989
983
981
974
968
959
959
957
956
950
949
944
945
949
949
944
940
941
944
944
944
944
941
940
942
941
943
942
941
940
939
944
946
945
940
936
940
943
943
940
940
937
940
943
945
942
935
938
938
941
945
942
941
942
943
945
945
942
940
937
941
942
947
945
941
939
941
943
944
943
941
939
940
942
943
943
938
939
939
944
941
940
936
937
938
940
942
941
939
937
940
941
942
940
939
937
935
939
941
939
938
938
937
937
942
941
940
937
937
941
944
942
940
936
940
945
944
944
939
937
938
941
942
941
940
939
939
942
940
943
942
938
938
944
947
945
941
939
941
943
942
946
942
942
944
945
946
947
944
943
944
946
949
947
942
941
944
946
948
947
947
944
944
946
951
950
947
947
949
948
948
949
950
947
949
953
954
952
949
949
952
955
957
956
952
952
949
953
956
956
952
949
954
958
958
959
958
958
958
960
963
968
964
961
965
974
976
975
969
969
967
970
974
972
965
962
962
963
962
958
956
957
958
961
963
961
958
958
959
962
966
962
961
961
964
967
967
967
968
966
969
972
971
966
958
950
947
951
963
983
1029
1105
1204
1297
1375
1420
1426
1403
1326
1211
1083
962
919
923
940
942
942
937
935
937
942
950
960
966
971
974
976
980
983
980
980
978
979
981
984
984
980
976
980
986
987
987
982
980
984
987
989
987
984
983
985
992
994
990
987
985
988
993
992
992
993
992
993
997
1000
998
996
996
999
1002
1001
1002
1002
1003
1003
1005
1009
1006
1006
1006
1011
1013
1016
1017
1017
1017
1020
1023
1030
1029
1029
1031
1035
1039
1045
1046
1046
1046
1051
1057
1063
1064
1065
1071
1074
1084
1089
1095
1094
1100
1107
1113
1122
1127
1130
1131
1138
1148
1154
1158
1162
1164
1169
1177
1184
1187
1187
1182
1188
1188
1189
1183
1173
1164
1157
1144
1135
1121
1106
1088
1081
1072
1059
1048
1031
1023
1016
1012
1008
998
992
989
984
983
980
981
977
972
971
972
972
971
967
963
964
967
968
969
965
960
962
967
969
968
964
961
964
967
968
966
964
962
965
967
967
968
965
962
967
968
970
969
965
965
968
970
972
969
968
963
963
967
971
969
968
967
968
967
970
969
970
968
966
969
972
969
965
966
966
969
969
967
968
963
964
968
969
967
968
963
961
968
971
968
966
964
966
968
971
967
966
964
964
966
967
967
963
960
962
965
966
964
960
960
963
964
966
965
961
963
963
963
967
965
962
960
961
962
965
962
959
961
965
965
966
965
958
961
962
965
964
960
961
959
960
964
966
963
962
960
963
963
966
967
964
963
966
969
972
973
970
972
974
976
978
976
976
974
980
984
986
983
981
978
980
982
982
978
975
972
971
970
970
967
965
960
964
963
968
966
963
964
962
968
969
970
966
966
968
971
972
973
973
971
972
975
978
973
968
961
957
954
956
949
954
971
1009
1069
1150
1240
1325
1389
1428
1434
1386
1280
1152
1024
920
917
937
943
938
935
935
940
944
948
954
961
970
978
981
980
978
977
977
981
984
982
979
980
980
981
982
984
983
980
984
987
988
987
985
985
987
989
991
990
989
988
989
989
993
995
992
988
994
997
997
998
993
995
996
999
1002
1002
997
996
1001
1004
1006
1006
1007
1005
1004
1010
1014
1015
1015
1014
1017
1018
1022
1020
1023
1023
1026
1030
1033
1037
1036
1038
1041
1044
1049
1053
1051
1055
1057
1065
1071
1075
1076
1079
1084
1091
1098
1101
1106
1110
1118
1124
1131
1135
1138
1144
1150
1155
1163
1164
1166
1168
1177
1186
1190
1192
1192
1191
1192
1193
1192
1186
1176
1169
1161
1153
1144
1131
1115
1102
1091
1083
1072
1061
1042
1036
1029
1023
1016
1009
998
994
990
989
987
982
973
972
973
974
974
969
966
959
961
965
965
962
960
957
957
959
962
959
954
956
957
959
960
959
957
958
959
960
961
961
958
957
957
963
965
962
958
958
960
961
965
964
956
961
962
966
964
965
963
963
962
967
966
966
963
963
965
968
970
968
963
961
963
968
965
963
960
961
963
964
966
964
958
957
958
965
965
961
958
957
958
960
960
961
955
955
960
962
961
961
958
956
959
959
961
958
958
954
958
958
961
960
957
957
958
962
963
960
959
956
959
958
963
960
958
956
958
960
962
960
955
956
956
960
963
956
959
953
956
963
963
962
957
959
958
960
959
958
957
958
959
961
961
961
959
957
956
961
963
962
962
961
965
966
969
970
969
969
972
977
978
978
975
978
980
984
987
981
979
975
978
978
980
977
973
967
966
967
967
965
963
962
964
967
968
969
965
965
968
972
971
968
967
965
970
972
977
976
972
