1144
1150
1152
1153
1161
1167
1176
1179
1181
1188
1189
1196
1203
1205
1208
1207
1209
1209
1213
1207
1198
1191
1181
1173
1164
1150
1137
1119
1104
1095
1085
1076
1063
1051
1042
1038
1034
1025
1022
1017
1009
1011
1013
1008
1005
998
996
997
997
997
995
993
990
989
993
991
987
986
986
989
993
992
991
989
990
991
994
994
991
989
990
992
993
993
993
991
991
992
994
995
994
992
993
993
999
996
994
993
989
994
999
996
994
993
994
992
994
996
994
990
989
992
995
992
990
987
989
993
996
995
991
989
988
989
993
993
989
986
989
986
990
991
990
988
987
989
992
993
989
986
987
983
988
991
988
987
987
989
991
990
990
987
988
991
993
993
989
987
987
992
994
992
989
988
988
988
992
993
990
990
990
991
994
994
991
988
989
991
994
993
993
988
988
991
996
996
994
991
994
996
997
998
995
992
993
995
998
999
995
990
992
994
997
996
995
993
992
995
998
995
991
991
990
992
997
994
997
992
992
994
998
993
993
991
994
995
995
997
995
993
995
993
1001
1000
998
997
998
1003
1006
1007
1008
1008
1007
1010
1014
1013
1016
1013
1014
1010
1013
1014
1012
1011
1010
1012
1010
1008
1002
1001
1000
1003
1006
1004
1003
1000
1002
1004
1009
1007
1006
1002
1008
1008
1011
1011
1010
1011
1009
1010
1010
1003
994
990
989
1004
1037
1099
1186
1288
1388
1457
1480
1435
1307
1179
1051
929
967
994
991
984
987
1004
1019
1027
1025
1019
1018
1023
1028
1028
1024
1022
1024
1026
1031
1031
1029
1027
1026
1031
1035
1034
1033
1033
1031
1036
1041
1040
1038
1039
1038
1041
1045
1042
1040
1038
1039
1044
1049
1048
1046
1046
1048
1050
1054
1055
1053
1055
1056
1059
1063
1063
1063
1062
1069
1071
1076
1078
1079
1080
1082
1088
1092
1097
1097
1097
1102
1107
1114
1119
1119
1123
1126
1131
1141
1146
1145
1153
1158
1166
1171
1178
1182
1180
1185
1192
1199
1202
1202
1202
1213
1216
1221
1221
1218
1215
1211
1205
1202
1191
1179
1166
1155
1147
1138
1123
1111
1098
1087
1078
1073
1066
1057
1045
1042
1039
1036
1030
1023
1016
1016
1015
1014
1014
1009
1007
1004
1003
1008
1004
1002
998
999
1000
1002
1001
999
998
998
1001
1004
1002
999
995
999
1001
1003
1001
999
997
998
1000
1002
1003
1002
997
1000
1001
1006
1002
998
999
1000
1002
1005
1005
1002
999
999
1002
1004
1003
1001
998
998
1002
1004
1000
999
995
997
999
1000
999
995
997
996
999
1002
1000
999
997
994
997
998
998
995
995
994
999
1000
999
995
994
992
993
998
999
995
991
995
995
996
998
994
993
990
996
997
997
995
992
992
993
998
997
996
992
991
995
1000
998
995
995
994
995
998
1000
996
994
994
994
999
999
996
992
991
995
996
998
993
991
991
994
997
995
992
989
990
992
998
995
992
993
995
995
997
997
995
992
994
996
996
998
994
995
991
995
997
998
996
993
997
995
999
998
996
994
997
996
1001
1002
1000
997
997
1000
1002
1002
996
993
994
999
1003
1003
1001
1000
998
1000
1000
999
998
996
997
1001
1005
1004
1004
1003
1004
1008
1013
1011
1007
1006
1006
1014
1016
1016
1012
1010
1010
1013
1016
1016
1012
1010
1006
1007
1008
1006
1002
996
999
1002
1004
1002
1000
998
999
1000
1004
1003
1002
997
998
1003
1005
1006
1004
1003
1003
1008
1011
1011
1008
1000
997
994
990
987
985
992
1017
1062
1134
1218
1298
1365
1419
1441
1445
1397
1289
1161
1033
943
950
969
979
974
970
972
974
979
981
987
996
1005
1014
1016
1013
1011
1013
1014
1019
1018
1015
1013
1013
1017
1018
1020
1017
1016
1017
1017
1022
1022
1020
1019
1018
1022
1025
1024
1020
1017
1020
1026
1027
1028
1022
1021
1021
1024
1029
1030
1028
1025
1027
1030
1031
1033
1026
1027
1028
1034
1035
1035
1033
1031
1033
1036
1041
1039
1038
1037
1039
1043
1047
1047
1047
1045
1046
1046
1052
1055
1054
1054
1055
1060
1064
1066
1066
1065
1069
1071
1079
1081
1080
1079
1087
1091
1098
1100
1101
1102
1107
1111
1119
1124
1126
1127
1135
1141
1149
1154
1155
1155
1162
1168
1179
1181
1182
1183
1186
1193
1198
1199
1201
1198
1201
1203
1205
1202
1193
1186
1176
1170
1166
1154
1142
1130
1117
1108
1098
1088
1074
1065
1054
1048
1041
1035
1027
1020
1018
1015
1013
1009
1004
999
997
996
998
995
991
990
989
990
993
991
989
986
985
987
989
987
986
985
985
986
989
988
985
981
979
981
987
984
982
982
984
983
989
987
984
983
984
989
990
990
988
984
986
988
990
989
985
986
987
992
991
988
984
982
984
987
989
988
985
982
983
986
988
988
985
981
982
984
989
986
984
982
983
982
988
985
983
979
977
981
984
985
982
981
981
981
984
981
981
979
979
981
983
981
977
976
979
981
986
982
980
981
980
985
987
984
981
981
980
983
983
985
981
979
981
984
985
987
982
981
983
983
986
986
984
982
980
984
989
987
984
981
983
986
984
984
984
986
983
986
987
987
987
985
989
992
995
998
993
996
996
999
1003
1002
1000
998
1003
1006
1007
1005
1000
999
998
1004
1003
1000
996
992
991
991
990
991
988
987
986
986
990
991
989
986
988
992
993
989
990
987
991
994
996
995
994
992
993
996
998
997
990
981
977
975
976
979
990
1017
1067
1149
1238
1325
1390
1433
1449
1420
1339
1211
1083
955
922
947
967
966
959
956
960
967
974
982
989
991
996
1002
1005
1007
1002
1002
1000
1004
1006
1007
1005
1006
1004
1007
1011
1011
1008
1006
1004
1008
1015
1009
1008
1006
1006
1010
1015
1014
1012
1010
1011
1014
1015
1017
1016
1015
1015
1016
1018
1020
1018
1014
1017
1020
1024
1024
1021
1019
1022
1024
1027
1029
1026
1026
1029
1033
1037
1037
1039
1038
1039
1041
1042
1046
1046
1047
1047
1052
1059
1062
1062
1064
1064
1066
1075
1078
1079
1082
1086
1091
1098
1101
1102
1105
1114
1122
1129
1135
1134
1141
1148
1153
1162
1165
1167
1170
1177
1183
1190
1193
1193
1194
1198
1203
1207
1204
1195
1191
1183
1181
1174
1160
1148
1134
1126
1114
1102
1090
1075
1060
1052
1043
1038
1031
1020
1014
1010
1007
1003
1001
994
991
990
989
989
985
982
977
978
983
980
978
977
973
977
979
981
978
975
973
974
976
981
981
977
977
979
982
981
980
978
974
978
980
983
981
977
975
977
980
983
984
982
979
979
983
986
987
981
978
980
983
978
980
978
977
979
981
979
981
979
978
978
978
980
981
980
977
977
978
982
980
973
973
974
976
979
977
975
972
972
976
976
975
973
970
972
974
978
977
974
971
973
972
978
979
974
973
970
973
975
974
972
973
970
974
979
977
972
972
973
977
978
979
975
973
974
977
979
979
974
975
973
976
980
981
976
975
978
980
982
983
978
974
977
977
981
981
979
977
976
979
980
980
976
978
975
979
983
981
977
976
976
981
982
980
979
979
978
982
982
983
983
980
983
988
992
988
993
989
990
993
995
996
996
997
994
998
998
999
997
994
994
991
992
993
989
985
986
987
986
988
984
985
984
986
988
989
983
986
987
989
994
990
992
989
994
992
996
994
990
988
978
977
979
979
990
1019
1085
1177
1278
1364
1424
1452
1435
1364
1236
1108
980
923
949
969
972
966
964
966
972
981
992
1000
1002
1001
1003
1004
1008
1007
1007
1004
1003
1005
1010
1010
1008
1006
1009
1010
1016
1016
1012
1010
1011
1011
1011
1014
1011
1009
1013
1015
1017
1017
1016
1010
1017
1017
1022
1024
1020
1015
1020
1024
1027
1025
1024
1024
1024
1029
1033
1033
1030
1031
1035
1040
1044
1044
1043
1043
1046
1050
1055
1055
1055
1055
1059
1065
1069
1071
1069
1071
1079
1082
1090
1095
1094
1097
1102
1108
1115
1113
1118
1122
1128
1136
1142
1147
1149
1154
1159
1166
1172
1175
1177
1179
1183
1190
1195
1196
1196
1195
1193
1194
1194
1189
1180
1171
1163
1156
1150
1134
1121
1105
1097
1086
1077
1066
1055
1047
1040
1036
1031
1026
1014
1011
1009
1008
1007
1004
996
994
994
995
996
993
989
988
988
989
989
990
988
986
984
987
991
990
987
985
986
989
992
989
985
984
984
988
989
991
986
985
985
989
991
989
986
985
988
988
991
987
986
986
986
989
993
990
987
986
987
990
992
992
987
984
986
988
990
989
988
984
988
989
992
986
984
984
983
986
986
987
984
982
983
984
987
986
983
980
983
983
983
985
982
979
981
984
984
982
979
981
982
983
986
986
984
977
982
984
985
983
978
977
982
979
984
985
984
979
978
985
984
986
981
978
980
983
987
986
984
982
983
984
985
985
984
983
984
986
988
989
984
980
986
988
991
988
985
984
985
987
988
987
985
982
984
986
989
989
984
981
983
989
989
988
987
985
986
986
989
989
986
985
985
988
992
989
987
984
985
990
992
990
986
983
987
988
992
992
991
989
989
992
994
994
990
988
990
993
998
998
998
995
998
1002
1005
1005
1002
998
1000
1005
1012
1012
1009
1002
1004
1007
1012
1008
1005
1000
1001
1000
1000
1001
998
995
995
997
999
998
995
993
994
994
1001
999
998
997
996
1000
1002
1002
1001
1001
1001
1003
1007
1003
999
993
987
986
985
991
997
1028
1085
1165
1260
1346
1414
1454
1465
1442
1360
1232
1104
976
935
959
978
975
973
968
971
977
984
996
1003
1005
1010
1013
1013
1015
1011
1009
1011
1012
1016
1015
1013
1013
1011
1016
1017
1018
1015
1017
1018
1018
1024
1022
1017
1017
1018
1022
1022
1021
1020
1017
1020
1025
1027
1027
1023
1021
1026
1028
1032
1030
1029
1028
1030
1032
1037
1037
1034
1033
1034
1033
1041
1041
1039
1042
1045
1048
1051
1055
1052
1051
1056
1059
1065
1065
1064
1065
1071
1075
1082
1084
1082
1083
1091
1099
1105
1106
1107
1112
1115
1126
1135
1138
1142
1144
1151
1159
1166
1171
1172
1174
1178
1187
1194
1196
1199
1202
1203
1209
1209
1205
1204
1195
1188
1180
1174
1160
1145
1132
1119
1110
1099
1086
1073
1059
1054
1047
1043
1034
1028
1019
1018
1013
1013
1010
1006
1002
1002
1003
1005
1003
997
996
997
996
1000
1000
995
995
994
999
999
999
995
995
996
995
998
999
997
994
997
998
1000
1000
998
996
997
998
1000
999
998
997
998
999
1003
1000
997
994
994
999
1001
999
996
995
995
998
999
998
994
995
995
995
997
997
995
992
992
997
997
994
992
990
991
993
996
996
991
989
990
991
995
994
988
986
989
992
994
991
990
989
989
994
996
992
991
986
991
991
992
993
990
987
988
992
993
993
992
990
989
990
992
992
992
988
992
991
994
990
989
986
989
991
993
994
991
989
991
991
993
992
989
986
987
989
992
993
988
990
990
993
993
992
991
989
990
991
994
996
993
989
990
994
996
994
994
988
989
992
994
993
992
990
991
992
995
995
993
992
991
990
997
996
991
991
991
995
995
995
992
992
995
996
1000
996
997
996
1000
1003
1006
1008
1007
1003
1005
1008
1013
1015
1012
1008
1006
1010
1012
1012
1007
1003
999
1001
1001
1000
998
993
996
996
1001
999
997
994
995
999
1000
1001
997
997
998
998
1004
1003
1004
1001
1002
1005
1002
995
985
980
981
992
1019
1063
1136
1231
1325
1398
1442
1436
1380
1258
1130
1002
935
953
969
972
967
968
972
977
980
988
1000
1007
1011
1013
1008
1008
1008
1012
1015
1015
1009
1008
1012
1014
1018
1016
1016
1012
1015
1016
1017
1016
1014
1016
1018
1020
1023
1023
1021
1017
1017
1021
1025
1024
1022
1022
1024
1023
1026
1026
1025
1022
1025
1026
1031
1028
1028
1028
1028
1034
1039
1037
1032
1035
1037
1042
1047
1047
1045
1048
1052
1054
1059
1062
1057
1059
1066
1071
1077
1078
1078
1081
1088
1094
1100
1103
1106
1108
1115
1122
1132
1137
1141
1142
1149
1158
1162
1167
1169
1168
1176
1185
1193
1196
1194
1194
1195
1198
1196
1190
1182
1174
1164
1156
1149
1136
1122
1109
1095
1084
1074
1064
1051
1043
1032
1029
1023
1016
1011
1004
1003
1002
1000
998
996
991
987
988
989
986
984
983
983
984
986
984
983
977
980
982
982
983
983
981
982
985
983
983
982
981
981
983
987
984
982
980
982
985
984
987
985
984
982
985
987
988
983
984
983
985
986
983
982
979
983
984
986
986
981
976
980
980
984
984
980
979
977
981
983
981
981
976
975
979
981
980
974
973
976
977
979
976
975
971
972
977
978
979
974
973
973
974
975
979
975
970
973
974
977
975
972
971
971
975
976
976
971
972
970
975
973
976
970
971
970
972
976
972
973
968
970
975
976
975
971
972
971
975
976
974
973
969
969
975
978
975
974
972
972
975
976
977
977
975
981
985
987
986
982
983
988
993
990
990
987
985
985
985
983
980
973
971
970
975
976
978
971
972
974
976
980
980
975
975
976
980
983
982
981
977
978
978
974
967
959
960
968
993
1039
1114
1205
1294
1365
1409
1409
1362
1256
1128
1000
922
927
947
954
947
946
950
953
955
962
970
978
988
990
991
987
988
986
990
995
993
989
985
987
993
998
998
995
993
995
999
1003
1002
1001
996
996
998
1004
1004
1001
1001
998
1004
1007
1002
1002
1001
998
1004
1010
1010
1006
1003
1004
1008
1012
1009
1010
1008
1010
1013
1015
1016
1015
1016
1018
1023
1025
1029
1023
1021
1024
1031
1034
1033
1035
1035
1038
1046
1046
1051
1051
1050
1054
1059
1067
1068
1069
1073
1078
1083
1092
1094
1099
1102
1107
1114
1122
1125
1127
1129
1136
1144
1148
1152
1151
1155
1160
1168
1173
1175
1175
1176
1178
1182
1183
1179
1174
1165
1161
1154
1149
1139
1128
1116
1104
1095
1085
1074
1057
1046
1040
1032
1024
1017
1007
1000
997
994
993
987
982
977
975
977
978
975
971
967
967
968
969
968
963
962
967
965
969
964
963
960
961
963
964
966
964
960
964
964
967
967
964
961
962
965
967
964
964
962
964
966
966
967
962
962
967
969
970
968
964
964
964
967
971
970
968
964
965
965
969
968
966
962
963
967
965
967
966
961
964
965
966
966
965
962
963
966
969
967
964
958
963
966
966
963
962
958
962
965
965
965
962
954
961
964
967
965
960
960
961
960
963
960
959
957
960
963
964
964
961
958
960
965
967
963
958
958
963
959
963
964
960
960
961
964
964
964
961
961
965
965
967
962
961
958
963
965
968
967
961
963
963
964
967
966
965
961
962
966
967
966
965
967
964
968
970
969
966
965
965
971
971
971
969
966
967
972
971
974
971
972
975
981
980
978
976
978
983
987
987
983
979
977
980
982
984
978
975
968
970
973
976
973
969
965
970
972
972
971
967
965
968
972
975
974
971
968
971
974
977
973
974
976
976
981
980
969
964
958
955
954
962
971
997
1038
1107
1188
1271
1341
1388
1416
1414
1378
1288
1160
1032
922
915
935
954
953
942
943
945
952
959
966
972
977
981
984
987
984
983
983
981
987
988
988
986
984
984
987
989
988
985
985
990
993
994
990
991
989
991
995
995
994
994
993
994
996
999
994
995
995
996
997
1001
999
997
998
1001
1006
1008
1005
1002
1004
1005
1009
1011
1011
1010
1009
1013
1017
1018
1017
1016
1017
1020
1025
1025
1028
1025
1028
1030
1035
1041
1041
1040
1041
1041
1048
1053
1055
1055
1057
1062
1066
1073
1072
1073
1078
1083
1088
1094
1097
1100
1103
1110
1119
1125
1130
1132
1135
1140
1150
1152
1157
1158
1162
1169
1172
1183
1183
1186
1188
1192
1195
1199
1196
1188
1183
1179
1176
1170
1160
1147
1138
1128
1121
1109
1098
1088
1076
1069
1060
1057
1049
1038
1030
1025
1024
1023
1016
1011
1006
1009
1011
1012
1007
1002
1003
1002
1005
1005
1003
1001
1001
1001
1004
1004
1004
1002
1000
1004
1008
1009
1010
1006
1003
1008
1013
1015
1014
1010
1011
1012
1011
1017
1017
1012
1012
1013
1017
1017
1019
1020
1016
1017
1021
1026
1025
1022
1021
1018
1023
1029
1026
1025
1023
1025
1027
1028
1027
1024
1022
1025
1027
1030
1026
1025
1024
1025
1028
1030
1030
1026
1025
1024
1027
1029
1029
1025
1026
1027
1032
1033
1033
1028
1027
1030
1033
1034
1033
1031
1031
1030
1035
1038
1035
1035
1033
1035
1036
1040
1041
1037
1034
1037
1037
1045
1043
1042
1039
1040
1043
1042
1043
1043
1043
1045
1048
1048
1046
1042
1042
1043
1050
1050
1051
1048
1046
1049
1050
1054
1052
1051
1050
1053
1055
1057
1056
1052
1053
1054
1055
1058
1058
1054
1051
1055
1061
1062
1059
1057
1056
1060
1063
1064
1063
1059
1061
1061
1066
1068
1066
1064
1063
1066
1068
1072
1069
1068
1067
1068
1071
1073
1073
1070
1069
1070
1072
1074
1074
1073
1069
1069
1070
1073
1074
1075
1074
1077
1079
1080
1080
1077
1077
1083
1086
1093
1089
1089
1088
1090
1096
1097
1096
1094
1091
1093
1094
1097
1098
1095
1093
1091
1092
1091
1089
1084
1083
1082
1085
1088
1087
1084
1083
1086
1088
1090
1090
1087
1086
1088
1090
1091
1091
1089
1090
1091
1095
1098
1094
1093
1090
1087
1084
1080
1073
1069
1070
1082
1111
1155
1218
1291
1363
1426
1473
1493
1488
1452
1374
1247
1121
1044
1034
1050
1062
1066
1070
1069
1070
1072
1078
1090
1104
1112
1111
1103
1105
1107
1111
1114
1112
1111
1109
1109
1112
1112
1112
1112
1109
1112
1114
1116
1118
1116
1112
1117
1119
1122
1120
1115
1115
1117
1120
1122
1122
1120
1119
1119
1121
1122
1120
1119
1116
1121
1124
1127
1124
1121
1121
1126
1128
1131
1127
1127
1128
1129
1131
1132
1133
1132
1131
1136
1139
1141
1142
1140
1138
1145
1148
1151
1151
1149
1148
1152
1157
1163
1162
1161
1161
1168
1174
1178
1175
1177
1179
1187
1193
1198
1200
1199
1204
1208
1215
1218
1222
1224
1223
1229
1239
1245
1248
1250
1253
1258
1265
1270
1271
1273
1273
1276
1281
1279
1276
1270
1263
1258
1253
1242
1231
1219
1205
1199
1190
1179
1169
1155
1146
1140
1135
1130
1122
1113
1107
1104
1105
1104
1098
1091
1089
1086
1087
1088
1084
1081
1079
1081
1083
1082
1078
1078
1075
1077
1080
1082
1079
1074
1075
1077
1079
1081
1078
1074
1073
1072
1078
1078
1075
1071
1072
1075
1073
1078
1075
1073
1071
1071
1074
1077
1076
1072
1072
1073
1076
1076
1074
1069
1070
1071
1074
1073
1071
1066
1067
1070
1071
1070
1065
1066
1065
1065
1069
1068
1067
1060
1059
1060
1066
1067
1064
1062
1058
1059
1063
1063
1063
1058
1058
1057
1057
1062
1058
1056
1055
1056
1059
1061
1059
1054
1054
1055
1059
1058
1055
1054
1052
1054
1056
1057
1054
1054
1052
1054
1055
1055
1053
1049
1047
1047
1050
1050
1051
1051
1050
1052
1053
1051
1051
1050
1047
1048
1050
1051
1049
1047
1045
1048
1050
1048
1047
1045
1046
1047
1047
1049
1048
1043
1044
1043
1045
