1061
1063
1061
1057
1052
1052
1053
1057
1057
1055
1050
1050
1052
1054
1052
1051
1049
1051
1054
1054
1053
1050
1049
1047
1049
1050
1050
1048
1046
1043
1045
1046
1048
1046
1043
1044
1044
1047
1046
1044
1041
1043
1044
1047
1047
1044
1041
1039
1043
1047
1046
1045
1043
1045
1046
1046
1045
1046
1044
1047
1048
1051
1050
1049
1045
1046
1046
1049
1051
1049
1047
1046
1047
1050
1047
1046
1044
1046
1049
1051
1051
1047
1043
1042
1043
1047
1046
1047
1044
1044
1046
1050
1047
1047
1042
1043
1045
1047
1048
1045
1042
1041
1043
1047
1047
1043
1041
1041
1045
1046
1045
1041
1039
1039
1041
1044
1046
1044
1037
1039
1042
1043
1042
1042
1040
1039
1040
1043
1043
1043
1037
1040
1042
1044
1041
1038
1036
1036
1039
1043
1042
1040
1036
1038
1041
1042
1041
1039
1035
1037
1041
1046
1043
1040
1035
1034
1039
1040
1041
1038
1036
1040
1037
1041
1041
1042
1040
1040
1041
1044
1041
1041
1039
1041
1044
1049
1053
1047
1044
1045
1048
1049
1049
1048
1050
1051
1054
1056
1054
1049
1044
1046
1045
1047
1047
1048
1043
1044
1045
1048
1047
1048
1045
1049
1049
1051
1046
1044
1040
1039
1040
1043
1043
1040
1035
1036
1038
1041
1042
1037
1035
1036
1037
1040
1040
1037
1034
1035
1038
1041
1038
1037
1035
1034
1036
1039
1038
1038
1035
1036
1039
1041
1040
1039
1038
1041
1048
1054
1058
1063
1068
1081
1093
1106
1113
1126
1145
1171
1205
1232
1261
1285
1307
1337
1380
1419
1447
1449
1419
1358
1269
1173
1103
1059
1038
1031
1030
1037
1035
1035
1030
1032
1027
1029
1023
1021
1014
1016
1016
1018
1019
1015
1013
1011
1012
1015
1013
1012
1012
1012
1014
1014
1012
1008
1007
1008
1011
1014
1012
1011
1007
1006
1008
1012
1010
1007
1005
1005
1006
1008
1006
1005
1004
1004
1008
1011
1009
1008
1003
1005
1008
1010
1009
1008
1004
1007
1007
1010
1010
1009
1008
1009
1009
1013
1014
1012
1012
1012
1011
1018
1017
1015
1014
1014
1019
1021
1021
1022
1023
1024
1027
1033
1034
1034
1035
1036
1041
1046
1047
1049
1050
1054
1056
1062
1065
1065
1067
1069
1073
1074
1073
1073
1070
1068
1070
1069
1070
1065
1063
1061
1063
1063
1060
1057
1052
1053
1052
1052
1051
1050
1046
1043
1044
1047
1043
1043
1043
1042
1045
1045
1044
1043
1040
1039
1043
1043
1043
1041
1037
1035
1037
1041
1039
1037
1034
1035
1038
1038
1037
1034
1032
1031
1035
1037
1037
1036
1032
1035
1035
1041
1038
1038
1033
1036
1035
1038
1037
1036
1031
1036
1036
1038
1040
1038
1031
1035
1038
1040
1039
1037
1033
1034
1035
1039
1037
1034
1032
1033
1036
1036
1036
1033
1032
1030
1031
1035
1033
1031
1029
1031
1033
1034
1033
1031
1026
1029
1029
1035
1031
1027
1024
1024
1029
1030
1033
1026
1024
1026
1028
1031
1030
1024
1023
1025
1025
1029
1028
1026
1023
1021
1024
1027
1028
1028
1026
1026
1025
1027
1027
1026
1022
1024
1026
1029
1026
1025
1021
1022
1023
1026
1029
1025
1020
1023
1023
1025
1022
1023
1020
1022
1022
1028
1023
1022
1020
1022
1025
1023
1027
1024
1021
1021
1024
1024
1025
1022
1020
1020
1022
1026
1024
1021
1019
1018
1022
1024
1023
1024
1023
1023
1023
1029
1031
1031
1030
1029
1030
1034
1035
1033
1031
1032
1035
1039
1036
1032
1028
1027
1028
1029
1028
1028
1025
1027
1030
1031
1032
1031
1028
1031
1033
1033
1032
1025
1020
1020
1024
1027
1026
1022
1019
1020
1020
1024
1024
1021
1022
1021
1021
1023
1025
1020
1018
1021
1023
1026
1022
1022
1020
1019
1023
1027
1025
1024
1023
1020
1025
1029
1032
1035
1039
1049
1063
1077
1086
1097
1114
1143
1178
1212
1244
1275
1301
1340
1388
1435
1466
1465
1431
1357
1261
1173
1103
1055
1025
1018
1020
1026
1026
1023
1018
1017
1017
1015
1011
1008
1005
1003
1005
1006
1005
1003
1003
1001
1004
1004
1002
1000
999
998
1000
1001
1000
998
994
992
994
997
996
994
992
992
994
995
995
991
991
991
993
992
993
992
990
992
994
994
995
992
992
991
995
996
996
993
991
991
995
996
996
994
993
993
997
1001
1002
1000
999
1002
1002
1006
1006
1008
1007
1008
1013
1020
1020
1020
1020
1025
1031
1040
1040
1043
1044
1048
1055
1060
1065
1063
1062
1064
1064
1067
1065
1059
1056
1053
1052
1053
1049
1046
1041
1039
1042
1043
1038
1034
1035
1032
1035
1037
1034
1031
1030
1031
1035
1038
1038
1037
1032
1032
1034
1035
1035
1031
1029
1030
1033
1032
1032
1029
1026
1027
1029
1030
1033
1030
1026
1026
1026
1030
1029
1025
1023
1026
1027
1030
1028
1025
1027
1025
1027
1029
1031
1027
1024
1026
1029
1032
1032
1028
1028
1030
1031
1033
1032
1029
1028
1030
1033
1034
1032
1029
1028
1029
1028
1032
1032
1028
1025
1029
1030
1029
1028
1029
1024
1027
1028
1031
1026
1026
1023
1023
1025
1027
1027
1024
1022
1023
1024
1025
1026
1023
1019
1021
1022
1025
1024
1022
1018
1020
1022
1025
1024
1021
1019
1018
1021
1022
1022
1021
1019
1019
1021
1022
1023
1022
1018
1015
1020
1022
1023
1020
1015
1016
1018
1021
1023
1019
1018
1017
1021
1022
1018
1018
1014
1017
1021
1023
1021
1018
1017
1017
1018
1020
1021
1019
1015
1016
1020
1023
1018
1018
1016
1020
1019
1021
1021
1018
1017
1016
1020
1023
1022
1022
1021
1023
1024
1028
1027
1028
1026
1027
1030
1032
1032
1029
1028
1027
1028
1028
1030
1024
1021
1024
1023
1030
1029
1025
1025
1027
1028
1033
1030
1029
1026
1024
1026
1025
1024
1020
1017
1017
1021
1025
1024
1021
1018
1020
1021
1023
1022
1020
1018
1020
1022
1023
1019
1018
1017
1017
1020
1022
1022
1020
1017
1017
1019
1022
1022
1019
1020
1022
1024
1030
1029
1032
1034
1042
1054
1069
1079
1087
1095
1117
1145
1180
1206
1233
1261
1290
1319
1356
1397
1429
1443
1434
1391
1319
1228
1139
1076
1035
1020
1012
1012
1015
1013
1017
1014
1015
1012
1006
1002
1002
1002
1006
1002
999
996
994
997
1001
999
998
995
994
999
998
999
998
993
996
997
999
999
994
992
991
993
996
995
994
990
991
993
992
993
992
988
990
991
993
992
989
987
988
993
996
990
990
987
990
992
997
995
993
990
993
993
997
995
992
992
992
996
1002
998
995
996
995
999
1004
1004
1002
1004
1005
1010
1012
1015
1017
1013
1019
1022
1026
1028
1030
1029
1035
1038
1046
1050
1050
1050
1053
1057
1062
1064
1064
1061
1058
1063
1065
1059
1057
1053
1051
1053
1052
1050
1045
1041
1039
1036
1041
1039
1035
1030
1030
1031
1035
1033
1032
1028
1027
1030
1031
1030
1028
1025
1025
1029
1033
1031
1027
1027
1024
1027
1027
1026
1024
1020
1023
1023
1027
1026
1024
1021
1020
1021
1024
1023
1021
1018
1019
1022
1025
1022
1022
1016
1020
1023
1028
1025
1023
1022
1021
1023
1025
1024
1023
1020
1021
1023
1026
1024
1022
1021
1021
1025
1030
1024
1020
1019
1018
1023
1024
1024
1020
1018
1019
1022
1024
1023
1024
1019
1019
1021
1020
1021
1020
1016
1018
1021
1024
1021
1019
1018
1017
1017
1021
1019
1018
1018
1016
1018
1020
1020
1015
1015
1015
1020
1020
1017
1017
1013
1015
1020
1020
1018
1018
1013
1012
1015
1019
1016
1015
1015
1014
1018
1020
1019
1015
1015
1016
1018
1021
1019
1018
1013
1017
1018
1022
1022
1019
1018
1016
1019
1022
1019
1016
1015
1018
1020
1022
1023
1017
1016
1019
1018
1023
1022
1020
1019
1021
1024
1027
1027
1026
1024
1026
1026
1029
1029
1027
1025
1028
1031
1035
1032
1028
1025
1025
1026
1029
1027
1025
1024
1026
1029
1030
1030
1027
1027
1028
1030
1028
1029
1021
1016
1016
1019
1022
1022
1019
1017
1021
1019
1021
1023
1021
1019
1019
1025
1024
1021
1018
1017
1019
1021
1023
1024
1020
1019
1020
1023
1024
1024
1023
1021
1024
1029
1034
1032
1034
1038
1045
1062
1071
1082
1093
1110
1137
1170
1206
1234
1265
1296
1330
1371
1420
1450
1443
1398
1317
1213
1128
1066
1037
1020
1017
1021
1024
1022
1018
1016
1014
1013
1014
1009
1002
1001
1002
1000
1005
1004
1001
998
996
998
1002
997
997
995
997
997
1001
1000
996
990
994
995
998
997
995
992
993
995
998
997
996
994
992
996
998
995
995
991
996
996
999
996
994
993
994
999
1001
1000
995
996
996
1001
1005
1003
1000
1001
1001
1005
1007
1004
1006
1004
1007
1010
1014
1013
1012
1013
1017
1021
1023
1023
1024
1025
1029
1036
1040
1039
1042
1042
1046
1052
1055
1058
1059
1060
1063
1067
1071
1067
1065
1062
1062
1064
1065
1062
1059
1052
1052
1054
1055
1051
1048
1044
1042
1041
1045
1043
1040
1038
1037
1041
1044
1040
1039
1033
1036
1039
1041
1040
1036
1031
1031
1034
1035
1035
1035
1031
1030
1032
1033
1033
1029
1030
1032
1033
1033
1031
1030
1028
1030
1033
1035
1032
1033
1031
1031
1032
1034
1035
1033
1031
1033
1034
1037
1034
1033
1035
1036
1037
1039
1037
1032
1032
1033
1035
1039
1036
1029
1028
1029
1034
1034
1033
1033
1029
1031
1032
1033
1029
1029
1025
1027
1030
1033
1032
1028
1026
1029
1031
1033
1031
1027
1026
1026
1029
1029
1032
1027
1025
1027
1029
1031
1031
1025
1025
1028
1032
1034
1032
1028
1025
1024
1029
1033
1031
1029
1024
1024
1027
1028
1027
1026
1026
1026
1029
1030
1027
1026
1024
1026
1029
1031
1032
1026
1025
1026
1027
1029
1030
1027
1027
1025
1026
1029
1028
1029
1027
1027
1026
1028
1028
1026
1026
1027
1029
1034
1031
1029
1025
1028
1031
1032
1030
1029
1031
1034
1037
1039
1037
1037
1036
1039
1042
1043
1042
1041
1038
1039
1040
1040
1036
1034
1030
1030
1035
1038
1038
1038
1035
1037
1039
1042
1039
1037
1033
1033
1030
1031
1027
1025
1021
1023
1026
1032
1031
1028
1025
1025
1028
1031
1030
1030
1025
1028
1029
1030
1030
1028
1025
1027
1031
1035
1037
1037
1041
1051
1066
1084
1097
1113
1138
1177
1226
1273
1313
1352
1394
1444
1493
1505
1464
1365
1244
1143
1080
1046
1035
1031
1028
1030
1030
1026
1020
1011
1007
1011
1010
1011
1008
1003
1002
1002
1005
1006
1005
1004
999
999
1001
1004
1001
999
995
997
997
1001
998
995
994
995
996
999
997
993
990
991
996
998
994
992
992
994
994
998
997
993
992
993
996
997
997
994
992
994
997
1002
999
999
996
996
999
1000
999
999
995
997
1001
1004
1002
1000
1001
1004
1008
1010
1011
1011
1009
1012
1018
1024
1027
1026
1026
1029
1035
1039
1045
1046
1047
1052
1055
1064
1064
1066
1066
1072
1076
1079
1078
1077
1075
1076
1076
1078
1076
1071
1066
1065
1067
1067
1063
1058
1053
1053
1055
1054
1053
1050
1048
1045
1045
1050
1047
1042
1040
1042
1046
1047
1045
1041
1040
1042
1044
1047
1043
1043
1036
1035
1040
1044
1040
1038
1036
1036
1037
1038
1037
1036
1034
1035
1036
1038
1038
1033
1033
1032
1036
1037
1038
1035
1032
1036
1036
1042
1045
1048
1059
1076
1102
1130
1146
1146
1134
1114
1081
1028
949
854
749
658
611
599
598
585
593
616
650
689
721
751
781
810
832
852
868
885
898
914
928
936
946
950
960
973
988
1002
1014
1021
1030
1040
1050
1059
1064
1067
1065
1066
1073
1076
1076
1078
1080
1086
1088
1092
1091
1090
1089
1088
1093
1096
1098
1099
1101
1101
1107
1111
1111
1113
1110
1110
1117
1122
1122
1123
1123
1128
1133
1139
1137
1140
1145
1147
1153
1161
1164
1166
1169
1174
1183
1191
1191
1197
1201
1210
1216
1225
1229
1232
1234
1242
1250
1255
1260
1262
1265
1270
1275
1278
1281
1277
1276
1276
1277
1278
1274
1266
1259
1256
1251
1248
1240
1228
1223
1213
1212
1205
1196
1185
1176
1168
1162
1158
1150
1140
1129
1121
1119
1113
1105
1100
1092
1089
1086
1083
1077
1072
1066
1064
1065
1063
1060
1054
1048
1049
1049
1051
1049
1042
1043
1043
1044
1043
1042
1037
1035
1037
1042
1041
1038
1034
1030
1030
1035
1036
1035
1032
1029
1030
1031
1031
1029
1028
1024
1023
1029
1027
1026
1023
1022
1021
1023
1024
1023
1019
1017
1018
1020
1020
1018
1019
1015
1018
1020
1020
1018
1014
1011
1013
1013
1015
1014
1012
1007
1011
1014
1014
1015
1011
1007
1011
1014
1013
1012
1007
1007
1007
1012
1012
1010
1008
1006
1007
1008
1012
1009
1005
1005
1005
1006
1008
1009
1004
1003
1002
1008
1008
1007
1005
1005
1008
1008
1009
1006
1003
1004
1004
1008
1013
1006
1004
1005
1005
1009
1013
1008
1008
1003
1006
1008
1008
1005
1002
1003
1007
1009
1012
1011
1008
1005
1004
1008
1011
1008
1007
1002
1005
1008
1010
1007
1006
1005
1006
1008
1011
1009
1007
1008
1009
1008
1008
1007
1005
1004
1004
1007
1011
1008
1006
1005
1006
1009
1008
1008
1007
1003
1010
1011
1014
1012
1009
1011
1009
1011
1015
1014
1010
1009
1010
1015
1017
1011
1007
1002
1006
1009
1013
1012
1011
1008
1011
1012
1013
1014
1009
1011
1011
1011
1014
1014
1010
1008
1009
1015
1018
1019
1016
1012
1015
1017
1020
1016
1013
1012
1014
1015
1016
1016
1016
1012
1014
1019
1018
1017
1015
1013
1016
1019
1022
1019
1018
1015
1016
1016
1018
1014
1019
1017
1020
1023
1024
1022
1017
1014
1017
1019
1020
1020
1018
1018
1019
1021
1024
1026
1022
1020
1020
1023
1023
1025
1021
1021
1023
1022
1024
1024
1023
1018
1022
1026
1028
1028
1024
1020
1024
1026
1029
1027
1024
1023
1025
1023
1027
1026
1028
1023
1025
1028
1026
1025
1022
1025
1027
1029
1031
1029
1024
1023
1026
1029
1029
1030
1029
1026
1029
1028
1027
1028
1025
1026
1025
1025
1032
1029
1025
1022
1026
1026
1031
1030
1029
1029
1030
1033
1034
1031
1028
1024
1028
1030
1032
1031
1031
1025
1028
1029
1033
1031
1028
1024
1030
1034
1032
1031
1026
1026
1028
1032
1033
1032
1029
1029
1030
1034
1031
1032
1031
1029
1034
1036
1036
1033
1030
1026
1035
1039
1042
1041
1040
1039
1037
1043
1042
1043
1040
1040
1041
1045
1046
1041
1038
1036
1037
1040
1042
1040
1038
1036
1037
1041
1045
1043
1044
1041
1038
1042
1042
1039
1039
1033
1031
1032
1037
1036
1033
1030
1032
1036
1035
1034
1034
1030
1031
1031
1031
1029
1033
1031
1030
1034
1036
1036
1033
1029
1031
1035
1040
1039
1035
1033
1038
1044
1047
1057
1062
1067
1080
1089
1102
1123
1146
1181
1216
1254
1293
1327
1361
1399
1437
1463
1462
1416
1329
1223
1139
1084
1060
1052
1052
1049
1042
1041
1037
1030
1023
1017
1018
1017
1016
1011
1009
1005
1010
1014
1013
1006
997
997
1000
1005
1005
1003
999
997
998
1001
1001
998
996
994
998
999
1002
999
997
994
998
1000
997
999
997
993
994
996
997
997
994
993
995
1000
1003
999
994
989
989
995
1000
1001
994
992
994
995
998
1001
996
997
998
1000
1001
999
996
993
999
997
1000
999
998
995
995
998
1001
1003
1002
1000
998
1003
1005
1007
1010
1013
1015
1018
1019
1020
1021
1022
1030
1038
1043
1044
1046
1047
1055
1062
1065
1067
1066
1068
1070
1075
1082
1083
1081
1073
1074
1075
1079
1079
1079
1076
1074
1069
1069
1066
1064
1060
1060
1062
1063
1057
1056
1054
1058
1058
1060
1054
1052
1051
1051
1053
1055
1051
1047
1045
1046
1049
1053
1053
1049
1048
1048
1051
1048
1048
1046
1044
1040
1042
1044
1044
1047
1047
1049
1048
1048
1046
1040
1041
1047
1049
1049
1049
1046
1042
1040
1044
1048
1049
1048
1044
1043
1044
1044
1042
1042
1041
1041
1046
1045
1043
1039
1036
1035
1037
1039
1039
1040
1036
1033
1030
1034
1036
1033
1032
1033
1030
1035
1033
1032
1028
1031
1031
1034
1032
1028
1029
1030
1032
1033
1030
1026
1027
1028
1030
1032
1031
1029
1028
1028
1030
1033
1030
1028
1025
1026
1028
1031
1030
1029
1027
1028
1031
1029
1029
1029
1029
1027
1027
1026
1026
1025
1023
1026
1025
1026
1026
1025
1025
1026
1026
1024
1024
1027
1024
1024
1023
1023
1025
1024
1021
1022
1024
1024
1025
1022
1021
1023
1024
1024
1022
1021
1020
1024
1024
1022
1022
1019
1017
1020
1022
1025
1025
1021
1020
1022
1028
1030
1031
1028
1027
1030
1031
1034
1033
1031
1032
1033
1032
1034
1029
1026
1025
1027
1028
1031
1029
1025
1026
1028
1031
1033
1033
1029
1028
1028
1028
1022
1021
1018
1021
1021
1022
1024
1020
1016
1013
1018
1024
1024
1021
1015
1015
1019
1020
1023
1020
1019
1017
1018
1021
1024
1023
1021
1016
1021
1026
1032
1038
1042
1054
1073
1090
1116
1153
1197
1245
1291
1336
1386
1440
1478
1486
1453
1378
1272
1169
1097
1052
1031
1029
1033
1028
1026
1018
1019
1019
1016
1010
1002
1000
1002
1002
1002
1001
998
998
996
998
1000
994
992
993
994
995
995
993
989
989
988
992
990
991
989
986
986
988
990
988
984
980
985
989
992
987
985
980
984
987
988
989
984
982
984
987
990
989
985
986
987
991
989
989
984
986
987
989
989
989
987
989
989
992
992
992
990
991
990
997
999
998
996
997
998
1002
1005
1007
1006
1005
1010
1016
1015
1019
1018
1020
1024
1029
1031
1033
1032
1038
1041
1045
1053
1052
1051
1050
1052
1055
1056
1055
1053
1051
1050
1051
1049
1047
1044
1040
1042
1043
1041
1038
1035
1032
1033
1035
1034
1034
1030
1028
1031
1034
1033
1031
1027
1026
1028
1031
1032
1027
1024
1024
1027
1029
1029
1029
1026
1021
1028
1026
1028
1028
1025
1025
1023
1028
1028
1028
1025
1024
1024
1028
1030
1030
1027
1024
1026
1030
1033
1030
1029
1026
1027
1031
1029
1030
1032
1028
1032
1034
1034
1032
1031
1029
1030
1031
1034
1031
1028
1027
1030
1029
1031
1030
1027
1025
1028
1030
1030
1026
1024
1024
1024
1028
1029
1026
1023
1024
1022
1026
1027
1024
1021
1021
1023
1023
1027
1024
1022
1019
1022
1026
1025
1024
1021
1023
1022
1024
1025
1027
1021
1021
1020
1024
1026
1025
1023
1023
1020
1024
1023
1024
1021
1021
1020
1022
1024
1024
1020
1019
1022
1024
1027
1026
1024
1021
1023
1027
1024
1023
1022
1022
1022
1028
1029
1027
1024
1021
1023
1025
1027
1024
1023
1022
1026
1026
1027
1025
1022
1021
1026
1027
1027
1027
1025
1023
1024
1029
1029
1027
1026
1022
1025
1029
1032
1030
1030
1032
1034
1037
1037
1037
1033
1032
1034
1038
1038
1040
1037
1035
1037
1036
1035
1035
1032
1033
1034
1036
1039
1035
1037
1033
1036
1040
1043
1041
1038
1035
1034
1033
1032
1030
1030
1029
1032
1033
1035
1031
1029
1027
1029
1035
1033
1031
1027
1029
1028
1031
1033
1032
1030
1027
1033
1034
1033
1032
1031
1031
1036
1038
1041
1039
1039
1039
1046
1052
1063
1071
1080
1087
1099
1118
1140
1163
1192
1222
1254
1286
1317
1347
1385
1421
1456
1472
1460
1415
1337
1245
1163
1105
1067
1046
1037
1036
1039
1039
1039
1031
1029
1028
1025
1024
1021
1019
1016
1015
1016
1017
1019
1014
1014
1010
1011
1014
1014
1013
1011
1009
1010
1014
1013
1009
1006
1004
1009
1011
1011
1010
1008
1003
1005
1009
1009
1007
1007
1007
1008
1010
1008
1006
1003
1003
1007
1010
1013
1011
1007
1007
1009
1012
1015
1010
1012
1011
1012
1014
1013
1013
1012
1011
1013
1013
1015
1014
1011
1013
1015
1020
1021
1023
1016
1018
1022
1029
1029
1030
1027
1029
1034
1039
1043
1045
1045
1049
1052
1057
1062
1061
1060
1062
1068
1074
1075
1075
1074
1074
1074
1076
1077
1072
1069
1063
1064
1066
1066
1063
1059
1056
1055
1054
1053
1051
1048
1048
1049
1052
1052
1048
1046
1045
1044
1050
1050
1044
1044
1042
1044
1045
1045
1043
1038
1040
1040
1043
1039
1038
1036
1037
1036
1039
1038
1035
1033
1034
1038
1039
1041
1040
1036
1036
1036
1039
1041
1039
1035
1039
1039
1043
1041
1036
1035
1035
1040
1043
1048
1044
1038
1034
1037
1037
1039
1040
1039
1038
1038
1038
1039
1037
1033
1034
1034
1038
1039
1036
1034
1033
1034
1039
1038
1037
1034
1035
1033
1036
1037
1032
1030
1028
1032
1033
1033
1034
1031
1033
1034
1036
1036
1033
1029
1028
1030
1033
1033
1034
1030
1029
1031
1033
1035
1031
1030
1031
1031
1033
1031
1030
1029
1030
1031
1035
1032
1031
1025
1028
1030
1034
1035
1031
1029
1029
1030
1033
1032
1029
1028
1028
1029
1032
1032
1032
1029
1029
1029
1036
1034
1032
1029
1029
1030
