965
961
959
960
958
960
961
956
955
955
955
958
955
951
949
953
956
957
955
951
950
949
954
955
955
954
954
956
953
949
945
943
946
948
950
949
949
947
948
947
947
951
949
948
950
951
957
959
960
961
961
965
972
975
979
980
985
990
997
1004
1006
1007
1008
1010
1012
1015
1015
1020
1017
1018
1023
1021
1022
1017
1013
1012
1013
1013
1011
1007
1004
1007
1007
1010
1010
1005
1003
1001
1003
1002
1000
999
996
1000
1005
1008
1004
1003
998
999
1000
1001
998
998
996
996
998
1000
999
996
998
995
998
997
1000
996
996
998
1004
1002
997
988
988
989
994
998
996
993
992
991
994
994
994
991
991
991
992
994
994
994
991
994
996
996
994
993
991
994
995
995
994
993
994
995
999
997
997
992
988
990
991
995
994
993
992
991
995
996
994
992
991
993
997
994
990
985
985
985
991
992
991
988
990
991
993
992
989
985
983
985
988
990
991
989
994
991
994
995
994
994
990
988
992
993
990
986
985
988
995
997
991
987
986
989
993
994
993
990
990
992
993
994
989
984
985
988
993
992
995
989
991
995
997
998
996
992
991
992
993
996
993
995
993
995
996
998
997
995
994
995
998
997
998
999
998
1001
1005
1008
1007
1006
1004
1007
1009
1009
1008
1003
1002
1000
998
999
1000
1001
999
1001
1003
1007
1007
1003
1002
1003
1009
1010
1008
1002
998
994
996
997
1000
999
999
997
997
997
996
993
995
998
1001
1005
1003
997
995
995
1000
1005
1007
1002
997
1000
998
1000
1000
998
1000
1002
1008
1010
1010
1011
1018
1027
1038
1047
1063
1075
1093
1117
1150
1188
1221
1250
1284
1315
1352
1387
1427
1455
1465
1456
1411
1326
1227
1142
1081
1046
1025
1022
1017
1011
1008
1008
1006
1003
998
989
986
985
986
983
981
979
979
981
981
984
981
976
973
971
973
976
975
973
972
970
972
976
974
971
969
971
973
973
972
970
969
973
971
969
967
963
966
970
971
970
966
961
962
961
962
964
965
961
961
963
966
968
962
960
959
960
965
969
963
963
959
962
965
967
967
962
961
964
967
969
970
966
968
970
973
975
976
975
975
980
985
991
990
992
992
996
1003
1011
1011
1015
1017
1024
1027
1031
1031
1031
1027
1032
1037
1037
1035
1033
1030
1028
1027
1026
1026
1023
1021
1020
1021
1021
1015
1014
1010
1016
1016
1013
1012
1007
1007
1011
1013
1012
1010
1009
1010
1014
1014
1013
1011
1009
1007
1007
1008
1012
1009
1009
1008
1008
1008
1009
1005
1004
1005
1008
1010
1009
1009
1004
1001
1002
1004
1006
1000
995
995
998
1000
1003
1004
1002
1001
1003
1002
1004
1004
1000
996
999
1001
1004
1001
999
1002
1004
1005
1004
998
995
997
1000
1001
1003
1000
999
1000
1001
1006
1000
999
996
998
999
1002
1003
1001
994
993
994
1001
1001
999
998
996
996
998
998
998
996
996
998
998
996
993
990
991
994
996
995
994
990
989
994
995
997
997
994
988
989
992
991
992
991
986
990
992
992
992
985
985
991
993
996
992
984
988
987
990
992
993
990
990
993
995
995
994
991
988
994
997
996
994
990
992
994
999
1000
998
997
997
1001
1005
1006
1007
1005
1004
1002
1005
1005
1007
1004
1003
1001
1003
1003
1002
1000
998
1001
1002
1003
1004
1004
1005
1007
1012
1007
1002
999
999
1000
999
999
996
996
995
997
1000
1001
999
997
999
998
1001
997
997
995
994
996
998
998
998
993
994
998
1000
999
996
995
994
999
1005
1009
1013
1017
1027
1042
1062
1087
1111
1149
1195
1243
1290
1329
1364
1400
1444
1481
1500
1490
1445
1367
1269
1180
1112
1066
1035
1023
1013
1013
1009
1008
1005
997
992
989
986
983
977
972
969
970
975
969
969
965
965
967
970
968
966
961
961
962
964
963
960
958
959
962
962
963
963
956
955
954
957
958
958
954
956
957
958
959
956
952
952
954
957
956
954
952
952
956
958
955
954
949
952
957
958
956
956
953
953
954
954
954
956
954
957
960
963
962
960
958
959
964
967
969
970
968
972
977
984
989
991
992
998
1004
1014
1015
1018
1021
1023
1033
1038
1038
1036
1030
1031
1032
1036
1035
1032
1029
1027
1027
1027
1023
1020
1018
1014
1018
1019
1016
1013
1011
1010
1012
1015
1016
1015
1013
1009
1008
1012
1014
1015
1012
1013
1012
1013
1014
1014
1012
1010
1009
1012
1011
1008
1006
1005
1008
1012
1011
1010
1006
1008
1008
1010
1008
1003
1001
1002
1007
1009
1010
1010
1005
1003
1001
1005
1007
1010
1007
1008
1009
1011
1010
1008
1002
1003
1006
1013
1010
1010
1007
1006
1008
1009
1009
1008
1004
1005
1006
1009
1010
1010
1007
1009
1010
1011
1010
1013
1012
1010
1012
1008
1008
1007
1008
1007
1007
1010
1009
1007
1005
1004
1004
1008
1009
1007
1005
1006
1010
1014
1014
1011
1006
1005
1005
1007
1008
1011
1008
1009
1011
1010
1009
1002
1001
1004
1006
1010
1010
1007
1004
1006
1006
1007
1008
1005
1004
1006
1009
1009
1010
1010
1008
1008
1011
1011
1012
1011
1007
1005
1006
1010
1010
1009
1009
1008
1010
1009
1008
1005
1002
1004
1009
1011
1015
1007
1005
1005
1007
1010
1011
1009
1010
1007
1011
1015
1014
1014
1013
1013
1016
1019
1020
1018
1015
1016
1018
1022
1026
1024
1020
1016
1015
1019
1017
1012
1010
1011
1016
1019
1023
1019
1018
1016
1018
1019
1022
1019
1014
1011
1009
1013
1014
1015
1014
1012
1013
1014
1013
1009
1007
1006
1008
1013
1012
1009
1006
1005
1010
1015
1016
1013
1009
1005
1008
1013
1013
1016
1016
1012
1016
1022
1026
1032
1038
1049
1063
1078
1095
1114
1142
1178
1219
1261
1298
1331
1365
1403
1444
1468
1466
1429
1354
1254
1161
1096
1055
1034
1027
1025
1023
1022
1018
1012
1002
995
993
996
994
993
986
982
982
984
984
984
979
978
982
979
982
980
976
975
977
982
979
979
972
970
973
975
975
975
971
969
971
972
968
966
966
965
965
968
966
966
965
964
963
964
964
964
961
963
964
966
967
965
958
960
961
964
965
965
964
962
961
965
969
970
969
968
970
973
977
976
974
975
983
988
990
991
989
993
998
1006
1011
1017
1018
1021
1024
1031
1030
1033
1031
1032
1034
1036
1036
1036
1033
1034
1032
1033
1031
1028
1024
1022
1022
1021
1025
1018
1017
1015
1019
1018
1019
1017
1013
1012
1014
1015
1015
1013
1009
1009
1014
1013
1013
1009
1009
1008
1010
1014
1014
1013
1009
1005
1009
1009
1009
1008
1006
1007
1011
1013
1009
1005
1002
999
1002
1006
1009
1006
1002
1004
1006
1007
1009
1008
1005
1006
1009
1009
1007
1006
1003
1003
1005
1008
1008
1005
1003
1003
1006
1005
1003
1003
1000
1000
1004
1009
1006
1005
1001
996
1001
1006
1005
1007
1001
1000
1001
1006
1004
1002
997
997
1001
1004
1003
998
998
997
1000
1004
1002
1002
998
997
1003
1000
1002
1000
997
998
997
997
1000
1001
999
998
1000
1001
1000
1001
996
997
999
1002
1002
1000
998
1000
1003
1002
1000
1000
998
999
1000
1003
1002
999
996
995
996
1000
1001
1000
996
996
999
1003
999
997
995
999
1003
1006
1003
998
997
998
999
1002
999
999
1000
1001
1006
1006
1006
1005
1006
1008
1010
1011
1012
1012
1008
1008
1012
1014
1011
1010
1007
1007
1010
1014
1012
1009
1010
1013
1014
1014
1014
1010
1007
1002
1005
1006
1002
997
995
999
1002
1006
1004
1002
996
997
996
1000
1000
1000
1000
996
1001
1004
1001
1000
999
998
1003
1002
1003
1002
1006
1011
1012
1016
1019
1023
1026
1034
1051
1070
1088
1111
1140
1176
1222
1262
1299
1335
1369
1409
1453
1484
1500
1483
1436
1355
1258
1174
1105
1056
1031
1024
1020
1018
1013
1010
1004
997
989
986
982
981
974
974
972
972
972
971
966
969
972
970
968
966
959
962
964
967
965
964
960
960
961
962
962
958
954
955
956
960
957
961
958
959
959
956
956
955
953
955
955
960
956
954
950
951
953
954
956
953
952
951
953
954
953
952
950
949
953
954
954
955
953
951
957
961
961
961
961
962
965
971
975
974
976
981
988
992
995
998
999
1008
1013
1021
1021
1026
1029
1029
1031
1035
1034
1032
1031
1032
1032
1033
1030
1027
1021
1018
1022
1022
1021
1017
1011
1010
1015
1014
1013
1011
1005
1007
1010
1013
1014
1011
1010
1009
1011
1012
1013
1010
1004
1004
1003
1009
1012
1010
1007
1007
1007
1010
1008
1005
1004
1005
1008
1007
1004
1004
1001
1002
1006
1007
1008
1003
1002
1001
1002
1005
1004
1000
996
997
999
1002
1002
1004
1002
1003
1006
1006
1006
1002
998
998
1002
1005
1006
1006
1002
1003
1001
1003
1001
1001
999
1001
1002
1004
1004
999
997
998
1001
1004
1002
998
995
995
999
1001
999
998
995
994
997
997
999
997
997
999
999
1001
1000
998
994
995
998
1001
999
999
997
997
1001
1002
1001
997
993
990
995
999
999
997
993
994
997
1001
1000
1001
995
995
999
1002
1001
999
995
1000
998
1002
1000
999
997
1000
1003
1003
1002
1001
1000
1000
1003
1004
1006
1004
1000
1001
1005
1011
1010
1009
1005
1008
1009
1014
1015
1015
1012
1016
1018
1019
1020
1020
1019
1016
1020
1019
1016
1012
1009
1011
1012
1016
1020
1018
1016
1017
1018
1020
1017
1017
1011
1009
1009
1010
1007
1005
1003
1006
1007
1010
1009
1008
1008
1008
1010
1009
1008
1007
1003
1005
1008
1011
1010
1008
1005
1004
1007
1011
1012
1009
1005
1005
1006
1013
1012
1014
1010
1013
1016
1023
1026
1033
1039
1051
1071
1083
1096
1113
1134
1164
1200
1240
1273
1307
1337
1367
1403
1444
1475
1487
1477
1444
1386
1305
1218
1148
1096
1064
1040
1031
1024
1017
1012
1011
1010
1008
1004
998
990
986
986
987
985
981
976
978
977
979
979
977
974
975
978
978
974
969
967
967
970
973
971
971
967
969
970
971
968
966
961
963
965
970
970
967
963
963
962
965
966
964
961
960
961
962
961
961
959
960
964
961
962
959
958
958
960
961
961
960
959
958
959
963
962
959
958
958
962
964
965
964
960
964
967
969
970
970
971
975
982
987
987
989
992
993
1000
1006
1007
1011
1014
1020
1027
1030
1032
1033
1032
1034
1038
1041
1040
1037
1033
1033
1036
1038
1035
1030
1028
1026
1026
1028
1024
1022
1018
1015
1015
1020
1018
1016
1015
1013
1011
1014
1014
1012
1012
1014
1014
1019
1014
1012
1012
1010
1012
1014
1016
1012
1009
1011
1014
1014
1012
1009
1007
1008
1009
1013
1013
1010
1009
1006
1010
1013
1013
1010
1008
1008
1010
1012
1010
1007
1010
1009
1012
1013
1012
1010
1004
1009
1006
1010
1010
1008
1008
1011
1017
1019
1015
1011
1010
1012
1012
1013
1014
1012
1009
1010
1015
1017
1016
1013
1008
1012
1014
1016
1013
1012
1008
1009
1012
1013
1013
1010
1007
1008
1009
1015
1013
1011
1010
1009
1013
1017
1016
1011
1010
1010
1012
1015
1014
1009
1011
1011
1015
1016
1013
1010
1007
1009
1010
1016
1014
1011
1008
1008
1010
1011
1010
1010
1008
1010
1012
1011
1008
1009
1006
1007
1008
1013
1011
1009
1007
1006
1011
1009
1006
1004
1004
1007
1011
1014
1013
1009
1005
1007
1010
1014
1016
1019
1021
1027
1039
1051
1063
1080
1099
1118
1130
1136
1128
1110
1090
1054
1006
937
850
753
661
600
576
572
551
551
553
567
594
620
657
693
732
768
796
818
836
846
857
871
889
903
913
922
930
942
953
967
980
992
1000
1009
1021
1032
1039
1046
1049
1054
1057
1064
1063
1062
1062
1066
1070
1075
1074
1076
1076
1078
1080
1088
1086
1085
1088
1092
1098
1101
1101
1097
1099
1102
1106
1112
1111
1115
1111
1115
1119
1124
1127
1129
1132
1137
1145
1151
1152
1156
1161
1168
1177
1181
1187
1189
1195
1201
1211
1222
1229
1234
1238
1245
1257
1264
1269
1273
1277
1282
1292
1299
1299
1298
1297
1297
1296
1297
1292
1288
1279
1277
1270
1269
1259
1249
1238
1228
1219
1212
1201
1189
1177
1171
1169
1163
1150
1137
1126
1119
1111
1106
1096
1085
1077
1075
1069
1068
1062
1053
1047
1042
1044
1042
1039
1034
1030
1030
1028
1031
1024
1023
1019
1020
1023
1025
1021
1018
1015
1018
1020
1021
1020
1019
1014
1016
1017
1019
1017
1016
1011
1009
1013
1017
1017
1012
1011
1008
1012
1016
1012
1011
1010
1011
1011
1010
1010
1006
1006
1003
1006
1010
1008
1006
1000
1000
1001
1005
1003
1002
997
997
1001
1008
1006
1005
998
1001
1003
1004
1002
999
997
995
1000
1002
1001
996
995
993
996
1000
998
997
994
995
999
1001
997
992
994
994
999
999
995
995
992
994
997
999
998
995
995
995
995
995
995
993
991
993
998
998
998
993
991
993
997
997
997
994
994
996
996
997
998
993
993
993
996
999
999
998
996
994
995
993
995
994
993
995
997
997
997
994
991
993
998
998
997
991
991
995
995
1000
997
996
991
996
995
998
998
995
992
995
994
999
997
996
994
995
995
999
997
996
993
991
995
997
997
994
993
995
998
1004
1000
995
991
992
995
998
999
995
992
994
997
999
996
996
996
1001
1001
1000
996
990
991
993
1001
1004
1000
998
994
996
999
1001
998
997
997
997
1002
1000
1002
1000
997
997
1000
1001
1001
997
997
999
1001
1001
1000
998
995
995
999
1000
1001
997
996
996
1003
1005
1003
999
998
997
999
1003
1002
998
995
995
999
1002
1003
1003
1005
1003
1009
1011
1011
1007
1007
1006
1012
1015
1013
1012
1010
1010
1011
1015
1013
1009
1006
1007
1013
1014
1010
1011
1008
1010
1013
1016
1016
1009
1008
1009
1007
1008
1002
998
997
1000
1003
1004
1006
1001
999
1001
1003
1005
1002
999
996
995
998
1004
1003
1001
999
1000
1001
1005
1006
1003
1001
1003
1005
1007
1006
1006
1008
1013
1021
1028
1034
1042
1054
1068
1089
1113
1142
1173
1208
1247
1287
1325
1362
1400
1436
1467
1474
1451
1387
1287
1184
1111
1063
1038
1028
1023
1016
1013
1011
1009
1005
999
993
990
988
986
988
984
980
979
979
980
978
977
977
977
979
980
979
972
971
967
969
969
966
967
967
969
972
973
971
969
965
963
966
967
965
962
963
963
965
966
967
966
963
962
965
968
964
962
960
961
962
962
963
961
961
963
964
963
964
960
959
956
959
964
965
966
962
963
965
966
963
963
964
965
969
970
971
969
969
972
976
984
984
982
986
988
991
996
998
1000
1002
1004
1011
1017
1022
1023
1023
1028
1035
1038
1037
1036
1037
1037
1039
1043
1042
1037
1034
1034
1035
1035
1030
1029
1026
1026
1028
1026
1022
1019
1016
1015
1018
1018
1022
1022
1020
1018
1018
1020
1018
1019
1016
1018
1018
1019
1018
1015
1013
1013
1013
1017
1015
1013
1013
1015
1018
1018
1017
1013
1010
1011
1013
1017
1014
1012
1011
1014
1017
1017
1018
1016
1014
1016
1016
1017
1015
1011
1008
1013
1015
1019
1016
1012
1010
1013
1016
1019
1015
1012
1010
1011
1014
1014
1012
1012
1013
1013
1014
1016
1012
1009
1011
1010
1013
1014
1013
1008
1007
1010
1011
1012
1011
1007
1009
1008
1010
1014
1014
1008
1008
1007
1010
1012
1010
1010
1005
1007
1007
1011
1008
1008
1004
1006
1006
1012
1009
1006
1001
1000
1005
1010
1012
1007
1004
1003
1005
1009
1009
1006
1003
1007
1010
1010
1008
1007
1005
1010
1009
1009
1007
1003
1002
1005
1008
1011
1007
1006
1004
1005
1006
1007
1008
1005
1007
1009
1008
1009
1005
1003
1000
1002
1005
1008
1011
1006
1006
1011
1016
1013
1015
1011
1011
1015
1017
1017
1019
1016
1018
1019
1021
1026
1022
1016
1012
1013
1013
1013
1014
1012
1013
1013
1016
1018
1018
1014
1012
1015
1016
1018
1016
1011
1007
1004
1008
1010
1007
1007
1007
1008
1008
1008
1009
1006
1007
1004
1007
1010
1009
1007
1007
1008
1011
1011
1007
1005
999
1002
1008
1010
1009
1006
1005
1010
1011
1016
1013
1012
1011
1017
1026
1034
1042
1050
1063
1079
1099
1127
1155
1193
1230
1269
1306
1345
1381
1419
1451
1467
1459
1412
1326
1218
1130
1072
1044
1030
1022
1019
1017
1015
1014
1011
1007
1000
996
994
993
991
989
987
985
983
985
988
987
986
981
981
983
981
978
979
976
981
984
979
976
973
972
975
978
979
978
974
971
971
974
976
974
971
969
970
974
975
976
970
967
971
971
973
974
971
969
970
973
975
977
973
971
971
972
974
973
970
967
969
974
974
974
971
972
973
976
977
978
977
979
980
983
987
990
988
990
995
998
1004
1006
1007
1009
1015
1024
1028
1027
1027
1032
1034
1040
1041
1041
1039
1034
1037
1038
1037
1037
1031
1030
1031
1033
1031
1027
1024
1019
1019
1021
1023
1024
1018
1015
1016
1018
1019
1018
1016
1015
1016
1018
1016
1016
1015
1013
1015
1018
1016
1017
1012
1012
1013
1015
1014
1012
1007
1010
1010
1014
1016
1014
1009
1006
1008
1011
1014
1015
1009
1008
1006
1011
1010
1008
1008
1007
1008
1011
1009
1006
1007
1009
1008
1012
1011
1008
1007
1007
1009
1009
1009
1007
1006
1007
1008
1011
1010
1008
1007
1005
1006
1011
1015
1008
1004
1004
1007
1011
1011
1009
1006
1005
1003
1004
1005
1003
1004
1004
1007
1007
1008
1006
1004
1002
1004
1008
1010
1008
1003
1001
1001
1005
1006
1006
1003
1000
1000
1002
1004
1002
1000
998
1000
1005
1008
1003
1000
998
1001
1001
1004
1002
999
997
999
1003
1005
1005
1002
1001
1001
1003
1001
1002
1000
1000
1000
1002
1001
1002
997
1000
1002
1003
1005
1006
1002
1002
1004
1005
1007
1002
998
997
1003
1004
1007
1002
1002
999
1003
1006
1006
1008
1004
1003
1003
1006
1006
1004
1008
1007
1008
1010
1010
1011
1010
1010
1011
1016
1018
1019
1018
1015
1016
1017
1016
1015
1015
1011
1013
1014
1013
1015
1012
1015
1017
1018
1018
1014
1012
1014
1011
1013
1012
1008
1006
1005
1007
1009
1010
1007
1005
999
1004
1008
1008
1008
1006
1002
1005
1005
1006
1005
1005
1002
1007
1013
1014
1011
1009
1008
1009
1013
1015
1022
1023
1026
1032
1045
1060
1071
1084
1109
1140
1180
1217
1253
1287
1320
1363
1404
1442
1467
1466
1426
1341
1231
1138
1075
1038
1019
1018
1017
1018
1014
1007
1006
1007
1004
1000
993
988
986
986
986
986
985
980
979
981
982
984
982
977
974
973
978
980
980
977
972
976
978
979
979
976
974
975
977
978
975
970
969
970
974
975
971
970
967
970
973
971
970
969
970
970
974
974
973
969
968
972
973
974
972
971
967
968
970
974
973
973
970
972
974
977
978
977
977
980
985
990
988
986
985
990
997
1002
1006
1007
1011
1014
1022
1027
1028
1032
1032
1036
1039
1044
1043
1038
1035
1039
1044
1040
1039
1037
1033
1034
1032
1032
1027
1021
1018
1021
1025
1023
1022
1013
1015
1015
1019
1019
1015
1014
1013
1015
1016
1017
1015
1012
1011
1013
1016
1017
1015
1013
1013
1012
1018
1016
1010
1006
1006
1011
1013
1013
1011
1010
1008
1008
1009
1009
1009
1007
1008
1008
1008
1008
1008
1008
1005
1007
1009
1009
1011
1007
1004
1007
1008
1009
1008
1005
1004
1004
1007
1010
1007
1008
1006
1010
1011
1014
1010
1006
1005
1007
1008
1007
1006
1005
1005
1010
1010
1008
1009
1008
1008
1008
1009
1009
1008
1005
1005
1004
1006
1005
1003
1002
1002
1006
1008
1010
1006
1001
998
1003
1006
1006
1005
998
998
1003
1006
1007
1005
