1193
1195
1200
1206
1214
1222
1226
1228
1235
1240
1249
1256
1256
1258
1263
1270
1275
1280
1280
1280
1282
1280
1282
1282
1277
1270
1269
1265
1265
1259
1251
1240
1232
1231
1226
1220
1210
1200
1191
1185
1181
1173
1167
1157
1150
1142
1138
1135
1123
1117
1108
1106
1101
1098
1091
1082
1077
1074
1073
1070
1066
1058
1055
1054
1057
1053
1050
1046
1043
1044
1044
1045
1042
1038
1039
1040
1041
1042
1038
1038
1035
1037
1038
1039
1037
1035
1035
1037
1040
1043
1041
1034
1036
1038
1041
1039
1038
1036
1035
1037
1037
1037
1037
1030
1033
1031
1034
1036
1033
1027
1027
1026
1030
1029
1029
1025
1021
1024
1026
1025
1024
1022
1018
1019
1020
1019
1015
1011
1012
1010
1016
1016
1017
1013
1011
1012
1016
1016
1014
1013
1010
1016
1016
1015
1012
1010
1011
1013
1016
1017
1016
1010
1011
1013
1014
1016
1014
1012
1010
1012
1013
1016
1014
1013
1014
1012
1017
1017
1015
1011
1013
1014
1017
1019
1017
1013
1014
1016
1019
1021
1020
1018
1019
1018
1018
1020
1018
1015
1016
1016
1019
1017
1016
1014
1015
1015
1015
1017
1017
1015
1013
1017
1018
1018
1017
1016
1014
1018
1018
1019
1016
1015
1012
1016
1018
1019
1018
1013
1014
1017
1018
1017
1014
1011
1012
1016
1022
1019
1019
1014
1017
1017
1020
1022
1018
1015
1017
1020
1020
1023
1020
1019
1018
1018
1021
1023
1020
1018
1019
1020
1023
1023
1022
1018
1017
1019
1021
1022
1024
1018
1020
1018
1022
1023
1019
1016
1017
1021
1023
1024
1021
1021
1018
1018
1024
1023
1023
1018
1018
1020
1023
1023
1021
1019
1017
1020
1023
1023
1021
1019
1017
1018
1022
1025
1023
1021
1021
1021
1024
1025
1024
1019
1017
1019
1021
1021
1020
1019
1018
1021
1023
1023
1023
1020
1021
1022
1023
1021
1022
1019
1018
1021
1025
1025
1025
1020
1021
1021
1023
1026
1024
1022
1021
1023
1026
1025
1025
1022
1022
1021
1026
1029
1027
1024
1020
1023
1026
1027
1025
1023
1023
1024
1026
1031
1025
1025
1022
1024
1028
1030
1031
1028
1025
1027
1030
1031
1030
1028
1025
1027
1032
1032
1028
1027
1027
1030
1032
1031
1030
1029
1028
1030
1032
1032
1031
1028
1027
1028
1033
1032
1030
1030
1030
1031
1035
1035
1032
1028
1027
1030
1032
1034
1033
1032
1030
1031
1035
1035
1034
1033
1032
1034
1035
1037
1035
1037
1038
1040
1043
1043
1042
1039
1041
1042
1045
1047
1043
1043
1041
1042
1044
1044
1042
1039
1039
1040
1043
1042
1039
1036
1040
1044
1045
1049
1049
1040
1042
1039
1040
1038
1035
1034
1035
1033
1039
1040
1036
1031
1030
1033
1039
1040
1037
1032
1032
1033
1036
1035
1035
1034
1033
1034
1037
1036
1034
1033
1035
1037
1040
1043
1041
1039
1039
1046
1052
1058
1064
1070
1078
1087
1097
1109
1123
1144
1170
1200
1227
1255
1280
1307
1339
1379
1414
1430
1420
1366
1289
1198
1126
1076
1048
1038
1038
1044
1046
1043
1040
1036
1033
1033
1030
1027
1024
1020
1019
1018
1020
1018
1015
1011
1012
1014
1016
1017
1015
1013
1011
1013
1015
1015
1011
1011
1009
1011
1014
1016
1012
1009
1008
1012
1016
1014
1009
1006
1005
1008
1011
1010
1010
1009
1007
1009
1012
1011
1009
1006
1008
1008
1012
1013
1012
1008
1007
1009
1013
1013
1012
1009
1011
1013
1016
1015
1013
1010
1010
1013
1016
1018
1019
1014
1015
1017
1017
1019
1019
1015
1018
1018
1022
1022
1022
1019
1020
1022
1027
1030
1029
1026
1028
1033
1037
1041
1039
1042
1041
1044
1051
1054
1053
1056
1057
1063
1072
1071
1071
1070
1074
1076
1077
1079
1078
1076
1076
1076
1077
1077
1075
1072
1070
1070
1074
1070
1064
1062
1059
1061
1061
1061
1059
1054
1052
1055
1056
1056
1053
1051
1051
1052
1053
1053
1053
1049
1049
1050
1053
1051
1049
1046
1044
1048
1050
1051
1048
1045
1044
1047
1049
1050
1049
1046
1045
1045
1048
1050
1046
1044
1045
1047
1051
1050
1049
1045
1047
1047
1051
1051
1046
1043
1043
1045
1048
1050
1047
1043
1042
1041
1045
1045
1041
1039
1039
1039
1042
1039
1039
1034
1034
1036
1039
1038
1039
1033
1032
1034
1037
1036
1036
1029
1030
1031
1034
1034
1033
1031
1027
1030
1034
1034
1030
1028
1028
1031
1034
1032
1030
1028
1027
1027
1030
1028
1028
1025
1027
1030
1030
1030
1026
1024
1024
1029
1032
1031
1031
1027
1026
1027
1029
1030
1027
1027
1027
1028
1031
1029
1028
1026
1026
1029
1032
1031
1030
1026
1024
1027
1029
1031
1029
1028
1028
1029
1031
1031
1029
1028
1027
1031
1033
1033
1030
1028
1027
1029
1034
1032
1032
1032
1029
1033
1037
1038
1037
1036
1036
1038
1042
1042
1042
1037
1039
1040
1042
1042
1039
1034
1034
1034
1037
1038
1034
1034
1034
1037
1039
1039
1037
1035
1035
1037
1039
1040
1035
1031
1028
1028
1031
1032
1032
1027
1028
1030
1030
1030
1030
1027
1029
1031
1031
1031
1028
1025
1027
1028
1031
1031
1027
1026
1024
1030
1032
1032
1028
1029
1029
1033
1036
1039
1037
1035
1041
1048
1057
1066
1075
1080
1087
1099
1115
1139
1165
1193
1220
1250
1280
1312
1347
1386
1419
1436
1420
1373
1289
1202
1129
1079
1048
1031
1027
1024
1027
1030
1031
1029
1026
1020
1016
1016
1017
1016
1014
1009
1010
1010
1015
1014
1012
1008
1007
1008
1011
1010
1010
1006
1006
1006
1007
1009
1004
1003
1002
1003
1007
1006
1006
1002
1000
1004
1004
1004
1004
1000
1003
1001
1007
1005
1000
999
1002
1004
1006
1005
1001
999
999
1002
1007
1008
1005
1003
1003
1003
1005
1008
1007
1005
1006
1009
1010
1009
1010
1007
1007
1010
1013
1012
1012
1013
1013
1017
1021
1025
1022
1022
1024
1028
1033
1033
1032
1034
1037
1041
1046
1047
1048
1046
1051
1053
1060
1060
1059
1057
1059
1061
1060
1059
1056
1054
1051
1053
1052
1051
1047
1042
1041
1042
1043
1039
1039
1034
1035
1036
1036
1035
1033
1030
1031
1031
1032
1035
1033
1030
1029
1030
1033
1030
1031
1028
1029
1029
1034
1032
1029
1027
1024
1028
1031
1028
1030
1024
1026
1028
1029
1030
1027
1024
1024
1029
1032
1028
1028
1023
1026
1029
1031
1031
1030
1027
1027
1029
1034
1032
1031
1028
1028
1030
1035
1033
1031
1030
1028
1033
1032
1034
1029
1028
1027
1029
1035
1031
1029
1026
1024
1028
1032
1029
1025
1022
1023
1025
1028
1027
1026
1023
1024
1027
1028
1027
1024
1020
1023
1023
1025
1025
1023
1022
1020
1021
1025
1024
1023
1019
1019
1023
1025
1023
1022
1020
1021
1022
1023
1023
1020
1020
1018
1022
1024
1023
1021
1020
1017
1021
1022
1025
1022
1021
1019
1023
1024
1020
1021
1018
1021
1021
1024
1022
1021
1016
1018
1022
1024
1022
1023
1018
1019
1021
1023
1021
1022
1021
1021
1022
1024
1024
1023
1021
1024
1024
1027
1027
1026
1021
1024
1025
1031
1032
1036
1031
1032
1036
1036
1033
1035
1034
1036
1038
1041
1039
1037
1029
1031
1033
1035
1033
1031
1028
1028
1031
1035
1034
1034
1034
1032
1035
1036
1032
1030
1027
1024
1027
1028
1027
1026
1024
1026
1028
1029
1028
1026
1023
1022
1024
1026
1025
1025
1022
1023
1026
1028
1024
1023
1023
1025
1025
1027
1026
1025
1024
1025
1028
1031
1032
1034
1035
1039
1048
1058
1065
1074
1083
1091
1110
1134
1158
1182
1202
1229
1256
1290
1326
1367
1391
1400
1381
1325
1241
1150
1081
1043
1023
1017
1017
1020
1021
1022
1023
1028
1024
1020
1013
1014
1012
1018
1013
1012
1009
1007
1010
1013
1012
1009
1007
1008
1009
1010
1009
1008
1005
1008
1009
1010
1009
1008
1003
1004
1005
1007
1007
1004
1004
1003
1004
1008
1006
1004
1003
1003
1005
1007
1008
1004
1003
1004
1004
1006
1005
1004
1003
1005
1005
1007
1006
1005
1003
1006
1009
1010
1008
1006
1004
1005
1008
1013
1009
1011
1009
1011
1014
1017
1015
1017
1015
1021
1021
1026
1028
1028
1029
1031
1033
1041
1043
1045
1044
1048
1053
1056
1058
1057
1058
1059
1063
1069
1068
1067
1064
1065
1066
1068
1064
1060
1056
1054
1054
1055
1052
1045
1043
1041
1042
1045
1039
1040
1035
1036
1036
1041
1038
1036
1033
1034
1037
1039
1039
1033
1032
1032
1035
1037
1037
1034
1030
1030
1031
1033
1032
1029
1028
1029
1030
1032
1030
1029
1024
1026
1027
1030
1028
1025
1024
1025
1027
1029
1028
1024
1024
1024
1026
1032
1029
1025
1023
1026
1030
1031
1030
1029
1027
1026
1029
1032
1032
1031
1028
1030
1028
1032
1028
1028
1028
1027
1030
1032
1029
1029
1024
1025
1029
1030
1028
1028
1025
1023
1027
1027
1026
1024
1024
1024
1026
1028
1026
1024
1021
1021
1024
1030
1024
1026
1019
1020
1023
1027
1025
1022
1022
1022
1025
1024
1024
1023
1019
1021
1022
1027
1023
1020
1019
1022
1024
1024
1024
1023
1019
1021
1023
1026
1022
1021
1023
1021
1024
1024
1024
1024
1020
1019
1024
1029
1026
1024
1020
1023
1024
1027
1027
1025
1024
1024
1025
1028
1026
1023
1024
1024
1026
1028
1025
1025
1021
1025
1028
1029
1031
1025
1023
1025
1032
1034
1034
1033
1031
1035
1036
1040
1039
1038
1036
1038
1042
1043
1042
1037
1033
1036
1037
1039
1036
1036
1033
1032
1037
1039
1038
1040
1034
1037
1036
1037
1036
1032
1027
1027
1030
1034
1032
1027
1028
1028
1030
1032
1031
1027
1025
1024
1028
1030
1030
1028
1023
1023
1027
1031
1029
1027
1026
1028
1032
1033
1029
1030
1025
1029
1034
1041
1044
1048
1054
1064
1077
1088
1096
1114
1133
1162
1191
1222
1246
1271
1302
1339
1379
1411
1413
1383
1322
1235
1152
1094
1056
1030
1015
1014
1023
1027
1026
1025
1020
1019
1018
1018
1015
1011
1008
1010
1013
1012
1011
1008
1006
1004
1008
1011
1010
1006
1005
1004
1004
1009
1006
1003
1001
1002
1004
1007
1006
1001
1000
1003
1002
1006
1003
1000
996
997
1002
1004
1003
1000
998
999
1002
1004
1003
1002
999
1000
1004
1008
1008
1007
1002
1006
1008
1012
1008
1008
1006
1008
1012
1014
1013
1014
1013
1016
1021
1025
1026
1025
1025
1031
1035
1040
1040
1041
1042
1045
1052
1057
1057
1058
1059
1062
1065
1066
1065
1063
1061
1061
1060
1060
1059
1053
1049
1048
1049
1049
1046
1044
1038
1038
1038
1041
1039
1036
1033
1034
1035
1037
1034
1033
1031
1030
1032
1034
1030
1030
1029
1029
1030
1032
1034
1029
1027
1026
1029
1034
1030
1029
1027
1028
1030
1032
1032
1028
1024
1027
1029
1031
1030
1026
1027
1029
1029
1032
1029
1027
1029
1031
1031
1034
1034
1030
1029
1030
1033
1033
1034
1034
1031
1032
1035
1036
1033
1032
1030
1033
1036
1035
1036
1031
1031
1030
1034
1036
1035
1031
1029
1029
1030
1034
1033
1031
1029
1028
1031
1031
1028
1026
1027
1028
1032
1033
1030
1029
1026
1029
1031
1034
1032
1029
1028
1029
1031
1031
1031
1029
1027
1027
1030
1032
1029
1027
1025
1027
1030
1032
1031
1027
1024
1028
1031
1035
1033
1028
1028
1028
1031
1032
1032
1032
1032
1035
1041
1053
1060
1071
1090
1115
1142
1159
1167
1162
1150
1134
1104
1057
997
920
827
737
687
669
658
647
643
645
659
682
714
740
768
796
825
846
862
872
885
899
916
930
939
946
952
961
974
985
995
999
1009
1021
1029
1037
1044
1051
1055
1062
1067
1069
1072
1071
1072
1076
1080
1086
1087
1084
1083
1085
1089
1093
1093
1090
1089
1090
1093
1098
1098
1096
1097
1098
1100
1105
1106
1106
1104
1106
1111
1117
1117
1117
1118
1123
1128
1132
1134
1132
1135
1138
1146
1152
1155
1156
1156
1163
1171
1177
1183
1186
1188
1197
1203
1211
1214
1217
1220
1224
1235
1241
1242
1241
1246
1251
1257
1261
1261
1257
1254
1254
1256
1256
1252
1243
1239
1233
1232
1228
1220
1212
1203
1199
1195
1191
1183
1170
1162
1159
1153
1147
1140
1131
1122
1117
1113
1110
1105
1092
1088
1083
1083
1081
1077
1070
1065
1065
1064
1062
1059
1056
1050
1050
1053
1054
1053
1049
1046
1044
1047
1047
1046
1043
1042
1043
1042
1044
1046
1042
1036
1038
1037
1040
1039
1037
1035
1036
1035
1037
1037
1032
1031
1034
1035
1037
1031
1029
1028
1030
1030
1033
1030
1027
1025
1024
1027
1026
1023
1022
1019
1021
1022
1023
1021
1018
1015
1019
1022
1023
1021
1018
1016
1014
1018
1018
1017
1016
1012
1013
1015
1018
1018
1014
1012
1012
1016
1019
1016
1012
1011
1014
1014
1017
1015
1012
1011
1013
1015
1017
1014
1013
1012
1011
1013
1017
1015
1011
1009
1010
1014
1016
1016
1012
1010
1011
1014
1018
1014
1012
1009
1010
1014
1016
1014
1011
1010
1009
1013
1015
1013
1013
1011
1011
1015
1015
1014
1012
1010
1011
1014
1014
1014
1012
1009
1009
1013
1013
1011
1012
1011
1011
1014
1017
1013
1011
1009
1010
1013
1015
1015
1010
1010
1011
1013
1015
1011
1012
1011
1011
1011
1015
1013
1011
1010
1010
1014
1015
1013
1013
1007
1011
1012
1015
1012
1010
1010
1011
1014
1016
1013
1011
1009
1011
1014
1016
1016
1011
1008
1008
1013
1015
1015
1012
1010
1012
1012
1016
1011
1010
1009
1011
1014
1017
1014
1013
1010
1013
1015
1016
1015
1013
1010
1012
1014
1017
1017
1012
1012
1014
1016
1017
1014
1013
1010
1014
1015
1017
1016
1013
1011
1014
1015
1016
1017
1016
1014
1015
1019
1020
1016
1014
1012
1014
1018
1018
1018
1013
1013
1014
1016
1016
1016
1015
1012
1016
1019
1017
1014
1014
1012
1013
1016
1021
1017
1015
1013
1014
1017
1020
1018
1012
1012
1013
1015
1016
1016
1013
1014
1016
1019
1021
1022
1020
1021
1020
1026
1028
1026
1023
1022
1024
1026
1029
1028
1026
1022
1021
1023
1023
1024
1021
1021
1022
1024
1026
1027
1024
1023
1024
1029
1028
1024
1020
1017
1016
1018
1020
1017
1020
1016
1018
1018
1019
1018
1013
1016
1018
1018
1020
1018
1013
1012
1018
1018
1021
1019
1017
1014
1015
1021
1021
1018
1019
1018
1021
1024
1029
1028
1030
1034
1044
1054
1066
1072
1076
1086
1108
1134
1162
1188
1217
1246
1282
1323
1366
1404
1420
1410
1366
1289
1209
1129
1067
1032
1015
1018
1022
1023
1018
1018
1019
1018
1018
1011
1005
1003
1002
1005
1006
1004
998
996
998
999
1001
998
996
997
998
1000
1000
1000
996
993
996
1001
1000
996
994
992
992
995
995
994
995
990
991
993
995
993
990
989
992
993
996
992
992
990
991
991
995
994
992
991
994
997
996
995
995
992
994
1000
998
999
998
996
996
1000
1001
1002
1000
998
1000
1005
1006
1002
1002
1000
1002
1009
1010
1009
1007
1007
1010
1014
1018
1019
1019
1018
1023
1029
1029
1029
1029
1030
1032
1036
1042
1045
1045
1045
1050
1054
1057
1057
1057
1058
1061
1064
1065
1066
1061
1061
1063
1065
1065
1062
1059
1057
1057
1055
1057
1053
1052
1048
1048
1048
1048
1045
1042
1042
1043
1043
1046
1042
1038
1038
1039
1040
1041
1041
1036
1035
1035
1037
1039
1038
1037
1035
1037
1038
1040
1037
1037
1033
1036
1039
1042
1040
1038
1034
1036
1037
1037
1034
1034
1035
1036
1039
1039
1038
1036
1034
1035
1038
1040
1038
1037
1038
1039
1040
1040
1040
1038
1037
1037
1042
1041
1040
1038
1036
1038
1039
1040
1039
1036
1035
1040
1039
1040
1038
1037
1034
1037
1039
1040
1035
1032
1031
1034
1036
1039
1035
1029
1031
1032
1033
1034
1034
1031
1030
1032
1032
1033
1031
1031
1029
1031
1034
1035
1033
1030
1030
1029
1034
1034
1032
1029
1030
1029
1033
1031
1032
1029
1029
1028
1031
1031
1033
1027
1026
1030
1032
1032
1033
1032
1030
1030
1034
1032
1033
1029
1028
1031
1034
1035
1033
1031
1028
1028
1031
1034
1032
1031
1029
1030
1033
1036
1032
1030
1030
1031
1034
1036
1033
1031
1030
1031
1034
1034
1034
1029
1029
1032
1035
1036
1033
1029
1029
1032
1035
1037
1033
1031
1030
1032
1035
1038
1037
1036
1038
1042
1043
1044
1041
1040
1042
1044
1048
1048
1048
1045
1045
1045
1049
1048
1044
1041
1039
1039
1041
1042
1044
1040
1041
1043
1048
1048
1044
1043
1043
1046
1048
1044
1041
1035
1033
1036
1036
1039
1038
1034
1033
1035
1039
1039
1040
1032
1036
1035
1038
1041
1037
1034
1034
1038
1037
1041
1040
1037
1036
1036
1039
1040
1038
1037
1037
1041
1045
1047
1048
1050
1052
1065
1077
1088
1097
1103
1120
1143
1172
1199
1224
1248
1277
1310
1353
1392
1416
1415
1381
1317
1237
1155
1090
1048
1029
1027
1034
1040
1040
1037
1036
1034
1036
1033
1030
1027
1026
1024
1029
1028
1026
1024
1024
1025
1027
1028
1024
1023
1023
1023
1025
1027
1022
1019
1019
1022
1025
1024
1021
1017
1018
1020
1020
1021
1022
1017
1018
1018
1021
1022
1021
1018
1017
1020
1021
1023
1021
1018
1019
1019
1023
1024
1023
1020
1021
1023
1026
1026
1026
1026
1024
1026
1030
1029
1031
1028
1032
1034
1038
1040
1040
1038
1042
1042
1049
1049
1053
1053
1051
1058
1063
1066
1068
1070
1072
1077
1081
1083
1084
1084
1085
1089
1090
1092
1088
1089
1087
1086
1087
1086
1082
1078
1075
1075
1075
1074
1072
1067
1067
1067
1067
1067
1063
1059
1059
1058
1062
1061
1061
1057
1054
1055
1057
1056
1059
1055
1055
1055
1057
1058
1055
1051
1054
1054
1058
1057
1056
1054
1052
1056
1055
1056
1054
1053
1048
1051
1053
1053
1052
1048
1051
1051
1055
1053
1052
1048
1050
1052
1055
1054
1054
1051
1048
1051
1052
1055
1054
1053
1054
1053
1055
1057
1053
1052
1050
1056
1057
1056
1055
1053
1050
1054
1056
1057
1053
1053
1051
1054
1054
1055
1053
1052
1049
1053
1054
1053
1054
1051
1050
1050
1051
1054
1051
1049
1052
1049
1052
1052
1052
1047
1049
1048
1051
1052
1048
1048
1049
1049
1051
1051
1049
1047
1046
1048
1050
1051
1051
1048
1049
1049
1051
1052
1052
1047
1048
1050
1051
1053
1049
1044
1046
1049
1054
1052
1050
1047
1048
1051
1053
1052
1052
1050
1049
1052
1054
1054
1049
1050
1046
1047
1051
1051
1048
1047
1048
1049
1053
1052
1052
1047
1048
1049
1049
1054
1049
1049
1052
1056
1055
1058
1056
1054
1054
1061
1064
1065
1064
1059
1061
1064
1063
1063
1058
1054
1054
1055
1058
1059
1060
1055
1054
1057
1063
1065
1064
1060
1058
1060
1058
1059
1053
1049
1051
1050
1054
1054
1053
1049
1051
1055
1058
1054
1052
1051
1052
1055
1053
1054
1046
1047
1044
1047
1052
1053
1053
1052
1052
1052
1050
1049
1051
1055
1055
1059
1065
1072
1077
1084
1094
1103
1113
1125
1149
1174
1207
1241
1274
1300
1336
1369
1415
1450
1461
1433
1367
1274
1188
1125
1081
1055
1041
1035
1039
1040
1043
1044
1040
1031
1028
1025
1025
1024
1022
1020
1019
1023
1025
1026
1021
1017
1015
1020
1021
1020
1021
1016
1018
1022
1023
1024
1023
1019
1017
1016
1015
1017
1019
1016
1013
1015
1017
1016
1011
1006
1008
1014
1016
1016
1012
1010
1010
1011
1015
1012
1009
1007
1010
1009
1014
1013
1013
1013
1012
1018
1020
1018
1017
1013
1013
1016
1019
1022
1022
1018
1019
1025
1030
1030
1026
1025
1029
1035
1042
1043
1043
1039
1045
1048
1052
1058
1059
1060
1063
1069
1074
1076
1077
1075
1079
1080
1082
1079
1077
1075
1074
1076
1076
1074
1068
1066
1064
1066
1065
1063
1058
1055
1056
1053
1056
1053
1052
1049
1049
1054
1056
1056
1052
1049
1049
1053
1054
1053
1050
1049
1051
1050
1050
1049
1051
1051
1050
1053
1054
1055
1052
1049
1051
1055
1055
1049
1042
1041
1045
1051
1050
1046
1048
1054
1054
1057
1061
1056
1046
1041
1039
1046
1053
1056
1055
1051
1052
1060
1063
1061
1055
1052
1050
1053
1055
1056
1060
1059
1058
1057
1058
1057
1056
1057
1058
1057
1059
1061
1060
1055
1053
1053
1058
1059
1060
1054
1048
1048
1054
1058
1059
1057
1054
1055
1054
1055
1055
1051
1051
1051
1054
1054
1054
1051
1049
1053
1057
1058
1054
1049
1051
1054
1053
1053
1050
1048
1053
1051
1054
1055
1054
1056
1052
1054
1050
1052
1050
1050
1053
1056
1059
1058
1057
1053
1051
1048
1049
1050
1049
1054
1061
1061
1057
1051
1050
1051
1055
1058
1057
1056
1055
1051
1050
1054
1065
1063
1057
1048
1044
1047
1050
1045
1041
1037
1038
1044
1058
1061
1056
1048
1058
1061
1065
1062
1061
1064
1071
1076
1074
1066
1062
1061
1059
1063
1070
1073
1069
1056
1055
1063
1069
1069
1067
1070
1072
1073
1071
1065
1062
1062
1067
1069
1065
1054
1052
1051
1054
1059
1062
1062
1058
1055
1057
1062
1062
1061
1060
1058
1059
1060
1065
1060
1051
1046
1048
1055
1066
1067
1066
1068
1070
1067
1058
1050
1053
1058
1062
1065
1069
1074
1080
1085
1099
1112
1128
1146
1170
