1040
1039
1038
1032
1027
1027
1030
1031
1032
1031
1027
1029
1030
1031
1029
1029
1025
1028
1028
1028
1028
1024
1025
1026
1026
1030
1029
1027
1026
1026
1030
1031
1032
1029
1028
1033
1036
1043
1047
1050
1059
1073
1083
1096
1109
1130
1159
1194
1227
1259
1289
1322
1355
1400
1438
1451
1441
1397
1326
1241
1159
1099
1057
1029
1018
1021
1027
1029
1029
1023
1021
1020
1019
1015
1012
1010
1006
1008
1008
1010
1006
1005
1005
1007
1008
1006
1006
1001
1000
1002
1003
1005
1003
1002
1000
1001
1004
1003
1003
1001
999
999
1001
1001
999
998
996
998
1001
1001
1001
998
996
997
1000
1002
999
998
997
997
1000
1002
1000
1001
997
998
1002
1004
1003
1002
1002
1003
1006
1008
1007
1006
1006
1011
1015
1019
1017
1018
1017
1019
1024
1031
1031
1033
1033
1037
1044
1048
1050
1051
1052
1057
1065
1069
1070
1071
1070
1073
1078
1080
1077
1073
1072
1073
1072
1072
1067
1063
1058
1058
1056
1056
1052
1049
1046
1048
1048
1047
1043
1038
1038
1039
1041
1040
1039
1036
1033
1033
1037
1039
1036
1035
1034
1033
1036
1040
1036
1032
1030
1034
1035
1037
1034
1030
1030
1030
1032
1033
1032
1027
1029
1028
1032
1030
1029
1026
1025
1026
1027
1029
1030
1027
1024
1027
1030
1031
1028
1025
1026
1028
1031
1030
1029
1026
1027
1029
1032
1035
1033
1031
1030
1032
1033
1034
1033
1032
1029
1029
1032
1034
1032
1031
1030
1034
1033
1033
1034
1027
1028
1031
1030
1033
1031
1028
1027
1027
1031
1031
1028
1027
1024
1028
1030
1029
1027
1025
1024
1027
1028
1029
1028
1022
1021
1023
1026
1027
1026
1025
1023
1022
1024
1025
1024
1023
1019
1021
1025
1023
1023
1019
1018
1022
1023
1026
1023
1021
1018
1020
1023
1025
1022
1021
1020
1021
1025
1025
1026
1024
1020
1022
1024
1024
1022
1019
1018
1022
1024
1029
1025
1023
1020
1020
1024
1024
1022
1024
1021
1024
1025
1026
1022
1020
1020
1023
1025
1026
1025
1023
1021
1022
1026
1028
1028
1024
1023
1024
1030
1031
1031
1030
1029
1032
1034
1036
1034
1031
1033
1036
1039
1037
1037
1035
1033
1032
1033
1032
1028
1026
1023
1027
1032
1030
1033
1029
1030
1031
1032
1033
1032
1031
1028
1031
1028
1027
1023
1019
1020
1021
1025
1025
1024
1021
1021
1023
1024
1026
1023
1020
1019
1021
1023
1025
1022
1019
1017
1019
1024
1024
1025
1018
1019
1022
1022
1026
1022
1020
1023
1025
1029
1034
1038
1041
1047
1058
1072
1084
1090
1103
1128
1160
1193
1223
1248
1272
1301
1337
1380
1413
1429
1415
1373
1299
1214
1132
1072
1031
1011
1008
1014
1019
1020
1016
1015
1012
1014
1011
1006
1002
1002
1000
1002
1004
1001
999
998
1000
1003
1001
998
998
995
997
999
1000
999
995
993
996
996
998
994
992
994
995
997
997
992
993
991
992
998
997
992
991
991
992
995
994
994
992
990
994
994
995
994
991
991
994
997
995
997
994
994
994
999
1001
998
997
997
999
1001
1006
1007
1004
1006
1007
1012
1015
1014
1015
1016
1021
1025
1029
1030
1030
1033
1039
1046
1050
1051
1051
1052
1057
1062
1066
1069
1066
1069
1069
1071
1070
1066
1062
1058
1058
1060
1058
1052
1048
1045
1044
1042
1043
1043
1034
1033
1033
1033
1034
1031
1028
1026
1029
1030
1029
1027
1027
1025
1026
1028
1027
1026
1027
1024
1023
1028
1029
1026
1023
1022
1024
1025
1026
1023
1021
1021
1023
1024
1024
1022
1022
1019
1021
1025
1022
1022
1021
1021
1023
1024
1027
1025
1022
1021
1027
1028
1031
1030
1027
1027
1029
1028
1029
1029
1026
1028
1028
1031
1031
1029
1024
1025
1029
1030
1033
1030
1029
1031
1039
1049
1063
1082
1105
1130
1150
1161
1154
1136
1097
1035
961
871
774
694
661
653
648
649
653
664
681
706
734
768
797
823
842
855
870
886
900
911
920
929
937
948
956
965
973
983
1000
1010
1019
1027
1034
1036
1044
1050
1054
1055
1055
1057
1061
1067
1069
1069
1069
1069
1069
1074
1075
1075
1073
1074
1081
1083
1086
1088
1087
1089
1095
1098
1099
1100
1098
1101
1107
1113
1113
1114
1114
1119
1124
1130
1134
1139
1138
1142
1148
1154
1160
1162
1167
1172
1179
1186
1193
1196
1200
1205
1215
1222
1229
1236
1238
1244
1252
1255
1260
1263
1264
1264
1268
1270
1269
1268
1263
1258
1255
1254
1248
1240
1234
1227
1221
1216
1212
1203
1197
1186
1179
1172
1168
1158
1147
1141
1135
1133
1127
1118
1109
1101
1098
1094
1087
1081
1073
1068
1066
1060
1058
1054
1050
1044
1043
1045
1043
1041
1037
1034
1035
1036
1037
1032
1028
1028
1030
1034
1031
1029
1027
1025
1024
1026
1028
1026
1025
1021
1024
1024
1027
1024
1021
1020
1020
1024
1024
1021
1018
1017
1020
1019
1022
1019
1014
1015
1015
1017
1018
1016
1011
1011
1014
1013
1016
1012
1010
1009
1011
1014
1013
1012
1007
1007
1008
1011
1012
1010
1007
1006
1004
1010
1009
1008
1003
1004
1007
1008
1008
1006
1002
1004
1006
1010
1010
1007
1005
1007
1006
1008
1008
1010
1005
1005
1007
1009
1007
1010
1006
1005
1007
1011
1011
1010
1008
1006
1009
1011
1013
1008
1007
1005
1008
1011
1012
1010
1006
1004
1008
1011
1011
1011
1006
1006
1008
1011
1012
1009
1006
1008
1008
1012
1013
1011
1007
1007
1007
1012
1012
1011
1009
1008
1010
1015
1014
1010
1007
1005
1008
1012
1013
1010
1008
1012
1010
1014
1014
1011
1009
1009
1012
1012
1013
1013
1011
1010
1013
1016
1014
1013
1011
1010
1010
1014
1016
1012
1008
1008
1012
1013
1013
1011
1010
1010
1011
1011
1012
1013
1012
1010
1012
1014
1015
1013
1012
1011
1013
1017
1017
1014
1013
1011
1015
1019
1019
1017
1013
1012
1016
1019
1019
1018
1016
1012
1016
1017
1018
1015
1014
1014
1015
1018
1018
1017
1013
1015
1015
1017
1018
1016
1015
1014
1016
1017
1017
1018
1012
1014
1015
1019
1018
1016
1014
1013
1016
1020
1021
1018
1014
1015
1016
1017
1019
1017
1016
1015
1017
1020
1020
1018
1014
1012
1017
1018
1019
1019
1017
1014
1017
1020
1021
1018
1015
1016
1019
1020
1018
1020
1016
1016
1016
1021
1019
1019
1017
1015
1021
1018
1018
1018
1015
1015
1020
1024
1022
1019
1014
1015
1020
1022
1023
1022
1018
1017
1018
1019
1023
1021
1019
1018
1020
1020
1021
1018
1018
1018
1021
1022
1021
1020
1020
1018
1021
1022
1022
1024
1018
1019
1018
1020
1024
1018
1020
1019
1023
1026
1027
1020
1020
1022
1026
1029
1028
1029
1027
1027
1027
1033
1034
1036
1032
1032
1035
1037
1035
1032
1026
1025
1029
1033
1031
1028
1026
1026
1029
1030
1031
1029
1028
1024
1030
1031
1027
1026
1022
1021
1024
1024
1020
1020
1018
1016
1019
1022
1022
1019
1018
1018
1020
1020
1022
1019
1016
1017
1019
1019
1021
1018
1015
1016
1017
1020
1022
1020
1016
1016
1021
1022
1026
1025
1027
1033
1042
1051
1059
1064
1069
1079
1098
1120
1145
1171
1201
1231
1264
1301
1337
1375
1413
1439
1443
1417
1351
1255
1162
1090
1044
1025
1026
1028
1026
1024
1021
1021
1019
1016
1008
1005
1002
1004
1003
998
996
996
997
1000
997
995
992
989
992
994
995
994
991
989
990
990
989
987
987
986
986
989
989
988
984
985
987
988
991
988
986
988
989
989
988
987
983
985
988
988
989
989
984
985
988
989
991
990
988
988
990
991
994
992
990
991
994
997
999
995
994
993
998
1001
1001
1000
998
999
1002
1003
1003
1007
1003
1004
1008
1012
1015
1011
1012
1012
1014
1019
1021
1020
1021
1023
1029
1033
1032
1032
1033
1037
1042
1048
1050
1050
1049
1051
1057
1062
1065
1064
1064
1063
1066
1068
1070
1066
1065
1065
1064
1068
1064
1061
1056
1053
1056
1056
1054
1052
1048
1046
1045
1045
1045
1042
1040
1037
1040
1042
1042
1038
1033
1035
1038
1039
1037
1037
1032
1032
1036
1040
1039
1039
1032
1033
1037
1037
1035
1034
1033
1035
1038
1041
1038
1037
1033
1036
1039
1043
1040
1039
1038
1038
1038
1042
1043
1040
1038
1041
1040
1045
1046
1044
1043
1042
1044
1044
1046
1045
1042
1038
1042
1046
1044
1043
1040
1040
1040
1043
1041
1039
1039
1035
1040
1042
1041
1037
1035
1035
1035
1040
1040
1038
1033
1032
1035
1035
1035
1032
1030
1030
1032
1034
1034
1031
1028
1026
1031
1033
1034
1030
1026
1026
1026
1030
1031
1027
1028
1026
1029
1030
1029
1028
1024
1026
1026
1030
1028
1027
1025
1026
1028
1031
1032
1028
1028
1025
1028
1029
1027
1026
1027
1026
1027
1031
1028
1026
1025
1025
1028
1031
1031
1030
1029
1025
1029
1029
1031
1032
1026
1027
1029
1032
1033
1028
1028
1028
1030
1032
1031
1031
1030
1028
1033
1032
1037
1032
1028
1030
1032
1035
1032
1030
1028
1028
1032
1035
1034
1033
1027
1030
1032
1032
1036
1033
1031
1031
1033
1035
1036
1037
1036
1038
1040
1043
1041
1040
1039
1041
1043
1046
1047
1043
1042
1043
1043
1044
1042
1039
1034
1038
1039
1041
1040
1041
1037
1038
1043
1046
1046
1042
1039
1040
1038
1042
1038
1035
1033
1031
1032
1035
1035
1036
1031
1031
1034
1035
1034
1033
1028
1030
1031
1033
1034
1032
1031
1028
1031
1034
1033
1031
1030
1031
1034
1035
1034
1034
1033
1033
1035
1039
1040
1041
1041
1043
1052
1059
1068
1076
1082
1090
1103
1123
1145
1171
1198
1231
1263
1295
1324
1354
1390
1424
1448
1448
1420
1358
1279
1195
1129
1079
1048
1031
1027
1028
1033
1036
1034
1032
1028
1023
1023
1020
1016
1015
1012
1013
1013
1012
1013
1009
1008
1009
1011
1012
1010
1008
1006
1005
1004
1011
1008
1007
1002
1002
1006
1008
1007
1003
1000
1002
1002
1005
1005
1002
1000
1001
1002
1006
1004
1005
1001
1004
1004
1007
1005
1002
1002
1003
1005
1007
1006
1005
1002
1005
1004
1007
1007
1007
1004
1004
1007
1009
1008
1007
1002
1003
1008
1013
1010
1009
1006
1007
1011
1017
1013
1017
1014
1015
1018
1021
1023
1022
1022
1024
1029
1031
1033
1034
1033
1036
1039
1045
1050
1050
1053
1053
1059
1062
1064
1066
1064
1067
1071
1074
1074
1072
1067
1069
1070
1072
1068
1064
1062
1059
1059
1059
1058
1054
1049
1049
1049
1049
1052
1046
1043
1042
1046
1048
1046
1045
1042
1040
1044
1045
1045
1042
1038
1039
1044
1045
1044
1042
1039
1038
1040
1044
1042
1041
1036
1037
1038
1039
1040
1037
1036
1035
1039
1037
1041
1036
1034
1033
1036
1038
1041
1036
1036
1036
1038
1038
1039
1039
1037
1038
1041
1044
1041
1041
1039
1038
1041
1046
1046
1043
1041
1041
1043
1046
1042
1041
1038
1040
1044
1046
1046
1043
1037
1040
1041
1042
1043
1041
1037
1039
1040
1042
1041
1039
1036
1038
1039
1042
1039
1038
1035
1038
1036
1042
1039
1036
1035
1033
1036
1039
1038
1035
1033
1035
1036
1039
1038
1038
1034
1034
1037
1036
1036
1036
1034
1033
1034
1038
1037
1035
1033
1033
1036
1040
1038
1037
1032
1032
1035
1038
1038
1038
1033
1037
1039
1040
1037
1036
1034
1034
1036
1038
1038
1035
1033
1032
1034
1038
1038
1036
1033
1034
1035
1035
1039
1033
1034
1031
1035
1035
1035
1035
1030
1031
1034
1037
1036
1038
1031
1032
1036
1037
1039
1035
1034
1036
1038
1041
1039
1034
1035
1037
1037
1040
1039
1038
1036
1035
1035
1036
1040
1041
1040
1039
1045
1048
1048
1043
1043
1046
1048
1052
1050
1047
1047
1048
1049
1050
1048
1044
1043
1043
1044
1049
1047
1044
1044
1043
1047
1050
1051
1046
1046
1043
1047
1047
1045
1039
1037
1036
1038
1041
1039
1039
1035
1035
1037
1041
1039
1036
1035
1033
1038
1041
1039
1035
1035
1033
1035
1040
1040
1036
1036
1035
1038
1040
1039
1034
1035
1036
1043
1047
1048
1050
1051
1060
1071
1086
1092
1102
1112
1136
1166
1196
1222
1250
1273
1304
1341
1387
1420
1433
1416
1362
1275
1183
1105
1058
1033
1029
1034
1040
1041
1038
1034
1033
1032
1029
1027
1021
1019
1020
1021
1025
1022
1019
1018
1020
1020
1021
1021
1021
1017
1016
1019
1021
1020
1019
1015
1017
1018
1021
1019
1015
1013
1013
1015
1014
1013
1010
1007
1007
1011
1012
1010
1009
1007
1007
1009
1012
1011
1008
1008
1007
1010
1012
1011
1009
1009
1011
1014
1014
1014
1009
1007
1008
1014
1018
1021
1021
1019
1019
1024
1030
1027
1027
1027
1032
1033
1038
1040
1038
1040
1042
1049
1051
1053
1054
1055
1059
1065
1069
1072
1073
1074
1077
1080
1087
1086
1084
1082
1078
1080
1080
1080
1074
1072
1070
1072
1071
1067
1064
1058
1056
1058
1059
1058
1057
1052
1051
1048
1051
1050
1049
1044
1046
1045
1045
1047
1043
1042
1041
1044
1048
1046
1042
1040
1040
1041
1045
1042
1039
1039
1036
1038
1039
1036
1035
1034
1031
1033
1032
1030
1027
1026
1029
1030
1035
1034
1034
1033
1030
1033
1037
1035
1036
1032
1033
1036
1038
1040
1041
1040
1039
1043
1045
1045
1043
1041
1045
1046
1044
1043
1044
1039
1039
1039
1041
1037
1035
1032
1035
1036
1038
1038
1035
1034
1032
1035
1039
1036
1033
1031
1029
1029
1034
1031
1028
1027
1028
1031
1030
1030
1025
1025
1025
1027
1031
1028
1029
1026
1027
1028
1030
1031
1029
1029
1027
1027
1028
1025
1025
1022
1025
1025
1026
1026
1023
1022
1023
1026
1028
1028
1024
1022
1022
1028
1030
1031
1029
1030
1027
1029
1032
1032
1032
1031
1032
1033
1033
1034
1032
1030
1029
1033
1035
1035
1033
1029
1030
1033
1036
1034
1031
1030
1028
1032
1035
1033
1030
1028
1031
1032
1035
1031
1029
1028
1030
1033
1039
1039
1039
1035
1039
1039
1045
1043
1042
1040
1041
1044
1047
1045
1044
1043
1040
1041
1041
1042
1039
1039
1038
1042
1044
1043
1037
1037
1038
1042
1046
1047
1047
1040
1041
1040
1042
1038
1039
1039
1045
1049
1052
1051
1045
1043
1043
1043
1045
1043
1040
1039
1043
1042
1046
1045
1041
1039
1039
1042
1045
1044
1038
1039
1038
1040
1043
1041
1042
1040
1043
1047
1053
1057
1061
1069
1082
1092
1102
1117
1139
1166
1194
1226
1256
1283
1310
1341
1383
1421
1442
1429
1381
1301
1206
1127
1073
1042
1023
1022
1030
1034
1034
1033
1026
1020
1015
1014
1016
1013
1010
1007
1006
1007
1011
1008
1004
998
1000
1001
1000
999
1000
995
995
994
994
989
987
988
990
997
1001
1000
998
995
997
1000
1002
1002
1000
998
998
998
999
998
996
995
997
1001
1003
1001
1001
998
999
1004
1005
1005
1003
1001
1002
1003
1008
1007
1008
1005
1006
1007
1010
1010
1011
1007
1011
1017
1019
1019
1020
1021
1023
1026
1032
1033
1036
1032
1035
1042
1046
1048
1049
1049
1053
1059
1063
1063
1066
1067
1069
1070
1071
1071
1067
1067
1065
1065
1068
1065
1059
1055
1052
1053
1053
1051
1048
1045
1041
1041
1045
1043
1039
1037
1039
1040
1043
1040
1036
1033
1035
1037
1040
1039
1036
1034
1035
1039
1042
1038
1037
1036
1037
1036
1039
1039
1037
1035
1035
1037
1039
1037
1035
1031
1033
1034
1038
1037
1038
1031
1032
1033
1037
1036
1036
1033
1032
1036
1039
1036
1034
1033
1033
1038
1040
1039
1035
1033
1034
1037
1038
1038
1035
1035
1036
1035
1039
1037
1035
1032
1035
1039
1045
1047
1054
1062
1077
1101
1130
1150
1166
1167
1157
1142
1110
1056
981
896
808
727
675
659
649
639
639
639
659
679
704
727
757
789
818
842
861
875
889
904
924
934
941
946
954
966
980
988
996
1006
1019
1030
1039
1047
1053
1053
1058
1063
1068
1072
1071
1072
1075
1081
1083
1083
1081
1081
1083
1085
1089
1091
1090
1089
1090
1094
1099
1100
1102
1104
1108
1110
1113
1116
1118
1120
1125
1132
1138
1139
1139
1142
1146
1154
1161
1167
1169
1174
1178
1185
1196
1200
1205
1210
1217
1226
1234
1242
1244
1249
1258
1266
1274
1277
1277
1280
1283
1289
1290
1288
1284
1279
1277
1274
1271
1263
1255
1248
1241
1233
1224
1218
1208
1198
1190
1184
1180
1169
1159
1148
1145
1139
1133
1125
1114
1108
1101
1100
1094
1090
1084
1078
1074
1072
1070
1065
1063
1059
1059
1066
1072
1067
1054
1045
1045
1049
1049
1047
1043
1043
1041
1044
1047
1046
1045
1044
1042
1045
1048
1042
1043
1039
1039
1041
1040
1038
1036
1031
1035
1037
1039
1035
1031
1026
1027
1030
1031
1032
1027
1024
1024
1027
1027
1025
1024
1023
1024
1024
1028
1024
1021
1023
1021
1022
1024
1025
1019
1019
1017
1021
1022
1020
1020
1016
1015
1018
1021
1019
1020
1017
1018
1020
1022
1019
1018
1015
1015
1018
1020
1018
1018
1016
1016
1018
1020
1019
1017
1016
1018
1022
1019
1018
1016
1014
1017
1019
1019
1018
1017
1015
1018
1018
1021
1017
1015
1014
1013
1014
1018
1018
1015
1013
1015
1017
1019
1020
1017
1016
1014
1020
1021
1021
1014
1017
1016
1020
1022
1019
1017
1016
1016
1021
1020
1023
1020
1018
1018
1020
1021
1021
1020
1019
1020
1023
1025
1022
1022
1020
1021
1024
1026
1023
1022
1019
1020
1022
1025
1023
1023
1022
1021
1025
1027
1025
1022
1021
1022
1025
1029
1025
1026
1024
1023
1027
1028
1029
1025
1022
1024
1025
1029
1026
1026
1025
1025
1027
1029
1027
1023
1023
1022
1026
1031
1027
1024
1022
1023
1027
1030
1028
1027
1025
1026
1029
1030
1026
1027
1023
1027
1026
1031
1026
1024
1023
1023
1027
1032
1028
1025
1023
1025
1027
1029
1029
1027
1025
1026
1028
1030
1026
1024
1022
1023
1029
1028
1028
1027
1023
1022
1028
1026
1027
1027
1024
1025
1027
1027
1027
1025
1021
1021
1021
1026
1023
1022
1021
1021
1025
1027
1026
1026
1024
1024
1027
1031
1031
1029
1025
1025
1027
1030
1028
1026
1025
1026
1027
1030
1031
1027
1025
1029
1030
1033
1032
1032
1030
1031
1034
1038
1036
1034
1035
1032
1036
1039
1037
1035
1032
1034
1040
1042
1039
1038
1035
1037
1041
1040
1040
1037
1034
1034
1038
1042
1039
1039
1034
1035
1033
1040
1040
1037
1036
1036
1039
1037
1038
1035
1032
1033
1035
1037
1038
1035
1036
1040
1042
1046
1043
1046
1043
1045
1045
1050
1044
1041
1042
1039
1039
1044
1045
1039
1039
1039
1044
1048
1045
1043
1042
1042
1044
1041
1039
1035
1034
1033
1034
1037
1036
1032
1030
1032
1036
1038
1036
1036
1032
1032
1037
1037
1039
1034
1031
1034
1034
1039
1038
1035
1036
1038
1041
1044
1043
1045
1049
1052
1062
1072
1080
1085
1090
1102
1123
1146
1178
1200
1227
1258
1292
1328
1361
1400
1431
1445
1442
1399
1321
1228
1149
1091
1057
1047
1047
1046
1045
1041
1038
1037
1032
1026
1017
1016
1018
1017
1016
1014
1011
1013
1013
1014
1012
1011
1006
1006
1009
1009
1007
1004
1001
1005
1007
1008
1007
1003
1000
1002
1005
1008
1004
1001
999
1001
1003
1003
1001
998
995
999
1002
1004
1002
1000
996
994
998
1001
998
996
996
994
998
999
997
994
995
997
1001
1004
1001
1000
998
998
1002
1004
1002
999
999
999
1003
1005
1007
1002
1000
1004
1006
1010
1007
1008
1005
1008
1011
1018
1016
1015
1013
1017
1019
1024
1026
1025
1027
1029
1033
1040
1040
1042
1043
1047
1052
1057
1062
1058
1059
1064
1067
1072
1072
1068
1067
1068
1069
1072
1070
1067
1063
1065
1066
1063
1060
1057
1051
1054
1056
1054
1053
1049
1045
1047
1046
1050
1049
1045
1044
1042
1043
1044
1043
1039
1038
1038
1042
1045
1041
1037
1038
1037
1041
1040
1041
1036
1035
1036
1039
1040
1038
1039
1036
1036
1040
1043
1039
1038
1036
1039
1038
1042
1042
1040
1035
1039
1042
1040
1041
1038
1038
1038
1041
1042
1038
1035
1033
1035
1037
1041
1036
1033
1034
1030
1036
1038
1033
1032
1026
1029
1031
1031
1030
1028
1026
1027
1031
1032
1028
1026
1023
1023
1028
1031
1027
1025
1023
1023
1024
1027
1025
1023
1021
1023
1024
1025
1024
1020
1018
1021
1022
1023
1024
1022
1019
1020
1021
1024
1023
1022
1020
1021
1023
1023
1025
1019
1016
1019
1023
1023
1023
1020
1017
1018
1022
1023
1023
1020
1017
1020
1023
1025
1022
1021
1018
1017
1020
1025
1023
1020
1020
1019
1022
1023
1021
1020
1018
1019
1021
1021
1022
1020
1018
1019
1024
1024
1023
1020
1018
1018
1022
1024
1020
1020
1016
1020
1021
1023
1023
1020
1017
1018
1019
1023
1022
1020
1019
1021
1023
1025
1023
1022
1020
1021
1026
1028
1028
1027
1026
1030
1031
1033
1033
1031
1029
1031
1036
1034
1034
1034
1030
1031
1031
1031
1032
1028
1027
1029
1031
1034
1034
1029
1030
1032
1034
1034
1033
1031
1031
1031
1027
