1046
1052
1050
1053
1048
1045
1045
1047
1048
1047
1045
1041
1043
1048
1047
1043
1039
1037
1035
1039
1043
1042
1039
1037
1035
1038
1041
1042
1038
1036
1036
1038
1040
1039
1040
1037
1039
1042
1042
1041
1037
1034
1037
1039
1041
1041
1038
1037
1037
1040
1040
1038
1035
1034
1035
1039
1042
1040
1038
1034
1034
1038
1036
1037
1035
1032
1033
1032
1036
1034
1033
1030
1031
1034
1039
1034
1031
1031
1030
1033
1036
1035
1031
1030
1030
1031
1035
1034
1030
1028
1027
1029
1031
1030
1028
1029
1030
1033
1034
1030
1030
1027
1028
1029
1030
1031
1029
1028
1030
1030
1033
1031
1030
1027
1029
1032
1035
1034
1031
1027
1029
1030
1032
1034
1031
1028
1028
1032
1035
1033
1031
1030
1029
1033
1036
1033
1033
1030
1032
1034
1034
1035
1033
1030
1034
1036
1038
1038
1037
1035
1039
1040
1044
1044
1040
1041
1043
1049
1051
1049
1047
1042
1043
1045
1049
1048
1045
1043
1043
1043
1048
1044
1043
1043
1047
1055
1061
1068
1081
1097
1125
1153
1173
1182
1173
1157
1130
1089
1031
958
871
781
705
668
657
639
627
624
635
655
686
718
751
787
817
842
864
877
888
900
914
928
941
949
954
961
974
988
996
1005
1011
1020
1031
1045
1055
1064
1067
1071
1072
1081
1089
1092
1089
1087
1091
1094
1100
1100
1100
1100
1100
1104
1108
1108
1110
1109
1113
1118
1122
1121
1118
1118
1120
1126
1129
1131
1128
1126
1131
1136
1139
1144
1140
1143
1145
1151
1155
1159
1158
1161
1164
1171
1177
1177
1179
1182
1190
1198
1207
1209
1208
1213
1218
1226
1235
1240
1242
1247
1251
1258
1265
1265
1268
1265
1269
1270
1275
1276
1271
1268
1267
1265
1265
1259
1253
1247
1242
1241
1235
1227
1215
1209
1205
1200
1195
1189
1179
1171
1162
1161
1155
1148
1141
1134
1130
1127
1124
1120
1115
1108
1104
1098
1095
1091
1089
1082
1083
1087
1089
1086
1082
1075
1072
1075
1077
1075
1073
1072
1072
1072
1071
1067
1065
1064
1068
1070
1073
1072
1066
1064
1065
1067
1068
1065
1062
1060
1061
1064
1071
1068
1062
1058
1060
1060
1065
1064
1063
1056
1052
1051
1054
1053
1053
1051
1053
1054
1057
1054
1052
1046
1050
1051
1054
1052
1051
1044
1046
1050
1049
1048
1044
1042
1041
1044
1044
1045
1045
1041
1041
1040
1042
1040
1037
1039
1041
1044
1046
1047
1042
1039
1040
1043
1043
1040
1038
1034
1039
1040
1041
1038
1036
1032
1036
1037
1040
1040
1045
1040
1039
1039
1042
1046
1045
1041
1036
1038
1044
1047
1050
1049
1049
1048
1042
1041
1041
1040
1040
1042
1046
1048
1047
1046
1047
1052
1049
1051
1049
1049
1048
1045
1045
1043
1044
1044
1045
1048
1050
1050
1046
1037
1038
1046
1051
1052
1052
1050
1046
1048
1048
1048
1047
1049
1050
1048
1047
1043
1040
1036
1039
1048
1049
1052
1044
1046
1049
1052
1053
1051
1050
1045
1046
1046
1045
1042
1042
1046
1048
1045
1041
1033
1030
1037
1041
1047
1051
1050
1046
1045
1045
1047
1046
1046
1048
1046
1050
1052
1055
1056
1053
1051
1050
1055
1056
1052
1046
1044
1048
1048
1052
1048
1043
1042
1044
1046
1053
1054
1052
1048
1048
1046
1048
1046
1046
1042
1039
1037
1036
1036
1034
1034
1034
1037
1041
1041
1036
1030
1028
1031
1037
1040
1038
1032
1035
1037
1040
1040
1037
1037
1038
1044
1047
1046
1045
1043
1051
1059
1068
1071
1077
1085
1101
1110
1126
1139
1169
1202
1241
1279
1314
1346
1379
1417
1461
1491
1499
1471
1395
1295
1201
1135
1097
1073
1059
1059
1063
1066
1063
1062
1055
1054
1048
1046
1045
1044
1038
1036
1039
1039
1036
1033
1031
1033
1032
1038
1037
1036
1032
1031
1031
1031
1033
1032
1028
1025
1024
1027
1031
1032
1028
1026
1024
1024
1026
1026
1026
1024
1022
1023
1026
1028
1027
1025
1028
1031
1030
1026
1022
1019
1023
1025
1027
1024
1019
1017
1020
1023
1028
1024
1021
1020
1021
1028
1028
1027
1026
1024
1024
1026
1027
1029
1028
1030
1032
1036
1040
1041
1042
1041
1043
1046
1049
1051
1053
1054
1060
1064
1069
1069
1071
1077
1083
1087
1090
1091
1089
1085
1090
1093
1092
1091
1086
1080
1080
1083
1080
1074
1068
1065
1064
1063
1063
1063
1060
1056
1058
1060
1060
1054
1050
1046
1047
1051
1055
1052
1049
1046
1049
1048
1046
1042
1040
1040
1041
1046
1047
1049
1044
1043
1043
1049
1051
1050
1045
1045
1041
1039
1036
1034
1032
1033
1037
1040
1040
1037
1032
1032
1031
1035
1036
1035
1035
1035
1035
1038
1039
1037
1029
1025
1028
1033
1036
1036
1031
1030
1032
1039
1042
1042
1036
1029
1026
1024
1026
1029
1032
1033
1032
1027
1027
1025
1021
1019
1020
1022
1028
1028
1022
1017
1018
1020
1020
1022
1024
1021
1023
1023
1024
1023
1019
1017
1016
1019
1019
1018
1014
1014
1016
1015
1016
1018
1016
1013
1013
1014
1016
1016
1012
1010
1012
1016
1019
1023
1028
1029
1021
1012
1009
1004
999
998
994
995
996
997
995
998
999
998
1003
1004
1002
999
997
994
997
999
1003
1006
1010
1017
1024
1020
1016
1011
1014
1019
1022
1029
1026
1026
1027
1028
1029
1028
1033
1033
1036
1038
1037
1036
1034
1039
1043
1047
1045
1045
1039
1036
1038
1041
1041
1037
1031
1030
1029
1030
1034
1034
1033
1031
1033
1042
1048
1043
1036
1035
1038
1039
1038
1037
1031
1029
1028
1030
1029
1027
1021
1020
1021
1023
1020
1017
1015
1011
1011
1009
1008
1008
1010
1007
1006
1006
1010
1010
1008
1008
1011
1015
1017
1012
1009
1008
1014
1026
1037
1038
1044
1053
1063
1072
1095
1125
1161
1192
1226
1259
1291
1322
1361
1406
1446
1457
1419
1325
1201
1104
1052
1036
1035
1036
1030
1022
1018
1018
1018
1014
1009
1008
1007
1014
1015
1013
1003
999
1002
1007
1008
1005
999
994
993
997
1004
1000
993
986
991
995
999
998
991
986
986
990
997
1000
995
988
988
993
996
996
997
992
999
1002
1007
1003
999
1004
1008
1008
1014
1016
1017
1017
1018
1020
1019
1022
1024
1026
1031
1036
1041
1037
1034
1032
1034
1041
1047
1055
1054
1055
1053
1054
1058
1064
1066
1073
1078
1083
1085
1081
1078
1082
1084
1084
1085
1087
1086
1081
1084
1078
1072
1068
1065
1068
1067
1064
1062
1059
1057
1056
1057
1059
1060
1062
1060
1055
1051
1050
1056
1057
1055
1056
1060
1063
1062
1056
1050
1049
1050
1052
1051
1049
1045
1046
1049
1050
1050
1046
1043
1043
1048
1045
1046
1044
1038
1037
1041
1047
1050
1047
1044
1042
1043
1047
1046
1047
1043
1044
1044
1042
1045
1045
1043
1044
1045
1047
1045
1043
1039
1037
1037
1038
1038
1036
1038
1043
1045
1045
1040
1039
1036
1040
1043
1044
1046
1044
1042
1042
1044
1045
1046
1038
1039
1037
1037
1041
1042
1038
1037
1033
1037
1041
1043
1044
1042
1036
1036
1037
1040
1042
1039
1040
1042
1044
1042
1039
1033
1031
1034
1040
1041
1037
1029
1027
1031
1036
1038
1035
1031
1031
1032
1034
1037
1036
1032
1036
1035
1036
1041
1039
1035
1032
1033
1035
1037
1036
1032
1029
1034
1036
1039
1037
1032
1033
1035
1038
1043
1042
1041
1037
1033
1034
1039
1041
1041
1039
1041
1043
1044
1042
1039
1039
1040
1044
1040
1039
1035
1037
1038
1045
1047
1045
1044
1042
1045
1049
1047
1042
1041
1041
1046
1049
1052
1051
1047
1048
1048
1049
1047
1042
1038
1039
1040
1037
1036
1035
1037
1041
1046
1047
1046
1044
1041
1040
1040
1044
1041
1033
1028
1028
1032
1036
1039
1035
1032
1030
1031
1034
1032
1031
1027
1029
1028
1033
1033
1030
1025
1025
1027
1031
1031
1031
1030
1030
1030
1032
1036
1038
1038
1043
1046
1051
1061
1070
1081
1092
1110
1134
1167
1200
1234
1265
1298
1331
1360
1399
1437
1467
1481
1465
1414
1329
1234
1149
1093
1061
1041
1030
1030
1031
1035
1036
1035
1029
1024
1018
1015
1013
1011
1011
1011
1008
1009
1010
1009
1008
1006
1007
1009
1009
1010
1007
1006
1004
1006
1008
1007
1002
999
999
1001
1003
1004
1003
1003
1001
1001
1005
1007
1006
1002
1004
1006
1008
1009
1007
1004
1002
1002
1004
1007
1002
1001
1004
1004
1008
1009
1008
1002
1003
1006
1010
1014
1011
1009
1006
1008
1009
1010
1009
1011
1009
1011
1015
1014
1015
1013
1014
1017
1021
1027
1025
1022
1023
1028
1035
1038
1038
1037
1040
1043
1050
1053
1054
1056
1059
1066
1072
1074
1074
1075
1076
1077
1080
1083
1082
1079
1075
1077
1078
1080
1078
1073
1069
1067
1067
1066
1061
1055
1052
1053
1051
1051
1049
1047
1048
1047
1048
1044
1045
1043
1041
1044
1044
1043
1043
1037
1038
1040
1044
1043
1039
1033
1031
1034
1037
1039
1036
1037
1033
1038
1039
1041
1037
1032
1031
1031
1036
1037
1034
1032
1028
1029
1032
1033
1032
1032
1030
1032
1034
1032
1028
1029
1028
1029
1032
1032
1028
1029
1030
1034
1032
1033
1029
1027
1029
1031
1032
1033
1030
1027
1030
1030
1036
1034
1029
1029
1027
1027
1030
1031
1026
1028
1026
1028
1030
1028
1026
1025
1026
1027
1027
1028
1028
1027
1024
1024
1027
1029
1026
1022
1022
1026
1030
1030
1027
1025
1026
1027
1031
1029
1028
1026
1028
1030
1031
1030
1024
1022
1022
1025
1027
1031
1030
1028
1026
1025
1027
1027
1024
1023
1022
1023
1026
1029
1027
1026
1021
1025
1027
1027
1029
1027
1026
1027
1026
1024
1023
1021
1021
1021
1024
1024
1023
1021
1023
1025
1027
1030
1028
1021
1021
1022
1028
1028
1029
1027
1027
1028
1031
1027
1023
1021
1021
1024
1031
1033
1032
1029
1030
1034
1037
1038
1036
1035
1035
1036
1037
1040
1036
1030
1034
1032
1039
1038
1034
1034
1034
1039
1039
1038
1035
1033
1034
1038
1044
1045
1039
1034
1029
1029
1030
1031
1027
1029
1025
1027
1030
1031
1030
1028
1026
1031
1031
1029
1025
1023
1024
1026
1029
1028
1028
1028
1025
1027
1031
1029
1030
1027
1026
1027
1031
1033
1029
1031
1034
1038
1044
1048
1047
1053
1065
1080
1094
1108
1124
1150
1180
1217
1253
1282
1311
1342
1378
1421
1456
1463
1439
1381
1292
1200
1134
1089
1055
1033
1025
1026
1029
1027
1022
1022
1020
1019
1019
1017
1010
1005
1004
1008
1011
1009
1007
1002
1001
1001
1002
1001
1004
1003
1003
1007
1007
1005
1001
998
1001
1003
1006
1004
1001
1000
998
1000
1004
1002
1002
999
1000
1000
1000
998
999
997
997
1000
1003
999
998
994
996
1000
1000
1001
996
995
995
1000
1005
1005
1001
999
1000
1000
1004
1007
1004
1001
1005
1007
1012
1012
1010
1008
1008
1014
1017
1020
1020
1017
1021
1024
1032
1030
1031
1033
1040
1044
1049
1053
1054
1057
1060
1064
1067
1069
1069
1070
1072
1073
1074
1073
1072
1070
1066
1064
1068
1064
1060
1053
1055
1056
1056
1052
1051
1049
1046
1045
1049
1047
1046
1041
1040
1043
1044
1045
1046
1044
1041
1043
1043
1046
1043
1042
1039
1042
1040
1039
1035
1032
1034
1035
1040
1040
1041
1035
1033
1033
1033
1033
1034
1033
1034
1038
1037
1039
1035
1034
1031
1033
1035
1035
1034
1032
1031
1034
1035
1034
1034
1033
1032
1035
1036
1036
1034
1032
1033
1036
1036
1035
1033
1033
1030
1034
1036
1036
1034
1033
1032
1033
1038
1037
1034
1033
1030
1034
1035
1035
1035
1031
1035
1034
1032
1029
1029
1028
1029
1031
1034
1034
1031
1028
1025
1029
1034
1035
1032
1026
1026
1026
1030
1031
1030
1029
1029
1030
1034
1031
1029
1027
1027
1027
1032
1028
1025
1024
1025
1028
1030
1031
1031
1032
1029
1026
1026
1024
1027
1025
1025
1029
1033
1033
1030
1024
1024
1029
1029
1030
1029
1025
1027
1030
1031
1030
1027
1024
1024
1027
1032
1032
1029
1024
1024
1028
1031
1030
1030
1028
1028
1029
1031
1027
1028
1024
1024
1024
1030
1032
1030
1026
1026
1030
1036
1039
1035
1035
1039
1041
1044
1042
1040
1038
1039
1042
1045
1044
1041
1038
1038
1039
1037
1036
1034
1034
1035
1037
1040
1040
1039
1038
1037
1038
1040
1039
1036
1032
1029
1031
1032
1030
1030
1029
1030
1031
1033
1033
1029
1028
1028
1034
1035
1035
1033
1030
1028
1032
1033
1035
1033
1031
1031
1032
1035
1036
1037
1037
1042
1053
1063
1072
1081
1091
1101
1118
1140
1172
1209
1244
1280
1317
1352
1394
1436
1468
1481
1459
1396
1297
1198
1116
1067
1043
1033
1036
1037
1032
1031
1033
1029
1024
1017
1009
1008
1016
1017
1017
1013
1008
1007
1004
1008
1009
1011
1006
1005
1009
1010
1007
1008
1004
1008
1009
1015
1012
1009
1006
1007
1010
1013
1012
1011
1007
1008
1010
1013
1015
1012
1010
1011
1014
1016
1016
1016
1013
1014
1016
1018
1016
1016
1015
1015
1020
1024
1024
1019
1018
1020
1023
1027
1025
1024
1023
1024
1029
1033
1032
1031
1029
1028
1032
1035
1036
1037
1038
1038
1044
1045
1049
1050
1051
1054
1061
1068
1071
1073
1074
1076
1081
1086
1090
1091
1091
1096
1101
1102
1100
1101
1095
1094
1096
1098
1095
1090
1084
1080
1081
1079
1078
1075
1072
1066
1067
1067
1065
1062
1058
1058
1062
1062
1060
1058
1051
1052
1052
1055
1054
1053
1050
1051
1052
1055
1053
1050
1048
1047
1049
1052
1052
1047
1047
1046
1047
1052
1050
1049
1046
1044
1047
1046
1045
1043
1041
1042
1043
1045
1045
1043
1040
1041
1040
1042
1042
1043
1042
1041
1038
1038
1037
1037
1039
1039
1039
1042
1037
1037
1032
1031
1036
1036
1036
1037
1036
1034
1037
1041
1041
1037
1035
1034
1035
1037
1037
1034
1033
1033
1036
1040
1039
1036
1035
1034
1038
1039
1037
1037
1034
1033
1033
1036
1036
1035
1032
1032
1033
1036
1035
1034
1030
1030
1032
1035
1036
1037
1034
1033
1032
1034
1035
1032
1031
1034
1033
1036
1035
1037
1036
1041
1041
1044
1042
1039
1036
1037
1041
1046
1046
1042
1041
1043
1047
1049
1045
1041
1041
1043
1050
1053
1051
1051
1046
1046
1046
1047
1048
1045
1043
1042
1045
1048
1046
1046
1045
1044
1050
1053
1054
1051
1047
1045
1049
1051
1055
1052
1048
1043
1039
1039
1040
1041
1040
1044
1048
1054
1056
1058
1057
1057
1059
1063
1062
1062
1061
1066
1066
1069
1068
1066
1063
1066
1068
1067
1061
1054
1051
1048
1051
1051
1054
1051
1052
1057
1056
1059
1056
1051
1047
1047
1045
1046
1045
1051
1046
1044
1046
1048
1051
1047
1048
1047
1051
1054
1054
1053
1048
1054
1056
1063
1062
1065
1068
1075
1089
1105
1115
1126
1136
1158
1187
1221
1251
1282
1305
1332
1368
1406
1439
1454
1447
1411
1341
1259
1177
1113
1077
1057
1055
1057
1054
1049
1050
1048
1048
1048
1043
1039
1034
1034
1037
1036
1036
1031
1027
1027
1030
1033
1033
1031
1029
1029
1031
1030
1027
1025
1023
1022
1026
1029
1027
1027
1025
1027
1030
1031
1033
1030
1024
1024
1027
1030
1030
1028
1024
1022
1022
1021
1020
1019
1020
1019
1022
1024
1023
1019
1019
1018
1019
1020
1020
1018
1017
1020
1023
1022
1021
1019
1014
1014
1021
1023
1024
1021
1020
1024
1031
1034
1034
1034
1035
1039
1043
1048
1050
1051
1053
1058
1063
1070
1068
1068
1067
1077
1081
1083
1080
1078
1081
1083
1086
1089
1085
1085
1079
1079
1078
1079
1075
1070
1066
1064
1066
1068
1064
1061
1055
1049
1050
1053
1052
1045
1044
1044
1048
1050
1047
1044
1044
1043
1049
1047
1050
1049
1044
1044
1046
1046
1046
1043
1040
1041
1039
1045
1043
1040
1037
1041
1044
1045
1045
1041
1039
1040
1043
1046
1045
1040
1042
1042
1044
1051
1047
1045
1043
1043
1046
1048
1047
1044
1042
1044
1048
1051
1050
1046
1045
1044
1048
1051
1050
1050
1046
1043
1044
1045
1045
1043
1044
1042
1046
1047
1047
1043
1041
1041
1045
1048
1046
1043
1040
1040
1043
1047
1045
1040
1040
1041
1043
1047
1045
1042
1039
1041
1044
1046
1045
1041
1038
1041
1044
1046
1044
1042
1040
1041
1044
1048
1047
1043
1040
1040
1044
1046
1044
1043
1040
1043
1045
1048
1045
1044
1041
1042
1047
1049
1047
1044
1042
1042
1047
1048
1049
1044
1040
1041
1046
1050
1045
1045
1042
1042
1045
1046
1044
1045
1040
1043
1045
1046
1046
1044
1040
1042
1042
1047
1046
1046
1044
1044
1050
1052
1054
1049
1050
1051
1057
1057
1056
1054
1052
1055
1054
1054
1053
1049
1047
1048
1051
1054
1053
1050
1049
1050
1055
1058
1060
1054
1050
1052
1048
1048
1046
1043
1043
1045
1046
1047
1047
1043
1041
1042
1045
1049
1046
1046
1041
1044
1046
1046
1045
1044
1041
1044
1044
1047
1045
1042
1044
1042
1047
1050
1047
1047
1054
1059
1068
1079
1089
1098
1108
1119
1143
1174
1204
1236
1263
1294
1327
1362
1406
1444
1470
1475
1451
1386
1295
1206
1139
1092
1062
1045
1037
1038
1038
1038
1040
1040
1036
1034
1025
1024
1028
1027
1026
1022
1020
1021
1023
1023
1020
1018
1017
1015
1019
1019
1019
1017
1016
1019
1021
1020
1019
1014
1015
1016
1020
1021
1020
1017
1012
1017
1021
1022
1021
1017
1014
1014
1015
1017
1015
1015
1010
1014
1015
1016
1016
1014
1013
1016
1019
1021
1019
1017
1016
1014
1018
1022
1022
1018
1015
1016
1019
1022
1020
1018
1016
1020
1025
1032
1031
1030
1027
1030
1035
1041
1043
1044
1042
1048
1051
1056
1059
1059
1061
1068
1074
1081
1083
1083
1082
1084
1088
1092
1090
1088
1086
1086
1089
1088
1082
1078
1077
1078
1076
1078
1074
1067
1059
1057
1061
1059
1054
1050
1046
1047
1048
1049
1049
1047
1044
1045
1045
1049
1046
1046
1045
1047
1049
1049
1049
1043
1042
1042
1045
1047
1046
1043
1042
1038
1039
1041
1042
1039
1036
1039
1042
1042
1038
1036
1034
1035
1039
1041
1041
1035
1034
1038
1040
1041
1041
1038
1035
1037
1041
1043
1039
1036
1036
1039
1041
1043
1040
1039
1036
1039
1041
1043
1043
1042
1039
1040
1040
1042
1041
1040
1039
1040
1040
1043
1041
1038
1035
1036
1040
1040
1041
1036
1035
1035
1037
1036
1037
1035
1033
1032
1035
1039
1037
1033
1032
1033
1036
1039
1038
1035
1033
1033
1034
1038
1037
1033
1031
1034
1035
1037
1035
1031
1031
1034
1036
1037
1032
1029
1026
1031
1039
1039
1035
1030
1033
1033
1034
1037
1036
1034
1033
1032
1032
1036
1037
1035
1031
1032
1035
1036
1036
1035
1032
1034
1036
1039
1038
1036
1034
1035
1036
1038
1035
1031
1033
1034
1037
1040
1039
1037
1036
1038
1042
1044
1041
1039
1039
1041
1043
1045
1051
1046
1042
1041
1043
1043
1040
1038
1036
1039
1040
1043
1045
1044
1043
1044
1047
1047
1043
1041
1037
1039
1037
1038
1035
1032
1031
1032
1039
1040
1037
1034
1030
1033
1036
1037
1036
1029
1029
1032
1034
1038
1036
1033
1028
1030
1031
1036
1034
1033
1031
1034
1036
1039
1043
1042
1043
1048
1057
1065
1077
1084
1091
1105
1128
1161
1188
1214
1239
1264
1292
1327
1362
1395
1418
1423
1395
1337
1244
1157
1095
1058
1038
1032
1029
1029
1028
1028
1031
1033
1031
1025
1019
1018
1019
1018
1015
1012
1010
1013
1016
1018
1017
1012
1013
1011
1015
1015
1013
1009
1012
1012
1014
1014
1009
1008
1007
1007
1009
1011
1008
1010
1007
1005
1007
1011
1007
1004
1003
1005
1005
1008
1005
1001
1003
1005
1004
1005
1005
1004
1003
1004
1006
1009
1008
1006
1005
1006
1009
1009
1007
1005
1003
1008
1013
1012
1009
1009
1008
1011
1011
1017
1017
1016
1014
1017
1018
1022
1023
1022
1022
1026
1033
1035
1034
1035
1034
1038
1049
1051
1053
1054
1056
1060
1065
1069
1070
1069
1069
1073
1076
1076
1072
1069
1067
1068
1069
1071
1066
1064
1058
1056
1058
1058
1053
1050
1047
1046
1048
1047
1045
1042
1036
1034
1037
1039
1038
1034
1031
1035
1035
1037
1035
1032
1032
1033
1036
1035
1037
1034
1033
1031
1036
1035
1035
1031
1028
1029
1030
1032
1029
1029
1028
1029
1031
1030
1028
1025
1023
1023
1029
1029
1028
1026
1022
1024
1027
1027
1027
1024
1022
1024
1025
1029
1025
1025
1022
1023
1026
1029
1027
1025
1023
1024
1026
1028
1028
1025
1022
1023
1024
1027
1024
1021
1023
1023
1026
1027
1027
1023
1020
1022
1025
1028
1025
1022
1021
1021
1026
1026
1023
1019
1019
1019
1022
1024
1021
1018
1019
1019
1022
1026
1022
1021
1019
1019
1023
1024
1024
1018
1017
1019
1022
1023
1020
1016
1015
1016
1018
1022
1022
1015
1018
1019
1020
1024
1022
1019
1018
1019
1023
1023
1022
1020
1016
1021
1022
1024
1020
1018
1018
1018
1020
1022
1020
1018
1018
1018
1020
1022
1020
1018
1018
1019
1022
1024
1022
1018
1016
1021
1020
1023
1022
1020
1019
1018
1022
1023
1022
1020
1020
1019
1026
1024
1025
1022
1024
1025
1029
1031
1031
1029
1026
1028
