1029
1029
1030
1029
1027
1026
1026
1028
1030
1027
1020
1020
1023
1025
1026
1025
1021
1019
1022
1024
1026
1023
1023
1022
1025
1029
1033
1029
1026
1022
1020
1023
1028
1030
1028
1028
1033
1032
1036
1031
1027
1025
1027
1031
1033
1032
1031
1030
1034
1032
1035
1034
1030
1031
1029
1031
1033
1032
1032
1031
1030
1031
1032
1031
1032
1027
1029
1033
1033
1032
1032
1030
1032
1036
1037
1037
1031
1029
1030
1032
1036
1035
1030
1027
1030
1035
1036
1037
1034
1032
1031
1034
1039
1038
1035
1035
1034
1035
1035
1033
1032
1029
1034
1037
1038
1035
1034
1032
1033
1037
1041
1040
1035
1034
1035
1036
1037
1035
1034
1036
1042
1044
1047
1047
1045
1045
1048
1050
1052
1053
1048
1048
1048
1048
1048
1046
1043
1043
1043
1047
1051
1048
1046
1044
1047
1052
1056
1054
1053
1048
1044
1045
1041
1043
1037
1037
1038
1040
1041
1043
1039
1038
1038
1043
1041
1042
1040
1039
1037
1037
1041
1040
1037
1038
1039
1044
1043
1040
1039
1038
1042
1048
1046
1048
1046
1048
1053
1062
1070
1080
1094
1110
1129
1151
1181
1216
1253
1290
1329
1368
1398
1428
1458
1492
1524
1535
1521
1470
1384
1279
1197
1144
1113
1091
1074
1064
1059
1058
1055
1048
1041
1036
1034
1030
1030
1025
1016
1012
1015
1017
1018
1017
1015
1014
1015
1018
1015
1008
1008
1008
1013
1017
1016
1010
1006
1003
1002
1005
1005
1002
1001
1002
1006
1006
1007
1005
1003
1004
1006
1006
1002
997
994
998
1000
1002
1001
995
996
999
1002
1001
998
992
992
993
995
996
997
998
997
996
994
995
998
998
997
997
999
998
1001
1003
997
996
998
1003
1006
1007
1009
1015
1015
1018
1018
1019
1023
1029
1037
1043
1050
1055
1057
1059
1068
1073
1075
1075
1075
1072
1074
1075
1074
1076
1076
1073
1074
1067
1065
1059
1058
1060
1062
1065
1060
1053
1048
1049
1049
1056
1057
1056
1055
1055
1055
1058
1053
1043
1042
1043
1052
1055
1053
1053
1050
1042
1047
1049
1052
1046
1038
1028
1033
1041
1046
1045
1041
1040
1036
1040
1045
1041
1037
1031
1031
1033
1036
1037
1034
1033
1037
1038
1046
1045
1041
1037
1039
1038
1036
1034
1034
1036
1035
1033
1034
1040
1041
1039
1038
1037
1037
1038
1032
1031
1034
1040
1039
1036
1031
1035
1039
1041
1042
1036
1031
1030
1033
1036
1041
1039
1033
1029
1028
1032
1030
1032
1032
1032
1033
1036
1035
1035
1030
1028
1033
1034
1037
1033
1031
1026
1028
1029
1033
1036
1030
1029
1027
1027
1031
1034
1034
1032
1033
1031
1030
1028
1027
1024
1025
1030
1034
1032
1027
1029
1029
1033
1034
1035
1031
1028
1026
1028
1033
1035
1036
1037
1040
1039
1043
1039
1036
1036
1036
1036
1036
1035
1033
1032
1033
1033
1035
1037
1036
1038
1042
1047
1049
1043
1032
1025
1025
1028
1028
1028
1025
1026
1026
1028
1031
1029
1027
1027
1030
1028
1031
1029
1025
1027
1026
1030
1028
1028
1026
1024
1028
1030
1031
1032
1030
1029
1032
1038
1041
1043
1043
1044
1053
1063
1073
1084
1097
1124
1159
1199
1240
1285
1324
1362
1398
1439
1481
1515
1528
1521
1484
1407
1307
1214
1145
1101
1074
1056
1047
1038
1034
1032
1032
1028
1021
1017
1009
1004
1002
1005
1002
1000
998
995
999
997
1000
999
994
993
988
987
988
987
986
985
988
990
989
986
983
981
982
983
983
978
980
978
979
984
987
986
982
974
972
970
971
970
969
968
971
976
978
978
974
970
973
978
978
976
974
975
976
981
981
977
974
975
976
983
985
985
985
980
981
988
995
1001
1001
1004
1010
1021
1026
1027
1031
1036
1044
1048
1050
1051
1050
1056
1058
1064
1067
1061
1056
1055
1054
1055
1053
1051
1047
1046
1049
1048
1045
1039
1037
1039
1041
1045
1042
1041
1035
1032
1034
1037
1039
1035
1035
1034
1035
1037
1036
1035
1034
1036
1038
1039
1037
1033
1026
1023
1024
1028
1034
1035
1029
1028
1028
1029
1029
1030
1030
1031
1031
1029
1030
1025
1024
1023
1027
1034
1035
1032
1026
1026
1029
1029
1030
1029
1029
1031
1032
1032
1032
1034
1029
1032
1033
1036
1038
1040
1033
1030
1030
1034
1036
1036
1035
1034
1032
1036
1038
1034
1033
1033
1037
1040
1042
1040
1034
1029
1027
1031
1035
1036
1038
1039
1038
1039
1042
1040
1041
1039
1034
1033
1035
1036
1032
1030
1026
1030
1033
1034
1032
1033
1032
1038
1038
1037
1036
1036
1040
1042
1038
1031
1024
1024
1030
1036
1039
1038
1036
1036
1039
1042
1044
1042
1039
1039
1042
1046
1044
1038
1031
1033
1036
1038
1038
1037
1037
1042
1048
1054
1057
1055
1052
1048
1048
1050
1053
1058
1050
1050
1043
1047
1051
1055
1054
1047
1041
1045
1048
1047
1049
1049
1050
1053
1055
1054
1047
1039
1041
1044
1043
1042
1041
1041
1040
1039
1042
1040
1038
1034
1034
1035
1037
1042
1042
1043
1043
1045
1044
1045
1044
1041
1040
1044
1040
1039
1039
1040
1044
1055
1059
1070
1077
1094
1116
1140
1163
1191
1228
1273
1318
1357
1387
1417
1453
1491
1516
1515
1481
1410
1310
1219
1156
1112
1081
1069
1059
1052
1050
1046
1041
1038
1030
1023
1018
1020
1019
1015
1009
1005
1006
1008
1008
1005
1001
1002
1005
1010
1011
1006
1003
1003
1005
1005
1005
1003
997
998
1002
1005
1004
998
994
993
995
999
995
990
987
987
991
993
993
992
984
985
993
993
988
986
984
984
986
987
987
989
989
987
987
988
989
987
988
989
988
990
995
996
999
997
1002
1007
1016
1021
1027
1033
1041
1048
1055
1055
1049
1050
1054
1059
1064
1063
1060
1056
1057
1057
1057
1053
1048
1049
1047
1048
1047
1046
1041
1039
1042
1046
1045
1041
1038
1037
1041
1043
1040
1038
1037
1034
1036
1036
1035
1033
1028
1027
1026
1034
1034
1033
1030
1028
1031
1032
1032
1027
1026
1029
1031
1031
1031
1028
1025
1027
1032
1035
1030
1029
1026
1026
1030
1028
1028
1026
1028
1027
1027
1028
1029
1031
1028
1027
1030
1028
1028
1024
1022
1024
1027
1032
1035
1030
1026
1024
1026
1029
1030
1027
1025
1025
1026
1030
1027
1025
1021
1021
1024
1027
1028
1027
1025
1026
1028
1028
1028
1027
1025
1023
1027
1030
1028
1025
1021
1023
1026
1031
1029
1027
1025
1027
1028
1028
1026
1025
1023
1026
1028
1031
1030
1026
1024
1026
1028
1033
1033
1028
1023
1022
1023
1028
1026
1026
1026
1025
1022
1026
1023
1024
1023
1024
1029
1027
1026
1024
1022
1024
1026
1030
1031
1033
1029
1032
1035
1038
1044
1054
1069
1090
1112
1135
1145
1140
1123
1104
1069
1019
949
870
787
697
621
575
539
526
523
529
544
568
598
630
671
714
763
802
831
849
865
879
892
908
916
924
930
943
952
965
976
985
996
1005
1015
1026
1038
1047
1056
1066
1070
1079
1084
1082
1083
1086
1091
1098
1099
1097
1097
1097
1105
1105
1108
1110
1108
1110
1112
1117
1118
1121
1121
1124
1129
1136
1139
1139
1137
1139
1141
1148
1152
1157
1157
1161
1163
1170
1176
1183
1183
1189
1195
1201
1206
1206
1209
1215
1225
1234
1241
1246
1249
1258
1264
1273
1279
1283
1288
1292
1301
1307
1314
1320
1323
1326
1336
1341
1340
1339
1335
1334
1334
1334
1331
1325
1315
1311
1306
1304
1297
1288
1277
1269
1261
1253
1245
1236
1223
1214
1205
1197
1189
1179
1169
1159
1153
1149
1140
1128
1118
1111
1109
1103
1100
1093
1086
1078
1074
1073
1075
1071
1063
1059
1057
1058
1057
1050
1047
1044
1043
1047
1044
1043
1038
1036
1037
1039
1036
1035
1033
1033
1037
1036
1034
1033
1033
1033
1034
1034
1033
1027
1024
1027
1030
1032
1034
1028
1025
1023
1027
1029
1027
1026
1022
1026
1026
1028
1029
1025
1023
1021
1024
1025
1021
1022
1018
1017
1017
1020
1019
1014
1015
1017
1018
1020
1016
1014
1011
1011
1014
1018
1016
1013
1011
1007
1013
1012
1012
1009
1008
1008
1010
1011
1014
1009
1004
1002
1005
1010
1009
1008
1007
1006
1006
1011
1007
1005
1004
1005
1009
1010
1009
1008
1003
1003
1002
1006
1008
1006
1003
1000
1000
1006
1006
1006
1004
1004
1008
1007
1005
1005
1002
1006
1007
1009
1009
1009
1007
1009
1010
1009
1010
1007
1002
1002
1005
1006
1007
1007
1003
1006
1009
1008
1008
1008
1005
1007
1011
1014
1013
1010
1007
1006
1008
1007
1008
1009
1009
1006
1011
1010
1009
1007
1007
1008
1013
1011
1010
1008
1001
1003
1011
1018
1015
1007
999
1002
1008
1017
1019
1017
1013
1010
1012
1009
1008
1011
1013
1012
1014
1019
1025
1021
1015
1014
1016
1019
1011
1012
1016
1020
1020
1020
1017
1013
1014
1017
1021
1019
1016
1015
1016
1019
1022
1023
1019
1014
1014
1016
1017
1020
1019
1019
1015
1015
1021
1021
1021
1018
1016
1018
1022
1028
1025
1022
1020
1023
1024
1026
1026
1024
1026
1022
1025
1027
1025
1022
1021
1020
1023
1026
1024
1025
1025
1026
1031
1031
1030
1032
1028
1025
1023
1027
1021
1020
1017
1017
1019
1019
1015
1012
1010
1014
1016
1021
1019
1018
1014
1016
1015
1018
1018
1014
1013
1011
1011
1014
1016
1017
1015
1014
1016
1018
1017
1017
1014
1020
1024
1031
1035
1042
1053
1063
1083
1100
1124
1154
1187
1228
1269
1311
1348
1385
1415
1453
1488
1522
1535
1528
1493
1428
1339
1250
1176
1122
1087
1068
1056
1044
1036
1028
1022
1018
1014
1012
1005
998
990
984
987
987
987
982
979
977
981
979
979
976
972
971
975
976
975
973
970
969
972
972
972
969
967
969
967
963
962
963
961
959
964
966
967
965
961
958
956
959
961
960
956
957
960
961
961
960
953
956
961
965
968
967
964
963
963
965
964
965
962
959
959
964
971
974
971
971
969
973
970
970
971
979
985
986
987
989
993
999
1008
1012
1014
1016
1020
1023
1030
1039
1044
1045
1047
1049
1054
1058
1058
1054
1053
1054
1058
1060
1059
1051
1046
1042
1043
1045
1045
1042
1040
1041
1041
1041
1038
1034
1031
1036
1037
1037
1036
1032
1028
1032
1034
1038
1037
1035
1031
1031
1035
1036
1032
1032
1029
1029
1033
1035
1033
1030
1030
1030
1031
1032
1030
1029
1028
1029
1031
1035
1034
1031
1027
1026
1023
1027
1028
1025
1026
1027
1031
1035
1035
1035
1029
1027
1030
1033
1032
1031
1029
1031
1033
1034
1035
1034
1029
1026
1027
1028
1031
1032
1029
1033
1035
1038
1033
1026
1021
1024
1030
1036
1037
1032
1028
1030
1034
1037
1036
1030
1029
1028
1032
1034
1034
1034
1032
1033
1036
1036
1033
1028
1031
1029
1029
1031
1029
1029
1027
1028
1031
1032
1031
1032
1030
1032
1035
1040
1037
1030
1027
1024
1031
1037
1037
1033
1032
1031
1036
1039
1039
1032
1029
1029
1034
1035
1034
1033
1032
1035
1035
1040
1037
1037
1032
1032
1033
1033
1033
1035
1034
1035
1034
1034
1038
1037
1036
1034
1037
1042
1037
1036
1031
1032
1038
1044
1045
1042
1042
1040
1043
1045
1047
1044
1045
1046
1050
1055
1056
1053
1051
1049
1052
1053
1049
1045
1041
1047
1053
1056
1058
1058
1056
1056
1056
1059
1056
1051
1046
1043
1046
1049
1050
1047
1043
1041
1043
1046
1045
1045
1043
1042
1045
1050
1048
1048
1046
1044
1046
1049
1051
1047
1044
1042
1044
1048
1049
1049
1050
1048
1049
1051
1054
1057
1060
1064
1074
1088
1108
1123
1136
1160
1192
1232
1270
1304
1341
1375
1407
1444
1479
1514
1529
1532
1517
1468
1387
1289
1207
1150
1112
1094
1079
1069
1057
1052
1051
1050
1044
1036
1027
1026
1027
1025
1024
1021
1014
1014
1011
1014
1015
1014
1012
1013
1013
1015
1013
1008
1009
1008
1010
1012
1010
1005
1002
1003
1007
1009
1008
1001
1001
999
1000
1002
1001
999
997
994
996
999
999
996
993
993
994
999
1001
998
996
991
991
997
995
995
993
986
990
992
994
992
986
988
989
994
991
993
993
994
998
999
1000
1001
1002
1005
1011
1017
1020
1020
1018
1024
1027
1036
1041
1043
1045
1049
1057
1065
1074
1078
1078
1079
1080
1081
1085
1085
1083
1081
1082
1083
1083
1077
1070
1068
1065
1065
1064
1061
1059
1058
1062
1065
1065
1065
1060
1058
1062
1063
1062
1062
1058
1055
1058
1057
1061
1059
1054
1051
1055
1059
1060
1057
1053
1054
1054
1054
1051
1051
1048
1049
1052
1055
1058
1056
1055
1054
1054
1054
1052
1047
1044
1044
1049
1050
1050
1048
1047
1049
1052
1056
1053
1052
1052
1052
1053
1056
1054
1053
1050
1054
1056
1060
1057
1051
1048
1050
1051
1053
1053
1051
1052
1053
1056
1057
1055
1055
1051
1050
1050
1056
1055
1055
1053
1052
1055
1056
1057
1056
1052
1053
1057
1059
1058
1055
1054
1054
1054
1053
1054
1052
1051
1051
1052
1054
1052
1050
1052
1053
1055
1059
1057
1055
1052
1052
1055
1055
1053
1052
1051
1052
1053
1056
1055
1053
1051
1055
1056
1059
1058
1055
1052
1055
1059
1060
1058
1053
1053
1051
1057
1056
1058
1056
1053
1054
1059
1061
1061
1058
1055
1055
1056
1060
1056
1055
1052
1053
1058
1062
1062
1061
1060
1062
1065
1069
1071
1069
1070
1070
1073
1072
1068
1064
1062
1064
1062
1066
1065
1064
1061
1064
1070
1071
1072
1072
1067
1067
1065
1066
1062
1059
1053
1055
1061
1062
1062
1059
1055
1052
1055
1055
1055
1055
1051
1054
1056
1061
1059
1054
1051
1050
1055
1054
1054
1050
1052
1052
1054
1057
1055
1052
1053
1054
1063
1072
1076
1083
1093
1110
1128
1147
1173
1209
1245
1285
1328
1367
1398
1429
1461
1500
1528
1535
1519
1470
1381
1282
1199
1148
1110
1085
1072
1059
1057
1053
1048
1041
1032
1029
1028
1025
1016
1009
1008
1009
1009
1010
1008
1006
1002
1002
1004
1003
1004
1000
999
998
1000
1002
999
995
992
995
996
994
992
994
992
991
989
991
990
989
988
988
990
988
987
984
983
986
984
988
982
981
978
982
988
988
988
984
981
980
980
984
983
985
981
979
980
984
984
982
979
982
986
988
989
986
983
985
990
997
1001
1003
1005
1006
1008
1016
1021
1023
1025
1029
1033
1042
1043
1047
1049
1055
1063
1066
1065
1065
1061
1061
1061
1061
1063
1065
1059
1057
1058
1058
1056
1051
1048
1048
1048
1052
1047
1045
1040
1041
1042
1046
1046
1044
1042
1042
1040
1044
1042
1042
1035
1037
1036
1042
1043
1041
1034
1030
1035
1041
1040
1039
1037
1038
1037
1036
1032
1029
1026
1029
1033
1036
1034
1032
1027
1030
1035
1039
1034
1032
1029
1029
1033
1037
1037
1036
1034
1036
1037
1040
1039
1039
1038
1038
1039
1035
1030
1029
1030
1031
1039
1043
1038
1037
1032
1030
1031
1033
1034
1034
1032
1033
1040
1041
1040
1030
1025
1025
1030
1034
1034
1030
1029
1029
1035
1036
1035
1032
1030
1029
1034
1033
1034
1033
1033
1034
1037
1044
1041
1033
1027
1031
1037
1041
1039
1032
1027
1029
1033
1031
1027
1025
1026
1029
1034
1035
1033
1032
1027
1029
1032
1032
1027
1026
1027
1031
1036
1034
1031
1031
1026
1027
1032
1039
1037
1033
1030
1031
1036
1032
1024
1022
1027
1033
1038
1039
1037
1038
1040
1040
1044
1046
1048
1049
1049
1050
1044
1035
1028
1028
1035
1041
1045
1047
1041
1037
1034
1039
1045
1049
1048
1043
1039
1039
1037
1033
1032
1031
1033
1036
1040
1037
1028
1024
1027
1030
1031
1033
1035
1032
1029
1029
1035
1039
1036
1027
1021
1022
1031
1042
1043
1037
1033
1030
1038
1049
1053
1053
1062
1080
1101
1117
1133
1154
1188
1236
1282
1322
1354
1382
1421
1462
1507
1525
1515
1469
1388
1290
1205
1145
1099
1070
1056
1051
1049
1043
1035
1028
1019
1013
1015
1016
1012
1006
1002
1000
1008
1010
1005
993
991
993
996
1001
994
986
984
984
992
999
996
993
986
985
988
991
991
985
980
978
981
989
990
981
977
972
977
982
984
981
974
977
982
985
983
979
972
978
987
990
982
975
967
971
975
980
982
985
986
985
981
979
980
983
984
984
981
983
986
990
991
988
987
991
991
1000
1003
1008
1011
1013
1017
1024
1023
1022
1030
1044
1055
1059
1056
1053
1051
1054
1057
1061
1057
1054
1054
1063
1061
1053
1040
1036
1041
1052
1051
1043
1036
1038
1048
1051
1046
1037
1031
1033
1038
1042
1038
1034
1029
1030
1031
1037
1038
1031
1032
1033
1038
1041
1038
1035
1031
1031
1030
1031
1029
1029
1028
1031
1033
1032
1029
1027
1030
1037
1038
1033
1029
1031
1027
1029
1034
1041
1036
1035
1034
1034
1031
1032
1033
1033
1031
1040
1039
1038
1031
1027
1027
1035
1045
1044
1036
1032
1038
1041
1043
1043
1041
1036
1036
1039
1038
1038
1039
1038
1036
1037
1040
1050
1054
1051
1041
1033
1036
1048
1051
1046
1037
1036
1045
1050
1046
1038
1034
1038
1045
1046
1045
1045
1044
1042
1039
1041
1041
1044
1048
1051
1056
1055
1046
1042
1038
1035
1039
1047
1049
1047
1043
1044
1048
1047
1047
1045
1045
1043
1046
1055
1056
1047
1035
1035
1045
1055
1056
1051
1045
1046
1049
1047
1052
1052
1052
1052
1050
1047
1049
1050
1051
1046
1051
1061
1062
1057
1047
1049
1056
1059
1060
1058
1058
1063
1067
1067
1065
1061
1056
1051
1047
1052
1057
1057
1052
1057
1063
1069
1068
1065
1059
1058
1058
1061
1062
1057
1053
1048
1051
1057
1055
1049
1051
1058
1059
1055
1053
1050
1049
1049
1053
1057
1054
1052
1054
1058
1057
1049
1046
1046
1041
1043
1050
1061
1058
1053
1057
1062
1064
1063
1069
1078
1092
1106
1124
1139
1163
1202
1246
1295
1336
1365
1392
1427
1471
1509
1520
1503
1450
1358
1255
1178
1127
1091
1076
1069
1057
1050
1054
1053
1045
1040
1038
1033
1025
1023
1027
1030
1029
1025
1015
1014
1018
1020
1024
1021
1013
1008
1009
1011
1013
1011
1015
1017
1018
1009
1004
1002
1004
1003
1008
1008
1008
1006
1005
1006
1003
1001
1003
1003
1001
1003
1008
1009
1004
999
992
989
994
996
999
1002
1002
1001
1002
1002
999
996
998
1010
1015
1012
1004
1003
1013
1023
1030
1026
1022
1029
1037
1050
1054
1053
1051
1054
1060
1061
1062
1063
1065
1069
1065
1067
1060
1055
1058
1058
1061
1062
1057
1046
1045
1053
1054
1054
1049
1050
1050
1050
1055
1055
1049
1046
1049
1049
1048
1046
1041
1030
1018
1023
1037
1046
1045
1041
1038
1038
1036
1034
1031
1033
1037
1044
1046
1042
1032
1029
1031
1038
1040
1034
1031
1029
1031
1037
1039
1036
1032
1029
1033
1036
1037
1033
1032
1035
1036
1039
1037
1037
1027
1016
1017
1031
1042
1046
1046
1041
1037
1032
1029
1030
1033
1033
1033
1032
1035
1035
1036
1036
1028
1024
1027
1031
1034
1028
1024
1023
1025
1027
1023
1024
1028
1031
1029
1027
1027
1029
1034
1034
1032
1028
1031
1032
1030
1026
1025
1024
1021
1023
1030
1034
1034
1032
1029
1031
1033
1034
1031
1022
1016
1018
1018
1022
1024
1027
1028
1027
1033
1033
1031
1025
1020
1019
1023
1028
1030
1027
1021
1020
1024
1030
1030
1023
1019
1025
1030
1030
1030
1023
1026
1028
1027
1031
1031
1031
1023
1016
1018
1022
1027
1027
1026
1026
1031
1035
1038
1037
1032
1030
1030
1034
1037
1034
1033
1037
1044
1053
1051
1044
1039
1038
1041
1037
1031
1031
1036
1040
1042
1043
1042
1044
1047
1044
1043
1043
1040
1034
1030
1027
1027
1028
1029
1028
1025
1025
1027
1029
1034
1035
1035
1033
1025
1025
1025
1030
1033
1039
1041
1038
1035
1035
1031
1029
1031
1033
1038
1038
1035
1029
1025
1030
1039
1052
1059
1060
1070
1089
1108
1122
1139
1163
1198
1240
1282
1318
1348
1377
1400
1439
1474
1497
1497
1468
1417
1336
1259
1200
1147
1107
1079
1066
1061
1058
1052
1045
1039
1032
1026
1022
1018
1010
1000
1000
1004
1005
1002
998
997
997
1001
1004
1005
1001
992
992
992
995
997
996
997
992
994
993
993
992
988
986
985
987
990
989
988
989
988
986
985
985
984
987
989
990
990
984
979
977
981
983
987
986
983
991
993
986
979
976
972
974
975
974
976
973
976
978
979
980
978
976
972
971
975
980
980
974
970
971
981
986
985
981
974
971
975
979
984
986
986
984
983
989
992
997
1001
1006
1011
1011
1011
1012
1016
1020
1029
1035
1038
1040
1042
1044
1047
1051
1046
1044
1039
1047
1049
1051
1046
1045
1048
1050
1053
1053
1047
1042
1043
1044
1049
1049
1043
1038
1036
1041
