992
994
998
996
998
995
995
997
996
998
992
990
988
991
993
991
991
987
985
986
988
994
988
986
983
983
987
988
986
985
986
989
990
996
1000
1008
1014
1018
1023
1026
1023
1017
1008
1005
1004
1001
1000
996
999
1001
1003
1002
1001
995
995
998
1001
1004
1003
998
997
996
999
1000
1001
997
998
998
1000
1001
998
995
999
1003
1002
998
997
995
995
999
1001
1003
998
996
996
997
1000
1004
1000
998
998
1000
1002
1003
1002
996
997
999
1004
1002
998
995
995
995
998
1003
1001
999
999
1000
999
1002
1001
997
994
995
1002
1002
1002
1001
1001
1004
1005
1004
1002
1000
999
1005
1010
1014
1014
1011
1014
1013
1015
1015
1015
1013
1014
1017
1022
1020
1015
1010
1007
1008
1006
1008
1010
1006
1005
1005
1011
1011
1014
1014
1016
1016
1017
1016
1009
1003
1001
1005
1008
1007
1004
1000
1001
1004
1009
1006
1007
1007
1005
1009
1010
1010
1009
1005
1004
1005
1006
1007
1004
1004
1005
1007
1012
1012
1012
1008
1009
1010
1016
1019
1022
1025
1032
1041
1058
1071
1077
1088
1107
1138
1167
1201
1229
1259
1287
1320
1360
1404
1439
1451
1438
1393
1315
1219
1134
1071
1036
1022
1018
1017
1012
1006
1002
1003
1004
1006
999
994
992
996
1000
997
994
989
991
994
997
996
994
990
990
993
997
998
998
997
993
997
994
992
990
988
987
988
990
988
989
984
981
986
989
991
989
988
986
987
986
987
984
980
980
984
986
984
984
982
984
984
989
986
986
985
985
987
989
989
989
986
988
990
993
993
993
989
991
998
1000
1003
1003
1003
1005
1008
1011
1016
1020
1020
1023
1025
1033
1038
1043
1042
1046
1052
1061
1065
1066
1065
1064
1067
1066
1065
1059
1055
1050
1048
1044
1042
1039
1036
1035
1036
1034
1033
1028
1026
1026
1026
1027
1023
1019
1018
1019
1021
1023
1024
1022
1018
1015
1017
1022
1024
1022
1017
1016
1017
1020
1022
1017
1014
1013
1012
1014
1013
1012
1012
1014
1013
1015
1018
1013
1006
1007
1010
1011
1010
1009
1005
1004
1009
1009
1013
1010
1006
1006
1008
1015
1016
1014
1011
1011
1010
1013
1014
1012
1008
1011
1014
1018
1013
1010
1010
1012
1015
1016
1016
1012
1009
1011
1018
1019
1019
1014
1012
1012
1009
1012
1009
1011
1008
1009
1010
1010
1012
1012
1009
1009
1009
1011
1010
1006
1003
1000
1004
1008
1004
1003
1002
1002
1005
1007
1008
1005
1002
1004
1005
1007
1007
1008
1005
1004
1006
1008
1007
1005
1004
1007
1010
1012
1011
1007
1006
1004
1004
1010
1012
1011
1011
1008
1010
1011
1012
1010
1009
1011
1015
1017
1013
1012
1010
1007
1010
1015
1014
1014
1011
1011
1012
1015
1016
1015
1010
1010
1011
1014
1012
1009
1010
1011
1012
1016
1013
1013
1009
1010
1011
1015
1014
1012
1009
1012
1014
1016
1017
1015
1013
1016
1020
1023
1023
1025
1021
1022
1024
1028
1024
1024
1021
1022
1024
1025
1025
1022
1017
1018
1021
1021
1021
1021
1020
1021
1025
1025
1023
1024
1023
1023
1023
1025
1024
1018
1014
1014
1017
1018
1020
1017
1016
1016
1017
1017
1016
1016
1014
1015
1014
1018
1017
1015
1011
1012
1014
1019
1022
1017
1017
1014
1017
1021
1019
1019
1018
1019
1018
1022
1022
1025
1024
1030
1039
1048
1058
1067
1073
1085
1093
1113
1136
1164
1187
1217
1249
1282
1310
1341
1378
1416
1451
1465
1446
1391
1304
1211
1135
1084
1049
1026
1019
1020
1019
1022
1019
1017
1012
1010
1009
1006
1008
1002
995
994
998
999
997
994
992
993
995
995
993
993
989
990
992
996
997
991
989
987
989
991
992
990
988
987
986
988
988
985
981
983
983
986
987
984
981
982
984
987
986
983
981
983
983
985
984
982
983
983
986
987
985
985
980
984
988
989
991
989
986
990
991
997
997
995
997
996
998
1005
1005
1007
1005
1008
1015
1021
1023
1024
1023
1023
1028
1036
1037
1040
1038
1044
1049
1054
1057
1057
1055
1057
1057
1059
1059
1056
1051
1053
1054
1053
1049
1043
1040
1038
1037
1039
1034
1029
1025
1025
1027
1025
1024
1023
1017
1020
1023
1022
1020
1018
1017
1018
1017
1021
1017
1017
1014
1016
1017
1022
1020
1019
1014
1015
1015
1019
1017
1016
1016
1016
1019
1022
1017
1017
1015
1014
1018
1021
1017
1018
1015
1014
1018
1019
1020
1020
1021
1020
1021
1024
1026
1024
1021
1026
1028
1031
1031
1028
1025
1025
1026
1027
1026
1023
1017
1017
1021
1021
1020
1017
1012
1016
1017
1017
1015
1011
1008
1010
1009
1013
1012
1007
1007
1008
1008
1011
1008
1006
1004
1004
1008
1006
1009
1004
1001
1002
1007
1005
1003
1005
1002
1003
1001
1007
1006
1001
1000
1003
1004
1005
1004
1002
1000
1001
1003
1005
1005
1004
1000
1001
1003
1005
1004
1002
1000
1000
1003
1005
1005
1002
1001
1001
1004
1007
1006
1005
1003
1004
1005
1009
1010
1008
1005
1007
1009
1011
1010
1009
1004
1008
1010
1013
1012
1011
1007
1009
1009
1016
1011
1012
1008
1009
1012
1010
1011
1006
1006
1005
1011
1014
1013
1011
1007
1007
1008
1013
1011
1009
1005
1006
1010
1012
1011
1012
1007
1011
1014
1017
1018
1017
1015
1018
1020
1024
1023
1020
1019
1020
1024
1028
1027
1027
1022
1022
1019
1021
1022
1020
1018
1020
1025
1025
1024
1022
1019
1021
1026
1026
1026
1025
1022
1020
1019
1018
1016
1013
1014
1015
1016
1017
1017
1016
1010
1014
1018
1019
1017
1016
1012
1013
1014
1017
1017
1015
1013
1015
1016
1018
1017
1017
1011
1015
1020
1020
1020
1018
1017
1018
1026
1033
1039
1048
1055
1070
1083
1095
1110
1138
1169
1204
1239
1272
1299
1328
1364
1406
1449
1479
1483
1461
1406
1321
1228
1151
1095
1050
1024
1019
1023
1027
1026
1019
1019
1013
1014
1012
1008
1001
1001
1001
1002
1004
1004
999
999
999
998
1004
1002
1001
996
998
999
1002
999
995
995
994
996
998
998
994
993
990
994
995
994
993
988
989
992
997
997
992
991
993
995
997
996
996
993
994
994
998
996
994
994
996
999
1002
1001
1000
998
997
1000
1001
1004
1003
1003
1004
1007
1007
1007
1006
1008
1009
1012
1017
1018
1019
1021
1022
1027
1030
1033
1034
1035
1039
1043
1046
1050
1050
1053
1056
1063
1070
1071
1077
1076
1080
1079
1085
1084
1086
1084
1084
1082
1084
1082
1076
1074
1072
1072
1073
1068
1062
1057
1057
1058
1055
1055
1049
1043
1045
1043
1047
1047
1041
1039
1037
1035
1041
1038
1035
1034
1036
1040
1040
1037
1035
1033
1033
1035
1036
1034
1031
1029
1029
1031
1033
1029
1028
1023
1025
1029
1030
1029
1025
1021
1022
1023
1026
1025
1023
1024
1021
1022
1024
1022
1019
1017
1018
1019
1024
1022
1019
1017
1019
1021
1024
1025
1021
1019
1021
1022
1026
1024
1019
1021
1021
1024
1023
1021
1019
1017
1020
1024
1026
1022
1020
1015
1015
1017
1021
1022
1020
1017
1018
1019
1020
1018
1014
1015
1015
1017
1019
1016
1012
1013
1011
1015
1016
1017
1010
1010
1011
1012
1013
1014
1013
1010
1009
1011
1012
1011
1009
1008
1008
1011
1010
1012
1012
1011
1011
1011
1011
1012
1010
1008
1010
1013
1016
1011
1010
1010
1012
1013
1017
1015
1012
1010
1008
1011
1013
1010
1006
1008
1004
1008
1008
1007
1008
1005
1007
1007
1007
1005
1003
1005
1005
1005
1009
1004
1004
1000
1004
1004
1009
1010
1009
1006
1007
1013
1014
1013
1015
1013
1017
1020
1021
1018
1017
1016
1017
1019
1022
1023
1021
1019
1021
1023
1024
1025
1027
1024
1025
1028
1029
1025
1024
1022
1022
1025
1028
1026
1023
1019
1022
1023
1026
1027
1022
1022
1021
1028
1031
1029
1023
1021
1021
1021
1020
1021
1019
1015
1018
1020
1023
1020
1019
1016
1016
1020
1021
1019
1015
1014
1017
1018
1021
1018
1020
1016
1018
1018
1022
1021
1019
1017
1018
1023
1024
1020
1023
1023
1027
1028
1035
1039
1040
1050
1065
1079
1092
1104
1121
1149
1179
1214
1243
1271
1299
1328
1364
1406
1443
1459
1447
1400
1316
1226
1153
1093
1051
1029
1023
1023
1026
1022
1019
1015
1012
1012
1009
1005
1003
999
1001
1001
1000
998
996
994
995
996
998
999
995
993
994
995
996
995
992
990
988
991
992
991
988
988
986
991
992
989
989
984
984
984
989
990
986
986
986
990
997
994
991
988
988
990
990
991
990
992
994
997
995
996
994
996
997
1001
1005
1005
1003
1001
1004
1008
1012
1012
1012
1010
1013
1018
1020
1025
1025
1027
1029
1034
1040
1044
1043
1044
1048
1053
1060
1062
1064
1064
1066
1072
1070
1068
1063
1062
1065
1063
1064
1061
1056
1053
1053
1053
1052
1048
1043
1038
1036
1037
1039
1038
1032
1029
1027
1030
1030
1028
1028
1025
1026
1027
1029
1028
1024
1023
1023
1021
1026
1024
1024
1020
1020
1022
1022
1021
1020
1016
1018
1020
1019
1023
1019
1014
1015
1015
1016
1016
1013
1011
1012
1012
1015
1014
1013
1010
1012
1013
1015
1015
1011
1013
1014
1017
1019
1018
1016
1014
1015
1019
1020
1018
1018
1014
1014
1015
1017
1017
1016
1014
1014
1015
1020
1017
1015
1014
1013
1016
1018
1016
1015
1012
1011
1013
1017
1016
1012
1011
1012
1014
1016
1013
1010
1010
1010
1012
1015
1013
1012
1006
1008
1011
1011
1010
1008
1006
1006
1011
1010
1008
1004
1004
1006
1011
1012
1009
1008
1005
1005
1008
1011
1010
1008
1005
1005
1006
1006
1007
1002
1002
1005
1006
1010
1008
1003
1003
1005
1007
1012
1011
1007
1005
1006
1010
1011
1009
1006
1007
1005
1010
1012
1011
1005
1006
1004
1007
1010
1010
1008
1009
1008
1008
1009
1010
1007
1007
1008
1012
1014
1011
1009
1007
1009
1010
1013
1014
1011
1008
1009
1011
1014
1013
1008
1009
1013
1014
1017
1016
1012
1013
1015
1018
1021
1023
1022
1022
1023
1026
1029
1029
1024
1023
1026
1029
1029
1028
1022
1017
1019
1020
1022
1021
1021
1019
1020
1024
1028
1029
1027
1025
1024
1025
1027
1024
1021
1015
1016
1017
1021
1018
1017
1018
1018
1022
1024
1024
1020
1020
1019
1021
1023
1022
1019
1020
1021
1024
1026
1025
1023
1023
1023
1026
1027
1026
1025
1026
1027
1034
1038
1042
1048
1059
1073
1086
1102
1119
1146
1176
1209
1246
1284
1318
1352
1392
1441
1476
1483
1449
1375
1272
1177
1109
1062
1032
1019
1020
1024
1024
1025
1019
1012
1004
998
1001
1002
999
995
992
993
993
994
992
990
993
995
997
999
996
997
995
995
1000
1003
1002
999
994
995
999
1000
1000
998
994
994
998
1000
999
997
995
996
996
994
992
991
990
989
993
996
999
998
997
997
996
997
997
996
997
998
1000
1003
1007
1006
1012
1015
1020
1021
1022
1021
1021
1030
1037
1043
1044
1040
1036
1033
1033
1036
1038
1039
1040
1043
1050
1054
1055
1048
1052
1061
1071
1076
1083
1082
1084
1083
1082
1083
1080
1079
1078
1082
1083
1084
1080
1076
1072
1078
1085
1089
1086
1079
1076
1076
1077
1078
1073
1067
1066
1064
1061
1063
1059
1056
1055
1057
1059
1059
1060
1056
1052
1053
1057
1064
1060
1058
1049
1045
1049
1051
1051
1047
1047
1049
1048
1050
1046
1043
1039
1040
1047
1047
1043
1042
1043
1045
1049
1053
1051
1045
1040
1042
1046
1047
1046
1043
1042
1042
1046
1051
1051
1050
1045
1041
1045
1050
1051
1049
1047
1046
1050
1051
1047
1039
1041
1044
1051
1051
1047
1041
1040
1042
1048
1048
1046
1045
1042
1044
1042
1041
1039
1039
1039
1041
1042
1043
1044
1039
1033
1032
1036
1041
1043
1040
1038
1040
1039
1042
1040
1037
1033
1031
1032
1035
1038
1034
1033
1037
1043
1046
1039
1029
1025
1026
1034
1038
1038
1037
1034
1032
1034
1038
1040
1037
1036
1033
1032
1032
1031
1032
1034
1036
1039
1039
1039
1033
1028
1027
1032
1038
1039
1038
1035
1034
1030
1031
1034
1033
1031
1033
1034
1036
1034
1035
1033
1033
1034
1039
1037
1033
1032
1033
1037
1042
1042
1041
1037
1042
1047
1049
1045
1042
1040
1045
1048
1051
1050
1053
1045
1044
1045
1047
1041
1036
1034
1040
1046
1054
1054
1049
1047
1045
1046
1050
1050
1046
1040
1040
1040
1044
1041
1037
1031
1036
1041
1045
1046
1043
1042
1042
1041
1040
1037
1035
1033
1030
1029
1030
1035
1031
1029
1031
1034
1035
1036
1030
1029
1031
1038
1042
1039
1040
1043
1054
1070
1084
1096
1101
1112
1135
1165
1194
1224
1252
1282
1315
1356
1402
1435
1451
1437
1389
1312
1224
1144
1086
1051
1035
1032
1038
1036
1034
1028
1026
1029
1028
1026
1022
1017
1019
1018
1019
1018
1014
1009
1010
1013
1012
1013
1012
1006
1009
1009
1011
1012
1009
1008
1007
1005
1006
1005
1002
999
1000
1004
1007
1007
1006
1001
999
999
999
1003
1001
1000
1001
1002
1006
1005
1003
998
997
1003
1007
1008
1006
1005
1007
1009
1014
1012
1007
999
998
1001
1009
1011
1013
1013
1012
1016
1016
1012
1012
1010
1013
1022
1024
1025
1025
1019
1021
1023
1026
1028
1029
1029
1034
1041
1046
1044
1048
1053
1059
1063
1066
1064
1069
1072
1078
1077
1078
1076
1070
1069
1067
1072
1071
1072
1064
1057
1054
1054
1057
1055
1052
1048
1050
1053
1053
1042
1037
1035
1037
1039
1042
1044
1040
1042
1045
1046
1044
1039
1035
1033
1036
1039
1039
1039
1033
1029
1028
1033
1038
1039
1038
1035
1034
1034
1032
1031
1031
1028
1031
1034
1036
1035
1032
1032
1031
1032
1033
1037
1040
1045
1055
1068
1087
1107
1130
1145
1145
1126
1092
1032
955
870
786
703
637
600
587
586
580
593
618
649
678
705
739
772
803
824
838
851
869
892
909
920
927
935
947
956
966
972
981
993
1005
1022
1036
1043
1049
1053
1059
1065
1073
1071
1070
1071
1077
1085
1090
1092
1089
1088
1090
1094
1094
1096
1097
1099
1102
1106
1108
1111
1109
1111
1115
1117
1120
1123
1129
1132
1136
1143
1149
1153
1154
1157
1166
1174
1181
1183
1190
1198
1206
1214
1223
1229
1233
1238
1248
1257
1264
1269
1273
1273
1279
1283
1284
1284
1278
1281
1276
1275
1273
1265
1255
1248
1240
1233
1224
1214
1202
1193
1188
1179
1169
1158
1147
1139
1135
1128
1121
1112
1107
1099
1095
1093
1089
1081
1072
1068
1067
1068
1069
1065
1063
1056
1051
1053
1053
1050
1047
1044
1046
1047
1048
1046
1043
1039
1043
1044
1046
1040
1036
1033
1036
1039
1042
1040
1033
1032
1034
1036
1039
1035
1033
1028
1030
1030
1036
1037
1032
1027
1025
1026
1026
1025
1025
1023
1023
1025
1028
1024
1020
1019
1018
1018
1017
1017
1016
1015
1017
1018
1022
1019
1015
1011
1011
1013
1016
1015
1011
1008
1012
1011
1013
1012
1010
1008
1011
1015
1018
1018
1016
1013
1013
1015
1012
1008
1008
1006
1006
1009
1010
1009
1007
1007
1009
1012
1011
1011
1007
1006
1006
1011
1010
1009
1007
1007
1010
1010
1012
1012
1012
1010
1014
1014
1012
1005
1001
1002
1003
1008
1009
1009
1008
1009
1011
1014
1013
1010
1005
1007
1011
1011
1013
1010
1009
1009
1007
1008
1011
1013
1009
1008
1008
1008
1010
1006
1005
1001
1003
1009
1012
1009
1005
1002
1008
1011
1014
1016
1013
1009
1007
1008
1012
1014
1010
1009
1006
1008
1012
1013
1007
1008
1010
1012
1014
1015
1010
1010
1011
1015
1017
1015
1010
1006
1007
1014
1014
1011
1011
1009
1013
1014
1015
1009
1007
1008
1011
1013
1016
1014
1012
1013
1015
1017
1014
1010
1011
1012
1014
1017
1016
1013
1010
1011
1013
1016
1018
1016
1011
1008
1012
1014
1018
1014
1014
1013
1014
1014
1015
1013
1012
1008
1012
1017
1020
1019
1017
1013
1013
1016
1017
1014
1013
1010
1012
1015
1019
1019
1015
1016
1017
1016
1017
1014
1013
1013
1014
1018
1019
1016
1016
1012
1016
1016
1019
1020
1019
1018
1019
1019
1023
1022
1018
1018
1016
1018
1020
1020
1020
1018
1020
1023
1022
1022
1016
1016
1012
1015
1017
1017
1014
1017
1018
1020
1021
1023
1019
1016
1015
1017
1017
1018
1016
1016
1019
1020
1021
1019
1014
1016
1016
1020
1025
1021
1019
1016
1020
1022
1023
1020
1015
1012
1016
1017
1021
1020
1019
1019
1021
1026
1023
1019
1013
1010
1014
1023
1025
1024
1021
1021
1019
1021
1021
1020
1019
1017
1019
1019
1021
1023
1020
1018
1021
1022
1024
1020
1018
1020
1022
1022
1022
1018
1015
1019
1020
1022
1021
1020
1016
1017
1019
1023
1021
1019
1019
1018
1021
1026
1024
1020
1019
1016
1020
1023
1025
1024
1023
1022
1025
1028
1031
1031
1029
1028
1032
1034
1037
1037
1034
1034
1036
1037
1036
1032
1030
1027
1031
1030
1035
1036
1035
1035
1038
1039
1041
1039
1030
1029
1031
1036
1035
1032
1029
1025
1031
1030
1030
1028
1026
1023
1026
1027
1028
1030
1026
1025
1027
1030
1029
1027
1025
1027
1029
1031
1031
1031
1026
1023
1026
1031
1030
1030
1031
1034
1039
1046
1050
1048
1052
1064
1079
1088
1094
1106
1126
1154
1192
1224
1258
1285
1316
1352
1400
1437
1458
1444
1387
1300
1204
1126
1076
1049
1043
1044
1047
1045
1043
1032
1025
1023
1022
1022
1019
1017
1014
1013
1014
1013
1011
1007
1003
1003
1009
1012
1013
1006
1005
1004
1007
1009
1007
1002
999
1001
1005
1005
1003
1004
999
1003
1002
1005
1008
1005
1005
1002
1002
1003
1006
1009
1007
1006
1006
1003
1002
1006
1009
1008
1009
1010
1008
1007
1007
1006
1006
1009
1010
1010
1009
1008
1009
1011
1015
1015
1013
1009
1009
1015
1019
1019
1016
1016
1018
1017
1021
1021
1021
1022
1024
1028
1031
1032
1032
1029
1028
1034
1039
1039
1039
1043
1047
1051
1053
1052
1049
1050
1058
1066
1067
1069
1067
1072
1075
1081
1083
1084
1082
1080
1081
1085
1082
1079
1076
1074
1077
1076
1076
1075
1070
1064
1065
1065
1067
1067
1066
1062
1058
1053
1047
1045
1044
1046
1046
1045
1043
1046
1044
1044
1043
1044
1045
1045
1042
1042
1042
1045
1044
1044
1043
1044
1042
1041
1041
1041
1039
1038
1036
1037
1038
1037
1037
1033
1037
1040
1043
1040
1034
1033
1036
1038
1036
1031
1033
1032
1038
1039
1037
1032
1031
1032
1032
1036
1038
1036
1033
1029
1026
1026
1028
1028
1028
1026
1029
1032
1032
1025
1021
1023
1022
1023
1027
1026
1025
1023
1022
1022
1023
1022
1018
1016
1015
1019
1023
1019
1015
1015
1018
1022
1024
1022
1020
1016
1017
1021
1017
1016
1016
1017
1018
1020
1019
1019
1019
1018
1021
1021
1018
1020
1017
1016
1018
1021
1021
1022
1019
1021
1020
1023
1024
1022
1018
1016
1018
1022
1022
1023
1023
1021
1021
1020
1019
1015
1014
1014
1017
1022
1019
1018
1017
1019
1022
1023
1020
1020
1017
1018
1022
1027
1024
1024
1019
1020
1022
1025
1025
1022
1018
1016
1019
1021
1021
1020
1020
1021
1024
1026
1029
1025
1023
1019
1019
1020
1021
1022
1025
1024
1029
1030
1028
1029
1025
1028
1035
1037
1038
1036
1033
1032
1030
1036
1036
1037
1034
1027
1025
1023
1026
1028
1029
1033
1033
1037
1033
1031
1029
1029
1032
1034
1035
1030
1027
1025
1022
1025
1024
1022
1017
1018
1021
1028
1025
1021
1018
1017
1022
1023
1025
1028
1021
1023
1021
1022
1021
1020
1021
1020
1022
1023
1024
1024
1022
1023
1023
1026
1027
1026
1027
1029
1038
1044
1049
1054
1058
1068
1076
1082
1088
1099
1119
1142
1174
1204
1228
1251
1274
1308
1349
1392
1420
1424
1389
1320
1230
1148
1084
1046
1024
1017
1022
1028
1030
1026
1022
1021
1022
1023
1018
1009
1003
1002
1011
1008
1006
1003
1002
1002
1004
1007
1007
1007
1002
999
999
1002
1002
1005
1001
1003
1002
1003
1005
1001
1001
998
1003
1005
1006
1002
996
997
998
1002
1004
1003
1000
1000
1002
1006
1004
1002
1000
1001
1005
1009
1012
1010
1006
1004
999
1002
1006
1008
1008
1007
1008
1011
1011
1010
1007
1007
1009
1013
1016
1016
1013
1015
1015
1018
1016
1017
1017
1018
1021
1026
1030
1029
1028
1029
1034
1039
1044
1042
1040
1044
1045
1050
1050
1054
1053
1054
1055
1058
1062
1061
1060
1055
1053
1059
1061
1063
1058
1049
1049
1052
1053
1051
1042
1039
1043
1044
1045
1042
1039
1035
1036
1041
1041
1037
1032
1029
1030
1038
1038
1036
1033
1030
1032
1032
1035
1031
1029
1029
1031
1032
1033
1030
1028
1028
1028
1032
1032
1030
1028
1027
1028
1029
1033
1032
1029
1027
1032
1037
1037
1032
1027
1023
1029
1032
1033
1031
1027
1030
