1049
1049
1049
1046
1047
1046
1047
1050
1047
1047
1045
1046
1049
1048
1047
1046
1044
1044
1046
1049
1043
1042
1042
1042
1044
1047
1044
1042
1040
1042
1041
1045
1043
1043
1041
1039
1041
1043
1043
1042
1039
1039
1044
1046
1044
1040
1039
1040
1042
1044
1040
1038
1036
1037
1039
1040
1041
1039
1037
1036
1039
1041
1041
1039
1037
1034
1039
1041
1042
1038
1037
1036
1038
1041
1040
1037
1035
1034
1039
1042
1037
1039
1036
1036
1040
1042
1043
1039
1037
1037
1039
1042
1041
1040
1039
1039
1040
1043
1042
1038
1037
1039
1041
1045
1043
1040
1037
1039
1041
1043
1043
1040
1039
1038
1041
1046
1042
1041
1041
1046
1047
1054
1052
1048
1046
1047
1051
1054
1055
1055
1052
1054
1054
1056
1053
1050
1048
1048
1050
1052
1051
1050
1049
1048
1052
1054
1055
1052
1054
1051
1051
1054
1051
1048
1044
1042
1046
1049
1048
1047
1045
1046
1049
1051
1047
1044
1040
1039
1043
1045
1048
1046
1043
1045
1045
1048
1045
1043
1042
1042
1042
1047
1049
1044
1041
1045
1050
1053
1054
1054
1055
1061
1069
1084
1091
1099
1107
1121
1143
1172
1196
1221
1245
1271
1305
1346
1384
1413
1414
1383
1313
1228
1144
1082
1049
1037
1036
1043
1043
1042
1039
1041
1042
1040
1035
1032
1028
1028
1030
1034
1030
1028
1027
1025
1027
1031
1029
1027
1026
1024
1028
1027
1026
1023
1019
1020
1022
1023
1022
1019
1019
1018
1019
1022
1018
1016
1018
1017
1019
1022
1024
1020
1018
1018
1018
1022
1023
1019
1019
1019
1020
1023
1020
1020
1015
1019
1022
1024
1025
1024
1019
1019
1022
1025
1025
1023
1023
1023
1029
1032
1031
1031
1033
1034
1036
1041
1044
1043
1047
1050
1056
1060
1063
1065
1070
1070
1077
1081
1079
1079
1077
1077
1078
1078
1071
1066
1064
1066
1063
1062
1057
1051
1048
1048
1049
1049
1044
1039
1034
1038
1040
1041
1040
1036
1034
1034
1038
1042
1040
1038
1030
1031
1035
1039
1034
1034
1031
1032
1034
1036
1033
1032
1029
1027
1031
1033
1029
1026
1025
1024
1027
1033
1030
1030
1027
1027
1027
1030
1030
1029
1027
1027
1029
1032
1030
1027
1024
1026
1026
1030
1029
1027
1025
1027
1029
1029
1029
1026
1024
1025
1027
1029
1027
1025
1025
1026
1028
1029
1026
1023
1020
1021
1023
1028
1024
1023
1020
1021
1023
1027
1025
1022
1020
1021
1023
1025
1022
1021
1019
1018
1020
1023
1023
1022
1015
1018
1020
1025
1025
1021
1018
1016
1020
1024
1021
1020
1016
1018
1021
1022
1023
1019
1017
1019
1021
1021
1019
1019
1016
1017
1018
1021
1019
1016
1014
1015
1017
1021
1020
1018
1017
1017
1019
1021
1018
1015
1013
1016
1019
1022
1022
1018
1016
1015
1018
1021
1019
1017
1015
1016
1018
1019
1019
1014
1016
1015
1018
1021
1018
1018
1016
1019
1020
1022
1021
1018
1016
1020
1025
1028
1028
1026
1024
1026
1030
1032
1031
1030
1027
1031
1031
1031
1028
1027
1022
1024
1026
1029
1030
1026
1024
1025
1030
1033
1032
1029
1027
1028
1025
1026
1022
1020
1022
1022
1024
1026
1024
1023
1021
1019
1023
1025
1025
1022
1020
1021
1023
1027
1026
1024
1021
1023
1024
1026
1024
1022
1021
1025
1029
1030
1030
1028
1029
1030
1038
1047
1053
1059
1068
1079
1091
1108
1129
1154
1182
1208
1240
1272
1302
1343
1384
1408
1408
1376
1308
1224
1143
1083
1047
1029
1021
1019
1021
1023
1025
1026
1025
1018
1015
1012
1013
1013
1010
1006
1004
1005
1008
1009
1009
1004
1004
1002
1006
1007
1007
1005
1003
1001
1005
1006
1008
1001
1001
1002
1002
1005
1003
1002
996
1000
1001
1003
1004
1000
998
999
1001
1004
1000
1000
999
999
1000
1003
1003
998
997
997
1002
1004
1004
1002
999
1001
1003
1006
1005
1002
1003
1006
1008
1010
1009
1007
1004
1007
1011
1016
1014
1015
1012
1014
1017
1021
1022
1022
1024
1024
1029
1036
1036
1034
1036
1041
1044
1051
1049
1052
1050
1055
1058
1063
1064
1064
1068
1065
1072
1074
1072
1068
1064
1064
1065
1066
1066
1059
1054
1052
1054
1054
1051
1046
1041
1041
1041
1042
1037
1035
1033
1030
1033
1036
1032
1031
1029
1028
1031
1032
1031
1029
1027
1028
1028
1028
1030
1028
1027
1028
1029
1031
1028
1027
1027
1026
1028
1031
1028
1025
1024
1024
1025
1029
1028
1024
1023
1024
1027
1028
1027
1025
1023
1023
1026
1029
1029
1027
1023
1025
1026
1030
1026
1025
1025
1024
1027
1030
1028
1027
1025
1025
1028
1029
1028
1024
1022
1025
1027
1029
1028
1028
1024
1023
1026
1030
1028
1026
1024
1025
1027
1027
1026
1023
1021
1021
1026
1027
1025
1023
1020
1021
1024
1026
1024
1023
1021
1020
1024
1023
1023
1021
1020
1019
1023
1026
1023
1022
1018
1020
1024
1025
1024
1022
1020
1022
1023
1023
1024
1020
1018
1019
1024
1026
1026
1023
1023
1020
1022
1024
1026
1024
1020
1022
1025
1027
1024
1022
1024
1022
1027
1027
1025
1023
1022
1022
1025
1026
1027
1025
1022
1022
1026
1026
1027
1022
1022
1022
1027
1029
1027
1024
1021
1023
1025
1025
1027
1024
1021
1024
1024
1026
1026
1023
1024
1025
1026
1028
1028
1027
1026
1029
1032
1037
1037
1033
1033
1032
1034
1038
1037
1035
1035
1038
1037
1039
1034
1030
1027
1031
1031
1034
1032
1030
1028
1031
1034
1036
1036
1033
1029
1031
1035
1034
1031
1028
1022
1024
1025
1028
1027
1025
1022
1024
1026
1027
1025
1024
1022
1023
1025
1025
1025
1023
1020
1022
1025
1027
1023
1024
1021
1023
1024
1029
1025
1026
1023
1024
1027
1030
1029
1028
1028
1033
1041
1049
1053
1060
1068
1077
1086
1103
1122
1142
1167
1197
1226
1256
1280
1307
1343
1385
1418
1434
1426
1385
1325
1246
1171
1112
1063
1033
1014
1014
1020
1023
1022
1022
1018
1016
1017
1016
1011
1006
1002
1002
1007
1007
1007
1006
1003
1003
1007
1006
1005
1002
999
1000
1006
1005
1003
997
997
998
1000
1003
1002
1003
1000
1000
1001
1002
999
999
995
999
1000
1003
1000
999
998
998
1001
1003
1001
998
995
998
1001
1005
1003
1002
999
1001
1004
1004
1004
1003
1001
1003
1008
1009
1011
1006
1005
1005
1012
1014
1016
1014
1014
1017
1018
1023
1025
1024
1026
1031
1033
1036
1040
1039
1041
1045
1052
1055
1058
1056
1057
1063
1066
1072
1073
1072
1073
1075
1076
1080
1078
1072
1070
1069
1070
1070
1063
1061
1052
1052
1051
1051
1048
1041
1038
1037
1039
1041
1039
1035
1031
1032
1034
1036
1034
1030
1027
1028
1030
1034
1032
1027
1025
1026
1028
1034
1031
1025
1023
1027
1028
1029
1024
1023
1021
1023
1024
1027
1027
1022
1019
1018
1020
1022
1022
1020
1019
1018
1022
1023
1023
1019
1015
1013
1020
1024
1023
1020
1016
1016
1019
1023
1023
1019
1018
1019
1021
1021
1021
1018
1020
1020
1023
1023
1021
1021
1018
1018
1022
1024
1022
1019
1015
1018
1022
1023
1022
1019
1018
1018
1022
1021
1019
1016
1013
1016
1017
1018
1020
1016
1013
1013
1015
1018
1017
1014
1011
1015
1015
1018
1016
1013
1010
1012
1015
1018
1013
1012
1010
1013
1017
1016
1015
1011
1010
1008
1012
1014
1013
1013
1009
1012
1012
1015
1014
1013
1009
1010
1009
1011
1010
1010
1010
1012
1015
1016
1013
1012
1009
1007
1012
1016
1012
1008
1009
1010
1011
1011
1012
1006
1006
1007
1011
1013
1008
1008
1003
1004
1009
1010
1011
1010
1007
1008
1010
1011
1012
1005
1005
1008
1011
1014
1011
1011
1008
1010
1010
1013
1013
1011
1011
1012
1017
1020
1019
1017
1018
1019
1022
1023
1019
1022
1020
1020
1024
1023
1018
1015
1016
1016
1015
1018
1020
1015
1017
1019
1023
1026
1022
1022
1016
1017
1017
1018
1014
1009
1008
1012
1016
1018
1013
1010
1010
1012
1015
1015
1014
1011
1008
1011
1013
1014
1012
1010
1012
1012
1014
1015
1014
1012
1012
1014
1018
1019
1019
1018
1019
1024
1025
1032
1038
1044
1055
1068
1081
1092
1112
1137
1168
1200
1231
1259
1287
1316
1349
1393
1424
1433
1406
1337
1251
1161
1095
1051
1023
1011
1012
1015
1017
1016
1013
1008
1004
1002
999
999
995
992
994
991
993
995
993
991
991
990
991
992
990
988
989
989
991
993
990
985
982
986
985
989
986
983
982
981
986
986
986
984
982
983
985
985
986
980
983
983
986
989
986
982
981
984
987
989
990
986
984
987
990
994
992
992
990
992
994
997
997
999
999
1001
1004
1009
1008
1010
1011
1014
1018
1023
1024
1023
1025
1030
1036
1039
1041
1042
1045
1047
1053
1056
1056
1054
1055
1055
1057
1060
1059
1055
1051
1050
1052
1053
1047
1045
1038
1038
1036
1038
1038
1031
1028
1028
1030
1028
1026
1024
1020
1022
1024
1025
1023
1021
1020
1021
1024
1022
1023
1022
1020
1020
1022
1025
1021
1020
1019
1019
1024
1024
1023
1019
1016
1017
1021
1021
1018
1016
1014
1016
1019
1020
1018
1016
1015
1018
1020
1022
1020
1014
1015
1015
1020
1024
1020
1018
1016
1015
1018
1021
1019
1018
1016
1018
1018
1023
1019
1017
1017
1020
1019
1020
1022
1018
1014
1017
1020
1021
1020
1017
1016
1018
1019
1021
1019
1016
1015
1016
1020
1021
1021
1016
1013
1016
1016
1020
1017
1015
1013
1014
1017
1019
1016
1013
1013
1016
1018
1021
1022
1016
1015
1015
1018
1020
1018
1014
1013
1014
1018
1020
1015
1012
1013
1014
1018
1019
1018
1016
1014
1014
1017
1018
1017
1018
1017
1017
1020
1018
1015
1012
1014
1017
1019
1020
1020
1016
1014
1011
1015
1017
1019
1014
1014
1015
1021
1022
1020
1016
1016
1016
1022
1020
1021
1018
1018
1022
1021
1019
1016
1013
1015
1020
1022
1023
1021
1019
1017
1018
1022
1026
1026
1026
1026
1027
1028
1031
1028
1026
1026
1030
1033
1034
1031
1029
1027
1028
1030
1027
1023
1022
1021
1023
1025
1028
1027
1026
1024
1026
1029
1032
1034
1031
1029
1027
1025
1023
1017
1014
1015
1018
1021
1020
1018
1017
1017
1021
1022
1022
1022
1017
1014
1019
1021
1023
1023
1019
1021
1023
1025
1025
1022
1018
1017
1018
1018
1018
1021
1021
1021
1024
1027
1031
1033
1037
1047
1058
1074
1083
1095
1112
1136
1170
1203
1234
1254
1279
1310
1348
1391
1424
1435
1419
1373
1302
1217
1143
1080
1036
1013
1008
1013
1016
1017
1014
1013
1010
1014
1013
1005
1001
998
1000
1001
1002
1001
997
995
996
998
1000
998
997
996
998
1001
1001
998
996
993
991
991
995
995
991
991
992
994
995
994
992
990
990
992
990
992
989
988
990
994
994
995
993
992
991
993
996
996
993
992
993
997
998
996
996
996
998
1001
1005
1003
1001
998
1001
1005
1009
1009
1007
1007
1009
1016
1018
1018
1015
1018
1023
1028
1030
1029
1029
1037
1042
1045
1050
1051
1052
1053
1058
1066
1067
1068
1062
1061
1062
1065
1065
1064
1058
1054
1051
1052
1054
1047
1039
1037
1034
1034
1038
1035
1031
1024
1023
1023
1024
1025
1020
1019
1020
1021
1023
1023
1019
1015
1015
1014
1019
1019
1014
1013
1013
1015
1015
1013
1007
1005
1010
1013
1012
1011
1009
1008
1007
1009
1010
1003
1001
1003
1005
1009
1010
1008
1003
1004
1008
1012
1012
1007
1006
1005
1007
1009
1010
1008
1007
1008
1011
1014
1014
1017
1011
1009
1011
1012
1016
1016
1015
1014
1018
1023
1025
1021
1020
1018
1016
1018
1019
1018
1015
1014
1015
1014
1016
1016
1016
1017
1018
1021
1023
1018
1016
1011
1009
1016
1018
1020
1017
1015
1018
1020
1024
1021
1015
1016
1018
1022
1023
1026
1020
1018
1017
1022
1019
1018
1014
1014
1018
1020
1022
1017
1013
1012
1013
1016
1018
1017
1014
1012
1013
1016
1017
1017
1013
1013
1015
1018
1018
1015
1011
1007
1006
1006
1008
1007
1004
1008
1009
1012
1013
1010
1009
1012
1011
1011
1015
1013
1012
1011
1011
1016
1016
1011
1006
1002
1006
1010
1015
1019
1018
1017
1019
1021
1020
1018
1021
1023
1029
1032
1034
1032
1030
1030
1032
1035
1033
1032
1030
1027
1029
1034
1032
1033
1031
1034
1035
1037
1035
1031
1031
1031
1029
1029
1033
1030
1021
1020
1022
1027
1030
1029
1026
1024
1021
1022
1024
1023
1021
1021
1023
1026
1027
1024
1023
1023
1024
1028
1027
1026
1022
1022
1025
1029
1031
1030
1028
1036
1045
1055
1064
1070
1077
1085
1097
1122
1152
1178
1208
1233
1261
1288
1319
1356
1391
1411
1407
1374
1304
1211
1122
1069
1041
1030
1027
1023
1018
1017
1019
1020
1019
1014
1012
1007
1010
1010
1011
1006
1002
1001
1003
1008
1006
1003
1004
1001
1001
1004
1006
1005
1003
1000
999
1003
1004
1000
998
999
1000
1005
1005
1004
1000
999
1001
1003
1006
1006
1002
1000
1001
1003
1005
1002
995
995
997
1003
1006
1003
1003
1000
1001
1006
1009
1010
1009
1010
1006
1008
1009
1010
1010
1011
1013
1012
1011
1010
1008
1011
1018
1019
1023
1022
1023
1024
1032
1036
1041
1043
1040
1044
1046
1052
1053
1059
1059
1063
1068
1075
1080
1079
1073
1070
1073
1077
1079
1077
1075
1072
1071
1071
1067
1064
1055
1051
1049
1052
1052
1047
1044
1037
1037
1035
1036
1033
1030
1028
1030
1032
1030
1028
1025
1021
1022
1024
1025
1023
1021
1021
1026
1026
1023
1019
1017
1016
1019
1022
1024
1023
1022
1023
1022
1023
1021
1022
1018
1019
1020
1027
1025
1022
1020
1017
1021
1020
1023
1021
1015
1016
1015
1019
1022
1023
1019
1017
1021
1023
1028
1024
1022
1024
1025
1026
1025
1024
1021
1021
1023
1027
1027
1028
1023
1021
1024
1025
1026
1028
1023
1022
1025
1030
1030
1028
1024
1021
1023
1026
1031
1029
1024
1023
1026
1027
1028
1027
1024
1023
1021
1025
1024
1021
1020
1020
1022
1025
1028
1025
1025
1023
1026
1026
1026
1023
1020
1023
1023
1025
1024
1020
1018
1020
1022
1025
1025
1024
1021
1020
1022
1025
1027
1023
1020
1019
1020
1024
1023
1023
1023
1022
1025
1028
1029
1030
1026
1023
1022
1023
1023
1023
1021
1022
1025
1029
1028
1030
1026
1024
1023
1026
1027
1026
1024
1025
1029
1033
1030
1026
1022
1024
1026
1031
1028
1027
1031
1031
1034
1037
1038
1034
1036
1035
1036
1039
1038
1036
1031
1030
1031
1032
1033
1032
1030
1031
1033
1036
1037
1035
1030
1025
1025
1029
1028
1027
1029
1028
1028
1030
1030
1027
1024
1022
1025
1027
1029
1030
1027
1030
1029
1030
1031
1029
1027
1026
1027
1031
1034
1030
1026
1029
1032
1036
1039
1041
1045
1050
1062
1076
1090
1094
1109
1127
1156
1187
1217
1246
1272
1300
1338
1384
1418
1425
1408
1353
1272
1184
1112
1062
1032
1018
1018
1022
1025
1022
1017
1015
1016
1013
1012
1009
1007
1001
1006
1004
1009
1005
1003
1000
1002
1004
1005
1003
1003
999
1001
1006
1005
1001
998
997
1000
1004
1004
1000
998
1000
999
1003
1004
1001
997
996
996
1000
1001
1000
999
1000
1000
1005
1004
1002
1002
998
1002
1004
1005
1003
1002
1005
1007
1008
1008
1008
1007
1006
1007
1009
1011
1011
1006
1009
1012
1018
1019
1020
1016
1017
1019
1022
1023
1024
1025
1029
1031
1036
1037
1039
1039
1039
1042
1051
1052
1056
1053
1055
1058
1063
1067
1069
1069
1070
1074
1080
1081
1079
1078
1080
1080
1082
1081
1079
1076
1074
1072
1074
1070
1063
1060
1055
1055
1056
1054
1050
1044
1042
1042
1043
1044
1042
1036
1034
1037
1040
1038
1039
1035
1035
1036
1040
1041
1040
1038
1034
1036
1038
1036
1036
1034
1033
1033
1035
1035
1032
1030
1032
1033
1034
1035
1033
1030
1030
1030
1032
1036
1030
1027
1026
1029
1033
1030
1031
1027
1027
1030
1033
1035
1030
1028
1030
1035
1036
1036
1035
1032
1033
1033
1037
1038
1036
1035
1032
1031
1033
1036
1034
1036
1031
1034
1038
1036
1033
1032
1032
1033
1036
1034
1034
1032
1031
1031
1034
1035
1036
1031
1033
1032
1034
1033
1033
1027
1027
1029
1033
1033
1032
1031
1028
1030
1031
1031
1029
1028
1027
1027
1030
1031
1029
1027
1027
1028
1031
1033
1029
1027
1030
1029
1034
1033
1032
1028
1027
1028
1033
1033
1031
1029
1029
1029
1033
1033
1030
1027
1027
1028
1031
1033
1031
1027
1029
1029
1031
1030
1031
1027
1028
1030
1032
1034
1033
1029
1028
1030
1035
1037
1035
1032
1030
1031
1036
1034
1035
1033
1032
1035
1037
1037
1036
1031
1031
1032
1037
1040
1036
1034
1035
1040
1042
1046
1046
1046
1042
1045
1048
1050
1048
1045
1044
1047
1048
1047
1042
1040
1038
1041
1043
1045
1040
1039
1041
1044
1046
1047
1044
1040
1042
1043
1047
1046
1041
1035
1036
1037
1040
1041
1040
1036
1035
1037
1039
1039
1037
1035
1035
1038
1041
1041
1038
1037
1036
1038
1041
1041
1038
1038
1037
1040
1041
1042
1042
1041
1039
1041
1045
1048
1048
1047
1050
1057
1067
1074
1084
1090
1099
1111
1130
1151
1173
1195
1221
1248
1273
1299
1326
1357
1393
1419
1426
1403
1346
1265
1179
1115
1077
1054
1041
1036
1035
1039
1043
1044
1041
1039
1038
1032
1033
1031
1027
1023
1025
1028
1030
1027
1027
1023
1019
1022
1025
1025
1025
1022
1021
1023
1026
1022
1020
1019
1017
1020
1025
1023
1021
1016
1017
1018
1020
1023
1022
1021
1019
1018
1021
1020
1019
1020
1022
1023
1027
1024
1020
1017
1018
1019
1021
1023
1021
1017
1017
1017
1018
1018
1022
1025
1027
1029
1031
1032
1029
1027
1027
1029
1030
1034
1034
1034
1034
1037
1043
1047
1046
1047
1047
1052
1055
1057
1058
1057
1061
1069
1074
1079
1078
1076
1080
1085
1092
1092
1092
1089
1090
1094
1094
1091
1090
1085
1084
1084
1085
1082
1079
1074
1071
1068
1068
1065
1061
1054
1052
1050
1054
1053
1052
1047
1043
1045
1049
1047
1048
1043
1044
1047
1049
1049
1048
1044
1044
1046
1051
1048
1046
1045
1041
1042
1046
1045
1043
1041
1040
1042
1045
1041
1040
1036
1036
1040
1039
1040
1037
1035
1032
1031
1034
1036
1035
1031
1032
1032
1039
1038
1035
1033
1031
1036
1037
1037
1035
1032
1035
1036
1037
1037
1036
1034
1032
1036
1035
1034
1031
1029
1030
1032
1034
1038
1034
1034
1032
1034
1037
1036
1035
1029
1028
1030
1032
1030
1033
1025
1028
1031
1031
1032
1030
1026
1028
1028
1031
1032
1029
1025
1025
1028
1029
1028
1027
1025
1026
1026
1029
1030
1029
1025
1025
1027
1026
1028
1028
1025
1025
1026
1028
1029
1027
1026
1026
1026
1031
1030
1028
1025
1026
1030
1032
1033
1030
1029
1026
1029
1032
1030
1030
1028
1027
1030
1031
1033
1031
1031
1027
1030
1034
1033
1029
1030
1028
1029
1031
1032
1030
1027
1030
1031
1037
1035
1034
1029
1029
1033
1036
1035
1035
1030
1028
1033
1035
1033
1033
1030
1031
1031
1035
1037
1037
1037
1036
1039
1040
1040
1039
1034
1035
1040
1041
1042
1041
1037
1037
1038
1038
1036
1031
1031
1031
1036
1039
1040
1038
1036
1036
1036
1041
1041
1037
1035
1030
1032
1033
1031
1031
1028
1029
1034
1036
1037
1036
1035
1039
1052
1068
1087
1108
1131
1158
1179
1182
1173
1151
1120
1071
1009
936
845
748
679
650
637
629
621
624
636
659
695
733
766
796
818
841
860
878
893
909
927
944
959
973
980
990
999
1008
1019
1031
1039
1043
1045
1045
1052
1056
1059
1057
1058
1060
1060
1064
1066
1066
1065
1066
1068
1072
1074
1070
1071
1070
1073
1078
1079
1080
1080
1083
1088
1091
1095
1094
1094
1095
1098
1103
1105
1104
1103
1103
1107
1111
1115
1117
1117
1120
1122
1130
1132
1135
1136
1141
1146
1151
1153
1159
1159
1165
1174
1181
1184
1188
1191
1194
1200
1210
1213
1217
1219
1223
1226
1233
1234
1231
1233
1238
1240
1241
1240
1237
1234
1231
1230
1228
1222
1218
1212
1205
1201
1197
1190
1178
1170
1164
1158
1156
1145
1138
1124
1116
1113
1110
1103
1096
1088
1083
1080
1077
1075
1067
1061
1058
1058
1054
1055
1050
1046
1041
1043
1042
1041
1038
1036
1035
1036
1036
1036
1032
1030
1031
1033
1038
1032
1033
1031
1030
1031
1033
1033
1027
1026
1026
1029
1033
1032
1031
1027
1028
1030
1033
1031
1030
1026
1025
1028
1033
1031
1029
1026
1023
1025
1028
1027
1027
1026
1026
1029
1031
1027
1025
1023
1022
1024
1027
1028
1025
1023
1020
1024
1025
1023
1020
1014
1012
1015
1014
1017
1012
1010
1011
1012
1014
1015
1012
1010
1007
1011
1011
1012
1008
1006
1008
1010
1009
1010
1007
1005
1008
1010
1014
1011
1012
1005
1003
1008
1012
1013
1010
1006
1005
1005
1011
1009
1006
1005
1006
1006
1012
1008
1007
1004
1004
1009
1010
1011
1009
1005
1004
1008
1010
1011
1009
1005
1004
1008
1009
1009
1008
1004
1007
1008
