1058
1051
1047
1045
1045
1046
1045
1039
1036
1037
1037
1040
1035
1034
1030
1031
1033
1036
1034
1032
1031
1031
1035
1036
1035
1032
1026
1029
1032
1034
1032
1028
1026
1027
1026
1032
1028
1024
1021
1021
1021
1022
1022
1021
1017
1017
1018
1020
1017
1015
1014
1012
1014
1017
1013
1007
1010
1011
1013
1014
1010
1009
1006
1005
1008
1010
1008
1007
1005
1005
1007
1008
1007
1002
1002
1003
1006
1009
1006
1003
1003
1000
1005
1007
1006
1003
1001
1003
1003
1007
1005
1006
1001
1002
1004
1006
1006
1006
1002
1003
1004
1009
1005
1003
1002
1005
1006
1007
1006
1005
1004
1004
1006
1008
1009
1006
1003
1005
1007
1009
1006
1005
1004
1005
1008
1008
1008
1004
1005
1009
1008
1012
1010
1006
1003
1005
1008
1008
1006
1004
1006
1007
1007
1010
1009
1007
1003
1006
1009
1013
1012
1008
1004
1008
1008
1010
1010
1008
1006
1006
1009
1010
1009
1008
1006
1009
1009
1011
1009
1008
1006
1004
1009
1014
1013
1011
1008
1009
1008
1013
1013
1009
1008
1009
1012
1014
1013
1008
1009
1010
1012
1015
1012
1011
1008
1008
1011
1015
1013
1013
1009
1009
1011
1015
1013
1009
1011
1010
1014
1018
1015
1013
1014
1013
1015
1019
1017
1015
1014
1017
1016
1020
1019
1018
1015
1017
1018
1019
1019
1015
1014
1015
1019
1026
1023
1023
1022
1024
1028
1030
1031
1029
1027
1029
1031
1033
1031
1028
1024
1026
1029
1029
1027
1026
1025
1026
1028
1031
1030
1029
1028
1029
1030
1030
1026
1021
1021
1021
1023
1027
1027
1024
1022
1021
1024
1027
1025
1022
1021
1022
1023
1025
1025
1021
1023
1022
1026
1031
1030
1029
1033
1040
1054
1070
1083
1094
1112
1146
1189
1235
1275
1313
1355
1407
1456
1465
1424
1327
1213
1120
1069
1047
1040
1039
1036
1035
1034
1033
1032
1025
1020
1015
1015
1013
1013
1012
1009
1008
1010
1013
1008
1004
1002
1002
1006
1008
1007
1003
1000
1001
1003
1006
1003
999
999
1001
1001
1002
1001
999
998
998
1000
1001
1001
997
993
993
996
1000
1001
997
994
997
996
999
1000
997
996
997
1001
1002
999
996
995
998
1001
1004
1005
1000
1000
1002
1003
1007
1005
1004
1003
1004
1007
1009
1011
1006
1008
1011
1013
1019
1018
1021
1020
1025
1029
1033
1035
1034
1037
1042
1047
1052
1053
1052
1055
1062
1066
1070
1073
1071
1074
1078
1080
1083
1084
1081
1078
1081
1083
1083
1078
1074
1073
1073
1072
1074
1071
1066
1060
1060
1059
1058
1058
1054
1051
1050
1051
1049
1047
1042
1041
1042
1046
1048
1046
1043
1043
1044
1043
1046
1046
1042
1042
1038
1042
1045
1041
1041
1039
1038
1043
1044
1041
1039
1038
1037
1037
1037
1036
1035
1030
1032
1036
1037
1035
1032
1031
1029
1035
1035
1035
1030
1031
1031
1032
1034
1029
1029
1027
1030
1034
1037
1033
1029
1030
1032
1032
1037
1033
1032
1029
1028
1032
1038
1036
1032
1032
1033
1034
1037
1036
1035
1032
1032
1034
1035
1037
1035
1033
1033
1035
1036
1033
1032
1031
1034
1035
1032
1034
1032
1027
1032
1032
1034
1033
1031
1028
1030
1031
1032
1031
1028
1028
1030
1030
1032
1030
1027
1023
1025
1029
1030
1030
1026
1026
1028
1028
1029
1029
1024
1023
1028
1029
1030
1028
1024
1023
1027
1029
1031
1031
1028
1023
1026
1029
1028
1030
1027
1024
1027
1029
1030
1029
1027
1025
1025
1031
1031
1031
1027
1025
1028
1029
1032
1032
1030
1027
1029
1031
1032
1030
1029
1027
1030
1031
1034
1035
1029
1026
1029
1034
1038
1035
1034
1034
1035
1039
1039
1042
1041
1037
1039
1042
1044
1041
1039
1038
1036
1037
1039
1038
1036
1034
1033
1039
1041
1043
1042
1038
1041
1039
1040
1038
1031
1030
1030
1033
1031
1033
1028
1025
1029
1033
1034
1031
1031
1028
1029
1031
1032
1032
1032
1029
1028
1032
1035
1031
1029
1029
1030
1033
1036
1035
1032
1030
1035
1035
1039
1039
1038
1040
1047
1055
1063
1071
1081
1088
1098
1115
1138
1161
1190
1221
1251
1285
1315
1344
1380
1417
1452
1472
1466
1429
1358
1273
1193
1133
1090
1057
1036
1029
1031
1035
1037
1034
1031
1024
1023
1023
1020
1017
1012
1008
1009
1011
1013
1011
1008
1005
1006
1008
1009
1010
1005
1003
1004
1007
1005
1005
999
1001
1004
1003
1007
1003
1000
1001
1001
1003
1004
1001
999
997
999
999
1001
1000
996
999
996
1001
1005
1003
999
994
997
1000
1004
1003
998
999
1000
1001
1002
1000
1000
997
1000
1005
1006
1007
1001
1001
1004
1009
1010
1009
1007
1007
1011
1013
1015
1016
1015
1015
1019
1023
1027
1029
1028
1029
1034
1041
1044
1047
1048
1050
1053
1060
1064
1067
1068
1071
1074
1079
1085
1087
1083
1084
1085
1087
1091
1087
1086
1080
1082
1080
1081
1077
1071
1069
1066
1068
1067
1064
1056
1053
1055
1054
1057
1053
1049
1048
1048
1048
1049
1049
1046
1043
1046
1048
1050
1047
1045
1044
1045
1048
1050
1046
1045
1041
1041
1045
1044
1045
1043
1040
1041
1040
1045
1040
1038
1035
1037
1040
1042
1040
1038
1038
1037
1039
1041
1039
1037
1033
1035
1039
1040
1040
1036
1036
1036
1042
1041
1044
1039
1040
1040
1045
1044
1044
1041
1041
1042
1042
1046
1045
1041
1040
1043
1043
1045
1043
1041
1041
1043
1043
1044
1045
1039
1038
1042
1044
1047
1044
1041
1039
1042
1041
1043
1042
1038
1038
1038
1041
1043
1040
1038
1038
1041
1041
1043
1041
1039
1037
1038
1039
1043
1040
1037
1036
1035
1039
1038
1038
1038
1036
1035
1038
1040
1038
1037
1035
1036
1039
1042
1041
1039
1037
1038
1039
1044
1041
1039
1039
1041
1041
1045
1041
1037
1037
1037
1042
1043
1042
1038
1037
1041
1042
1044
1045
1042
1040
1041
1044
1044
1042
1040
1038
1041
1046
1046
1046
1040
1042
1046
1050
1051
1051
1049
1051
1052
1055
1056
1056
1054
1054
1054
1055
1057
1056
1054
1053
1051
1052
1055
1055
1050
1050
1051
1055
1059
1058
1056
1053
1056
1058
1060
1057
1055
1052
1051
1052
1049
1051
1047
1046
1046
1050
1050
1049
1046
1044
1048
1049
1050
1048
1048
1045
1047
1049
1050
1048
1045
1042
1044
1049
1051
1051
1048
1046
1047
1049
1050
1050
1050
1051
1055
1060
1066
1072
1080
1088
1103
1115
1129
1146
1167
1193
1225
1257
1286
1310
1333
1359
1394
1431
1461
1467
1452
1405
1333
1244
1169
1110
1076
1055
1045
1049
1049
1049
1043
1041
1042
1044
1039
1034
1028
1026
1025
1029
1028
1026
1023
1022
1022
1023
1025
1022
1022
1019
1020
1023
1024
1020
1019
1016
1019
1022
1024
1022
1018
1017
1017
1019
1020
1019
1014
1012
1012
1013
1014
1013
1016
1011
1016
1016
1017
1015
1009
1008
1012
1015
1018
1014
1012
1010
1014
1016
1021
1018
1015
1014
1013
1018
1018
1016
1013
1014
1017
1017
1017
1018
1018
1017
1017
1022
1024
1025
1026
1024
1027
1030
1036
1035
1036
1035
1040
1046
1050
1050
1052
1056
1062
1067
1072
1075
1075
1076
1082
1081
1087
1086
1087
1089
1090
1092
1092
1090
1085
1081
1079
1082
1078
1077
1070
1068
1068
1066
1064
1059
1055
1052
1053
1057
1055
1052
1047
1047
1049
1049
1047
1047
1046
1044
1044
1045
1045
1047
1045
1043
1042
1045
1046
1044
1042
1039
1040
1040
1041
1038
1038
1036
1036
1039
1043
1037
1036
1035
1034
1035
1036
1032
1027
1027
1030
1032
1033
1029
1024
1025
1025
1028
1030
1027
1027
1028
1025
1031
1030
1029
1026
1026
1028
1031
1034
1030
1029
1025
1026
1031
1030
1028
1029
1027
1032
1033
1033
1032
1028
1028
1029
1034
1034
1035
1034
1031
1032
1034
1035
1031
1030
1030
1031
1034
1033
1033
1029
1030
1031
1035
1035
1030
1027
1028
1028
1029
1033
1030
1028
1027
1026
1028
1033
1030
1028
1027
1029
1030
1031
1030
1027
1026
1025
1028
1030
1030
1028
1026
1026
1028
1029
1027
1028
1025
1027
1028
1030
1027
1025
1024
1025
1027
1030
1028
1025
1025
1025
1029
1030
1027
1025
1024
1026
1031
1035
1030
1026
1027
1028
1032
1035
1031
1029
1029
1029
1032
1032
1031
1031
1029
1029
1036
1036
1035
1035
1037
1037
1041
1042
1039
1039
1037
1041
1046
1047
1045
1044
1039
1039
1041
1042
1038
1036
1037
1039
1044
1042
1043
1039
1040
1043
1044
1045
1042
1039
1033
1032
1037
1038
1037
1033
1032
1035
1035
1039
1036
1033
1033
1034
1037
1037
1038
1035
1033
1038
1039
1039
1037
1035
1035
1039
1040
1041
1043
1040
1046
1050
1060
1069
1079
1087
1093
1106
1122
1144
1171
1198
1224
1251
1282
1311
1341
1376
1416
1454
1474
1461
1408
1323
1232
1156
1103
1067
1043
1035
1037
1040
1042
1043
1037
1032
1027
1026
1026
1026
1022
1018
1017
1017
1020
1024
1020
1019
1017
1018
1020
1020
1017
1015
1015
1017
1018
1018
1017
1013
1012
1012
1014
1015
1015
1011
1008
1007
1012
1014
1011
1009
1010
1009
1011
1012
1010
1010
1009
1012
1013
1012
1008
1008
1008
1012
1016
1015
1016
1013
1011
1011
1017
1018
1017
1016
1016
1017
1021
1025
1023
1023
1020
1024
1028
1033
1029
1032
1031
1034
1042
1044
1045
1047
1046
1054
1059
1062
1064
1064
1066
1071
1076
1083
1085
1087
1086
1092
1096
1100
1102
1099
1101
1100
1101
1097
1096
1090
1086
1087
1088
1087
1081
1076
1071
1070
1071
1072
1067
1060
1057
1056
1060
1060
1058
1053
1055
1056
1058
1056
1055
1052
1050
1051
1056
1057
1053
1051
1046
1050
1051
1051
1051
1048
1047
1048
1048
1052
1049
1047
1043
1042
1048
1047
1046
1042
1044
1044
1047
1045
1045
1042
1043
1043
1046
1045
1043
1037
1039
1042
1046
1045
1042
1042
1040
1043
1045
1044
1042
1041
1043
1045
1050
1049
1046
1042
1043
1046
1049
1049
1047
1045
1046
1045
1048
1050
1050
1049
1049
1050
1055
1061
1066
1074
1088
1112
1140
1168
1182
1176
1160
1132
1090
1021
935
839
736
650
614
608
603
588
591
608
638
680
719
752
784
815
843
863
876
887
908
925
944
953
960
967
976
990
1007
1018
1030
1038
1045
1058
1068
1073
1077
1079
1081
1085
1091
1095
1096
1098
1098
1100
1105
1103
1103
1101
1107
1112
1117
1120
1120
1121
1123
1128
1132
1137
1135
1136
1137
1141
1146
1152
1154
1153
1156
1162
1169
1172
1177
1182
1184
1193
1202
1209
1217
1219
1225
1234
1243
1249
1252
1260
1265
1272
1281
1285
1288
1291
1293
1300
1303
1307
1303
1300
1296
1297
1294
1291
1283
1278
1269
1265
1264
1252
1243
1235
1225
1219
1211
1204
1194
1185
1177
1169
1165
1157
1146
1137
1129
1124
1122
1117
1110
1104
1097
1094
1089
1085
1084
1078
1075
1075
1074
1072
1070
1067
1065
1066
1065
1065
1061
1056
1057
1057
1059
1060
1059
1053
1052
1053
1059
1055
1051
1052
1051
1050
1051
1050
1046
1043
1043
1048
1049
1051
1047
1041
1039
1044
1044
1046
1043
1040
1040
1040
1041
1039
1038
1033
1034
1038
1039
1037
1033
1030
1030
1031
1032
1033
1032
1029
1030
1031
1032
1033
1029
1028
1026
1031
1032
1031
1026
1024
1024
1028
1033
1031
1029
1025
1024
1022
1025
1027
1024
1021
1021
1025
1026
1024
1026
1022
1020
1024
1027
1028
1026
1022
1018
1020
1024
1026
1025
1021
1018
1020
1024
1022
1022
1020
1017
1018
1016
1016
1014
1016
1016
1020
1023
1024
1019
1015
1016
1018
1018
1020
1018
1017
1016
1020
1020
1022
1019
1017
1018
1017
1018
1019
1019
1016
1017
1017
1019
1019
1019
1016
1016
1017
1023
1022
1018
1017
1014
1019
1021
1022
1017
1018
1018
1020
1021
1019
1017
1015
1015
1016
1020
1021
1021
1020
1019
1019
1021
1022
1019
1015
1015
1020
1018
1017
1015
1010
1014
1019
1022
1021
1019
1018
1016
1019
1024
1021
1018
1015
1015
1014
1017
1018
1017
1015
1012
1014
1018
1016
1017
1016
1015
1016
1014
1016
1016
1014
1014
1018
1022
1022
1018
1016
1013
1016
1020
1021
1021
1018
1019
1021
1023
1023
1019
1018
1017
1019
1022
1021
1020
1018
1018
1023
1024
1025
1021
1019
1016
1020
1025
1025
1024
1018
1017
1023
1024
1027
1022
1017
1017
1020
1024
1025
1019
1018
1019
1021
1027
1024
1018
1016
1015
1019
1027
1025
1022
1019
1019
1021
1027
1025
1023
1026
1022
1024
1025
1026
1024
1021
1020
1021
1026
1027
1024
1021
1021
1023
1024
1025
1027
1026
1023
1026
1025
1027
1026
1023
1027
1028
1030
1031
1031
1025
1022
1024
1028
1032
1029
1029
1029
1032
1034
1036
1038
1035
1036
1035
1040
1038
1035
1031
1030
1029
1033
1033
1030
1027
1027
1027
1030
1032
1034
1033
1034
1033
1037
1035
1034
1030
1028
1031
1032
1032
1027
1025
1022
1024
1030
1028
1029
1027
1024
1026
1030
1027
1029
1028
1027
1030
1031
1029
1027
1026
1028
1027
1030
1028
1026
1025
1026
1027
1027
1030
1039
1047
1060
1074
1080
1084
1097
1117
1147
1181
1220
1257
1289
1325
1372
1420
1456
1460
1422
1342
1245
1155
1091
1055
1038
1033
1033
1034
1031
1030
1024
1018
1011
1011
1009
1009
1012
1005
1003
1001
1007
1010
1007
1000
994
997
999
999
997
995
995
1000
999
1000
998
993
997
996
999
998
996
994
995
996
1000
997
998
991
994
1000
999
997
995
996
999
1001
999
998
995
996
999
1000
1000
998
997
997
997
1002
1002
1002
1003
1005
1005
1007
1008
1007
1009
1010
1017
1021
1019
1021
1024
1021
1020
1022
1028
1028
1029
1032
1034
1039
1044
1051
1049
1048
1049
1056
1064
1069
1075
1073
1072
1078
1082
1085
1084
1083
1086
1084
1084
1083
1083
1082
1077
1077
1078
1075
1074
1069
1068
1068
1066
1062
1057
1056
1058
1060
1061
1057
1050
1049
1047
1052
1054
1052
1047
1046
1046
1049
1048
1050
1047
1045
1042
1041
1043
1044
1045
1043
1039
1042
1043
1042
1042
1040
1041
1044
1046
1044
1039
1038
1044
1050
1058
1067
1085
1107
1131
1145
1136
1100
1037
932
810
688
606
584
582
604
636
681
724
764
801
829
852
870
891
908
924
938
946
956
971
987
1001
1006
1017
1035
1051
1064
1069
1065
1065
1072
1076
1076
1082
1080
1084
1084
1089
1092
1091
1088
1090
1100
1106
1107
1103
1101
1104
1108
1112
1116
1114
1109
1110
1114
1122
1128
1129
1125
1127
1135
1140
1140
1143
1144
1150
1154
1158
1160
1161
1165
1170
1177
1185
1186
1195
1198
1203
1210
1217
1225
1228
1230
1228
1232
1240
1245
1245
1243
1245
1246
1249
1246
1242
1239
1234
1234
1230
1224
1222
1212
1204
1192
1189
1184
1177
1169
1160
1156
1152
1145
1136
1121
1116
1117
1114
1111
1104
1098
1092
1086
1088
1085
1081
1076
1073
1072
1071
1070
1066
1066
1063
1066
1063
1063
1063
1057
1055
1052
1053
1056
1059
1059
1056
1054
1054
1058
1059
1057
1052
1052
1056
1056
1050
1046
1048
1052
1053
1053
1052
1050
1047
1044
1040
1043
1045
1043
1038
1044
1048
1047
1041
1035
1036
1039
1045
1042
1039
1037
1041
1043
1039
1034
1032
1030
1032
1034
1036
1040
1037
1031
1031
1035
1042
1040
1039
1029
1027
1028
1033
1036
1034
1032
1033
1032
1032
1033
1032
1029
1030
1028
1032
1032
1031
1027
1029
1029
1034
1033
1030
1029
1027
1026
1027
1032
1033
1033
1027
1027
1028
1032
1033
1032
1030
1025
1025
1025
1027
1027
1028
1029
1029
1027
1024
1022
1026
1028
1033
1031
1027
1023
1023
1025
1032
1033
1034
1026
1024
1031
1035
1033
1030
1025
1027
1027
1031
1031
1030
1027
1028
1027
1028
1026
1023
1019
1022
1025
1028
1024
1025
1023
1023
1028
1032
1030
1027
1026
1025
1027
1033
1032
1027
1025
1024
1031
1030
1028
1022
1018
1018
1024
1032
1030
1029
1025
1026
1029
1031
1031
1026
1025
1027
1029
1028
1024
1021
1019
1022
1027
1029
1027
1025
1022
1020
1020
1029
1030
1029
1023
1026
1024
1026
1022
1021
1019
1026
1030
1034
1032
1024
1019
1011
1019
1027
1032
1030
1024
1021
1022
1026
1028
1027
1024
1021
1022
1024
1021
1022
1022
1025
1023
1025
1026
1027
1022
1023
1021
1021
1021
1018
1017
1024
1028
1028
1026
1020
1020
1019
1021
1027
1025
1024
1022
1024
1022
1023
1024
1028
1025
1020
1017
1020
1022
1022
1021
1022
1026
1027
1021
1016
1014
1017
1021
1025
1026
1023
1021
1018
1019
1022
1024
1019
1012
1016
1017
1022
1023
1021
1018
1018
1020
1027
1025
1022
1015
1012
1017
1023
1027
1024
1024
1025
1024
1023
1021
1018
1012
1015
1018
1021
1020
1022
1020
1021
1022
1023
1022
1021
1023
1023
1021
1024
1021
1020
1017
1016
1018
1021
1023
1020
1018
1017
1021
1026
1027
1021
1018
1016
1021
1025
1025
1024
1022
1022
1023
1026
1025
1022
1020
1023
1024
1029
1025
1023
1020
1023
1024
1027
1029
1027
1030
1028
1030
1033
1033
1031
1031
1031
1032
1033
1030
1033
1027
1026
1030
1033
1035
1030
1028
1033
1034
1034
1030
1030
1027
1026
1032
1035
1039
1038
1034
1030
1027
1023
1022
1027
1030
1030
1028
1029
1022
1020
1020
1022
1026
1029
1028
1023
1019
1021
1023
1027
1023
1024
1021
1019
1024
1029
1029
1027
1023
1023
1025
1030
1032
1032
1033
1035
1045
1056
1069
1080
1085
1095
1114
1142
1172
1205
1232
1264
1304
1341
1382
1422
1451
1455
1432
1367
1271
1175
1099
1049
1034
1037
1040
1035
1031
1028
1028
1024
1018
1009
1002
1001
1003
1004
1001
1002
996
996
997
997
998
996
996
996
996
992
991
989
986
986
988
996
997
995
991
991
989
992
995
992
992
991
988
992
992
988
986
987
991
990
993
991
988
987
990
990
988
991
987
992
990
990
990
990
986
992
997
1001
1002
998
994
994
992
1000
1000
994
992
996
997
998
998
998
999
1002
1002
1003
1002
1001
999
996
1000
1006
1009
1010
1009
1009
1013
1017
1019
1016
1016
1020
1025
1030
1033
1034
1036
1039
1044
1051
1054
1055
1055
1058
1065
1067
1069
1070
1070
1071
1071
1071
1072
1072
1069
1068
1063
1062
1060
1059
1055
1060
1063
1065
1061
1057
1049
1050
1052
1053
1052
1049
1047
1045
1048
1046
1047
1046
1045
1046
1050
1053
1049
1047
1044
1044
1045
1049
1048
1045
1045
1045
1045
1048
1046
1046
1045
1045
1046
1048
1050
1049
1043
1045
1046
1048
1048
1042
1042
1042
1047
1049
1049
1045
1042
1040
1043
1046
1045
1043
1037
1039
1040
1043
1047
1046
1039
1041
1041
1040
1043
1038
1036
1036
1037
1039
1038
1034
1031
1034
1035
1037
1033
1032
1029
1032
1033
1033
1033
1032
1032
1028
1031
1033
1032
1032
1029
1028
1030
1031
1029
1028
1025
1023
1028
1031
1031
1027
1024
1025
1032
1036
1033
1031
1027
1030
1031
1033
1034
1029
1027
1031
1033
1032
1030
1029
1029
1032
1037
1038
1033
1030
1030
1029
1033
1030
1030
1032
1031
1031
1030
1031
1031
1031
1030
1032
1033
1037
1035
1029
1029
1031
1033
1038
1036
1034
1034
1033
1034
1037
1036
1034
1031
1034
1036
1040
1041
1044
1042
1044
1044
1044
1042
1043
1043
1049
1054
1054
1049
1047
1047
1046
1050
1049
1044
1041
1039
1040
1039
1044
1045
1044
1045
1048
1051
1054
1051
1050
1046
1044
1043
1045
1042
1040
1037
1037
1043
1046
1043
1043
1041
1041
1039
1039
1037
1038
1040
1038
1041
1044
1042
1040
1037
1036
1039
1042
1039
1034
1035
1037
1038
1041
1040
1040
1040
1042
1047
1047
1050
1054
1060
1070
1083
1096
1106
1114
1130
1155
1185
1212
1235
1262
1287
1314
1343
1376
1414
1444
1457
1444
1408
1332
1237
1151
1091
1061
1048
1045
1047
1045
1041
1038
1041
1042
1038
1033
1028
1025
1026
1028
1024
1020
1017
1017
1020
1022
1022
1018
1017
1015
1018
1017
1015
1010
1008
1009
1011
1015
1020
1019
1013
1010
1011
1013
1016
1015
1013
1010
1011
1014
1013
1010
1010
1009
1011
1014
1010
1009
1005
1009
1010
1014
1014
1008
1006
1006
1007
1011
1012
1013
1007
1008
1012
1013
1010
1010
1007
1004
1008
1012
1009
1007
1009
1012
1015
1016
1015
1013
1009
1008
1011
1016
1019
1020
1022
1024
1024
1029
1030
1028
1025
1029
1035
1040
1042
1041
1044
1048
1050
1051
1055
1056
1056
1060
1063
1068
1070
1070
1071
1071
1070
1071
1067
1064
1063
1058
1059
1059
1059
1056
1054
1052
1052
1050
1045
1039
1040
1037
1042
1045
1048
1045
1042
1040
1041
1043
1040
1037
1034
1037
1041
1045
1042
1035
1031
1031
1034
1034
1036
1033
1029
1032
1037
1038
1033
1028
1025
1027
1031
1032
1029
1024
1021
1022
1031
1032
1035
1031
1027
1030
1028
1031
1030
1030
1030
1028
1030
1032
1034
1032
1031
1032
1033
1035
1034
1031
1028
1029
1030
1034
1034
1030
1026
1027
1031
1034
1034
