969
967
964
963
964
969
965
962
958
958
963
969
968
965
961
960
960
967
965
965
960
960
961
963
961
960
960
960
962
965
966
963
958
959
962
964
967
967
967
968
973
979
977
981
980
985
993
1003
1003
1007
1008
1011
1019
1028
1032
1031
1033
1035
1038
1043
1043
1041
1036
1036
1039
1042
1038
1035
1030
1029
1030
1033
1030
1026
1024
1022
1026
1025
1026
1022
1019
1022
1019
1022
1022
1021
1020
1022
1024
1024
1022
1019
1016
1018
1021
1024
1022
1019
1017
1015
1019
1018
1014
1013
1010
1013
1016
1016
1017
1016
1013
1013
1014
1016
1016
1013
1011
1012
1014
1016
1017
1014
1010
1012
1013
1018
1018
1016
1012
1011
1014
1012
1015
1013
1010
1014
1018
1017
1016
1010
1005
1008
1012
1012
1012
1012
1012
1013
1013
1015
1015
1012
1006
1008
1011
1014
1014
1014
1012
1010
1011
1012
1012
1011
1009
1010
1012
1016
1018
1012
1009
1010
1013
1017
1016
1012
1006
1008
1012
1017
1018
1015
1010
1010
1012
1016
1015
1013
1010
1013
1016
1019
1016
1017
1013
1013
1018
1023
1020
1018
1013
1016
1020
1021
1020
1018
1014
1018
1018
1023
1022
1019
1019
1020
1022
1024
1024
1022
1017
1015
1021
1023
1023
1019
1015
1015
1023
1027
1031
1029
1027
1027
1031
1036
1038
1037
1032
1028
1032
1033
1031
1032
1028
1032
1035
1037
1039
1040
1037
1033
1033
1031
1027
1024
1023
1023
1025
1029
1028
1025
1026
1023
1027
1029
1028
1022
1020
1020
1022
1026
1026
1023
1022
1024
1027
1027
1026
1025
1025
1026
1031
1039
1043
1047
1057
1072
1093
1110
1127
1153
1187
1233
1278
1321
1360
1390
1421
1456
1497
1529
1539
1527
1483
1407
1307
1219
1156
1109
1078
1060
1050
1043
1035
1028
1023
1017
1015
1012
1007
1002
997
997
997
995
995
992
991
990
992
989
988
986
983
983
987
988
989
987
982
980
980
985
985
982
979
983
986
984
979
974
972
975
976
980
978
975
972
973
973
974
971
970
967
967
966
971
973
970
966
963
965
970
971
966
963
965
968
971
969
968
966
963
968
970
968
968
970
973
979
987
985
989
990
997
1003
1006
1008
1013
1017
1023
1031
1036
1036
1040
1044
1047
1048
1052
1054
1054
1050
1047
1048
1049
1047
1048
1046
1043
1042
1041
1037
1033
1032
1032
1037
1035
1033
1031
1028
1031
1032
1034
1032
1029
1026
1026
1028
1030
1029
1030
1032
1031
1031
1029
1027
1028
1027
1027
1028
1027
1025
1024
1019
1020
1022
1025
1024
1022
1020
1020
1022
1027
1023
1021
1021
1020
1022
1023
1024
1023
1019
1021
1021
1022
1020
1019
1016
1012
1010
1013
1019
1019
1018
1018
1020
1022
1021
1021
1021
1020
1023
1022
1018
1015
1015
1016
1018
1020
1019
1019
1014
1017
1020
1021
1019
1020
1014
1015
1016
1020
1020
1018
1016
1015
1014
1017
1018
1015
1016
1017
1018
1022
1024
1018
1013
1018
1022
1029
1030
1024
1018
1016
1016
1019
1017
1014
1014
1014
1018
1019
1020
1018
1017
1016
1019
1021
1016
1012
1012
1013
1015
1017
1017
1016
1013
1014
1017
1020
1019
1018
1017
1016
1022
1024
1024
1019
1017
1023
1027
1031
1029
1026
1021
1019
1021
1026
1031
1029
1023
1019
1017
1020
1021
1023
1026
1028
1029
1031
1027
1027
1024
1019
1022
1027
1028
1028
1028
1034
1037
1043
1041
1035
1032
1034
1038
1042
1039
1036
1031
1032
1036
1040
1042
1038
1031
1032
1035
1042
1041
1041
1038
1042
1044
1046
1038
1027
1020
1018
1024
1031
1028
1027
1025
1026
1029
1032
1031
1033
1030
1030
1030
1033
1029
1029
1029
1028
1030
1031
1031
1030
1028
1029
1031
1037
1036
1035
1027
1027
1033
1041
1049
1055
1057
1066
1083
1101
1117
1135
1162
1200
1244
1289
1333
1370
1400
1432
1465
1499
1529
1541
1533
1496
1426
1336
1248
1177
1126
1095
1075
1059
1053
1045
1038
1036
1036
1032
1028
1018
1011
1005
1006
1008
1008
1008
1002
997
997
1000
997
993
990
990
992
994
994
990
988
988
990
991
991
989
988
988
987
989
988
986
987
985
988
991
986
985
980
980
985
986
983
982
982
983
988
992
988
981
981
979
980
985
983
980
975
975
979
983
983
977
976
976
976
978
977
978
973
978
982
984
983
981
977
976
981
987
987
990
990
997
1003
1003
1002
1003
1006
1005
1010
1014
1015
1017
1018
1027
1037
1044
1050
1049
1046
1050
1057
1064
1066
1067
1066
1068
1068
1068
1064
1060
1053
1053
1057
1060
1057
1049
1044
1043
1042
1048
1047
1045
1042
1040
1043
1043
1041
1038
1036
1036
1036
1040
1044
1044
1040
1041
1040
1040
1042
1041
1037
1037
1037
1042
1039
1038
1036
1034
1037
1039
1039
1035
1033
1034
1037
1039
1039
1035
1031
1035
1035
1038
1038
1038
1033
1028
1028
1028
1028
1031
1031
1032
1037
1035
1031
1024
1023
1026
1032
1036
1032
1029
1025
1026
1035
1043
1043
1038
1036
1038
1044
1042
1038
1032
1027
1029
1032
1035
1034
1034
1033
1033
1033
1037
1035
1035
1033
1036
1039
1044
1046
1044
1039
1036
1032
1035
1034
1031
1032
1035
1046
1048
1046
1038
1031
1026
1029
1036
1035
1033
1030
1037
1042
1044
1044
1041
1035
1031
1029
1035
1040
1039
1036
1035
1032
1033
1034
1033
1030
1034
1036
1040
1039
1037
1036
1037
1041
1042
1040
1036
1031
1033
1034
1038
1037
1036
1032
1033
1028
1027
1029
1032
1034
1034
1038
1040
1039
1034
1034
1031
1033
1040
1037
1035
1036
1033
1037
1039
1036
1036
1035
1039
1043
1048
1045
1038
1038
1045
1054
1054
1052
1044
1038
1038
1040
1044
1043
1042
1043
1045
1052
1055
1053
1046
1042
1045
1048
1048
1046
1042
1034
1030
1034
1041
1042
1038
1036
1032
1032
1032
1033
1034
1032
1030
1031
1032
1033
1029
1025
1025
1033
1038
1037
1031
1026
1027
1029
1035
1036
1033
1031
1037
1042
1049
1055
1061
1070
1087
1106
1129
1148
1175
1211
1251
1300
1343
1380
1412
1441
1477
1514
1540
1548
1534
1493
1422
1331
1249
1181
1126
1094
1074
1066
1059
1052
1045
1033
1030
1025
1024
1022
1017
1013
1008
1007
1008
1001
995
990
988
989
989
989
990
989
990
993
993
990
986
985
985
987
989
988
983
978
985
989
988
984
979
976
976
978
983
985
984
978
974
971
975
974
972
970
969
972
977
980
976
974
974
973
977
975
969
966
970
972
974
970
966
967
969
971
974
973
971
969
966
974
978
982
978
981
982
987
991
995
996
1000
1005
1011
1015
1013
1012
1017
1029
1043
1052
1053
1052
1049
1054
1061
1068
1067
1066
1066
1067
1067
1067
1060
1057
1053
1059
1060
1058
1050
1044
1041
1045
1051
1052
1048
1047
1043
1037
1037
1037
1041
1037
1035
1036
1037
1040
1039
1040
1035
1038
1039
1041
1039
1038
1038
1038
1038
1038
1035
1035
1034
1036
1038
1039
1035
1030
1032
1031
1033
1034
1033
1032
1031
1028
1024
1024
1025
1025
1025
1028
1034
1037
1034
1026
1019
1021
1028
1032
1032
1024
1027
1028
1032
1035
1033
1028
1027
1030
1034
1035
1030
1027
1028
1031
1037
1041
1037
1031
1023
1024
1029
1036
1038
1032
1033
1034
1035
1038
1032
1030
1030
1031
1034
1040
1037
1033
1029
1030
1033
1035
1034
1034
1032
1033
1036
1038
1037
1033
1033
1033
1031
1034
1035
1032
1034
1037
1037
1034
1034
1035
1036
1033
1032
1033
1034
1031
1030
1033
1032
1034
1034
1033
1034
1035
1033
1036
1032
1033
1032
1034
1033
1036
1037
1038
1033
1036
1039
1038
1036
1037
1033
1029
1030
1034
1036
1036
1036
1039
1041
1042
1043
1042
1042
1042
1049
1052
1056
1054
1049
1046
1042
1044
1042
1044
1044
1048
1051
1055
1055
1052
1048
1049
1051
1056
1053
1043
1036
1036
1036
1040
1043
1041
1038
1035
1039
1040
1038
1037
1037
1038
1042
1045
1039
1034
1033
1043
1048
1043
1039
1040
1042
1042
1046
1051
1055
1060
1066
1077
1098
1121
1143
1168
1199
1243
1286
1327
1365
1399
1430
1463
1495
1530
1553
1557
1547
1517
1454
1364
1273
1205
1155
1124
1100
1086
1070
1056
1047
1045
1041
1038
1031
1027
1023
1023
1021
1019
1015
1009
1009
1007
1007
1006
1003
1001
1004
1005
1009
1011
1005
996
994
997
1000
1002
1000
995
991
994
996
999
998
992
987
987
987
987
989
987
987
989
990
990
987
982
980
982
987
989
989
988
988
990
988
982
974
968
970
981
988
990
985
977
976
980
986
984
979
973
976
984
989
994
990
987
990
997
1000
1001
999
1003
1004
1010
1016
1023
1023
1021
1022
1032
1043
1051
1053
1051
1056
1068
1074
1075
1069
1066
1065
1071
1074
1073
1066
1063
1063
1062
1063
1062
1059
1055
1053
1057
1059
1058
1055
1050
1048
1051
1052
1047
1039
1038
1038
1042
1045
1048
1048
1045
1041
1040
1040
1042
1040
1040
1043
1043
1042
1041
1043
1041
1039
1036
1038
1039
1040
1038
1038
1039
1038
1033
1032
1034
1033
1035
1035
1037
1033
1027
1028
1029
1030
1032
1033
1031
1031
1034
1035
1038
1033
1030
1031
1035
1042
1037
1032
1026
1028
1032
1035
1035
1034
1032
1030
1031
1034
1039
1037
1033
1027
1026
1032
1034
1032
1030
1028
1033
1038
1040
1035
1033
1029
1030
1032
1036
1039
1035
1032
1035
1039
1045
1040
1036
1031
1036
1037
1038
1037
1034
1033
1035
1037
1035
1031
1032
1033
1034
1036
1035
1038
1034
1034
1037
1039
1041
1041
1037
1034
1034
1034
1035
1034
1037
1034
1040
1042
1044
1038
1032
1030
1034
1039
1040
1040
1036
1036
1037
1041
1041
1042
1039
1041
1039
1043
1041
1038
1042
1041
1043
1042
1043
1042
1041
1040
1042
1045
1046
1044
1036
1034
1035
1043
1049
1048
1046
1045
1049
1050
1050
1048
1052
1057
1060
1061
1053
1049
1045
1048
1051
1055
1054
1050
1050
1048
1047
1050
1053
1055
1050
1045
1049
1045
1044
1042
1041
1041
1039
1038
1032
1032
1033
1036
1039
1039
1039
1035
1032
1033
1036
1035
1035
1033
1032
1032
1032
1038
1041
1042
1045
1045
1047
1042
1034
1035
1033
1038
1046
1057
1070
1084
1100
1116
1138
1164
1202
1249
1301
1346
1388
1427
1472
1512
1545
1554
1541
1498
1418
1316
1228
1163
1116
1091
1078
1057
1036
1031
1033
1036
1031
1015
1005
1006
1008
1004
993
989
987
989
990
996
1002
999
992
986
983
986
988
986
979
982
986
986
982
979
975
974
975
981
983
981
973
972
979
980
974
968
969
973
978
979
977
977
976
973
972
971
974
972
973
969
967
971
971
972
974
971
972
971
972
969
967
971
973
975
973
973
973
978
979
983
989
995
998
1000
1007
1009
1014
1023
1025
1025
1030
1036
1043
1050
1051
1055
1058
1058
1059
1063
1063
1063
1066
1071
1071
1062
1046
1038
1042
1052
1056
1056
1053
1051
1048
1051
1048
1047
1043
1042
1044
1049
1049
1044
1040
1044
1050
1053
1052
1046
1045
1042
1038
1034
1037
1042
1042
1037
1039
1044
1047
1042
1039
1040
1041
1043
1039
1034
1034
1036
1035
1034
1032
1030
1034
1039
1039
1037
1038
1032
1028
1028
1031
1039
1040
1041
1038
1033
1030
1034
1040
1041
1035
1033
1031
1036
1037
1032
1032
1032
1040
1044
1046
1043
1037
1037
1037
1044
1041
1040
1039
1040
1044
1048
1046
1040
1033
1026
1032
1040
1041
1040
1034
1035
1038
1042
1044
1039
1040
1039
1041
1041
1040
1039
1034
1036
1037
1039
1040
1042
1045
1045
1046
1047
1049
1045
1036
1024
1027
1038
1044
1044
1041
1038
1042
1041
1038
1036
1037
1042
1040
1039
1042
1046
1048
1040
1040
1040
1040
1042
1036
1037
1039
1043
1042
1042
1037
1035
1040
1044
1043
1043
1041
1039
1041
1045
1047
1044
1045
1048
1051
1050
1048
1046
1045
1046
1052
1054
1058
1058
1059
1054
1048
1044
1043
1047
1050
1050
1052
1056
1058
1056
1049
1050
1053
1053
1047
1045
1046
1045
1045
1045
1046
1043
1043
1046
1046
1046
1046
1048
1045
1039
1037
1045
1047
1041
1035
1037
1037
1041
1044
1044
1040
1040
1041
1042
1045
1049
1048
1054
1064
1079
1093
1102
1115
1132
1165
1205
1250
1295
1337
1378
1415
1454
1490
1525
1547
1544
1519
1456
1369
1274
1191
1137
1104
1090
1076
1062
1047
1040
1039
1037
1035
1031
1027
1023
1019
1016
1013
1014
1009
1005
1004
1005
1009
1008
1005
1000
1001
1005
1002
1003
996
994
993
998
996
993
989
991
999
1006
1005
997
985
979
984
991
994
992
984
981
982
989
990
987
986
987
988
988
986
985
985
985
979
980
983
986
984
982
982
984
983
978
973
974
977
985
990
990
987
986
989
994
991
985
984
988
996
1003
1005
1011
1014
1017
1022
1028
1033
1031
1033
1038
1047
1055
1056
1056
1053
1057
1063
1068
1068
1066
1063
1058
1058
1056
1057
1055
1051
1051
1054
1053
1055
1048
1039
1034
1039
1042
1044
1043
1042
1042
1042
1040
1040
1042
1043
1045
1042
1042
1038
1031
1036
1040
1045
1045
1043
1033
1027
1031
1040
1043
1045
1039
1030
1025
1031
1035
1035
1033
1029
1028
1033
1038
1034
1026
1020
1025
1035
1044
1042
1031
1023
1020
1031
1038
1037
1035
1035
1035
1033
1032
1029
1031
1031
1031
1032
1038
1039
1034
1024
1023
1029
1035
1037
1036
1033
1034
1032
1030
1030
1033
1033
1033
1031
1029
1031
1031
1033
1030
1028
1032
1036
1033
1028
1028
1027
1030
1034
1032
1030
1032
1034
1030
1024
1027
1032
1036
1039
1037
1027
1021
1020
1026
1031
1033
1031
1025
1027
1026
1025
1030
1036
1035
1033
1033
1031
1025
1025
1027
1031
1031
1028
1031
1030
1033
1030
1037
1039
1035
1031
1029
1033
1038
1041
1042
1040
1035
1034
1036
1042
1046
1050
1049
1044
1040
1041
1044
1044
1043
1036
1034
1038
1042
1044
1045
1044
1045
1043
1039
1040
1039
1034
1031
1034
1031
1031
1033
1029
1032
1037
1040
1037
1030
1025
1028
1033
1033
1031
1031
1030
1037
1040
1039
1035
1026
1024
1025
1031
1039
1038
1032
1029
1029
1032
1037
1037
1040
1045
1055
1062
1072
1086
1102
1121
1147
1178
1215
1256
1298
1334
1368
1398
1430
1469
1499
1511
1494
1451
1380
1293
1210
1148
1106
1081
1067
1055
1052
1048
1048
1045
1037
1024
1018
1015
1016
1017
1020
1016
1009
1003
1005
1007
1014
1013
1005
1002
1005
1009
1007
1004
1001
1003
1005
1002
1002
1001
1001
998
999
992
994
994
995
994
994
997
997
997
996
994
992
989
993
994
993
989
987
995
999
997
989
984
991
994
992
986
982
982
987
989
990
988
987
989
987
984
983
990
992
988
986
984
989
992
994
996
998
1006
1011
1012
1011
1011
1012
1015
1021
1031
1040
1044
1045
1042
1043
1048
1053
1051
1051
1059
1064
1067
1063
1055
1055
1058
1062
1066
1062
1056
1049
1050
1053
1055
1051
1048
1042
1040
1047
1052
1051
1045
1039
1043
1047
1045
1041
1036
1034
1037
1042
1045
1048
1041
1036
1036
1040
1042
1040
1035
1038
1043
1043
1035
1029
1031
1033
1035
1034
1036
1036
1036
1041
1044
1044
1037
1033
1031
1036
1039
1039
1037
1032
1029
1034
1040
1041
1036
1036
1034
1037
1037
1038
1039
1039
1040
1039
1044
1045
1043
1041
1036
1036
1036
1043
1045
1044
1042
1040
1037
1037
1038
1035
1036
1037
1042
1042
1042
1037
1037
1044
1051
1052
1049
1048
1048
1059
1073
1088
1103
1122
1133
1133
1119
1103
1082
1048
997
938
876
807
740
691
671
658
654
662
671
687
700
718
736
758
789
817
840
861
876
891
898
911
920
931
937
941
946
954
960
969
978
993
1004
1020
1028
1039
1048
1057
1066
1067
1070
1071
1074
1075
1077
1082
1086
1087
1091
1097
1096
1094
1092
1097
1103
1105
1103
1103
1103
1110
1120
1119
1114
1107
1112
1121
1127
1127
1127
1129
1126
1133
1139
1145
1145
1143
1146
1153
1159
1165
1169
1175
1174
1182
1187
1192
1194
1199
1206
1213
1225
1241
1248
1248
1244
1247
1259
1273
1281
1281
1284
1289
1299
1306
1308
1305
1300
1299
1301
1298
1296
1297
1292
1292
1288
1278
1273
1268
1265
1254
1235
1221
1212
1202
1191
1187
1187
1176
1155
1145
1140
1140
1136
1131
1122
1115
1107
1104
1101
1093
1082
1073
1066
1066
1069
1068
1066
1059
1050
1054
1057
1059
1058
1055
1051
1051
1050
1052
1053
1050
1048
1044
1045
1049
1043
1034
1036
1044
1051
1053
1044
1036
1037
1039
1043
1043
1039
1034
1030
1035
1041
1049
1046
1034
1025
1027
1034
1039
1036
1029
1024
1026
1031
1031
1029
1029
1032
1035
1037
1035
1026
1026
1024
1022
1024
1026
1026
1028
1025
1020
1013
1014
1018
1020
1019
1026
1030
1029
1027
1028
1030
1026
1022
1022
1018
1015
1011
1012
1014
1017
1021
1021
1019
1019
1020
1019
1017
1011
1008
1009
1016
1018
1018
1012
1006
1006
1009
1018
1018
1015
1012
1009
1011
1015
1021
1020
1014
1011
1011
1014
1017
1013
1007
1005
1009
1017
1021
1018
1011
1007
1007
1013
1014
1013
1008
1004
1010
1014
1014
1008
1010
1015
1017
1011
1009
1009
1009
1011
1016
1013
1011
1009
1005
1013
1018
1015
1009
1006
1009
1019
1024
1020
1015
1013
1014
1019
1027
1030
1023
1016
1011
1010
1007
1007
1005
1009
1014
1017
1019
1022
1018
1017
1013
1014
1019
1023
1023
1021
1018
1018
1021
1023
1021
1017
1017
1019
1029
1030
1025
1014
1011
1018
1025
1028
1021
1013
1013
1016
1020
1023
1023
1020
1019
1023
1022
1028
1028
1024
1020
1017
1017
1025
1022
1022
1016
1017
1019
1024
1025
1029
1027
1028
1032
1029
1024
1019
1017
1020
1019
1021
1020
1022
1020
1024
1025
1028
1024
1022
1020
1023
1026
1029
1027
1025
1024
1026
1025
1030
1031
1027
1016
1009
1018
1030
1031
1025
1018
1020
1022
1026
1024
1025
1026
1025
1026
1030
1031
1031
1027
1029
1029
1031
1028
1026
1026
1024
1020
1015
1014
1021
1026
1033
1033
1036
1035
1029
1031
1029
1027
1026
1021
1015
1013
1018
1025
1029
1024
1024
1022
1027
1028
1030
1034
1030
1032
1039
1041
1038
1040
1041
1040
1041
1040
1043
1039
1037
1035
1033
1038
1039
1035
1036
1038
1035
1040
1047
1045
1048
1042
1036
1036
1037
1040
1037
1038
1035
1035
1034
1033
1030
1030
1030
1033
1037
1033
1031
1028
1033
1036
1036
1033
1028
1022
1027
1036
1040
1040
1037
1034
1035
1038
1038
1034
1037
1040
1048
1058
1072
1087
1100
1111
1136
1170
1210
1249
1288
1327
1363
1401
1440
1472
1490
1486
1457
1395
1313
1225
1160
1115
1090
1076
1069
1061
1047
1040
1033
1037
1034
1027
1023
1021
1016
1010
1007
1003
1001
998
996
996
1000
1001
998
1002
999
999
996
998
996
996
994
995
993
992
990
989
987
987
986
986
987
986
988
989
989
988
986
985
986
986
989
983
984
980
986
987
985
978
977
979
980
981
986
985
983
978
981
981
981
982
979
974
976
977
985
979
977
976
976
981
984
981
984
984
985
981
979
976
976
978
984
989
996
994
992
992
996
1002
1006
1006
1007
1011
1021
1033
1038
1037
1037
1040
1047
1057
1064
1064
1064
1064
1065
1071
1077
1079
1078
1074
1071
1072
1076
1067
1065
1059
1058
1062
1063
1060
1059
1055
1052
1052
1053
1052
1052
1048
1050
1051
1054
1053
1047
1045
1049
1050
1052
1053
1050
1048
1046
1045
1044
1045
1045
1043
1039
1038
1043
1044
1044
1041
1042
1041
1043
1039
1036
1039
1040
1042
1046
1045
1044
1039
1041
1040
1040
1037
1037
1042
1047
1046
1043
1038
1035
1033
1032
1034
1036
1035
1038
1036
1036
1036
1036
1036
1031
1033
1034
1040
1040
1032
1027
1025
1030
1037
1042
1036
1030
1028
1032
1035
1034
1027
1026
1027
1029
1033
1032
1031
1028
1026
1029
1027
1030
1031
1032
1028
1031
1031
1030
1025
1023
1022
1025
1026
1030
1029
1028
1025
1025
1023
1023
1024
1021
1020
1024
1026
1029
1032
1036
1032
1028
1019
1023
1026
1026
1025
1025
1027
1030
1027
1024
1028
1029
1028
1027
1022
1020
1022
1023
1028
1033
1029
1028
1027
1027
1034
1035
1038
1037
1035
1031
1035
1041
1036
1033
1028
1032
1036
1040
1037
1035
1035
1032
1034
1039
1040
1034
1029
1026
1027
1025
1023
1020
1020
1019
1023
1026
1024
1024
1022
1025
1029
1033
1029
1022
1018
1018
1016
1024
1026
