1043
1045
1041
1042
1044
1045
1043
1036
1032
1033
1035
1038
1037
1037
1033
1030
1032
1037
1035
1035
1030
1031
1032
1033
1035
1033
1030
1033
1035
1035
1033
1032
1030
1031
1033
1036
1035
1035
1032
1033
1034
1040
1043
1046
1049
1056
1066
1079
1089
1096
1113
1133
1161
1192
1220
1249
1278
1311
1355
1401
1428
1426
1382
1303
1203
1125
1069
1035
1019
1020
1026
1032
1029
1026
1024
1024
1022
1020
1017
1014
1011
1011
1013
1017
1015
1013
1010
1012
1012
1014
1012
1011
1007
1010
1008
1009
1011
1007
1005
1006
1010
1011
1009
1005
1004
1003
1007
1009
1008
1006
1003
1003
1005
1008
1006
1005
1005
1004
1007
1010
1008
1008
1007
1008
1010
1014
1011
1010
1006
1007
1008
1014
1013
1012
1008
1009
1015
1016
1018
1015
1013
1012
1016
1021
1022
1018
1016
1020
1025
1026
1026
1028
1026
1029
1033
1039
1040
1040
1039
1041
1044
1051
1052
1052
1054
1059
1062
1065
1066
1064
1063
1061
1067
1067
1067
1064
1059
1056
1058
1060
1058
1055
1049
1049
1050
1050
1047
1045
1041
1041
1042
1046
1042
1039
1037
1036
1041
1045
1042
1038
1036
1036
1037
1039
1039
1037
1038
1035
1039
1038
1036
1036
1033
1034
1034
1038
1038
1034
1031
1032
1035
1036
1038
1034
1031
1033
1034
1040
1038
1037
1033
1033
1037
1038
1036
1037
1034
1034
1038
1040
1041
1037
1035
1036
1039
1041
1039
1040
1035
1039
1037
1037
1038
1039
1034
1035
1038
1039
1039
1035
1036
1035
1036
1038
1034
1034
1030
1031
1034
1036
1032
1030
1028
1029
1030
1033
1034
1030
1028
1027
1029
1033
1031
1030
1030
1029
1030
1031
1031
1030
1028
1029
1030
1034
1032
1031
1029
1029
1030
1031
1033
1029
1026
1028
1031
1033
1032
1031
1028
1028
1032
1034
1032
1030
1025
1028
1028
1031
1034
1029
1027
1027
1029
1031
1031
1030
1028
1026
1029
1033
1032
1029
1027
1026
1030
1037
1032
1030
1029
1028
1030
1033
1033
1031
1028
1028
1030
1033
1032
1028
1028
1029
1032
1033
1037
1032
1028
1031
1033
1039
1038
1039
1036
1039
1040
1043
1043
1041
1039
1040
1044
1045
1044
1044
1042
1041
1040
1043
1039
1037
1033
1037
1040
1041
1041
1038
1040
1039
1041
1044
1043
1040
1038
1035
1037
1039
1036
1034
1031
1029
1033
1033
1036
1033
1031
1031
1035
1036
1033
1032
1031
1029
1031
1034
1032
1031
1029
1030
1032
1033
1033
1031
1031
1030
1032
1035
1032
1031
1028
1032
1035
1035
1037
1038
1037
1039
1046
1052
1058
1070
1075
1083
1096
1110
1126
1147
1171
1198
1229
1256
1283
1310
1337
1377
1417
1440
1437
1404
1341
1258
1181
1125
1079
1048
1025
1018
1022
1031
1032
1030
1026
1028
1028
1026
1023
1020
1016
1016
1019
1020
1019
1017
1013
1014
1017
1021
1020
1017
1014
1014
1014
1019
1018
1011
1011
1011
1013
1016
1015
1012
1008
1011
1013
1017
1013
1010
1010
1011
1014
1016
1015
1010
1010
1011
1015
1014
1015
1012
1009
1014
1014
1016
1014
1013
1008
1012
1014
1015
1017
1016
1013
1013
1016
1017
1017
1017
1013
1015
1017
1018
1017
1018
1016
1019
1020
1023
1020
1021
1019
1020
1024
1027
1029
1027
1026
1028
1031
1038
1038
1037
1039
1042
1047
1051
1052
1052
1050
1054
1058
1065
1068
1067
1070
1074
1076
1080
1079
1080
1078
1076
1081
1081
1080
1077
1073
1071
1075
1072
1071
1063
1061
1056
1055
1054
1053
1051
1046
1044
1046
1045
1045
1044
1042
1041
1044
1045
1041
1040
1038
1038
1044
1045
1044
1040
1035
1037
1040
1042
1041
1039
1038
1037
1037
1039
1037
1032
1032
1035
1037
1041
1038
1035
1033
1035
1033
1037
1035
1034
1033
1031
1035
1037
1036
1032
1031
1030
1035
1035
1036
1033
1032
1034
1037
1039
1037
1034
1032
1030
1036
1036
1038
1037
1035
1034
1036
1038
1034
1034
1030
1034
1036
1038
1035
1033
1028
1029
1029
1034
1032
1029
1027
1028
1028
1031
1031
1031
1028
1026
1030
1031
1028
1027
1024
1025
1027
1030
1027
1026
1024
1023
1026
1030
1027
1025
1023
1025
1026
1029
1028
1026
1023
1024
1026
1030
1027
1025
1022
1021
1024
1025
1026
1024
1022
1021
1024
1027
1024
1022
1017
1022
1024
1024
1026
1024
1021
1021
1023
1025
1023
1022
1021
1022
1025
1027
1025
1024
1021
1023
1023
1023
1024
1024
1020
1021
1023
1025
1024
1021
1017
1022
1025
1026
1026
1023
1022
1022
1025
1028
1025
1024
1025
1024
1027
1027
1028
1024
1022
1023
1025
1029
1026
1025
1023
1023
1024
1024
1028
1028
1028
1029
1030
1035
1034
1030
1031
1030
1033
1040
1039
1039
1033
1034
1034
1037
1034
1031
1028
1028
1030
1033
1033
1029
1027
1032
1034
1040
1037
1033
1033
1033
1034
1035
1032
1028
1025
1024
1026
1027
1027
1023
1024
1026
1026
1029
1028
1025
1021
1024
1025
1027
1026
1024
1022
1022
1026
1025
1026
1024
1023
1026
1026
1030
1027
1024
1022
1027
1026
1034
1032
1031
1033
1038
1045
1054
1061
1070
1074
1084
1098
1119
1141
1170
1195
1229
1262
1294
1325
1359
1398
1424
1426
1392
1319
1228
1142
1086
1051
1029
1019
1019
1017
1022
1026
1026
1024
1018
1011
1010
1011
1012
1011
1007
1004
1004
1006
1009
1006
1004
1002
1002
1004
1005
1005
1002
1000
1000
1001
1004
1003
998
996
996
997
1003
1001
1000
995
997
999
997
999
996
995
993
997
1000
997
995
994
993
996
999
996
996
994
996
997
996
999
998
997
997
999
1001
1000
998
996
998
1003
1006
1002
1003
1001
1002
1005
1009
1012
1010
1007
1011
1016
1018
1018
1018
1017
1023
1026
1034
1028
1031
1030
1034
1040
1046
1049
1048
1049
1052
1058
1062
1061
1059
1059
1059
1062
1064
1058
1056
1053
1050
1054
1053
1052
1047
1041
1039
1041
1042
1041
1036
1034
1032
1034
1036
1032
1029
1029
1028
1031
1033
1031
1027
1026
1027
1029
1029
1030
1028
1025
1024
1027
1028
1026
1024
1023
1023
1023
1027
1025
1021
1019
1020
1024
1025
1024
1022
1020
1020
1023
1026
1025
1022
1021
1021
1025
1027
1025
1023
1019
1022
1025
1029
1025
1023
1023
1022
1025
1030
1028
1024
1023
1026
1029
1031
1030
1025
1023
1025
1030
1034
1028
1027
1024
1025
1027
1030
1027
1025
1025
1021
1025
1024
1025
1023
1024
1024
1026
1029
1025
1023
1019
1020
1023
1024
1023
1021
1019
1020
1023
1025
1023
1020
1018
1019
1022
1025
1023
1020
1017
1017
1020
1023
1020
1020
1015
1018
1019
1022
1021
1018
1017
1019
1021
1024
1021
1015
1015
1017
1019
1023
1021
1017
1016
1017
1019
1020
1023
1020
1016
1018
1021
1021
1018
1018
1015
1016
1020
1024
1022
1020
1016
1015
1020
1023
1021
1020
1018
1017
1019
1024
1021
1016
1016
1019
1019
1023
1022
1017
1016
1019
1020
1024
1023
1018
1018
1019
1021
1024
1023
1021
1019
1019
1023
1027
1024
1020
1018
1018
1024
1026
1022
1023
1021
1021
1026
1030
1028
1029
1025
1030
1031
1034
1032
1030
1027
1031
1034
1038
1034
1030
1029
1029
1030
1033
1032
1027
1026
1027
1030
1032
1031
1027
1027
1029
1033
1035
1035
1030
1026
1026
1029
1029
1025
1022
1020
1021
1025
1025
1024
1024
1022
1022
1025
1028
1026
1020
1018
1018
1022
1027
1026
1021
1019
1018
1023
1023
1020
1020
1017
1019
1022
1023
1024
1021
1019
1021
1025
1028
1027
1029
1028
1032
1040
1049
1056
1065
1073
1085
1100
1122
1146
1172
1196
1226
1258
1285
1314
1342
1379
1414
1438
1436
1402
1333
1250
1171
1108
1063
1032
1016
1008
1014
1020
1022
1021
1018
1013
1011
1012
1009
1007
1005
1002
1003
1007
1003
1003
1003
998
1002
1001
1005
1004
1002
998
998
1000
1004
1002
999
996
998
999
1001
1000
997
997
996
998
1000
999
997
992
995
998
1003
1000
995
994
996
999
1002
1000
996
995
997
998
1000
1000
996
997
998
1003
1004
1002
999
998
999
1002
1005
1004
1003
1001
1003
1004
1009
1010
1007
1008
1012
1015
1018
1020
1016
1020
1021
1028
1032
1032
1032
1034
1036
1043
1046
1050
1051
1053
1056
1060
1061
1061
1062
1064
1064
1065
1066
1065
1061
1054
1055
1055
1055
1053
1045
1041
1041
1041
1042
1037
1035
1031
1034
1036
1034
1031
1032
1032
1031
1033
1033
1033
1029
1026
1030
1032
1032
1028
1029
1024
1027
1028
1030
1030
1023
1024
1026
1029
1031
1029
1023
1023
1022
1028
1029
1026
1023
1023
1024
1028
1030
1029
1025
1025
1026
1028
1031
1028
1026
1026
1029
1031
1031
1031
1026
1027
1026
1030
1033
1033
1028
1025
1028
1029
1029
1029
1027
1026
1025
1030
1028
1027
1023
1023
1026
1028
1029
1028
1023
1023
1024
1025
1028
1027
1025
1023
1026
1028
1029
1028
1024
1022
1023
1025
1028
1025
1020
1022
1023
1024
1026
1024
1022
1020
1019
1025
1026
1024
1023
1019
1023
1026
1027
1026
1021
1022
1023
1024
1027
1026
1023
1021
1023
1025
1027
1026
1023
1023
1023
1023
1026
1023
1024
1023
1022
1024
1026
1026
1024
1023
1022
1025
1028
1025
1025
1023
1024
1024
1026
1024
1022
1020
1024
1026
1026
1024
1022
1021
1023
1028
1026
1027
1024
1021
1023
1026
1027
1027
1023
1024
1025
1031
1029
1026
1024
1023
1021
1025
1028
1026
1027
1023
1023
1026
1031
1029
1027
1029
1031
1036
1039
1035
1036
1032
1035
1038
1040
1039
1035
1034
1038
1035
1036
1032
1031
1031
1032
1034
1037
1034
1032
1031
1037
1038
1040
1040
1036
1033
1033
1034
1034
1031
1029
1025
1027
1029
1034
1031
1029
1028
1028
1030
1031
1031
1026
1024
1027
1028
1029
1028
1027
1025
1027
1028
1031
1029
1027
1024
1028
1029
1031
1029
1026
1026
1029
1033
1034
1035
1032
1038
1044
1052
1061
1069
1077
1081
1093
1114
1140
1167
1196
1224
1255
1289
1322
1360
1397
1419
1420
1386
1317
1227
1142
1081
1043
1027
1023
1024
1026
1026
1026
1025
1027
1023
1016
1011
1011
1016
1015
1013
1010
1008
1007
1010
1013
1012
1010
1008
1008
1011
1012
1010
1008
1007
1007
1009
1010
1009
1005
1005
1004
1007
1007
1006
1005
1002
1005
1006
1008
1006
1002
1001
999
1004
1006
1003
1002
1001
1002
1006
1007
1006
1000
1000
1002
1006
1008
1006
1004
1001
1003
1006
1008
1008
1005
1003
1007
1009
1012
1009
1007
1007
1010
1014
1016
1020
1016
1017
1018
1021
1023
1024
1027
1028
1034
1037
1040
1039
1038
1040
1047
1050
1056
1057
1059
1060
1062
1065
1069
1069
1067
1066
1067
1067
1067
1063
1060
1057
1056
1057
1057
1052
1047
1043
1042
1043
1044
1038
1039
1035
1034
1035
1036
1033
1029
1030
1032
1035
1036
1033
1029
1027
1028
1033
1033
1030
1027
1027
1027
1029
1031
1029
1025
1023
1027
1027
1029
1026
1023
1023
1022
1027
1027
1024
1023
1021
1021
1024
1025
1025
1024
1021
1023
1026
1024
1023
1022
1022
1022
1028
1030
1026
1023
1021
1023
1028
1030
1028
1026
1024
1025
1028
1027
1029
1025
1025
1025
1031
1030
1028
1025
1022
1025
1027
1029
1027
1024
1021
1022
1024
1026
1028
1023
1024
1024
1027
1027
1025
1022
1021
1023
1024
1025
1024
1021
1019
1019
1022
1024
1024
1024
1019
1022
1025
1025
1025
1021
1020
1021
1025
1026
1023
1021
1017
1020
1023
1025
1022
1017
1018
1020
1023
1023
1023
1020
1019
1021
1023
1024
1022
1020
1018
1023
1023
1024
1024
1019
1018
1021
1022
1025
1024
1022
1018
1020
1022
1027
1023
1021
1020
1022
1024
1025
1024
1021
1018
1021
1020
1024
1023
1019
1020
1021
1024
1025
1023
1022
1021
1022
1024
1028
1024
1021
1021
1026
1026
1027
1026
1022
1022
1025
1029
1033
1029
1030
1030
1031
1036
1038
1038
1035
1034
1036
1040
1043
1041
1039
1037
1034
1037
1036
1034
1032
1032
1033
1038
1039
1039
1037
1036
1037
1042
1041
1041
1035
1033
1033
1035
1034
1032
1031
1031
1032
1033
1035
1030
1031
1026
1031
1033
1035
1034
1031
1028
1030
1031
1035
1035
1030
1031
1030
1034
1036
1033
1033
1031
1032
1035
1039
1039
1040
1043
1054
1061
1074
1082
1087
1097
1115
1144
1173
1202
1227
1258
1293
1331
1373
1418
1444
1445
1411
1343
1251
1156
1088
1045
1025
1022
1028
1032
1031
1029
1031
1031
1030
1023
1019
1015
1015
1017
1018
1015
1014
1010
1011
1015
1017
1013
1010
1008
1010
1015
1014
1012
1008
1006
1009
1010
1009
1010
1006
1007
1008
1009
1010
1009
1004
1004
1006
1008
1008
1009
1003
1004
1005
1007
1008
1008
1003
1005
1007
1009
1011
1010
1007
1006
1007
1010
1011
1009
1008
1009
1011
1014
1012
1012
1010
1010
1011
1015
1017
1017
1013
1016
1019
1024
1023
1025
1025
1023
1029
1037
1037
1037
1037
1038
1043
1048
1052
1055
1053
1057
1060
1065
1071
1072
1071
1075
1078
1082
1081
1079
1075
1074
1076
1076
1076
1073
1066
1063
1066
1061
1062
1056
1053
1053
1052
1052
1052
1049
1043
1044
1045
1047
1047
1045
1042
1040
1040
1043
1045
1042
1040
1039
1041
1042
1043
1042
1040
1039
1040
1042
1041
1042
1039
1035
1039
1042
1043
1040
1038
1039
1040
1043
1045
1041
1039
1037
1040
1041
1042
1041
1040
1040
1044
1046
1045
1044
1044
1042
1046
1050
1050
1048
1045
1046
1048
1050
1051
1049
1046
1045
1047
1050
1050
1049
1048
1048
1047
1050
1047
1046
1045
1045
1047
1049
1048
1045
1043
1044
1047
1048
1048
1047
1048
1051
1056
1066
1078
1094
1113
1139
1165
1178
1178
1165
1137
1094
1032
959
864
756
681
649
643
639
629
633
652
679
719
759
792
822
844
863
881
900
916
927
938
946
959
969
979
986
995
1006
1020
1034
1043
1046
1053
1060
1065
1075
1078
1077
1080
1082
1087
1091
1093
1094
1089
1088
1094
1099
1100
1100
1100
1102
1106
1112
1115
1116
1117
1117
1120
1126
1130
1133
1132
1135
1139
1145
1148
1152
1154
1158
1163
1170
1178
1179
1183
1189
1197
1204
1212
1218
1222
1229
1241
1247
1256
1264
1269
1276
1282
1291
1294
1298
1295
1294
1295
1294
1289
1279
1269
1261
1255
1251
1241
1229
1219
1208
1201
1194
1186
1175
1163
1152
1143
1137
1128
1120
1108
1099
1096
1093
1090
1084
1077
1075
1073
1070
1069
1065
1060
1057
1059
1061
1057
1053
1051
1051
1053
1053
1057
1052
1049
1048
1050
1053
1052
1051
1046
1046
1049
1049
1048
1046
1040
1040
1044
1045
1044
1041
1038
1035
1035
1038
1038
1037
1035
1033
1035
1036
1035
1032
1028
1030
1028
1033
1032
1030
1027
1024
1027
1029
1026
1025
1023
1020
1021
1024
1023
1021
1020
1021
1020
1022
1024
1020
1018
1020
1022
1024
1019
1018
1014
1016
1018
1022
1022
1019
1016
1017
1017
1017
1021
1018
1017
1016
1020
1019
1016
1016
1013
1015
1016
1019
1019
1016
1014
1012
1016
1017
1017
1016
1012
1013
1015
1018
1016
1014
1012
1013
1016
1019
1018
1014
1013
1011
1015
1018
1018
1017
1014
1013
1014
1017
1018
1016
1012
1013
1014
1017
1016
1014
1010
1011
1014
1017
1019
1017
1013
1013
1014
1017
1016
1015
1012
1011
1015
1017
1016
1015
1011
1013
1015
1015
1018
1015
1012
1012
1016
1016
1016
1015
1013
1014
1018
1017
1016
1015
1013
1014
1015
1017
1017
1016
1016
1014
1013
1018
1017
1015
1015
1014
1013
1016
1017
1015
1013
1012
1016
1017
1017
1015
1011
1010
1015
1017
1017
1014
1013
1011
1016
1018
1016
1014
1012
1011
1013
1018
1019
1015
1011
1011
1013
1014
1015
1013
1011
1011
1016
1017
1014
1014
1012
1012
1013
1016
1015
1014
1013
1014
1016
1018
1017
1016
1015
1015
1015
1018
1018
1016
1012
1015
1016
1020
1017
1017
1014
1013
1016
1016
1017
1016
1016
1014
1015
1018
1018
1017
1012
1013
1014
1018
1017
1015
1014
1015
1017
1019
1019
1016
1013
1012
1016
1022
1019
1017
1014
1015
1018
1022
1020
1019
1013
1018
1019
1020
1021
1018
1017
1017
1018
1022
1021
1017
1016
1017
1017
1021
1021
1019
1017
1019
1021
1024
1021
1021
1017
1015
1018
1023
1024
1020
1017
1015
1019
1024
1024
1021
1020
1020
1022
1024
1023
1021
1019
1020
1020
1020
1023
1020
1022
1020
1022
1024
1022
1021
1019
1019
1022
1026
1023
1023
1018
1020
1019
1023
1024
1022
1021
1021
1020
1024
1024
1021
1019
1021
1022
1025
1025
1024
1021
1022
1025
1028
1028
1026
1022
1025
1029
1030
1031
1030
1029
1032
1032
1036
1034
1034
1032
1034
1035
1038
1041
1036
1033
1031
1030
1034
1033
1034
1028
1030
1033
1036
1036
1035
1031
1033
1035
1039
1037
1036
1030
1028
1029
1029
1029
1029
1027
1028
1028
1031
1028
1027
1025
1025
1026
1029
1027
1027
1025
1023
1024
1027
1026
1026
1025
1025
1026
1028
1026
1026
1023
1027
1028
1034
1031
1033
1033
1039
1046
1056
1065
1073
1077
1086
1100
1120
1144
1170
1199
1232
1270
1308
1347
1386
1426
1456
1463
1441
1380
1290
1199
1126
1075
1046
1033
1034
1035
1035
1032
1033
1032
1025
1018
1016
1013
1013
1010
1010
1006
1007
1008
1008
1006
1004
1002
1002
1002
1006
1006
1001
1000
999
998
1003
1004
1001
1000
998
1000
1002
1002
1001
999
998
1002
1001
1001
1002
996
997
1000
1002
1002
1002
998
999
1000
1002
1002
1001
998
1002
1002
1004
1002
1004
1002
1002
1007
1008
1009
1007
1007
1005
1009
1010
1013
1009
1009
1008
1011
1016
1016
1013
1012
1013
1019
1023
1022
1020
1018
1021
1023
1028
1030
1029
1030
1029
1034
1038
1039
1040
1040
1042
1048
1051
1053
1055
1058
1059
1066
1069
1072
1072
1073
1076
1076
1081
1081
1079
1078
1078
1080
1080
1080
1077
1072
1071
1073
1075
1071
1068
1067
1063
1064
1062
1061
1059
1056
1056
1057
1056
1057
1053
1051
1049
1051
1054
1053
1051
1048
1046
1049
1051
1053
1048
1048
1046
1050
1051
1052
1047
1046
1047
1048
1052
1051
1047
1048
1047
1051
1048
1051
1048
1046
1047
1051
1053
1052
1050
1046
1049
1051
1054
1054
1052
1050
1051
1050
1053
1053
1051
1049
1050
1050
1053
1051
1051
1048
1049
1053
1052
1051
1049
1044
1045
1046
1047
1048
1045
1045
1045
1044
1047
1047
1040
1042
1042
1046
1047
1042
1043
1037
1039
1039
1043
1042
1041
1038
1037
1041
1043
1040
1040
1039
1040
1041
1042
1041
1038
1036
1038
1042
1043
1042
1041
1037
1037
1039
1041
1041
1040
1037
1039
1037
1041
1043
1038
1037
1037
1039
1042
1041
1041
1037
1035
1038
1042
1040
1039
1037
1037
1039
1042
1041
1039
1036
1038
1039
1041
1041
1038
1037
1037
1039
1041
1042
1038
1035
1037
1039
1042
1042
1038
1039
1041
1040
1043
1041
1038
1037
1038
1038
1042
1042
1039
1035
1037
1039
1041
1041
1041
1039
1039
1041
1043
1041
1040
1039
1039
1042
1041
1040
1040
1039
1040
1042
1043
1042
1041
1042
1043
1048
1053
1051
1048
1047
1046
1049
1053
1054
1051
1051
1050
1054
1050
1052
1048
1045
1045
1047
1048
1050
1049
1046
1044
1051
1054
1052
1050
1047
1045
1047
1047
1043
1040
1038
1039
1041
1042
1044
1039
1037
1038
1041
1040
1041
1037
1035
1036
1040
1039
1040
1039
1036
1035
1036
1040
1040
1039
1036
1037
1040
1044
1040
1037
1037
1040
1043
1049
1050
1052
1053
1059
1074
1085
1095
1100
1109
1126
1151
1178
1201
1225
1249
1277
1308
1341
1377
1416
1441
1445
1422
1363
1277
1186
1117
1072
1049
1038
1037
1036
1036
1035
1037
1038
1035
1031
1027
1023
1025
1024
1022
1019
1015
1014
1018
1020
1019
1015
1011
1013
1012
1018
1017
1014
1013
1012
1013
1014
1012
1011
1009
1008
1011
1010
1009
1007
1006
1007
1011
1011
1012
1007
1002
1003
1006
1009
1007
1006
1005
1007
1006
1007
1006
1003
1000
1004
1005
1008
1008
1004
1002
1003
1005
1010
1009
1007
1004
1005
1007
1009
1008
1005
1005
1006
1011
1015
1014
1013
1011
1013
1016
1019
1019
1019
1018
1020
1025
1030
1030
1031
1030
1034
1037
1042
1042
1045
1045
1049
1052
1058
1060
1059
1057
1061
1065
1070
1069
1067
1065
1066
1069
1067
1065
1060
1059
1060
1060
1059
1055
1050
1048
1045
1048
1049
1048
1043
1042
1041
1042
1045
1044
1043
1041
1041
1044
1042
1042
1039
1038
1039
1041
1044
1043
1039
1036
1036
1037
1044
1041
1038
1037
1036
1039
1040
1039
1034
1032
1035
1035
1038
1035
1032
1031
1031
1034
1038
1034
1035
1032
1031
1033
1038
1036
1034
1033
1032
1035
1039
1038
1035
1033
1036
1035
1042
1038
1036
1032
1034
1034
1037
1036
1034
1031
1033
1034
1036
1036
1034
1028
1031
1033
1036
1032
1027
1028
1030
1032
1037
1031
1028
1027
1026
1030
1034
1032
1029
1028
1028
1031
1033
1031
1029
1027
1029
1030
1031
1031
1028
1027
1029
1030
1031
1028
1027
1026
1026
1030
1033
1031
