908
910
911
911
908
909
907
906
904
904
904
903
904
905
907
906
906
906
903
903
898
896
897
900
900
903
901
902
902
902
898
898
894
896
893
897
896
894
898
900
899
898
898
895
893
892
891
896
898
899
898
901
902
902
900
901
901
903
903
907
911
916
920
922
923
922
926
925
923
922
918
918
920
925
925
928
927
926
922
921
919
915
911
910
907
905
900
899
898
893
894
895
892
893
896
894
891
893
895
895
894
893
892
886
889
887
891
889
889
891
896
895
895
894
895
894
894
894
895
895
899
900
906
907
908
910
908
911
917
927
938
964
998
1045
1106
1176
1252
1318
1361
1367
1324
1239
1115
987
859
760
733
754
799
849
887
914
925
929
925
920
911
907
907
911
913
912
911
913
910
911
910
911
913
914
915
916
917
918
916
917
913
913
915
916
917
919
919
919
917
919
916
916
914
914
915
916
917
918
921
923
920
920
921
920
921
918
919
921
921
922
927
925
924
924
921
923
922
922
924
923
926
927
928
928
929
929
928
929
927
925
923
929
930
932
933
934
933
935
935
933
932
933
936
936
939
942
945
945
947
947
946
946
947
944
945
948
950
953
954
956
952
953
954
951
950
951
952
955
956
955
959
958
959
957
956
956
952
950
949
948
948
944
945
943
938
932
928
925
920
918
913
910
908
907
906
906
902
901
899
898
893
892
891
894
894
894
896
894
894
894
892
891
892
891
894
892
894
895
896
898
898
899
897
897
895
896
900
900
902
902
905
908
907
908
906
905
903
902
900
905
906
907
909
910
910
908
906
902
900
898
898
898
899
900
902
904
904
904
903
901
899
897
898
900
900
903
902
901
900
898
898
896
894
894
894
895
894
895
898
902
898
899
895
893
892
894
897
897
896
899
899
900
899
901
897
900
895
896
898
899
902
901
901
902
901
901
900
898
896
901
900
898
900
900
902
904
903
902
903
902
900
898
900
899
904
903
904
907
905
904
904
904
902
903
904
909
916
918
922
927
926
927
930
929
931
931
936
938
938
938
937
940
938
938
936
936
934
934
932
934
933
933
931
929
925
922
921
915
914
914
913
913
911
914
915
917
917
917
915
914
913
912
911
911
911
911
915
918
915
918
918
917
916
915
914
918
921
924
926
929
928
930
932
932
931
930
932
935
939
945
955
973
995
1029
1076
1135
1205
1279
1344
1379
1372
1313
1204
1076
948
821
772
777
814
863
912
946
965
970
969
962
954
949
945
943
945
947
948
951
952
953
955
955
958
955
956
955
955
952
954
954
956
956
960
961
960
963
959
958
956
957
956
959
961
964
963
965
966
962
960
962
962
962
961
960
962
966
966
967
967
967
968
967
966
965
965
966
966
969
971
973
969
972
971
971
971
971
972
968
972
976
974
979
981
981
979
980
981
981
984
984
987
987
990
990
991
990
990
988
991
990
989
995
996
996
999
1001
1002
1000
999
998
995
995
996
996
997
998
1001
1003
1004
1003
1003
1003
1002
1001
1001
1000
1000
999
1000
998
997
994
992
988
982
980
977
973
972
971
969
968
968
965
966
964
962
960
959
954
956
959
960
961
961
960
959
955
956
954
955
958
958
959
964
965
965
967
967
968
966
963
961
967
967
969
974
971
973
974
973
970
969
971
970
970
971
973
976
977
976
978
974
974
973
971
971
971
975
972
974
976
973
975
974
973
970
969
967
968
970
969
973
973
972
974
971
971
970
966
966
964
967
968
969
971
970
968
967
966
966
965
968
968
966
965
965
969
970
970
970
968
967
969
968
966
969
966
966
969
972
970
969
966
964
963
965
965
966
968
971
971
970
970
970
966
967
967
966
968
968
969
968
968
969
971
969
966
966
965
965
965
966
968
968
974
976
978
976
979
981
982
983
986
989
990
994
996
999
1000
998
997
992
993
989
993
991
994
995
995
995
994
992
989
985
982
978
975
974
973
971
971
971
970
972
966
967
965
965
965
967
968
968
970
969
969
967
964
964
964
964
964
967
969
967
971
970
972
969
967
968
968
970
975
977
979
984
984
990
997
1014
1040
1083
1141
1212
1288
1353
1394
1398
1352
1256
1128
1000
875
816
811
846
895
944
982
1000
1010
1009
998
991
981
979
976
978
982
985
988
989
991
991
990
989
987
985
986
984
985
989
989
987
989
990
990
991
989
992
988
988
987
987
989
993
992
994
991
992
991
988
985
986
986
988
988
989
992
988
991
989
986
986
985
986
988
988
987
988
989
991
989
989
988
988
988
989
989
990
990
992
993
994
997
995
996
995
993
994
994
995
998
999
999
1001
999
998
999
998
999
999
1001
1001
1001
1005
1005
1005
1003
1002
1003
1001
999
998
999
1001
1000
1002
1004
1005
1002
1002
1002
1004
999
1000
1000
1001
1000
1001
998
995
992
988
984
977
974
972
968
966
965
966
965
963
960
959
957
954
950
949
950
950
952
954
954
955
954
950
950
945
944
946
945
945
952
952
952
954
952
953
951
950
949
953
954
954
955
952
956
955
956
954
954
953
952
955
954
956
956
956
955
957
957
955
955
952
949
948
950
948
950
951
949
949
948
948
948
945
945
942
942
944
941
943
947
944
946
944
942
939
938
936
937
938
936
938
940
938
941
937
937
937
934
934
934
936
936
936
937
936
938
937
935
935
934
932
931
930
934
937
942
942
945
949
948
949
950
952
955
954
959
963
965
967
965
963
961
959
957
957
955
957
958
957
957
955
953
950
944
940
935
931
927
928
929
933
933
932
931
931
929
926
923
923
921
921
925
924
925
926
926
924
924
922
922
921
920
922
924
926
926
928
929
930
929
928
928
929
933
933
938
944
956
970
999
1037
1087
1152
1222
1290
1343
1366
1353
1298
1206
1083
955
844
782
770
795
842
888
927
948
959
958
954
945
939
934
933
931
935
936
937
940
941
940
940
938
940
940
937
936
937
936
939
939
940
942
941
942
942
942
941
938
938
938
939
940
941
942
943
941
941
939
939
938
938
938
940
940
941
943
942
942
942
940
939
939
938
937
939
941
942
946
944
945
944
945
944
942
941
942
943
945
946
948
949
951
949
949
947
946
943
947
947
945
949
953
954
956
955
954
954
954
951
952
957
955
957
959
961
960
960
958
957
953
954
956
957
956
959
961
961
960
958
958
954
955
954
955
955
957
959
955
955
954
951
948
943
940
935
934
934
931
928
927
925
924
921
917
915
909
908
909
906
906
906
906
906
903
904
902
899
897
897
897
897
897
899
901
902
903
900
897
900
897
897
899
901
902
905
906
906
907
909
907
906
904
904
905
905
906
906
910
912
913
914
913
911
908
906
909
909
909
910
912
911
909
908
909
906
905
903
903
904
904
909
908
907
907
905
903
900
902
900
902
902
904
903
903
906
905
905
902
901
899
897
898
897
899
898
900
899
898
899
897
896
895
891
894
894
897
898
900
900
902
901
900
895
894
895
895
896
895
897
899
899
901
899
899
899
899
900
901
906
908
912
915
919
919
921
922
924
924
926
927
925
928
925
925
928
928
927
925
924
923
919
917
917
918
913
911
908
907
903
900
894
893
893
895
894
897
897
900
899
897
894
893
892
890
889
889
888
891
892
892
892
895
895
893
893
891
891
894
897
899
902
903
905
907
906
909
908
909
912
921
935
960
993
1038
1096
1163
1237
1304
1345
1351
1309
1219
1095
967
839
758
733
755
801
848
891
916
929
932
928
921
913
913
912
910
910
911
911
909
909
907
907
908
909
912
911
911
911
910
907
907
908
906
909
910
911
911
910
912
912
911
911
907
908
909
909
910
911
913
913
914
912
913
911
911
911
910
910
911
912
914
914
916
915
913
912
914
912
910
911
912
911
915
919
919
919
918
918
916
916
918
918
920
918
922
926
926
924
923
921
922
922
924
924
926
928
930
933
932
933
933
932
931
930
932
931
936
937
939
939
938
942
941
940
941
939
939
941
942
942
944
941
944
944
940
939
936
932
929
924
923
921
919
919
918
911
911
906
900
898
897
895
894
893
894
894
892
889
888
884
884
884
881
882
883
883
885
886
883
883
883
881
878
880
880
880
881
884
888
888
888
888
888
887
886
888
887
888
891
889
891
894
894
896
894
892
889
891
891
892
892
893
893
895
893
893
889
888
887
889
888
888
888
888
890
889
886
884
884
887
885
884
883
886
886
885
885
887
885
884
882
882
881
880
880
880
883
881
884
885
885
884
881
882
879
879
879
879
881
881
881
882
884
882
881
881
879
878
881
880
885
888
890
894
896
897
896
899
899
902
903
906
912
913
912
914
910
910
909
906
908
907
909
908
909
909
908
908
905
903
898
892
886
885
881
879
877
878
882
885
883
880
880
879
875
874
874
873
874
874
878
881
878
880
879
877
876
874
876
877
878
878
882
881
880
882
882
883
883
884
888
889
891
896
902
911
929
958
997
1052
1122
1204
1275
1323
1330
1290
1195
1067
939
811
728
707
733
778
830
871
895
907
910
908
903
898
892
890
888
887
889
890
891
894
895
895
894
896
894
892
889
889
890
890
892
897
897
896
897
897
895
893
893
891
894
895
896
898
897
899
898
898
899
895
898
895
894
895
898
899
900
903
902
902
901
900
899
899
899
901
903
903
906
907
904
905
904
902
902
903
901
902
903
904
908
911
911
910
909
908
907
906
908
909
912
911
915
919
918
918
917
919
914
915
918
917
922
921
923
923
924
923
928
927
925
925
925
925
926
927
927
930
930
931
928
928
924
922
920
918
915
913
909
906
904
902
898
892
888
882
881
881
878
877
876
876
876
874
875
869
870
869
866
868
868
869
871
871
873
871
871
869
865
865
867
868
871
874
873
878
877
876
875
872
872
871
873
873
874
875
878
878
880
879
878
877
877
876
877
875
878
879
879
884
878
878
875
876
874
874
872
871
872
871
875
875
873
873
870
872
871
869
867
867
868
871
870
872
873
871
869
868
865
861
859
862
864
863
865
869
869
869
868
868
866
866
864
868
868
870
875
878
879
882
881
881
882
884
884
885
890
893
896
900
901
901
898
897
892
888
889
890
893
894
896
894
892
892
889
885
881
878
870
868
864
864
865
866
864
867
866
865
861
856
858
857
857
857
860
862
859
859
857
857
859
859
859
859
861
861
862
864
863
865
866
866
867
869
870
870
875
875
878
884
891
908
927
964
1014
1080
1156
1234
1291
1316
1300
1231
1116
988
860
752
703
705
741
789
835
867
886
891
891
885
883
877
874
873
872
873
874
877
877
879
879
881
881
880
879
877
878
876
879
881
882
885
882
882
879
879
880
876
878
878
878
880
883
883
883
884
884
884
881
881
882
885
886
884
884
883
883
884
885
884
883
882
883
881
883
884
883
888
889
887
890
887
886
882
883
883
885
887
891
894
897
895
896
895
894
893
893
891
896
896
900
903
902
905
903
905
902
903
903
902
902
904
907
906
907
906
907
906
906
906
906
906
906
911
910
910
908
912
911
908
908
903
906
904
902
903
902
900
898
894
889
885
878
874
871
868
867
864
864
863
861
862
859
857
856
853
850
851
853
854
855
854
855
853
851
852
851
850
851
851
851
849
853
855
856
856
856
853
854
853
854
855
856
858
859
862
862
860
863
858
859
858
859
859
856
860
859
860
861
862
858
857
856
857
852
855
855
856
856
858
857
858
855
855
851
850
850
851
852
852
852
853
855
855
853
852
853
849
848
849
850
851
853
854
854
857
857
856
858
860
858
860
862
866
867
871
874
877
880
879
879
879
877
874
873
877
877
880
880
879
877
874
870
866
863
859
857
854
851
851
847
847
847
845
844
843
844
841
841
842
844
843
843
844
845
842
841
840
837
838
840
841
840
846
846
843
842
842
843
840
842
844
847
852
855
860
860
858
860
864
867
883
902
935
987
1057
1142
1229
1294
1319
1287
1187
1059
931
803
693
688
730
784
838
875
892
895
886
874
862
855
853
855
859
863
866
867
865
868
863
863
864
861
860
863
868
866
869
871
865
865
864
866
865
865
865
863
866
868
870
873
871
869
868
868
867
868
868
868
871
869
873
873
872
870
871
870
870
871
871
872
874
872
877
876
877
877
878
876
875
875
875
877
877
879
879
884
884
884
883
883
882
882
882
882
886
885
891
896
893
896
896
895
894
893
893
894
896
896
899
901
900
902
901
900
902
899
898
900
901
905
904
905
905
906
902
901
899
896
895
895
893
889
887
885
883
879
876
872
867
862
859
857
858
856
853
854
851
851
849
846
846
844
842
842
843
846
847
847
847
846
846
846
844
843
844
843
846
846
847
851
850
851
849
851
847
849
849
851
852
856
855
857
856
856
856
856
855
855
856
855
856
855
857
857
858
855
855
852
852
853
853
854
853
853
856
856
855
853
855
854
851
849
849
850
851
853
852
855
855
850
852
851
849
850
848
846
847
848
850
852
851
850
848
847
846
846
844
847
845
848
851
852
851
852
849
852
848
849
847
849
849
850
854
857
857
858
860
861
862
860
865
864
866
871
875
879
881
884
886
883
880
879
879
878
881
881
883
885
883
884
882
878
877
874
871
868
866
864
860
860
855
856
851
852
852
851
851
851
853
853
853
853
851
852
851
849
849
847
846
848
849
855
855
857
856
853
857
854
854
853
856
857
858
859
864
868
870
874
876
880
893
913
944
993
1056
1133
1214
1284
1326
1320
1263
1153
1025
897
769
702
700
731
778
833
866
888
896
894
884
878
875
869
869
869
874
880
877
878
876
873
875
873
875
873
876
877
877
879
878
878
878
877
875
872
872
875
878
881
880
882
882
881
880
879
877
876
875
876
878
875
882
880
882
882
880
877
878
879
879
882
882
881
884
883
882
886
886
887
884
883
884
885
888
888
890
893
892
893
893
891
890
890
891
893
893
897
898
899
898
897
899
898
897
899
901
901
902
905
907
910
909
912
909
910
909
909
907
908
912
912
914
914
917
917
914
913
910
911
912
913
914
919
921
921
919
919
916
910
906
902
903
898
899
895
895
894
890
885
883
879
878
872
871
872
870
869
870
872
869
870
867
863
864
862
864
859
862
862
866
867
867
867
865
863
863
862
862
863
863
865
866
870
866
869
867
865
866
867
867
867
869
870
873
874
872
876
875
873
872
870
873
872
874
874
876
878
876
872
874
874
871
869
869
869
872
873
873
875
874
872
873
869
870
868
867
866
868
869
869
871
871
870
872
870
867
865
864
864
868
867
870
868
870
868
868
867
866
864
864
863
866
868
869
871
869
871
870
868
866
866
865
864
865
869
869
869
870
867
868
866
866
866
866
865
867
867
868
873
872
870
870
871
871
873
875
877
880
883
888
890
891
894
894
896
896
896
896
897
896
897
898
901
899
900
897
898
896
891
890
889
887
887
885
882
879
876
873
874
871
871
870
871
872
871
873
873
873
874
872
870
868
867
866
866
867
866
869
873
874
873
873
873
872
872
874
878
877
882
885
889
892
894
896
900
910
930
961
1008
1069
1142
1222
1293
1339
1340
1283
1171
1043
915
787
710
716
758
813
864
897
914
916
910
901
892
885
885
887
890
892
896
896
896
896
896
894
893
893
893
896
898
900
901
902
901
900
897
898
897
896
897
897
900
897
899
898
902
900
899
898
897
894
896
900
900
902
903
903
904
902
899
899
900
898
899
903
902
903
903
905
905
903
904
902
902
901
903
903
906
905
908
911
911
911
909
908
908
909
908
911
911
913
915
916
915
916
915
917
915
915
918
919
917
920
923
925
924
925
925
924
924
924
924
923
925
927
929
930
928
929
927
926
926
925
925
925
929
930
931
927
926
923
919
918
912
907
906
905
903
901
900
898
896
892
890
887
886
882
882
883
884
882
882
880
882
881
881
879
878
875
878
877
879
882
882
884
884
881
883
881
881
879
881
883
882
883
888
888
889
888
887
885
884
884
884
886
888
890
893
894
893
895
891
892
889
890
890
889
892
892
894
893
891
891
888
888
884
885
885
889
888
891
890
891
887
888
884
884
883
882
884
883
886
887
889
889
888
887
887
887
885
886
884
886
889
890
892
889
889
889
889
887
891
894
895
898
901
907
910
912
913
914
916
917
916
914
916
916
916
918
920
922
921
920
920
916
911
906
902
899
895
898
895
894
893
892
893
892
890
893
892
894
892
890
891
891
894
894
894
891
891
892
893
895
893
897
898
901
900
901
899
904
902
903
903
905
908
911
915
920
925
933
947
968
995
1037
1092
1162
1241
1309
1357
1362
1313
1203
1075
947
819
741
747
792
852
905
940
955
955
951
939
927
922
