908
908
908
908
908
908
908
908
907
906
908
908
909
913
910
909
907
907
905
905
902
903
906
907
908
908
907
906
905
903
904
904
903
903
906
907
906
909
908
907
907
909
905
904
903
905
906
904
906
907
908
908
907
904
903
903
900
902
902
904
904
907
905
906
902
902
902
903
903
905
905
906
911
907
910
909
908
907
906
905
906
909
912
914
917
919
921
922
926
925
926
925
928
931
933
935
938
937
936
935
929
928
927
926
925
927
928
928
930
930
927
924
917
915
911
909
907
907
908
911
910
911
912
909
908
907
903
902
904
906
904
905
909
913
911
909
909
906
906
906
909
907
909
911
916
918
919
919
920
921
921
922
925
934
949
972
1004
1049
1109
1179
1255
1318
1357
1358
1315
1223
1096
968
843
772
752
773
817
864
903
926
938
941
938
930
926
923
920
922
921
924
924
924
924
926
926
926
927
928
929
927
929
928
925
926
922
923
928
930
928
931
930
931
930
927
925
926
929
929
929
930
930
932
931
931
930
927
926
927
927
925
926
926
930
931
931
933
929
931
928
927
928
930
931
930
931
935
936
936
936
935
936
932
933
933
936
938
937
939
941
941
940
940
938
939
941
938
942
942
944
947
950
949
948
946
945
945
946
945
947
950
952
951
951
951
949
948
947
947
947
948
949
949
951
955
953
952
951
953
951
950
951
948
951
948
948
951
946
945
945
939
935
931
929
926
925
925
923
924
918
917
915
914
911
910
910
908
911
909
912
913
912
907
909
907
907
905
906
906
908
908
911
913
914
913
911
908
908
907
909
910
911
914
915
916
916
916
914
914
911
911
914
914
915
918
919
919
919
919
919
916
912
913
913
914
913
914
914
916
916
915
911
911
910
909
908
909
908
910
911
913
911
910
910
908
909
904
906
907
905
905
908
909
908
906
906
902
902
902
901
902
901
902
905
905
906
907
906
904
903
902
899
901
902
905
906
906
906
907
905
903
902
901
902
901
903
903
905
906
905
905
903
904
903
906
903
906
909
911
914
918
920
921
921
921
924
925
926
926
929
930
933
937
932
930
927
927
928
928
926
928
928
926
928
924
919
915
912
907
904
902
901
900
903
904
905
905
903
903
902
901
898
898
899
899
900
901
903
901
901
902
905
903
903
903
905
904
907
909
914
915
916
920
919
923
931
944
970
1007
1055
1116
1189
1264
1321
1346
1322
1243
1115
987
859
768
750
778
825
875
917
939
944
939
930
921
915
913
909
911
918
920
921
921
918
917
918
918
918
920
919
919
923
924
923
923
922
920
921
919
919
920
923
925
925
927
927
926
925
923
922
921
922
920
924
923
927
927
929
927
927
926
922
922
922
922
923
925
929
930
931
931
929
929
926
923
925
926
926
925
929
934
928
931
931
930
927
928
928
926
931
929
932
935
935
937
936
935
938
937
937
937
938
941
941
942
942
943
941
941
943
941
941
939
940
941
944
946
947
947
946
944
941
941
939
942
941
942
944
946
948
944
946
944
942
939
936
936
935
934
933
932
929
925
923
921
918
913
911
910
908
906
903
905
906
904
903
902
900
898
897
895
896
896
898
899
901
902
900
901
899
897
898
898
899
903
904
908
907
907
908
906
903
903
903
903
904
904
909
909
908
908
907
908
905
904
903
904
904
904
905
905
903
905
904
900
899
902
901
900
901
901
900
904
904
903
902
899
895
892
895
896
896
896
898
899
899
898
896
895
892
893
894
894
894
895
897
895
895
895
895
895
892
892
892
893
892
894
897
901
901
902
904
903
906
905
908
912
916
919
924
928
928
924
924
921
920
918
919
920
920
922
920
922
920
917
916
911
904
902
896
897
894
895
897
897
897
895
896
890
891
890
891
889
891
891
893
895
895
894
892
892
890
890
888
888
891
892
895
897
899
898
898
898
898
900
904
904
904
908
915
924
937
964
995
1041
1099
1167
1238
1305
1351
1366
1342
1275
1173
1047
922
819
760
750
779
826
870
904
924
932
933
926
920
911
909
908
906
908
912
912
913
917
917
917
915
914
911
914
911
911
912
916
916
920
919
916
918
913
914
915
915
914
916
918
918
918
920
920
918
918
918
919
918
916
915
919
922
922
918
921
921
921
921
919
921
919
923
924
925
928
928
926
925
925
925
923
924
922
925
927
928
930
930
931
931
930
929
931
930
932
934
935
935
939
939
939
937
938
935
939
939
941
941
942
945
949
948
949
948
950
947
948
945
946
947
948
948
951
952
952
949
950
948
945
947
946
945
944
942
942
941
933
929
927
924
922
918
914
913
913
908
910
908
904
903
897
895
895
892
894
894
893
897
897
895
893
892
894
890
892
893
892
894
893
895
897
898
899
898
897
897
898
898
898
902
901
902
905
906
906
904
905
904
903
903
903
905
906
908
907
908
906
904
905
903
902
903
902
902
905
906
904
903
902
899
901
898
897
897
898
900
898
901
900
902
901
899
899
895
891
895
896
896
898
899
900
901
897
898
896
896
894
894
897
896
897
896
898
898
898
896
895
894
894
892
893
893
896
895
897
897
896
894
893
894
893
896
892
892
896
899
898
898
897
892
896
893
895
897
898
896
902
902
903
906
910
911
908
908
911
914
914
917
922
923
925
926
927
926
923
923
918
918
918
918
921
924
924
924
922
918
916
911
908
906
904
900
902
902
903
901
902
899
898
896
896
896
898
898
896
899
900
899
898
897
897
894
897
895
897
897
901
902
902
904
905
903
905
903
905
906
907
909
915
918
920
925
935
951
977
1017
1069
1139
1214
1285
1343
1373
1363
1310
1216
1092
968
858
780
749
760
800
844
884
914
929
935
935
928
922
915
914
914
915
917
919
922
923
921
920
919
918
917
918
918
921
921
923
923
924
924
920
921
920
917
918
921
923
924
924
925
925
925
922
923
921
921
921
921
924
925
926
927
927
925
925
923
920
922
920
922
924
926
926
924
928
928
928
928
926
924
925
926
928
930
932
934
933
934
934
930
929
929
931
932
933
938
939
941
941
939
939
939
938
939
938
941
941
943
943
945
946
945
944
945
943
943
943
941
944
948
950
950
948
948
948
950
948
948
950
947
948
950
952
950
951
947
944
937
935
932
929
926
926
923
922
922
919
917
913
910
909
905
906
903
904
904
901
906
904
905
904
900
900
900
902
902
904
903
905
906
907
907
906
906
905
902
904
905
907
908
910
909
909
911
908
909
909
909
910
907
913
912
913
914
912
913
913
911
909
912
911
912
911
913
913
914
914
913
911
910
908
907
907
904
903
906
907
906
907
906
906
905
903
900
903
901
903
904
907
905
904
905
903
900
900
899
900
900
901
903
903
903
903
902
902
901
901
898
897
897
900
902
903
904
902
903
900
899
899
898
899
898
899
903
902
904
902
904
900
902
899
900
901
900
900
902
904
902
905
904
902
902
900
898
901
898
899
900
901
903
904
905
901
901
900
901
900
900
901
903
904
905
902
901
902
900
899
897
900
903
904
902
904
904
903
905
901
900
899
899
902
902
904
904
906
906
905
905
903
901
899
899
897
900
901
904
906
908
907
910
911
908
911
914
916
918
924
927
928
932
931
932
932
930
926
924
926
925
927
927
930
932
930
930
924
921
915
912
909
908
906
907
909
910
908
906
907
905
902
900
898
900
901
900
901
906
906
906
904
902
899
900
898
904
904
903
906
908
905
907
908
909
908
910
913
914
917
920
923
931
941
958
984
1021
1069
1137
1212
1283
1333
1340
1288
1181
1053
925
797
754
762
804
856
905
935
948
948
938
930
921
915
915
915
916
919
919
922
920
921
923
923
921
921
922
920
919
920
921
922
923
924
927
926
926
926
924
922
921
922
923
924
923
924
924
925
922
923
920
920
923
924
924
927
926
929
926
931
928
927
925
924
924
922
924
925
925
928
930
933
930
930
929
930
928
927
931
930
933
934
937
934
934
935
932
934
933
934
935
936
935
939
939
942
938
938
938
940
939
938
939
939
938
940
943
942
940
940
938
937
935
935
935
935
935
938
938
939
939
940
938
940
938
938
937
938
939
939
938
934
932
930
925
924
920
917
917
913
910
911
912
911
909
907
906
903
901
903
900
900
901
905
905
904
904
903
899
898
898
901
901
901
902
903
908
908
906
904
904
905
905
906
904
906
907
907
912
908
910
908
906
904
905
905
905
907
910
911
911
911
909
911
910
907
905
903
903
907
905
907
907
907
904
906
905
903
900
900
899
898
900
904
904
903
902
900
898
897
893
897
895
897
895
895
896
900
898
897
896
895
895
893
894
895
894
896
897
898
897
896
895
892
892
893
893
894
895
897
898
898
895
897
893
890
890
888
893
891
893
895
898
898
900
900
898
899
901
902
904
908
911
912
915
917
919
921
920
919
919
916
914
914
916
913
918
918
916
917
913
908
903
899
898
896
894
897
897
895
899
897
894
891
891
890
890
890
890
893
891
894
895
891
889
892
889
888
888
891
891
894
897
897
899
898
898
899
898
902
902
902
909
916
930
947
977
1018
1080
1148
1222
1291
1341
1358
1335
1266
1157
1029
901
790
744
751
790
840
884
916
933
935
930
921
913
907
905
905
907
905
911
913
914
915
916
914
914
914
911
912
909
910
909
911
913
914
916
919
917
914
916
916
914
914
915
915
916
918
920
920
919
916
916
914
913
912
914
912
914
917
919
920
918
918
917
918
915
917
916
918
920
922
922
923
923
922
920
920
919
918
920
923
921
922
924
925
925
924
925
924
924
924
924
927
928
930
932
933
932
931
931
931
929
931
930
932
935
936
937
935
938
936
931
932
933
931
933
933
933
936
936
936
933
930
932
931
930
926
925
924
923
923
925
921
917
916
913
908
905
905
900
899
899
897
899
897
896
894
894
889
887
885
884
886
888
889
890
887
887
887
885
883
884
885
888
888
888
890
894
892
895
895
891
894
892
891
892
895
896
899
900
902
901
900
899
897
895
896
897
896
897
901
901
899
901
901
898
897
895
895
895
895
895
896
899
896
896
896
893
892
893
892
888
889
891
890
893
893
892
891
890
889
888
887
887
887
889
889
891
891
891
888
886
888
886
887
885
887
889
890
890
892
890
888
888
886
884
885
885
886
887
889
889
890
891
891
888
885
887
884
886
887
889
892
893
896
895
900
901
900
901
903
906
908
909
911
913
915
915
918
917
917
916
911
910
914
915
912
914
920
917
917
912
909
906
901
896
894
892
892
893
895
893
890
891
887
890
888
888
889
888
888
890
892
891
890
890
889
888
889
888
889
892
892
895
897
895
895
896
895
896
897
898
899
903
904
907
913
921
938
964
1002
1052
1120
1198
1273
1336
1364
1348
1279
1167
1039
911
798
745
740
771
818
864
900
919
928
927
920
914
910
904
901
903
905
908
910
909
913
911
910
910
910
908
908
907
908
911
912
913
913
914
914
914
913
909
908
910
912
911
913
915
915
914
914
910
911
911
909
908
911
912
912
914
913
914
914
916
915
913
913
911
915
917
916
916
919
919
918
918
918
916
915
917
917
921
922
924
921
925
926
924
922
922
921
922
923
927
927
929
931
928
931
930
929
928
928
931
931
933
934
934
940
939
940
937
937
936
934
940
939
942
941
943
944
945
945
941
942
940
942
940
941
944
946
949
947
947
943
940
938
934
933
929
927
926
922
921
921
917
914
910
906
905
901
900
899
902
900
900
901
899
895
893
893
891
891
891
894
893
894
897
895
896
894
894
894
892
893
896
897
898
900
903
903
904
905
904
902
902
903
904
905
907
909
910
910
912
912
910
910
908
910
909
911
909
912
914
916
914
913
909
911
908
908
910
909
909
909
911
911
910
910
908
907
906
904
902
905
905
907
907
910
908
907
904
904
905
904
903
904
905
906
906
908
905
906
904
902
902
904
902
903
905
907
910
908
906
905
904
906
902
902
903
904
904
905
906
908
909
907
907
908
908
906
906
909
908
911
912
912
911
914
911
912
909
911
910
910
911
912
913
913
915
916
917
918
917
919
920
922
924
929
933
936
939
939
941
941
942
940
942
940
939
941
941
941
941
941
941
942
938
937
932
935
933
932
929
928
927
922
922
923
915
917
921
919
921
921
923
923
922
921
918
918
917
917
917
917
917
920
922
921
922
925
924
921
925
925
928
930
934
936
939
942
950
962
982
1013
1059
1118
1194
1272
1340
1377
1371
1307
1196
1068
940
819
770
777
815
867
912
942
959
964
962
959
950
944
941
941
941
945
946
950
950
951
949
948
947
950
946
944
946
945
947
950
952
951
952
951
950
952
950
950
948
951
953
952
954
957
956
958
955
956
955
955
952
950
956
953
956
959
958
957
958
957
954
951
956
955
959
959
960
964
964
965
965
962
960
959
957
961
963
966
968
968
970
970
968
968
968
966
968
967
968
971
973
978
978
978
978
977
977
975
978
977
981
982
983
984
981
984
984
982
981
980
978
979
979
981
981
984
986
986
984
982
980
982
984
981
980
981
982
980
979
976
972
969
963
965
960
958
956
956
955
955
952
948
943
945
940
940
938
939
938
938
939
940
939
938
938
937
933
933
933
934
936
937
938
942
940
940
938
939
936
935
937
938
939
940
942
944
944
945
943
943
942
945
944
945
944
945
946
949
948
948
946
945
946
943
946
946
945
946
946
945
948
944
944
944
941
940
938
941
941
942
943
945
944
943
942
941
939
937
937
939
941
941
942
942
940
943
941
939
937
935
936
937
937
939
934
938
941
941
940
937
936
934
932
935
936
938
938
941
939
940
937
938
934
933
934
935
936
937
938
939
938
936
937
935
937
932
934
933
933
934
937
938
936
935
936
936
933
933
932
935
937
939
942
943
944
948
948
948
948
952
955
955
959
963
963
965
968
968
967
966
960
960
958
958
960
961
964
963
960
957
955
950
946
942
938
936
936
936
939
940
939
939
939
937
935
933
931
931
933
933
936
937
938
938
936
936
933
934
932
935
937
940
943
944
944
946
947
948
948
950
956
966
987
1018
1064
1126
1199
1278
1344
1382
1384
1342
1253
1133
1005
881
806
782
798
840
888
929
956
968
968
965
959
952
949
949
947
949
949
952
949
950
950
952
954
954
955
955
955
956
953
953
952
949
952
953
953
956
957
958
957
955
956
955
954
954
954
954
954
955
956
957
954
957
953
956
950
952
952
954
957
955
954
957
959
958
957
957
956
954
955
956
956
957
958
962
962
957
957
958
959
957
957
956
958
960
961
965
966
967
965
965
967
965
963
965
968
969
970
969
968
970
971
971
969
968
969
969
972
973
975
975
978
974
975
972
973
969
970
971
970
973
974
975
973
972
971
972
973
971
969
968
968
966
965
962
958
957
952
946
943
941
938
937
934
932
932
931
931
931
926
923
923
920
921
921
921
923
924
925
923
923
922
919
920
919
918
918
920
921
922
924
925
925
924
923
921
922
923
923
926
923
925
930
929
930
927
926
926
925
926
925
926
928
930
930
929
932
931
930
925
924
925
924
924
925
924
928
926
925
921
918
916
917
917
918
918
920
919
923
923
920
918
918
918
916
915
915
916
917
916
918
917
916
916
916
915
913
913
913
914
916
913
915
913
913
911
911
910
906
910
911
913
916
919
923
924
926
926
926
925
925
926
928
932
935
940
941
944
943
940
936
934
937
933
938
939
939
941
942
941
940
933
928
920
917
914
911
910
910
912
914
916
916
912
911
909
908
905
906
906
906
909
908
909
907
905
904
903
905
904
907
906
908
910
913
912
915
915
915
913
916
914
917
919
923
928
935
951
973
1007
1057
1123
1199
1272
1332
1366
1355
1297
1195
1067
939
821
759
750
782
829
875
910
931
941
941
935
929
925
924
922
920
920
920
921
925
926
928
929
928
927
926
924
925
924
925
926
927
930
932
930
930
930
929
929
926
927
926
929
929
931
933
932
930
929
927
928
925
923
926
925
928
929
927
929
933
932
930
928
928
928
926
929
930
932
934
933
934
932
932
932
930
930
929
932
933
934
935
939
938
936
937
937
937
935
937
940
940
944
946
946
946
944
943
942
942
943
943
945
948
948
951
953
951
950
951
949
950
949
951
952
955
956
955
956
955
954
952
952
950
947
951
950
953
953
952
951
949
947
942
936
931
930
928
927
924
921
919
914
912
909
906
905
903
899
899
901
900
897
898
899
899
897
896
892
894
893
896
898
898
899
901
900
902
899
899
898
898
898
898
900
901
901
904
907
907
908
903
904
903
903
902
905
