889
888
890
889
887
887
888
886
887
884
884
881
885
887
889
888
887
889
889
891
892
891
891
893
894
896
902
903
906
910
915
929
951
990
1047
1128
1223
1305
1365
1381
1333
1229
1101
973
845
737
728
760
817
873
914
941
946
941
932
920
912
907
907
910
911
915
919
921
919
918
918
917
915
913
914
916
918
920
920
920
921
921
920
917
917
918
919
917
919
921
920
923
923
923
923
921
921
921
921
922
925
926
926
927
925
928
926
926
924
925
924
924
927
927
929
931
929
932
933
931
930
931
930
931
933
935
935
938
940
938
937
939
937
938
939
939
943
942
945
946
948
952
947
946
944
945
949
950
951
952
955
958
956
955
953
955
957
955
955
956
957
957
960
962
960
962
961
960
957
955
957
958
957
958
956
955
953
952
947
941
938
932
931
928
926
922
919
918
913
910
907
904
903
899
898
898
898
896
898
898
898
899
899
894
892
894
895
894
895
896
898
903
901
902
903
902
900
899
898
898
902
904
906
909
910
909
909
908
904
905
905
910
909
913
911
915
914
915
910
911
909
908
911
910
910
913
914
913
912
912
911
907
909
906
906
906
905
908
908
909
910
908
909
905
903
903
901
900
904
904
904
903
906
906
903
901
901
900
900
899
903
902
905
906
907
904
904
902
898
899
899
904
903
905
906
907
906
906
906
905
903
902
903
903
905
904
907
911
911
912
913
914
915
917
919
920
924
926
927
934
934
935
935
937
936
934
932
932
932
935
937
936
939
937
932
931
929
922
919
913
910
910
907
908
907
907
907
905
905
901
902
900
903
903
904
906
907
905
906
905
903
903
903
904
902
903
908
911
910
908
911
912
914
915
914
917
921
932
946
971
1011
1061
1126
1202
1278
1341
1383
1385
1342
1255
1133
1005
877
783
746
756
798
851
897
931
951
957
953
945
937
928
927
927
927
927
928
930
931
932
933
936
936
933
934
934
935
931
932
932
935
938
938
941
940
941
939
936
936
937
937
937
937
939
942
943
942
944
942
939
941
940
939
938
941
942
943
944
944
947
945
946
945
945
946
943
945
947
951
952
951
952
951
952
950
952
951
950
952
956
960
960
962
962
962
962
962
962
962
964
965
967
968
972
974
973
973
974
975
974
974
975
975
975
980
982
984
982
982
980
981
978
976
979
981
983
984
987
986
987
988
985
985
982
980
980
979
978
978
977
976
973
969
966
962
959
954
954
953
952
952
950
951
949
948
943
943
942
941
941
941
940
941
943
942
940
940
937
937
940
939
941
942
946
945
945
944
947
946
944
945
946
947
947
947
950
950
954
956
955
955
956
955
957
956
956
960
957
960
962
963
962
961
958
958
958
955
956
957
957
960
962
961
961
962
960
958
956
957
958
958
959
959
959
960
960
958
958
958
957
954
956
954
956
957
959
960
961
958
958
957
958
954
954
954
955
961
961
963
962
960
961
962
958
958
957
960
959
958
961
961
963
964
963
961
959
959
961
962
962
964
963
965
966
966
963
963
963
962
963
962
965
966
969
969
968
969
968
968
966
968
967
966
968
971
972
972
973
971
971
969
968
967
967
971
972
973
974
974
975
974
974
973
971
971
972
975
976
979
983
985
988
991
993
992
992
992
997
1000
1002
1005
1008
1012
1010
1008
1003
1002
1002
1003
1000
1000
1004
1005
1005
1004
1002
999
994
990
988
986
982
981
983
982
982
982
984
984
982
979
978
978
977
981
980
981
981
981
983
980
979
977
977
977
977
977
978
979
982
984
985
985
984
984
983
986
985
989
990
994
1000
1013
1028
1058
1095
1150
1213
1287
1356
1407
1431
1414
1351
1247
1119
991
881
821
811
842
890
939
982
1006
1018
1020
1013
1010
1006
1002
1001
999
1000
1001
1001
1001
1006
1006
1006
1005
1002
1002
1000
1004
1004
1004
1006
1006
1006
1006
1006
1006
1006
1005
1005
1004
1000
1000
1006
1003
1004
1004
1006
1005
1009
1008
1005
1006
1004
1003
1006
1007
1008
1007
1009
1006
1007
1004
1005
1006
1003
1004
1005
1008
1009
1009
1009
1009
1008
1010
1008
1007
1008
1006
1007
1006
1010
1011
1013
1012
1009
1010
1009
1008
1009
1011
1011
1013
1013
1018
1016
1018
1015
1014
1013
1011
1013
1014
1015
1015
1017
1019
1018
1017
1017
1016
1015
1013
1010
1013
1013
1014
1010
1015
1014
1012
1011
1009
1008
1006
1008
1011
1013
1013
1015
1017
1016
1016
1014
1013
1012
1008
1009
1008
1008
1008
1004
1003
1002
999
994
990
987
982
982
977
978
977
979
978
978
976
973
972
970
968
967
970
969
970
970
972
973
973
972
970
969
969
969
970
973
972
975
975
975
975
973
973
972
972
972
974
974
975
975
977
976
977
975
975
974
972
972
974
972
973
974
972
971
972
970
970
970
967
966
962
964
963
963
965
966
965
966
963
962
960
957
960
959
960
962
963
962
961
960
959
955
953
954
955
952
956
958
958
956
955
954
951
951
949
949
950
951
952
953
954
954
952
949
948
946
947
946
948
948
951
955
958
960
962
966
966
965
966
968
970
974
977
981
984
983
980
976
977
973
971
972
972
973
973
973
972
967
963
956
948
944
942
942
943
943
946
947
946
944
943
940
940
939
940
940
940
939
939
940
940
940
941
939
941
939
937
938
939
942
942
943
946
947
947
949
946
947
947
947
949
959
976
999
1033
1075
1138
1206
1278
1341
1381
1385
1343
1252
1124
996
868
786
769
798
853
906
946
970
977
976
969
962
956
953
953
951
954
953
952
955
956
955
956
957
958
958
958
956
957
956
956
955
954
957
956
958
961
958
960
961
957
956
953
954
955
957
956
960
962
963
960
958
955
956
956
954
955
953
956
960
960
961
958
960
958
956
955
956
956
956
959
960
960
962
961
961
960
960
959
958
958
960
958
963
963
960
963
962
962
963
959
960
964
966
966
967
965
967
967
968
967
965
964
965
965
969
967
969
972
970
971
969
966
964
960
961
960
960
962
960
964
961
961
959
958
960
955
958
958
958
960
960
959
954
952
947
945
942
940
936
934
931
930
927
928
927
923
921
918
915
913
910
911
911
910
913
915
915
912
911
910
908
909
908
908
908
911
912
912
914
914
913
913
913
914
912
913
916
917
918
917
919
921
920
919
919
916
916
917
917
919
921
920
918
917
916
915
912
911
909
908
909
909
908
911
911
910
909
907
907
903
902
903
902
904
906
903
905
901
902
901
896
900
899
898
897
898
900
903
902
902
901
898
897
895
895
894
898
897
897
897
897
898
897
895
894
894
893
895
895
894
898
900
898
900
899
898
897
900
902
904
909
912
913
917
921
922
922
923
924
926
925
923
926
925
923
925
925
924
923
921
921
917
914
914
913
909
906
903
899
896
893
892
887
888
887
888
887
889
889
892
890
890
887
887
887
884
885
886
883
889
891
891
892
891
893
892
891
891
892
894
897
899
902
905
906
913
925
944
978
1025
1087
1165
1248
1318
1357
1364
1312
1211
1083
955
827
746
725
744
792
843
884
911
926
930
926
918
911
906
906
905
905
907
910
913
915
913
911
910
909
909
909
910
910
911
914
913
915
914
912
913
911
911
910
909
910
912
912
915
916
912
915
915
912
911
910
911
910
913
915
916
915
913
915
913
912
912
914
914
915
915
917
917
918
916
919
919
916
917
915
915
918
920
921
922
923
923
920
922
923
920
921
922
923
926
924
928
930
930
930
930
929
928
928
929
930
932
933
936
938
938
939
937
936
938
937
936
936
937
940
942
941
942
941
939
937
937
935
936
937
938
938
939
938
935
932
927
925
920
919
918
917
914
914
912
909
907
904
900
895
893
892
890
888
888
889
890
889
888
882
883
883
881
882
879
881
883
884
885
886
885
885
885
883
881
882
884
885
887
888
891
892
891
892
890
889
890
888
890
892
894
893
896
896
898
899
899
897
896
896
896
896
897
898
899
900
899
899
896
894
894
890
892
892
894
894
896
896
896
895
894
892
891
890
892
891
894
895
895
894
895
891
893
891
891
888
891
892
893
894
894
895
895
893
893
892
889
888
889
889
893
895
897
896
894
894
894
893
894
891
893
893
894
895
895
894
897
896
896
895
896
896
895
897
898
901
904
906
905
906
906
908
911
912
915
918
919
922
924
927
932
933
932
932
930
930
926
926
927
928
930
931
931
931
928
927
926
922
920
919
913
914
912
912
906
907
905
905
901
903
903
903
904
905
904
904
905
902
904
903
903
901
901
902
905
906
907
906
910
908
905
906
907
907
910
914
915
916
923
921
922
925
928
936
951
975
1008
1058
1122
1195
1269
1334
1373
1373
1323
1231
1104
976
850
777
751
767
809
858
902
930
945
949
947
944
938
938
935
935
936
938
936
935
936
937
934
935
934
937
939
940
944
943
942
944
942
943
940
941
941
941
944
945
946
945
945
947
946
944
943
942
943
944
943
945
948
950
949
947
949
945
944
945
947
948
946
949
949
952
951
951
948
946
949
948
947
948
949
951
953
955
958
957
955
954
955
956
955
958
959
959
963
962
963
963
960
962
960
961
962
965
964
966
968
969
970
968
968
970
967
967
968
968
971
972
974
974
973
971
968
969
968
967
966
967
969
969
971
971
971
973
973
970
969
968
969
966
968
965
965
964
959
957
955
952
946
945
941
940
939
939
938
937
933
932
932
930
927
925
926
927
926
925
928
927
926
924
922
923
923
923
923
923
926
928
930
930
932
931
929
930
929
930
930
930
933
932
934
935
935
935
932
933
933
931
934
935
935
936
938
939
937
935
934
931
929
929
926
930
932
932
932
934
934
931
928
927
925
925
923
925
925
926
926
928
926
924
925
924
923
921
923
922
924
920
921
923
923
922
921
921
919
915
917
916
916
920
922
923
922
921
920
918
917
918
918
919
919
920
919
922
924
922
922
922
920
919
920
924
928
930
933
936
938
940
939
940
940
943
947
948
950
950
947
949
948
947
945
945
942
944
942
942
941
939
938
936
931
926
921
918
915
915
913
914
914
916
915
917
916
917
913
910
911
909
906
908
908
909
911
912
913
911
910
909
907
907
909
911
913
915
916
918
919
920
919
919
920
919
921
928
940
960
991
1034
1092
1160
1236
1306
1354
1367
1337
1259
1145
1017
889
792
746
752
791
839
885
918
934
942
943
942
937
933
929
928
929
928
925
927
928
930
930
930
933
936
933
934
933
932
931
931
928
931
932
934
933
934
934
933
931
931
930
930
931
933
934
935
936
938
936
935
935
935
932
932
934
934
935
935
934
936
934
934
934
933
934
936
935
935
938
939
938
940
938
938
936
936
936
937
937
937
940
940
942
941
943
942
944
944
942
942
941
942
946
947
948
948
949
950
949
947
947
948
946
946
946
947
948
951
949
953
951
947
945
942
941
941
943
945
946
948
949
948
947
945
945
942
942
941
939
935
932
932
929
927
920
920
914
910
906
907
907
906
906
907
901
901
899
899
898
896
896
898
900
901
901
902
899
899
896
897
896
898
897
898
898
900
903
904
904
905
903
905
903
905
905
906
906
906
909
910
910
911
908
908
907
902
903
900
904
904
908
908
907
908
905
903
900
895
896
896
897
896
896
898
897
898
897
895
895
895
892
888
892
892
894
894
895
894
894
891
893
892
892
892
897
901
901
906
908
909
910
913
915
915
918
921
921
923
922
921
920
920
919
919
917
915
911
908
911
908
902
903
897
894
892
886
883
884
884
884
885
886
885
884
885
883
882
879
878
875
875
877
878
877
880
880
881
881
879
878
877
877
880
881
882
884
890
891
892
894
893
893
896
901
917
939
975
1024
1091
1170
1252
1316
1347
1338
1276
1166
1038
910
784
724
715
753
802
849
887
907
914
911
908
903
900
900
902
900
900
903
900
902
900
899
900
900
901
903
903
904
906
906
905
903
901
899
899
903
903
904
905
908
906
906
903
902
901
901
902
904
905
906
905
907
905
907
906
907
905
905
903
903
906
906
907
910
910
909
911
908
908
908
908
910
908
911
913
915
914
916
912
912
910
911
911
912
914
917
918
920
918
920
918
916
918
917
920
918
922
923
924
928
928
926
926
925
922
923
924
925
927
926
927
930
929
927
926
926
925
922
922
922
924
925
925
927
928
927
924
921
915
913
909
909
909
904
903
902
900
895
893
887
881
877
876
876
875
875
879
880
878
876
876
872
872
868
869
866
868
868
871
870
872
874
872
872
873
868
868
872
873
879
878
878
881
882
878
878
876
875
878
879
881
882
883
884
885
885
881
882
881
879
878
879
880
883
879
881
879
883
881
878
878
874
876
876
876
876
879
879
882
876
876
875
873
871
872
871
874
874
874
877
876
876
873
871
871
871
867
871
872
871
874
874
874
872
873
871
868
869
870
872
871
871
872
874
873
874
871
872
873
876
877
879
885
889
891
894
896
897
898
902
903
899
901
903
898
899
902
905
904
904
903
903
901
898
893
890
889
888
887
885
878
877
873
874
868
868
869
870
870
871
871
872
872
871
869
870
867
867
866
865
867
867
869
869
870
869
868
869
868
867
868
869
871
872
875
878
878
880
879
882
881
881
888
900
923
955
1002
1063
1137
1219
1291
1342
1357
1319
1235
1107
979
851
737
706
724
769
821
867
898
911
912
905
902
894
891
888
890
889
893
890
891
890
890
891
891
892
892
894
896
895
896
897
895
890
893
893
896
895
896
896
895
896
897
895
894
895
895
895
894
897
898
900
901
901
900
898
898
896
895
896
897
900
904
903
903
903
903
901
900
901
902
903
903
905
906
908
909
910
908
910
910
906
904
909
909
910
914
916
914
916
916
913
914
916
917
918
919
921
923
925
926
926
927
925
926
925
926
927
930
932
932
933
935
934
932
929
931
931
929
931
932
933
930
934
932
931
926
923
919
918
911
909
906
905
903
901
898
894
891
885
885
883
878
879
876
875
878
880
879
878
877
875
873
874
872
872
873
873
875
876
877
876
876
875
873
873
873
872
877
877
880
881
881
881
882
881
882
882
883
882
884
884
887
887
889
889
886
885
885
884
883
880
884
884
884
886
886
885
885
883
880
879
878
879
882
880
881
883
883
881
878
877
876
877
875
875
875
877
879
881
880
881
879
875
875
873
872
872
875
876
878
879
877
879
880
876
874
874
875
874
873
875
877
879
879
876
876
875
874
874
874
872
874
873
877
879
881
880
880
881
879
881
882
885
888
890
892
897
900
899
901
902
906
905
904
902
901
902
899
904
905
902
905
902
903
900
897
894
891
889
886
884
882
879
877
876
870
872
873
873
870
872
872
874
875
875
877
873
871
872
870
870
871
871
873
873
875
875
874
872
874
874
875
877
874
877
879
883
886
884
886
888
888
889
892
899
914
940
972
1019
1080
1148
1226
1295
1345
1356
1318
1227
1099
971
843
737
710
733
781
837
880
908
919
920
913
907
900
895
895
893
893
896
894
898
898
898
896
899
901
901
901
902
901
900
898
900
901
899
900
903
903
907
906
907
906
906
907
904
904
905
906
909
908
909
910
909
912
908
905
904
905
907
908
910
910
913
913
914
914
913
915
913
913
911
913
916
917
920
921
921
922
920
919
918
919
920
923
924
924
928
928
929
930
928
930
929
930
932
932
932
932
933
937
939
939
939
939
939
937
937
938
940
940
940
944
941
941
938
939
939
939
941
943
945
944
948
946
948
947
947
947
944
940
940
938
938
936
935
937
933
931
928
922
921
917
913
912
912
909
909
909
909
905
902
901
900
897
899
898
898
897
898
897
898
897
899
899
894
895
897
897
899
903
905
906
907
907
906
906
905
904
905
903
906
908
911
910
909
911
910
907
910
908
908
907
910
911
912
912
911
910
910
911
909
910
909
910
908
906
908
912
910
908
908
906
905
903
902
899
900
906
906
906
907
905
905
904
903
901
902
900
902
902
904
904
905
905
903
903
898
900
900
899
903
904
906
906
904
905
904
903
901
901
899
903
904
907
906
909
910
912
911
911
912
912
916
917
921
924
928
931
935
938
937
937
935
933
930
930
931
933
936
937
935
935
931
927
922
920
918
916
914
910
911
907
905
905
906
904
904
906
902
902
901
902
902
903
901
904
901
900
899
897
895
897
899
899
901
901
901
901
902
902
901
902
902
901
904
904
909
913
913
915
915
913
918
924
939
963
999
1054
1118
1195
1272
1337
1376
1375
1326
1226
1098
970
842
756
742
768
816
868
907
929
939
938
935
926
924
922
923
924
924
924
927
925
923
922
922
923
927
927
927
930
926
929
926
922
922
924
925
924
928
931
933
933
931
930
929
928
928
928
929
927
928
928
932
930
933
932
930
929
927
930
927
927
930
930
934
935
937
934
933
934
932
