899
899
897
898
901
897
896
894
892
891
889
890
891
891
893
893
893
894
888
885
887
887
887
887
887
890
890
891
891
890
887
886
884
884
884
886
886
884
885
889
886
888
885
886
884
882
881
883
885
885
885
887
885
887
885
881
883
883
882
882
882
881
885
886
886
885
886
881
880
879
880
880
883
885
886
890
890
890
890
892
894
894
895
896
901
903
907
911
909
912
912
911
908
906
907
908
907
908
909
911
912
909
907
906
902
898
897
896
894
891
888
886
882
881
879
876
877
875
878
878
878
878
877
879
879
877
874
872
873
872
875
874
875
874
878
878
878
874
876
875
875
874
875
878
879
880
882
885
887
887
885
884
886
891
897
908
929
957
997
1049
1113
1181
1249
1295
1321
1297
1227
1119
991
863
768
725
728
763
805
848
878
894
904
904
901
896
892
891
889
891
890
889
889
890
889
889
890
891
894
895
896
895
893
892
891
891
889
890
892
893
894
899
897
897
894
892
891
889
891
888
891
890
894
897
897
897
896
895
891
891
889
891
893
895
895
897
894
896
894
894
892
891
894
892
896
897
900
900
899
900
899
898
898
896
898
898
899
903
903
905
907
902
904
903
900
899
900
901
905
906
910
912
912
914
912
911
910
909
907
907
907
911
911
911
912
913
911
910
907
906
906
909
910
910
909
911
910
912
910
911
909
906
904
905
902
900
898
899
896
892
890
885
880
878
875
871
871
870
869
869
868
866
862
862
858
857
856
858
859
860
862
863
862
861
859
858
858
856
858
856
859
861
863
864
863
865
864
863
860
862
863
864
865
867
865
867
868
870
866
868
866
866
866
868
867
870
871
869
868
867
864
862
862
860
861
862
860
861
864
863
864
861
862
858
857
857
859
857
858
859
859
862
857
857
857
856
854
852
852
853
853
855
856
857
856
854
851
852
851
849
848
850
849
849
850
853
853
853
852
853
851
847
850
850
852
853
853
852
853
854
853
852
849
849
847
849
851
852
855
858
860
861
863
865
865
864
867
869
870
871
874
881
882
885
885
882
882
879
876
879
879
881
884
884
884
881
879
877
872
870
868
865
862
858
859
858
856
855
854
852
851
850
849
850
849
854
853
856
856
854
852
852
849
849
850
849
851
852
853
855
857
857
858
859
856
855
854
854
859
862
866
868
870
876
882
898
917
951
1000
1064
1140
1217
1273
1305
1291
1229
1126
998
870
768
717
714
749
797
838
876
891
896
894
888
880
876
874
873
876
878
881
884
884
882
881
880
880
879
877
878
880
880
881
884
884
884
883
881
880
882
883
882
883
882
884
886
885
888
888
884
886
885
883
885
886
888
888
890
892
890
892
888
888
889
887
888
890
893
894
896
897
896
895
895
894
894
893
894
895
897
898
901
899
898
897
899
902
899
902
903
902
907
905
908
910
909
906
908
909
908
905
906
909
911
913
914
915
914
914
913
911
909
908
909
909
908
911
913
914
913
914
908
907
909
908
909
908
905
905
904
898
896
892
888
885
880
879
876
874
875
874
873
872
870
870
867
868
866
864
867
867
867
870
871
871
870
868
867
869
868
869
867
871
871
875
875
878
875
876
875
875
876
878
877
878
878
880
885
882
883
882
881
880
880
878
879
880
881
881
880
879
881
881
878
878
875
874
875
875
878
878
880
879
877
876
874
872
870
871
872
874
874
873
875
875
876
876
872
871
868
872
867
869
870
871
872
873
872
869
869
867
867
869
866
869
870
872
874
873
872
874
871
869
868
863
865
868
868
872
874
872
872
873
871
871
872
868
868
869
871
874
875
877
878
879
876
879
880
881
882
885
890
893
896
897
900
902
902
901
901
899
897
895
898
899
902
904
903
901
897
898
894
890
889
888
886
882
884
879
877
877
876
873
872
871
870
870
871
872
875
873
873
873
872
870
869
866
868
872
870
871
875
878
879
878
881
879
879
881
883
885
888
893
899
908
924
948
984
1032
1096
1171
1243
1301
1331
1316
1250
1141
1013
885
771
724
726
764
814
862
894
914
920
916
909
901
893
891
888
890
890
894
896
899
902
901
900
901
900
899
897
897
900
900
902
902
904
904
904
903
902
901
900
898
900
900
898
900
903
903
903
903
904
902
902
901
901
901
902
902
907
907
908
905
904
902
903
902
903
904
906
905
908
907
906
906
907
905
906
906
907
910
912
914
914
916
918
916
915
916
914
912
915
915
916
919
922
923
923
923
922
921
921
919
921
925
925
927
930
933
932
932
931
932
931
927
927
930
932
931
934
934
933
934
933
932
932
931
930
931
932
932
933
930
927
923
921
918
914
912
908
908
908
902
904
900
899
895
893
889
886
883
882
883
882
884
882
886
881
880
879
878
876
873
876
876
878
877
881
882
881
882
879
879
877
877
877
879
882
883
885
886
884
884
884
884
883
884
886
886
889
887
889
891
891
891
891
889
889
886
885
888
888
890
890
890
890
891
885
887
882
883
882
885
882
885
886
888
885
884
883
883
882
880
880
880
881
878
882
883
884
884
882
880
878
878
878
878
879
881
883
882
883
881
880
879
879
879
878
879
881
881
880
879
881
881
879
876
878
877
875
879
878
878
881
881
879
880
878
878
877
877
874
879
881
884
888
889
892
895
898
898
898
898
900
902
904
907
906
906
907
903
905
903
901
899
899
902
900
898
897
895
892
888
885
883
880
875
877
873
875
877
878
878
878
879
876
879
876
876
875
876
876
877
878
880
880
881
879
879
879
879
878
881
884
886
888
893
896
896
897
900
909
927
957
1000
1061
1130
1207
1273
1313
1312
1266
1171
1049
924
818
755
742
762
805
846
882
902
911
911
909
901
896
894
894
894
897
900
902
903
901
901
901
901
900
901
901
902
902
904
903
904
900
902
901
898
900
901
902
903
903
907
905
906
905
901
902
900
900
899
902
901
903
907
906
903
904
902
899
900
897
902
904
903
906
905
906
906
907
905
906
904
904
905
907
908
910
912
913
910
911
910
910
906
907
908
910
912
912
913
916
917
911
915
914
913
913
913
916
916
918
919
919
921
918
917
915
918
920
920
921
921
923
925
926
923
924
921
918
918
918
919
919
921
925
927
926
927
924
923
920
919
916
915
912
912
915
911
910
907
903
900
895
890
888
886
887
885
886
886
884
881
879
879
875
871
872
877
876
876
877
877
876
873
873
871
872
872
873
875
875
876
876
877
878
877
878
878
876
875
876
875
875
877
879
882
882
884
882
880
878
879
878
880
882
883
884
885
886
883
881
880
880
877
878
877
877
879
881
880
882
879
879
875
874
875
872
875
876
875
876
875
876
874
875
874
874
871
871
869
871
873
872
873
874
874
872
871
869
869
868
869
869
869
871
873
871
871
871
872
871
867
870
869
870
870
872
873
873
874
873
872
871
869
872
874
876
880
882
886
887
888
888
891
892
892
896
897
898
897
898
897
896
896
895
894
891
892
889
889
887
884
882
880
876
873
869
869
868
867
866
868
869
869
868
870
867
869
868
865
863
862
862
863
865
866
868
869
869
869
870
868
865
863
864
866
868
871
872
873
876
878
878
879
878
879
883
894
911
939
978
1029
1094
1162
1226
1267
1280
1251
1174
1069
949
842
769
744
755
788
826
859
882
891
893
892
887
882
881
881
881
880
880
881
881
880
880
882
883
884
884
884
884
886
884
884
884
881
882
883
885
883
889
888
888
888
886
883
884
884
884
884
885
887
888
890
888
890
890
889
886
881
883
882
883
886
887
888
891
890
890
889
888
888
886
886
889
888
888
892
893
895
893
893
892
891
888
890
892
893
894
895
897
897
898
896
896
895
895
897
899
899
900
903
905
904
904
903
901
902
902
902
903
903
906
906
906
905
904
905
905
903
903
901
898
902
902
905
906
906
908
906
905
904
901
901
901
901
899
901
898
894
890
888
883
878
876
872
870
869
869
870
868
864
864
862
860
858
857
857
857
859
860
859
860
860
859
858
855
854
853
854
856
855
859
859
861
862
861
859
857
858
858
856
860
863
861
866
865
867
865
866
863
863
862
866
864
865
866
868
868
867
866
862
860
859
858
858
860
863
863
865
861
863
863
860
860
856
860
858
858
856
859
859
859
859
857
855
855
855
853
852
854
854
858
861
864
865
866
866
865
866
867
868
871
875
878
883
886
883
881
881
879
876
875
876
879
879
880
879
878
878
874
869
863
859
856
852
851
848
851
853
856
854
852
851
850
849
849
846
847
846
847
848
852
849
851
848
847
847
845
846
848
850
851
853
858
857
858
858
860
858
860
864
869
879
891
913
944
985
1037
1100
1161
1210
1236
1226
1175
1087
981
879
802
764
760
781
815
844
865
876
880
878
875
871
867
866
867
869
866
863
866
866
864
866
868
868
871
871
873
869
870
864
868
867
869
871
872
871
872
873
872
871
871
869
869
868
871
873
873
876
874
876
877
874
872
871
872
872
873
873
875
878
877
876
878
876
874
874
874
875
876
877
878
879
881
880
879
877
876
878
878
878
880
881
883
884
883
886
885
885
885
885
886
884
886
888
889
891
894
894
894
894
892
892
892
894
893
899
900
900
901
899
900
898
899
898
894
895
896
898
901
899
900
898
901
897
897
894
892
891
892
890
886
886
885
882
879
876
873
869
869
867
865
864
863
863
859
860
857
855
854
852
851
850
852
850
853
854
854
853
855
850
850
850
847
848
848
849
851
854
856
855
855
854
853
851
852
853
854
855
856
856
860
860
857
857
857
857
857
857
858
860
861
859
859
857
857
860
856
855
854
856
853
857
858
858
858
857
856
854
852
853
851
848
850
850
850
854
853
854
854
852
849
849
850
849
851
850
851
853
854
852
851
852
853
852
851
853
856
858
860
861
863
864
866
866
868
869
870
873
873
875
879
881
878
878
878
875
876
874
873
872
872
873
872
867
866
864
859
856
851
849
847
845
849
850
849
850
853
851
849
847
844
846
844
846
845
847
850
851
851
853
853
851
851
853
852
852
855
858
860
863
865
869
870
871
875
880
892
908
932
966
1007
1058
1112
1161
1201
1215
1198
1148
1066
965
873
805
772
770
795
824
850
870
881
882
878
871
869
867
866
868
872
871
874
872
871
871
868
870
871
874
872
873
875
873
873
873
872
870
868
871
873
874
875
875
875
875
875
876
876
874
873
875
874
876
878
880
878
877
877
876
874
875
875
876
874
876
877
879
880
882
882
882
880
877
876
880
879
883
885
885
886
886
888
885
884
886
885
887
884
890
890
893
896
895
895
893
895
890
891
893
895
895
896
900
905
905
902
903
903
904
904
905
905
906
908
907
911
909
910
907
907
906
906
904
906
908
909
909
910
907
905
902
899
896
892
892
888
887
886
885
883
880
879
873
873
868
866
867
864
865
866
864
864
864
863
861
860
860
855
856
858
859
860
860
862
862
862
859
857
858
857
857
860
863
859
862
862
865
863
862
863
863
862
864
864
865
865
868
869
870
867
867
866
863
865
865
866
866
867
869
870
868
870
869
866
866
863
864
866
867
869
870
871
869
869
870
869
866
864
865
866
865
867
867
870
867
867
864
865
866
865
867
867
867
868
868
871
872
868
869
868
866
866
866
868
869
867
872
875
873
876
876
877
877
878
878
882
884
888
889
893
895
897
896
894
896
893
896
892
898
896
898
899
900
899
898
895
892
891
887
887
884
882
880
880
876
877
876
876
873
873
872
874
871
873
873
875
876
875
873
870
870
869
867
873
872
872
875
876
878
877
875
876
875
876
878
880
881
887
887
891
891
891
893
898
905
915
931
958
991
1039
1094
1153
1205
1241
1252
1229
1172
1087
991
899
830
794
789
806
834
862
882
895
905
902
903
903
899
897
898
899
899
897
900
899
900
899
901
902
902
904
903
904
905
905
906
904
901
901
904
904
904
904
907
908
909
910
907
908
907
905
904
903
906
910
910
912
911
912
910
909
908
907
907
908
911
910
914
914
914
916
916
914
913
912
913
914
916
916
917
920
922
920
921
918
918
918
918
921
922
924
928
930
930
930
931
926
930
929
926
930
928
930
933
934
935
935
936
932
934
935
935
935
939
938
939
942
940
940
943
941
941
940
939
937
941
943
946
946
946
946
946
944
943
942
941
940
941
937
936
936
934
932
929
924
923
921
917
917
916
914
914
912
912
908
909
906
903
902
898
897
898
901
900
902
900
899
899
897
898
898
896
898
899
899
902
904
903
905
905
902
902
900
902
903
904
905
906
909
909
911
910
906
906
906
905
906
906
908
908
908
911
911
911
908
909
908
906
906
909
909
907
908
908
910
907
907
906
905
905
903
904
903
906
907
905
907
906
908
904
901
901
900
903
902
905
905
903
905
905
903
901
901
897
900
900
903
902
904
907
905
906
905
907
907
908
909
911
916
919
920
922
923
924
927
929
931
932
931
932
931
932
935
933
933
931
929
927
928
925
924
922
921
918
916
911
910
906
904
903
903
903
904
902
904
903
904
905
905
904
902
902
900
900
902
902
903
905
908
907
905
906
906
905
903
905
907
911
915
918
920
924
925
923
929
932
942
954
980
1015
1058
1108
1167
1222
1265
1289
1278
1233
1147
1037
927
842
800
798
825
864
899
924
938
944
937
931
925
920
919
920
922
924
924
926
923
924
923
921
924
924
927
927
928
929
929
930
926
926
927
927
928
927
929
928
930
930
929
929
929
926
927
925
929
930
931
930
931
931
930
929
927
925
925
924
927
929
930
931
933
933
935
933
934
931
933
931
931
929
934
934
935
937
938
939
937
936
935
935
935
938
938
940
945
947
943
944
942
939
941
943
944
945
948
949
951
952
953
950
947
947
948
948
947
951
952
952
955
954
955
953
953
950
951
949
950
951
953
954
954
955
952
950
947
947
941
941
937
935
933
931
929
927
927
922
921
915
911
908
909
906
907
907
908
904
902
902
902
900
897
899
898
901
902
900
903
905
903
903
903
905
900
901
901
900
904
905
906
907
906
907
906
908
905
906
907
907
909
911
912
913
912
910
907
907
905
907
907
906
909
911
911
913
910
907
905
904
905
902
900
903
904
906
906
906
906
907
903
901
901
902
903
908
908
913
917
916
919
917
918
920
920
925
926
928
929
927
927
926
927
924
924
923
922
919
916
918
914
911
909
906
902
898
896
894
893
894
894
895
894
892
891
892
891
889
889
890
890
889
889
890
888
887
890
893
893
893
892
893
892
893
894
896
900
902
904
907
909
912
911
916
919
930
948
977
1020
1079
1149
1216
1268
1290
1263
1184
1064
936
836
781
775
804
848
891
919
932
936
927
916
908
904
902
904
907
910
912
914
913
912
909
907
908
909
911
911
911
912
911
913
914
913
914
908
910
909
910
916
915
918
916
917
917
916
916
914
913
917
913
916
916
916
916
917
916
917
912
913
913
915
916
917
919
920
922
921
921
921
919
918
916
918
918
918
919
922
925
925
925
924
923
921
922
923
925
928
931
931
933
932
932
935
935
934
932
930
932
934
937
939
942
942
943
942
941
938
940
940
938
941
943
944
946
945
943
940
941
941
939
938
938
939
939
938
936
936
934
930
925
919
917
913
908
907
906
904
902
898
896
892
890
887
884
886
884
883
883
882
883
884
882
882
881
878
879
877
880
880
881
883
882
882
886
886
885
885
884
883
885
886
888
889
892
892
891
892
891
891
891
890
890
890
893
895
896
894
895
894
892
892
893
891
893
891
891
894
892
892
892
888
889
889
887
887
887
887
889
888
888
888
889
887
886
887
885
884
886
884
886
888
890
887
887
887
884
882
882
885
887
890
893
897
896
899
899
900
903
902
904
906
905
911
909
910
910
907
908
905
906
905
903
906
904
901
901
896
895
893
889
887
885
882
879
880
879
880
883
885
884
881
881
881
880
878
874
874
877
878
880
884
885
882
883
882
878
880
881
882
883
886
890
891
894
896
894
895
897
902
912
930
956
992
1047
1110
1181
1245
1292
1311
1292
1232
1133
1017
902
812
761
753
778
818
855
885
904
913
910
909
901
897
894
895
895
897
898
898
899
899
900
897
898
899
901
900
903
901
903
900
902
900
900
900
898
901
903
903
904
905
905
904
904
902
900
901
900
903
904
906
908
908
906
906
904
900
903
902
905
906
907
908
911
911
910
908
905
905
906
906
909
910
910
912
913
914
915
913
912
911
910
910
911
913
914
914
917
917
919
918
918
918
918
919
917
920
922
923
925
928
927
928
929
926
