875
874
873
872
871
873
873
874
876
876
875
875
871
868
873
871
872
870
873
873
874
875
873
875
872
873
870
870
871
867
869
873
872
872
875
871
870
870
870
868
870
871
872
872
878
882
887
886
887
889
889
891
892
894
897
901
905
910
909
908
906
902
900
899
899
900
901
902
898
900
900
896
891
887
883
878
873
874
873
875
877
877
878
877
875
876
874
873
871
870
870
873
873
874
874
875
874
872
870
869
869
870
873
876
879
878
881
881
880
881
883
881
879
880
883
887
894
904
922
949
992
1049
1121
1199
1278
1335
1352
1324
1240
1120
992
864
759
719
725
766
815
858
891
909
910
907
903
898
897
893
893
893
895
896
894
895
895
898
901
899
897
899
898
897
898
896
898
901
903
902
900
900
898
894
895
897
900
901
902
902
904
905
905
904
905
903
902
901
899
900
903
905
905
908
907
905
903
903
903
902
901
907
905
906
909
912
911
909
910
907
905
906
907
906
910
911
911
914
916
915
916
913
914
913
915
913
912
915
918
923
924
923
923
921
920
919
919
921
923
925
927
931
929
930
930
926
925
925
923
924
922
924
925
925
927
925
924
925
924
923
922
924
925
923
924
924
922
919
918
915
909
909
905
902
904
901
899
895
893
891
891
889
886
885
885
883
882
885
884
885
884
886
885
884
882
880
882
882
886
888
890
892
891
894
895
892
890
891
891
891
891
893
895
897
897
898
896
896
896
896
895
897
897
898
897
901
902
901
899
900
898
897
895
895
895
896
895
896
897
897
899
896
894
892
892
893
895
894
894
897
896
893
894
893
892
891
890
891
890
891
895
898
903
904
907
909
910
911
912
914
917
921
924
928
929
930
928
923
924
922
922
921
927
925
926
928
927
923
920
915
911
908
903
900
897
897
899
902
904
901
900
900
896
896
894
894
894
896
896
898
901
899
897
896
896
897
898
899
900
901
902
906
909
909
909
909
907
907
909
909
913
917
923
929
947
966
994
1033
1086
1148
1221
1296
1354
1391
1390
1348
1259
1133
1005
877
779
745
764
813
868
913
944
960
964
956
948
937
932
930
929
933
937
939
940
942
941
941
939
938
937
939
942
940
944
943
944
947
947
946
947
945
944
948
947
947
949
951
951
953
955
955
955
952
951
951
950
952
955
957
956
959
960
959
958
958
958
957
958
957
959
961
963
967
967
965
967
969
966
965
964
966
967
970
970
974
976
974
975
976
977
977
975
975
975
980
982
983
984
985
986
987
987
988
988
989
986
989
992
992
994
995
997
996
996
993
993
993
996
995
995
997
998
997
999
997
996
995
993
993
985
985
987
985
983
980
977
973
969
966
961
960
958
955
956
956
954
953
950
949
945
945
943
945
942
944
945
944
943
944
943
944
943
942
943
943
942
945
947
946
954
949
950
950
949
949
950
953
953
957
958
961
960
963
963
961
960
958
960
957
958
961
961
961
961
961
961
960
955
957
956
956
955
957
957
959
956
957
956
957
955
952
953
953
952
955
954
957
956
955
955
955
953
953
950
953
954
957
959
965
968
968
970
970
970
971
976
975
981
985
987
986
985
984
981
981
982
981
979
978
980
980
979
977
975
971
968
964
957
955
951
950
946
948
948
950
952
951
948
947
944
943
941
942
943
944
944
944
946
944
945
944
943
943
942
943
942
943
946
945
947
949
950
949
948
951
952
953
955
958
966
979
1002
1032
1081
1144
1219
1300
1367
1408
1406
1354
1255
1127
999
871
794
777
807
856
911
953
979
991
992
984
978
970
967
964
961
963
964
964
966
967
968
968
971
971
971
972
971
967
966
968
968
969
971
972
972
970
972
970
970
968
969
969
966
968
967
972
973
972
972
971
969
969
967
969
969
970
971
972
972
973
973
969
972
971
968
971
971
972
973
976
976
977
974
975
976
973
974
973
974
977
977
979
982
977
982
980
981
981
979
980
982
985
988
989
992
993
992
992
990
991
992
991
994
997
995
998
1000
1001
1001
1001
997
997
996
995
997
997
999
999
1002
1001
997
995
992
988
983
981
980
976
974
973
971
966
961
956
950
947
945
941
940
939
938
938
939
936
936
933
933
931
929
927
928
928
927
930
932
933
932
930
930
928
930
931
931
931
933
932
933
935
936
937
933
933
931
934
934
936
937
938
940
939
938
938
938
936
935
934
932
932
935
939
938
936
936
937
935
932
930
930
930
932
932
932
934
934
932
930
930
927
925
928
925
925
926
925
929
928
929
927
926
924
924
926
928
932
934
937
939
942
942
943
944
944
946
946
952
954
958
959
959
958
956
953
952
952
948
947
949
950
949
949
947
944
939
937
932
929
922
920
918
918
917
918
917
918
921
919
914
915
912
911
910
910
909
913
913
913
911
913
911
908
905
905
908
908
912
911
915
913
913
913
910
915
913
914
915
919
921
929
936
949
970
1001
1043
1092
1156
1225
1290
1344
1370
1361
1309
1213
1086
958
836
761
734
754
796
851
895
924
939
943
941
935
928
923
918
917
920
922
922
924
926
926
927
924
922
922
920
922
922
923
923
926
927
926
927
927
925
923
922
922
922
924
926
927
927
927
926
923
921
922
924
924
924
925
925
928
929
927
926
924
925
925
921
923
923
927
926
928
928
929
931
931
927
929
928
928
927
929
931
933
934
936
935
934
931
932
931
935
934
934
933
937
940
939
938
940
940
939
941
941
943
946
944
947
946
947
950
948
948
947
945
944
944
946
948
950
952
953
949
949
948
946
947
948
948
949
949
949
947
945
941
936
930
926
922
919
917
914
910
908
908
904
903
902
900
896
895
892
892
892
892
893
894
896
893
891
890
889
889
888
888
888
889
890
891
892
891
893
890
889
888
888
889
891
893
894
898
896
895
895
892
895
891
894
891
894
896
897
898
897
898
897
897
896
894
894
894
895
896
893
898
896
895
895
892
892
890
891
892
891
891
893
894
893
891
890
888
888
888
888
888
884
888
892
895
894
897
898
898
898
898
897
901
905
910
912
917
918
920
920
916
915
912
911
909
910
913
914
913
914
912
911
905
901
898
892
890
887
883
882
882
883
881
880
879
875
876
877
875
876
876
876
877
875
878
876
873
872
871
872
874
872
874
876
878
878
877
877
877
877
878
880
881
883
886
890
892
894
895
902
914
934
964
1000
1057
1123
1197
1267
1324
1347
1332
1269
1160
1032
904
781
716
708
736
785
838
876
898
906
906
901
897
890
888
888
891
893
892
896
896
895
896
893
891
891
891
894
897
898
900
902
902
902
899
898
894
894
894
896
897
900
902
900
902
901
900
899
896
898
898
900
900
901
904
902
900
898
898
899
896
898
900
900
903
905
905
908
905
904
903
904
905
903
903
903
907
909
911
912
911
911
909
910
907
907
908
908
910
913
916
916
920
917
918
918
917
914
918
921
924
924
925
928
927
926
926
926
924
922
924
922
927
927
929
928
927
930
930
927
929
929
930
927
923
923
921
919
914
910
904
902
898
894
889
888
887
886
886
881
881
878
875
876
872
873
872
872
871
875
876
876
875
874
873
870
873
867
869
867
872
873
876
875
875
876
874
874
873
874
875
876
878
881
882
882
883
881
878
879
877
877
876
878
879
882
883
885
883
882
880
880
876
876
877
876
875
877
877
878
876
876
875
873
872
874
872
873
876
877
878
880
884
884
883
884
886
886
889
890
893
897
902
904
904
902
900
898
898
897
896
899
901
903
901
898
897
893
891
886
880
876
870
869
868
866
868
869
867
867
867
868
862
860
859
861
861
862
864
864
862
862
859
859
858
859
859
859
863
864
865
868
868
867
867
868
867
868
869
871
872
872
881
885
891
905
926
959
1005
1065
1139
1221
1294
1341
1350
1311
1218
1090
962
834
734
700
710
755
807
854
885
902
905
902
895
886
881
880
879
881
883
884
887
888
888
889
885
886
884
884
885
885
885
888
890
888
889
889
888
889
888
886
886
887
888
892
892
891
892
891
891
891
890
889
891
892
891
894
895
895
894
893
891
890
890
889
889
889
894
896
897
899
899
900
898
899
898
898
898
898
900
902
904
905
905
904
905
905
905
904
905
906
908
908
911
914
913
914
914
914
915
915
915
918
920
923
925
927
926
926
925
924
923
923
924
924
929
929
930
932
933
931
929
928
926
926
921
918
915
913
908
910
903
900
896
891
888
885
882
881
879
879
878
876
875
874
871
871
869
866
865
866
867
868
868
869
869
869
867
867
863
865
862
863
867
867
870
873
871
872
872
871
872
873
871
872
874
878
878
877
878
878
876
876
877
875
875
877
879
877
878
884
882
882
880
878
877
874
874
873
873
873
877
878
876
875
874
875
872
871
872
873
874
874
876
877
874
874
873
873
872
868
871
873
870
874
874
875
875
872
872
873
872
872
873
879
881
883
887
887
891
890
893
895
893
897
899
903
902
905
905
905
906
903
901
899
898
896
894
894
892
890
885
887
880
877
873
873
871
871
872
872
874
872
871
872
871
870
868
867
866
863
865
866
869
868
871
871
872
870
871
871
870
869
870
871
874
875
878
881
882
882
885
885
887
894
907
930
964
1016
1089
1172
1254
1326
1367
1362
1306
1196
1068
940
812
715
701
734
787
840
883
908
918
915
905
899
892
889
891
891
890
894
894
895
895
894
895
895
895
897
894
897
898
898
896
898
895
895
896
896
897
897
897
899
899
899
897
896
896
894
894
892
895
893
897
900
900
898
900
898
897
893
895
894
900
900
902
903
905
905
902
902
903
902
903
902
903
903
907
908
908
910
909
907
906
906
906
909
909
913
914
917
916
916
917
918
916
915
916
918
920
920
923
925
925
927
927
927
927
926
925
927
928
929
934
936
935
933
932
934
933
932
931
933
936
938
938
940
941
940
940
938
934
930
927
925
924
921
920
916
912
909
907
900
898
893
889
888
888
888
888
888
887
885
884
882
880
879
877
878
880
880
880
883
880
880
880
878
877
876
876
879
880
879
881
881
882
883
885
884
885
882
882
883
885
885
888
890
890
890
890
889
887
886
885
888
889
889
893
891
894
893
892
891
890
888
888
888
888
891
890
893
891
891
889
887
885
886
885
884
885
884
886
887
885
885
883
882
881
881
879
879
882
882
883
884
883
883
882
881
880
880
879
879
880
880
880
884
883
885
883
882
882
881
880
881
884
887
889
888
890
894
895
897
898
897
900
902
904
907
911
914
918
919
917
915
913
908
910
907
911
914
914
916
915
915
909
905
902
895
889
887
884
883
884
885
886
888
886
885
884
882
880
880
880
881
881
883
883
882
884
881
881
879
878
880
879
882
883
887
889
886
887
887
886
886
886
888
890
895
898
901
900
903
908
919
936
962
1002
1059
1130
1211
1286
1347
1374
1362
1297
1192
1064
936
808
740
720
744
791
841
882
907
919
920
916
915
909
904
904
904
906
908
907
907
910
910
911
907
908
905
910
910
909
914
913
912
911
909
908
907
907
909
911
912
913
915
915
916
913
915
915
914
913
912
911
913
916
919
919
920
918
916
915
913
913
914
913
917
917
918
919
921
917
918
916
917
916
916
918
919
918
923
925
924
925
925
924
924
923
923
924
929
930
932
931
933
934
932
933
930
930
931
935
934
938
940
942
944
943
942
939
939
942
942
946
949
950
950
950
951
949
949
949
946
946
948
950
951
953
956
956
953
951
947
943
942
938
934
929
930
927
927
921
921
917
914
910
906
901
898
894
894
893
894
895
896
895
893
888
890
887
889
888
888
892
891
890
890
890
890
891
888
888
889
890
890
893
896
896
898
897
896
893
895
893
892
894
897
897
901
899
900
901
899
900
897
897
898
897
897
899
900
900
899
899
897
895
895
894
893
893
894
892
896
897
897
896
894
892
892
888
889
890
892
891
893
894
894
892
892
890
889
885
886
885
886
892
894
897
896
898
896
898
897
897
902
905
907
912
917
918
921
922
920
920
918
916
915
915
917
918
921
922
923
920
915
909
906
903
901
896
895
890
891
892
890
887
886
887
886
887
887
887
888
887
887
888
886
884
884
884
884
883
884
884
885
886
886
886
886
888
884
886
886
886
888
890
892
894
898
898
900
902
901
904
912
931
962
1007
1069
1147
1229
1306
1358
1374
1342
1259
1134
1006
878
760
721
734
779
834
880
909
922
925
920
913
905
904
903
905
906
909
909
909
910
909
907
906
908
910
910
912
914
912
911
911
912
912
911
910
909
910
911
910
914
911
913
913
915
912
912
913
912
914
915
916
918
919
919
917
917
916
916
914
914
914
916
916
920
921
922
923
919
919
918
920
919
919
920
922
923
926
924
924
923
924
924
923
925
923
926
928
926
930
929
930
929
926
926
928
933
931
935
935
940
942
940
942
942
941
940
942
941
942
943
942
943
944
945
944
943
941
941
942
942
941
942
944
946
946
943
942
939
933
926
925
921
920
916
914
912
910
908
904
901
897
893
889
888
889
892
890
890
892
890
887
884
889
886
885
882
881
883
884
886
890
887
887
888
887
883
883
885
886
887
888
892
892
893
894
894
893
891
891
892
893
895
896
897
899
900
899
897
898
895
895
895
894
896
895
894
899
898
896
895
891
893
889
890
889
890
891
892
893
893
892
891
891
889
888
886
888
889
889
891
890
890
890
887
887
884
882
883
886
887
885
888
888
887
888
886
886
884
884
886
887
889
891
893
896
898
900
901
902
900
903
906
907
911
916
918
922
922
923
919
917
912
912
914
914
915
916
917
918
916
912
907
903
896
890
888
885
885
889
891
891
892
891
888
887
884
882
883
881
883
882
884
886
883
883
882
883
881
880
884
884
881
886
890
890
890
891
890
891
891
891
891
892
893
895
899
903
905
908
917
930
950
985
1030
1089
1162
1241
1315
1370
1397
1376
1314
1205
1077
949
821
742
725
754
802
856
894
924
936
935
925
915
905
901
904
904
908
911
912
912
913
911
910
909
910
909
911
914
916
913
913
916
914
914
912
912
913
913
914
914
918
918
919
918
919
916
914
915
913
916
917
917
920
920
919
916
916
919
915
915
914
916
918
920
919
922
922
925
919
917
918
918
921
921
919
919
925
929
928
929
929
928
928
927
927
928
929
931
934
936
938
937
940
940
940
939
940
942
946
944
947
950
949
951
954
953
952
953
953
953
955
956
960
960
959
961
958
960
958
959
958
958
958
956
957
954
950
947
943
935
933
927
921
922
919
919
917
916
912
911
907
906
902
900
898
899
898
897
896
895
898
898
895
895
890
889
891
889
890
892
892
894
893
896
893
895
894
891
895
895
897
897
900
904
903
903
902
902
903
902
901
901
903
906
905
906
906
908
907
905
904
903
904
903
905
907
909
907
907
905
903
900
902
901
901
900
901
900
903
905
902
902
900
901
898
897
895
895
898
899
901
902
901
897
896
894
894
894
894
890
894
892
892
896
899
897
896
896
895
893
894
895
895
897
896
898
899
895
898
898
895
896
894
895
896
896
898
898
897
896
895
896
896
895
896
896
898
899
900
901
900
899
899
897
895
893
894
896
892
896
899
901
900
901
899
896
899
896
896
897
893
899
899
899
900
899
898
898
897
897
896
895
896
898
896
897
897
899
898
897
897
899
897
897
899
899
900
900
899
901
902
901
901
899
897
898
897
899
900
900
901
901
902
901
896
900
895
898
900
902
903
904
904
906
904
904
903
902
905
909
909
912
918
918
922
925
925
925
926
927
929
930
932
933
931
930
931
933
931
929
929
925
923
920
918
919
916
918
911
909
907
904
902
900
900
899
901
902
905
907
907
905
903
902
900
899
899
900
899
901
900
905
905
904
905
906
903
906
906
908
909
911
910
915
916
923
931
943
964
996
1043
1106
1180
1256
1329
1374
1382
1344
1255
1129
1001
873
774
740
752
794
847
892
924
945
948
943
933
924
919
915
916
916
922
927
927
927
927
924
923
922
921
921
922
923
925
928
930
930
928
927
926
922
922
922
923
927
929
932
931
930
930
928
929
927
924
925
925
926
929
930
931
931
931
931
928
928
925
925
927
926
928
929
932
931
932
930
930
930
930
928
931
931
933
935
936
936
937
937
936
933
933
932
934
936
939
942
943
943
945
943
942
940
941
943
944
945
946
949
949
950
950
945
945
945
944
944
945
946
947
947
948
948
947
947
947
946
945
946
946
948
952
951
953
952
950
947
944
943
940
940
938
938
937
938
935
932
930
925
924
921
918
917
913
915
914
914
914
911
910
910
909
907
906
905
906
906
907
