919
920
922
925
930
937
938
937
937
935
932
932
931
933
935
937
937
941
941
941
940
938
939
940
938
938
938
940
942
943
948
947
946
944
942
941
941
943
943
944
947
949
951
950
951
951
950
946
946
948
948
949
952
956
957
959
957
958
956
954
954
958
955
959
961
965
964
967
965
968
966
965
966
968
971
973
973
978
979
978
977
978
976
977
977
977
977
981
984
985
988
987
986
985
985
986
985
986
988
987
987
991
990
990
991
990
992
987
986
986
984
979
982
978
978
974
972
968
963
958
954
949
949
945
948
946
945
944
943
940
940
938
937
937
936
938
939
940
940
940
941
938
942
939
939
940
940
942
945
947
947
948
948
946
945
944
943
943
944
948
949
952
953
956
954
952
950
953
951
949
952
951
951
954
954
955
955
950
952
949
949
949
950
948
951
951
952
953
951
949
947
947
946
948
947
944
949
950
950
950
948
945
945
945
943
943
944
947
946
948
948
949
950
950
954
955
956
960
960
962
966
969
972
970
975
978
979
978
975
974
973
975
975
977
978
981
980
977
976
972
970
965
962
959
957
954
953
951
947
946
947
944
943
941
944
943
945
944
946
943
944
941
941
941
941
940
940
942
941
942
944
943
943
944
943
944
943
947
946
950
951
954
957
957
960
961
962
966
974
995
1025
1064
1120
1186
1261
1330
1381
1397
1370
1291
1171
1043
915
814
783
803
850
903
946
975
988
989
984
977
970
966
963
966
967
969
970
969
967
967
965
965
964
967
966
969
971
971
971
969
968
967
966
967
966
970
971
971
973
971
971
971
971
969
970
970
969
968
972
971
973
971
972
974
971
972
972
970
970
973
974
976
978
979
978
977
976
975
973
974
978
978
979
978
981
979
978
978
976
978
976
979
981
983
984
986
987
988
988
984
986
984
984
987
987
990
989
992
994
993
995
997
995
995
996
995
998
997
999
1001
1003
1003
1000
998
997
997
998
999
999
1000
1001
1004
1004
1003
1003
1002
1000
997
993
990
987
986
985
981
979
974
972
967
964
960
953
954
951
952
950
949
949
946
946
944
938
939
937
933
936
937
937
937
939
942
939
939
937
936
934
935
936
936
939
941
941
942
942
938
940
940
941
938
942
944
944
946
947
947
946
946
943
945
945
946
946
947
947
949
948
947
950
947
946
945
943
944
940
943
943
941
945
943
942
940
939
935
937
933
935
936
937
938
938
938
936
936
934
933
932
932
932
934
935
934
938
936
934
931
933
934
932
928
928
931
931
932
931
932
935
934
933
934
936
938
939
945
947
946
951
953
954
952
954
955
955
957
962
965
965
962
964
961
958
960
960
958
957
955
955
953
952
952
952
948
943
935
932
927
925
921
921
923
922
922
925
926
926
925
925
922
917
917
918
920
922
922
922
921
920
922
921
921
921
920
918
922
922
926
930
928
929
927
927
926
927
931
935
940
948
962
986
1014
1054
1109
1173
1242
1305
1345
1356
1319
1233
1119
991
863
786
761
779
821
868
910
939
953
956
955
947
942
937
932
932
931
931
931
934
938
939
939
939
937
937
937
937
935
934
934
935
935
938
941
943
940
938
939
939
936
936
937
936
936
936
939
942
941
938
937
937
934
936
935
935
937
939
938
941
941
941
938
937
938
936
937
935
940
939
942
945
944
944
942
940
940
941
937
939
942
945
945
948
948
949
947
945
948
946
948
948
949
952
953
955
954
955
958
954
954
955
953
955
956
955
959
962
962
961
962
961
959
958
957
956
956
959
960
961
964
962
961
961
960
957
955
950
950
949
946
944
941
941
937
932
926
922
920
920
917
917
915
914
912
911
908
906
905
904
900
903
903
904
903
908
906
907
904
901
899
900
901
897
901
904
903
906
904
907
905
904
903
903
902
903
905
906
908
910
912
912
911
908
910
909
907
909
909
911
912
913
912
913
910
910
911
908
906
906
909
905
906
906
908
906
904
901
902
901
901
900
900
900
901
904
903
901
899
897
896
898
897
896
897
898
900
901
901
900
900
898
898
897
894
896
895
898
899
898
899
897
896
897
896
894
892
893
895
895
895
898
897
897
894
895
896
896
895
896
899
901
906
909
909
912
914
911
913
915
915
919
924
926
929
928
928
927
923
922
920
919
919
921
921
921
919
922
919
917
910
906
900
894
890
890
889
891
892
894
894
894
890
888
885
885
884
888
888
886
888
889
888
886
889
887
887
885
884
887
886
888
889
890
892
893
895
894
895
897
898
900
902
905
915
930
950
987
1039
1102
1178
1253
1307
1335
1312
1237
1116
988
860
762
726
743
785
834
879
908
923
930
925
919
913
907
905
903
903
903
903
905
904
905
909
910
907
908
908
907
908
907
906
907
908
909
909
909
909
911
908
908
908
905
904
904
905
906
908
908
911
909
911
909
909
907
908
904
908
910
910
912
914
913
911
911
909
909
910
909
910
912
913
915
915
916
915
914
913
915
913
915
918
918
918
922
923
923
922
921
921
919
919
920
921
924
924
927
929
928
926
926
926
926
927
925
926
928
930
933
932
930
930
927
928
925
925
927
928
930
931
933
933
933
931
928
926
923
918
917
917
916
913
914
911
905
902
901
896
893
889
887
887
886
888
887
888
883
884
881
881
881
877
876
879
879
878
882
885
885
884
882
884
880
882
882
881
884
884
887
889
886
888
885
883
883
881
881
885
889
891
891
892
894
893
892
892
887
887
886
889
888
891
892
890
889
888
887
884
881
883
882
886
886
886
888
885
885
888
884
882
880
881
879
880
881
881
882
881
880
881
879
877
875
875
876
877
877
878
881
878
880
878
875
876
872
873
874
874
876
879
879
879
880
878
875
876
875
877
877
878
881
884
887
889
890
888
888
891
893
895
897
902
905
908
912
914
914
911
907
905
904
904
904
906
903
903
899
900
895
891
886
879
875
875
877
876
875
874
876
879
877
877
875
872
871
869
869
867
868
870
871
874
871
874
875
875
873
873
872
874
876
878
879
883
885
886
884
883
885
888
897
915
945
984
1041
1110
1186
1260
1311
1329
1296
1208
1080
952
824
723
713
747
803
854
890
911
917
910
906
897
892
890
891
893
894
898
898
895
895
893
895
894
896
898
897
903
902
899
899
899
899
897
898
898
901
900
902
904
902
902
901
899
898
897
897
899
900
903
905
907
908
907
906
905
901
902
903
902
905
908
909
910
910
910
905
907
907
904
906
910
910
911
914
915
914
914
915
913
914
914
915
914
917
918
924
926
926
923
923
920
919
917
919
923
926
928
929
932
931
930
931
930
931
929
930
928
933
931
935
935
932
934
932
933
932
931
932
929
931
934
937
936
937
937
936
936
933
932
933
931
930
927
928
924
922
920
915
913
909
906
904
902
902
900
903
901
900
897
896
895
893
892
889
892
892
897
897
898
898
896
895
894
894
894
896
897
896
897
898
899
901
900
901
902
901
901
901
903
905
907
906
908
906
911
910
911
911
908
908
907
908
911
912
914
913
912
911
906
904
904
906
906
911
912
911
911
910
910
908
906
904
903
903
903
906
908
908
910
912
911
910
909
908
907
908
910
912
916
918
921
923
925
925
926
926
928
931
934
938
942
944
946
945
943
941
938
941
940
938
941
940
941
943
942
938
937
932
927
922
917
911
912
915
915
915
916
918
917
914
913
913
910
911
911
910
913
915
914
916
918
915
912
914
913
912
915
919
919
921
927
926
927
930
933
930
934
938
956
979
1014
1063
1125
1197
1268
1331
1368
1369
1327
1240
1115
987
859
783
766
791
841
892
935
957
966
966
960
954
948
945
944
946
949
950
951
950
948
948
949
950
951
952
956
956
955
956
955
951
950
950
952
953
955
957
958
958
956
959
959
956
955
956
957
960
962
963
963
964
963
961
960
960
961
961
961
963
964
963
967
967
970
968
969
967
967
968
965
970
971
971
974
977
977
976
974
975
974
971
974
976
975
979
983
981
981
981
982
982
981
980
982
985
986
990
991
991
991
990
992
990
990
994
995
997
999
1000
1003
1002
1001
1001
1000
1000
999
999
1002
1001
1002
1003
1002
1003
1003
999
997
997
992
989
989
988
987
986
983
981
978
974
970
966
962
960
957
957
956
955
955
952
950
948
945
943
940
937
941
943
942
943
946
944
946
945
941
942
941
941
941
941
944
944
950
949
951
948
950
950
947
944
949
950
952
955
957
956
958
959
956
957
955
955
957
957
960
960
961
961
959
961
959
956
952
952
952
952
955
956
954
955
955
955
954
951
949
948
949
951
949
950
952
950
950
950
947
948
945
944
947
948
947
948
950
950
951
949
948
947
947
942
944
946
949
949
951
951
953
950
949
949
951
953
956
961
964
967
969
969
971
974
977
979
979
977
978
978
976
978
978
979
979
977
972
971
969
964
961
958
955
953
952
950
950
948
946
943
945
943
943
944
944
946
944
946
942
941
941
940
939
938
939
940
944
943
944
947
946
945
946
946
946
947
949
952
954
954
958
956
958
961
963
966
978
999
1030
1078
1144
1216
1294
1354
1382
1360
1288
1169
1041
913
813
782
795
840
894
939
968
983
987
982
972
965
958
958
958
963
966
966
968
967
967
965
963
962
962
963
964
966
968
969
969
967
966
964
963
962
962
965
967
968
969
969
968
968
966
965
966
963
964
967
966
966
967
967
967
967
966
965
965
962
964
966
966
969
969
971
971
969
969
967
966
967
968
966
969
971
972
973
975
971
970
969
968
968
968
971
970
972
975
975
978
978
976
975
974
974
977
977
979
980
983
982
983
980
979
980
980
980
983
982
983
985
987
987
987
988
985
984
985
983
983
985
987
986
987
990
987
989
989
986
984
983
979
982
982
979
977
976
975
971
966
960
957
953
951
950
947
946
945
944
942
940
937
936
934
934
931
932
933
934
932
934
935
932
931
928
928
926
926
925
930
929
933
933
933
932
931
929
932
929
929
930
934
934
937
936
934
935
933
934
934
933
936
935
937
938
939
938
938
937
936
934
932
934
933
934
935
935
936
935
936
932
932
931
931
929
930
930
930
929
930
929
929
929
924
923
923
922
921
922
921
923
928
927
927
925
922
923
920
916
920
922
923
925
926
928
925
928
926
929
929
930
934
935
938
940
945
946
948
951
952
954
952
952
951
948
949
951
949
954
951
949
948
945
940
939
937
934
931
929
927
924
919
921
917
917
918
915
914
913
913
915
917
913
912
914
912
911
910
907
906
910
910
912
915
914
913
916
915
916
915
916
918
918
922
924
927
930
934
940
946
963
992
1033
1094
1164
1242
1307
1346
1346
1289
1186
1058
930
803
748
746
783
835
883
924
945
952
950
942
934
927
924
921
922
924
928
932
933
933
929
930
929
927
925
925
923
926
927
928
927
930
929
927
928
926
924
925
927
928
927
928
930
932
932
931
931
927
926
927
927
927
928
930
933
930
930
931
928
928
927
929
928
927
928
931
930
933
931
931
930
931
931
930
930
930
935
935
937
935
935
933
934
933
933
936
936
937
939
938
943
940
942
942
938
937
939
938
935
939
942
945
945
944
946
945
941
942
942
940
941
941
943
943
942
946
943
941
942
943
942
942
941
942
941
942
939
936
935
930
925
924
920
916
917
915
912
910
908
906
904
901
900
898
896
896
894
896
893
896
895
896
895
892
891
891
889
890
890
893
890
893
895
894
894
894
895
893
893
893
892
897
896
899
898
898
898
895
898
896
895
895
896
898
897
900
902
900
900
897
895
892
891
891
896
897
896
897
899
897
897
896
893
892
890
891
887
889
890
892
890
893
891
889
888
886
886
886
887
887
889
888
890
886
890
887
883
881
882
884
883
884
885
888
889
886
888
886
883
881
881
882
885
887
886
886
888
887
886
885
884
884
882
883
886
886
890
894
897
895
900
901
901
902
904
903
911
913
914
916
918
914
910
908
908
907
909
908
907
908
909
911
908
902
900
894
884
884
878
879
877
879
880
880
881
882
881
880
879
877
877
875
876
876
877
879
879
876
878
877
878
872
871
872
875
876
876
879
884
885
886
886
886
888
888
890
893
900
910
926
953
993
1050
1122
1201
1270
1310
1301
1240
1125
997
869
751
715
731
775
825
868
896
908
911
907
903
898
897
893
892
892
893
893
894
891
893
894
898
899
900
898
899
899
897
898
895
894
895
896
898
899
901
898
896
895
894
896
895
895
898
899
901
901
904
902
901
900
898
901
899
897
897
898
898
899
902
902
902
902
901
902
900
899
899
903
901
904
905
905
906
906
904
903
904
905
905
904
907
907
909
909
911
909
911
910
908
909
909
912
914
917
918
917
917
917
914
915
910
910
910
913
913
915
918
916
916
915
914
910
910
911
908
907
909
911
914
914
918
913
911
909
906
905
905
901
898
894
892
892
890
888
885
884
882
878
876
876
877
878
875
875
873
871
869
872
869
867
871
872
871
873
874
873
874
874
874
872
870
869
870
870
871
875
876
879
880
880
879
878
877
875
875
876
875
879
881
884
884
883
880
879
876
876
876
877
878
877
880
878
879
876
874
874
873
871
872
873
875
876
876
874
872
872
868
870
870
866
868
870
873
874
874
871
871
868
868
867
868
866
868
872
872
877
878
878
881
881
883
883
884
885
886
891
897
903
904
904
900
900
897
896
895
896
896
898
899
897
898
895
893
887
883
880
875
872
869
867
869
869
868
871
869
868
867
865
864
865
862
864
865
864
864
863
863
862
859
861
861
862
860
862
863
864
869
870
870
869
870
871
869
871
871
874
878
882
882
888
899
914
936
967
1015
1077
1151
1229
1290
1323
1315
1257
1153
1025
897
773
709
705
739
790
838
874
892
902
898
893
886
882
881
880
883
882
883
884
887
887
886
885
885
884
881
884
884
886
886
888
888
890
889
888
886
888
887
886
888
888
887
891
892
892
891
892
889
888
887
889
888
891
892
892
894
893
894
892
893
893
891
890
892
892
894
892
893
895
895
892
895
891
889
889
890
893
894
896
899
900
901
899
900
900
896
896
896
900
898
900
906
907
907
907
905
905
906
905
908
911
910
912
915
916
915
912
912
909
912
911
912
914
916
916
919
918
917
915
913
913
914
913
913
915
913
914
917
918
914
913
908
906
903
900
896
892
892
891
887
887
884
880
877
873
868
868
864
864
865
865
866
864
864
864
860
861
857
855
856
857
860
860
862
863
862
863
861
861
858
858
861
859
862
861
867
868
867
866
864
865
864
865
867
867
867
871
870
874
872
870
870
867
865
866
869
870
871
873
874
874
874
871
871
870
869
868
866
866
870
870
871
870
867
866
864
865
866
867
867
864
866
865
867
868
866
866
864
862
862
861
861
861
863
866
867
866
867
865
864
863
859
860
862
863
865
866
871
871
874
876
878
876
878
877
880
883
886
887
893
895
894
895
892
890
888
888
891
890
892
891
892
892
887
885
881
876
871
868
863
864
864
862
865
865
864
866
863
861
861
859
859
859
858
859
859
862
860
860
859
857
856
855
856
855
858
860
862
867
867
865
866
866
867
869
872
872
876
881
890
909
938
980
1035
1103
1184
1255
1310
1327
1293
1205
1078
950
822
725
704
732
781
833
875
899
908
908
900
889
882
875
875
875
878
875
879
883
882
884
884
885
884
882
882
882
880
879
880
882
883
885
888
888
890
889
887
887
886
884
885
886
888
887
889
891
890
889
890
889
885
884
884
885
888
888
889
890
890
890
890
889
886
886
888
887
886
890
891
893
895
893
895
894
893
892
894
895
892
896
901
902
903
901
899
898
899
898
901
902
908
906
909
911
912
911
912
911
910
910
911
912
916
917
918
919
919
919
920
917
913
916
915
915
919
918
920
921
919
920
918
916
915
910
909
906
907
905
903
902
898
893
889
886
882
879
876
874
874
874
875
874
867
865
863
862
859
859
859
859
858
860
862
861
862
863
861
859
861
858
860
860
861
863
865
867
867
865
864
866
864
864
866
867
863
864
871
870
873
871
870
869
868
869
871
870
874
873
877
875
874
873
871
870
869
869
870
869
871
871
872
872
871
873
870
868
866
865
865
865
866
868
866
869
866
867
866
865
859
861
861
862
861
864
865
868
867
862
860
861
859
860
860
861
862
862
862
865
863
862
862
860
859
859
862
860
862
863
865
867
870
869
869
871
873
873
875
877
883
885
887
891
892
896
897
892
889
887
886
887
890
891
892
894
892
892
888
885
882
877
874
870
867
865
864
866
865
866
865
862
862
860
859
859
860
860
861
862
861
859
