914
914
912
914
914
913
915
913
912
911
907
906
906
907
907
908
907
911
909
910
910
910
907
909
909
913
914
916
919
919
918
916
916
916
918
920
922
925
926
929
935
937
943
954
971
998
1036
1091
1155
1228
1295
1346
1359
1324
1242
1120
992
868
793
772
790
834
881
922
948
957
956
947
940
933
927
926
928
932
934
937
940
939
938
935
934
933
933
935
936
936
936
937
939
937
941
937
936
937
938
937
936
938
940
942
942
941
942
940
939
939
939
939
939
941
941
942
944
941
943
943
944
942
941
942
943
944
944
948
949
948
950
947
946
945
946
945
946
947
950
952
953
954
954
954
954
952
952
953
951
955
954
957
961
960
961
962
962
962
961
963
961
965
965
965
969
971
972
971
972
971
969
970
972
972
972
975
974
976
977
976
973
973
971
971
971
974
975
977
977
976
975
972
969
966
960
957
958
955
953
953
951
947
943
941
936
934
930
927
927
926
925
925
924
923
924
922
921
919
916
916
918
919
920
921
922
922
922
922
920
918
917
920
922
920
923
925
925
926
930
931
930
929
928
930
931
931
931
933
933
935
935
933
934
932
932
931
931
932
932
934
934
934
933
932
931
929
929
928
925
927
928
928
930
929
927
928
926
926
923
925
925
927
926
928
927
927
927
923
925
924
921
920
920
922
923
925
928
927
928
927
927
927
924
921
923
923
927
928
929
930
929
927
924
924
923
924
926
926
927
928
930
932
934
934
936
937
937
939
942
943
946
950
954
955
956
957
956
956
951
950
950
951
949
952
953
951
951
950
946
940
937
934
931
927
928
929
930
930
928
929
927
925
923
921
924
924
925
925
928
927
925
926
925
921
922
921
922
925
926
930
933
933
933
934
933
932
934
936
937
942
945
948
956
965
982
1008
1045
1093
1152
1219
1285
1338
1366
1357
1305
1213
1095
974
873
809
791
806
843
888
924
949
962
963
962
953
946
942
944
942
942
944
945
947
952
950
951
950
950
950
947
947
948
950
949
952
955
952
953
955
953
952
948
946
950
948
951
953
955
956
955
954
954
953
953
952
951
952
952
953
955
957
955
955
953
954
953
954
953
953
956
958
958
958
960
960
957
957
957
957
959
959
960
962
965
965
966
966
964
964
964
964
965
968
968
967
970
970
971
972
972
970
969
973
973
974
974
975
980
980
979
979
977
975
974
976
976
977
977
979
980
982
979
980
980
979
978
976
977
979
979
981
982
980
978
976
975
970
966
964
960
958
955
957
956
953
949
946
946
942
939
937
939
937
938
938
939
939
937
938
933
933
933
933
933
937
936
937
938
939
938
938
938
936
938
936
938
938
941
942
944
946
944
942
944
943
942
940
941
941
944
944
946
945
946
945
945
942
941
943
942
943
943
943
942
943
941
941
940
938
935
936
937
937
939
941
942
942
939
939
938
937
936
933
934
937
936
938
939
939
937
937
936
935
934
934
933
933
934
933
937
935
935
934
932
932
933
931
931
931
932
933
936
935
935
936
935
932
930
932
931
930
931
937
936
938
938
939
939
940
939
940
943
947
950
952
954
955
961
962
963
964
962
961
960
958
960
959
960
962
960
960
958
958
953
951
948
945
945
939
939
938
937
937
935
933
931
931
931
930
931
933
934
935
934
931
932
932
930
931
930
931
936
934
937
937
939
939
940
941
940
941
941
943
947
950
956
967
981
1004
1035
1081
1140
1208
1277
1333
1356
1332
1264
1153
1025
905
824
793
807
844
886
925
952
965
968
964
959
954
949
947
944
944
949
951
953
953
955
956
954
952
951
952
954
952
952
952
955
955
957
958
956
955
955
955
951
949
951
952
954
955
957
960
959
955
956
954
953
954
954
956
959
957
958
960
956
958
956
957
956
956
957
959
960
961
963
964
961
961
960
961
958
960
960
962
962
963
963
965
968
967
966
966
965
963
965
967
967
970
971
972
972
971
971
971
970
971
970
972
975
977
977
978
979
978
975
976
974
972
970
970
971
969
969
972
972
970
971
971
970
969
971
972
973
974
974
975
972
970
967
964
962
960
957
954
950
949
948
946
944
939
937
936
934
933
934
930
932
936
934
937
935
933
933
931
929
929
929
929
931
930
931
934
936
935
935
934
934
930
932
930
934
936
938
939
940
941
937
937
935
937
938
937
939
938
940
942
943
941
940
934
932
934
934
933
935
937
935
938
935
934
932
931
931
931
931
932
931
931
930
932
932
932
930
927
927
925
925
926
927
929
931
930
931
930
927
927
924
923
924
923
923
926
930
935
933
938
938
938
938
937
940
943
948
949
954
956
958
959
954
953
948
946
948
951
952
953
956
955
951
949
945
942
936
930
930
926
925
927
928
927
928
929
925
925
923
921
919
918
922
924
924
925
924
923
922
922
919
919
919
918
920
924
922
925
926
925
927
928
926
928
929
935
937
940
943
948
951
957
969
992
1023
1065
1126
1193
1266
1326
1360
1361
1312
1216
1093
965
853
796
788
816
863
906
939
958
962
959
952
944
938
934
934
935
940
940
944
945
944
947
943
942
943
940
942
944
945
944
946
945
945
945
943
947
943
941
942
943
945
947
946
948
948
948
947
946
945
943
945
946
946
946
948
951
948
949
949
946
945
944
945
946
946
948
949
952
951
952
951
951
951
950
951
952
955
956
957
956
958
959
960
960
957
957
957
960
961
964
965
966
965
963
966
966
966
964
966
967
970
972
974
976
977
977
976
972
973
973
972
972
971
976
977
981
977
979
977
977
974
973
974
975
975
975
976
978
976
977
973
972
968
964
963
960
958
958
958
955
952
948
943
940
936
938
934
936
934
935
936
936
936
932
934
930
931
928
929
929
931
932
933
933
934
935
937
935
935
934
936
938
939
941
942
944
945
946
945
944
944
945
945
945
948
949
951
954
954
952
952
953
952
950
950
950
952
953
951
955
955
955
954
952
949
946
947
951
949
949
951
952
952
955
954
954
950
951
950
951
952
954
955
956
955
955
956
955
954
952
952
952
956
958
959
962
962
962
961
960
959
960
958
959
961
963
964
963
965
966
965
966
968
968
969
969
970
975
981
986
987
990
993
994
997
997
997
998
997
998
999
1001
1002
1003
1002
1002
1001
997
994
993
994
990
988
988
985
983
980
978
976
976
974
974
975
977
979
980
980
980
982
979
979
978
977
978
979
980
981
985
986
987
985
985
983
984
985
986
992
995
999
1003
1006
1005
1009
1011
1013
1020
1035
1062
1098
1151
1217
1284
1350
1397
1412
1380
1311
1203
1079
969
895
870
885
924
969
1003
1030
1039
1042
1039
1032
1027
1023
1023
1023
1026
1030
1029
1029
1028
1027
1027
1026
1026
1028
1030
1031
1034
1036
1036
1037
1036
1035
1036
1032
1034
1035
1037
1036
1042
1044
1041
1041
1040
1040
1039
1038
1039
1040
1043
1045
1047
1043
1043
1045
1043
1044
1042
1042
1044
1044
1048
1048
1050
1049
1049
1051
1050
1050
1049
1049
1050
1049
1053
1054
1056
1057
1059
1057
1057
1057
1053
1055
1058
1059
1057
1064
1064
1064
1064
1066
1065
1065
1065
1066
1067
1069
1068
1070
1073
1075
1076
1077
1075
1074
1074
1074
1077
1078
1079
1081
1084
1084
1085
1084
1082
1082
1082
1083
1084
1084
1085
1089
1089
1089
1089
1088
1084
1084
1083
1079
1078
1075
1072
1073
1073
1070
1068
1065
1061
1057
1054
1051
1048
1045
1045
1047
1044
1047
1047
1044
1044
1042
1039
1039
1039
1041
1040
1042
1044
1044
1044
1043
1042
1040
1041
1041
1042
1041
1043
1044
1046
1046
1047
1048
1045
1045
1043
1043
1043
1047
1049
1050
1048
1050
1051
1051
1050
1051
1050
1048
1049
1049
1049
1048
1052
1054
1051
1052
1054
1050
1048
1048
1048
1048
1048
1049
1051
1051
1049
1045
1047
1045
1043
1042
1041
1043
1043
1045
1045
1044
1044
1044
1043
1044
1041
1039
1039
1041
1042
1042
1044
1045
1044
1043
1043
1041
1039
1039
1039
1041
1041
1043
1042
1046
1044
1044
1043
1041
1038
1035
1038
1038
1040
1043
1042
1044
1045
1044
1043
1044
1043
1044
1046
1049
1051
1055
1058
1059
1063
1063
1064
1065
1066
1065
1065
1067
1068
1066
1064
1065
1067
1066
1064
1062
1060
1059
1055
1055
1050
1048
1045
1046
1041
1037
1037
1037
1036
1036
1037
1036
1038
1038
1038
1039
1038
1039
1033
1034
1036
1032
1033
1033
1036
1033
1034
1032
1035
1035
1035
1034
1032
1032
1034
1036
1037
1039
1043
1043
1048
1048
1046
1048
1048
1053
1063
1083
1117
1157
1212
1274
1334
1386
1419
1423
1395
1330
1238
1131
1026
947
905
902
930
969
1006
1037
1053
1059
1062
1059
1055
1050
1048
1049
1047
1049
1049
1050
1050
1048
1048
1049
1052
1051
1054
1053
1052
1051
1053
1049
1047
1049
1048
1048
1049
1050
1051
1050
1052
1050
1051
1048
1047
1045
1046
1043
1048
1049
1048
1051
1046
1047
1048
1046
1047
1046
1046
1047
1049
1049
1050
1051
1052
1049
1051
1048
1049
1048
1046
1044
1049
1047
1052
1052
1053
1053
1051
1053
1051
1050
1051
1051
1052
1053
1055
1057
1053
1054
1054
1052
1050
1051
1051
1052
1056
1055
1056
1060
1060
1059
1058
1056
1057
1054
1055
1057
1058
1061
1060
1063
1061
1062
1060
1059
1058
1056
1056
1055
1058
1056
1059
1061
1059
1059
1061
1062
1060
1059
1056
1056
1055
1053
1053
1051
1048
1045
1041
1040
1034
1031
1027
1026
1026
1024
1023
1022
1020
1018
1017
1014
1011
1009
1010
1008
1008
1010
1011
1013
1013
1013
1010
1011
1009
1005
1006
1006
1007
1011
1009
1010
1011
1011
1012
1010
1011
1008
1009
1009
1012
1010
1013
1015
1013
1011
1012
1010
1008
1007
1008
1008
1007
1010
1012
1015
1013
1012
1009
1005
1004
1002
1005
1005
1003
1005
1004
1006
1006
1005
1004
1002
998
999
999
996
1000
1000
1000
1002
999
1000
996
994
995
993
993
995
998
995
999
1001
996
997
993
994
991
992
991
991
992
992
993
994
995
994
993
987
988
990
987
986
988
988
988
992
990
991
992
989
990
993
994
996
999
999
1004
1007
1008
1006
1009
1012
1009
1010
1010
1010
1008
1008
1011
1013
1012
1009
1006
1004
1000
999
995
991
988
984
985
985
983
983
982
978
975
976
974
973
973
973
973
979
976
975
973
971
970
969
967
970
971
969
970
975
974
974
973
969
968
966
970
971
972
973
975
976
978
978
978
980
979
979
982
993
1005
1029
1064
1110
1167
1230
1290
1338
1362
1352
1298
1205
1086
965
871
829
831
862
912
951
981
995
1000
994
987
985
980
979
978
980
981
981
979
979
978
980
980
982
983
984
980
981
981
979
978
977
978
979
979
978
980
982
984
982
978
980
977
977
978
977
978
981
981
982
980
979
980
978
976
974
975
975
975
976
980
981
981
978
976
977
974
975
977
978
977
978
978
979
977
978
978
979
979
978
979
978
981
980
982
983
982
982
983
981
981
980
980
980
983
981
986
986
986
984
985
982
983
980
980
980
981
981
983
986
984
983
981
979
976
977
976
976
979
977
980
983
978
977
974
972
968
966
962
959
958
953
951
952
948
946
940
941
938
934
933
933
933
932
932
936
933
933
933
932
928
928
927
926
928
930
930
931
932
930
933
928
928
927
927
928
928
931
932
936
933
934
933
932
931
931
930
930
930
932
935
936
935
934
934
934
929
927
926
924
927
929
929
928
929
929
928
927
926
924
923
923
923
923
921
922
923
923
923
919
919
916
916
916
917
917
917
917
918
915
915
914
915
915
911
913
915
919
921
926
926
928
927
927
926
925
928
930
934
936
941
940
942
939
934
931
931
929
931
932
933
933
932
935
932
928
924
921
914
912
906
905
904
903
905
907
906
904
903
902
899
898
895
895
897
896
897
899
899
899
898
895
891
894
892
892
895
895
894
899
897
900
899
899
899
901
902
902
905
907
910
914
920
930
944
972
1003
1049
1106
1169
1234
1282
1308
1295
1238
1142
1019
897
807
756
756
790
834
875
905
924
929
927
922
914
908
904
903
903
905
905
908
911
911
909
911
908
907
907
906
905
905
906
907
911
911
911
909
910
908
906
905
905
906
907
911
911
912
909
906
906
905
904
902
904
905
909
910
910
907
909
907
909
908
906
906
908
907
909
911
912
913
913
912
911
911
909
908
908
909
911
913
916
915
917
914
915
915
915
913
917
917
917
918
922
920
921
919
919
918
918
920
920
920
923
926
928
929
929
928
928
927
925
922
922
923
921
924
925
927
927
928
927
925
923
922
922
922
921
917
918
919
914
911
907
905
899
897
894
892
891
889
886
886
880
880
875
873
871
869
868
867
868
869
870
870
868
867
868
864
862
863
865
865
867
867
870
869
867
867
869
865
866
866
867
867
871
870
871
875
874
874
874
873
874
872
874
873
873
875
879
877
878
876
874
872
874
872
871
872
873
873
875
877
875
875
871
870
868
868
868
868
868
870
870
869
869
868
867
866
864
863
864
864
862
867
868
870
866
865
866
864
862
863
863
863
865
863
864
866
864
864
862
858
859
855
856
859
860
861
862
862
862
861
861
858
859
858
857
859
862
861
863
864
864
862
862
861
858
857
857
859
859
863
863
863
864
865
861
860
862
862
862
865
869
872
875
879
877
879
878
881
882
881
882
886
888
889
889
889
887
888
883
883
884
884
881
882
882
882
881
881
877
875
871
869
864
859
861
861
861
861
862
863
862
860
858
857
855
853
854
856
857
856
859
856
855
858
859
854
853
854
856
856
861
861
862
864
867
867
868
869
869
869
872
873
878
890
906
929
964
1009
1063
1127
1190
1242
1273
1265
1214
1122
1007
887
789
735
726
749
785
827
861
885
895
896
890
885
878
874
872
870
870
870
872
872
872
875
877
877
877
879
877
876
875
875
874
877
876
878
879
880
876
878
876
878
875
873
875
876
878
879
882
881
882
882
879
878
876
876
877
879
879
879
878
881
880
880
880
880
880
880
876
880
882
883
884
886
889
889
886
886
885
884
884
886
888
889
891
894
894
892
892
891
892
891
894
893
898
898
900
902
903
902
901
903
901
901
901
902
904
904
906
908
907
906
906
902
904
904
902
903
904
908
908
909
908
909
908
907
901
899
896
893
894
893
889
887
884
879
875
875
870
864
860
863
862
864
862
861
857
856
857
855
855
851
854
851
854
854
854
856
856
856
853
852
849
847
848
849
850
853
855
856
854
855
855
854
854
854
854
855
856
857
859
859
861
859
859
859
854
855
858
858
861
861
858
859
860
860
859
855
855
854
852
850
853
854
855
857
855
855
854
853
852
850
849
850
850
853
851
852
852
850
849
847
848
845
847
848
850
848
851
851
849
851
848
847
846
846
845
845
846
847
847
851
850
851
846
844
847
845
845
845
844
847
850
851
852
850
848
848
850
850
848
847
850
854
856
861
863
866
865
867
866
869
869
873
875
875
876
879
876
875
876
874
873
870
872
870
868
867
868
863
862
856
853
849
849
847
846
847
848
847
850
850
850
848
848
846
846
844
845
843
845
843
845
846
847
846
845
845
846
844
844
848
851
852
857
857
858
860
861
859
859
860
863
873
892
919
962
1020
1092
1171
1234
1274
1263
1199
1090
962
834
745
713
727
768
814
852
876
887
883
879
870
863
862
864
866
868
868
869
870
868
868
866
868
870
872
876
876
874
875
873
874
872
870
870
872
871
873
873
879
876
878
877
875
875
873
874
874
875
874
877
877
877
878
878
877
874
874
872
876
876
874
876
877
876
877
876
878
877
876
877
878
879
880
882
884
885
883
886
884
883
882
882
884
885
886
889
892
893
889
893
888
890
888
889
891
890
894
894
895
898
897
897
895
895
895
892
892
896
897
898
899
900
898
897
897
894
891
892
893
893
894
896
897
896
895
892
886
885
881
877
875
873
871
869
870
867
865
862
858
856
851
852
850
852
851
852
853
855
851
850
848
848
845
843
846
847
849
850
851
850
849
849
849
849
847
847
847
850
851
854
856
856
855
856
857
854
854
853
853
855
857
859
861
859
860
860
857
858
853
854
853
853
855
856
855
858
855
853
852
852
851
849
846
849
850
852
852
852
851
847
846
846
843
841
845
846
847
847
851
850
849
849
847
849
847
846
846
848
847
850
850
847
850
851
850
851
852
853
855
860
861
864
867
870
869
872
873
877
877
877
874
875
874
877
879
877
878
880
879
876
876
873
870
869
867
862
860
856
853
849
848
846
845
846
845
845
846
845
846
845
846
846
845
844
844
844
845
845
845
847
849
851
848
846
847
845
847
846
850
853
854
858
861
863
864
865
864
866
872
880
896
922
961
1014
1076
1142
1205
1255
1279
1263
1212
1124
1010
896
801
743
723
742
778
813
844
868
878
882
879
874
872
869
868
870
869
870
869
867
867
869
870
868
871
873
872
874
874
874
872
871
871
870
871
871
872
874
876
876
875
873
873
872
873
873
872
871
874
871
874
877
876
875
874
875
875
874
874
874
877
877
880
879
878
878
876
877
872
873
875
876
879
881
884
883
883
881
882
880
881
881
882
880
885
886
887
889
888
892
889
891
890
890
892
893
895
897
896
897
897
900
901
899
900
899
901
904
906
902
907
908
908
906
905
905
905
903
906
905
906
906
907
909
909
908
909
