907
905
906
902
903
906
905
907
909
913
914
918
920
919
922
920
922
925
928
932
935
935
934
932
930
929
925
930
927
928
929
928
930
929
927
924
919
916
912
908
907
906
907
907
908
911
910
909
909
907
904
904
903
903
906
907
909
910
911
913
908
908
906
906
906
908
910
911
913
916
919
921
917
918
920
924
925
929
938
957
982
1020
1074
1141
1216
1282
1330
1335
1286
1184
1056
928
821
775
777
811
859
899
930
945
946
940
931
927
923
925
926
927
928
928
924
925
925
927
926
926
927
931
931
931
931
929
928
926
928
927
928
927
932
933
932
932
931
928
927
928
928
927
927
930
931
933
933
934
933
931
928
930
929
929
930
931
929
933
933
934
932
932
932
933
932
931
931
933
935
938
939
937
936
935
934
932
930
935
935
937
940
943
940
941
944
945
942
942
942
943
944
945
947
949
949
949
947
949
947
946
947
948
948
947
950
951
951
950
949
949
947
946
948
948
947
952
953
952
953
952
950
946
944
942
938
936
936
935
931
930
929
926
922
920
918
914
912
912
912
912
913
913
913
914
913
909
908
907
908
908
909
910
912
914
917
913
914
912
913
911
911
912
913
915
915
918
922
919
919
921
919
919
919
919
918
920
919
920
923
923
920
920
921
921
920
919
921
921
921
921
922
921
918
916
917
915
915
913
917
917
917
921
919
919
920
916
914
912
912
912
913
914
916
917
919
918
917
915
916
912
911
909
913
916
914
916
918
917
919
916
914
913
910
909
912
911
916
915
916
916
917
915
914
910
911
913
912
914
914
915
916
917
918
916
914
914
912
913
911
915
916
917
919
920
919
918
915
914
910
911
913
914
918
919
919
920
919
915
915
914
915
916
919
923
926
929
930
933
934
934
937
937
938
941
943
942
943
944
941
938
939
939
938
936
938
937
936
936
935
933
933
929
925
923
921
919
916
916
915
917
917
922
923
920
917
917
913
912
910
911
910
911
913
914
918
916
916
915
915
914
914
915
916
918
920
921
925
926
927
928
929
928
928
928
934
941
954
972
1001
1040
1096
1162
1233
1294
1329
1327
1276
1185
1068
950
854
798
792
812
850
888
916
933
941
944
941
937
936
935
932
931
933
931
933
933
932
935
935
938
937
937
938
936
936
936
935
934
935
938
938
940
942
940
940
938
937
935
935
936
937
936
939
940
938
939
940
938
941
939
934
937
935
937
938
939
940
938
940
939
936
938
935
935
936
937
938
940
942
942
942
942
942
939
938
942
941
941
945
947
947
944
948
946
946
945
942
945
944
949
950
953
954
954
953
953
951
951
950
950
952
953
954
953
956
953
953
952
953
952
951
952
952
953
954
955
955
953
953
953
951
950
950
951
951
954
956
957
956
955
953
950
946
942
943
942
939
938
938
936
938
934
932
929
927
924
922
921
919
921
919
918
920
918
921
918
914
912
914
911
915
918
918
919
920
921
917
919
918
918
916
916
917
919
919
920
922
924
924
924
923
924
922
924
924
924
927
926
928
929
928
927
925
924
921
923
924
925
926
927
928
928
927
924
922
921
919
919
921
921
925
925
924
925
924
922
920
919
917
915
916
918
920
919
922
920
920
918
915
914
913
913
913
914
911
915
917
919
920
918
917
914
915
912
913
915
917
917
917
917
920
917
915
914
911
913
914
914
917
919
921
923
923
924
923
924
922
927
930
933
936
938
943
942
943
943
943
940
940
938
937
939
942
942
945
944
941
941
938
934
931
927
924
922
921
919
920
922
921
920
917
916
913
912
910
915
915
916
917
915
917
913
913
913
911
913
914
917
918
921
922
921
921
921
921
921
923
926
929
931
934
936
940
947
954
966
989
1023
1071
1131
1205
1280
1340
1373
1367
1314
1209
1081
953
844
792
793
825
874
916
950
966
969
965
957
951
944
943
941
944
944
948
951
953
954
955
950
950
947
946
948
950
953
957
956
957
957
956
959
956
956
956
958
955
957
961
961
961
962
961
963
963
963
962
963
965
967
965
969
970
970
971
969
970
969
964
969
971
971
972
974
976
976
975
977
978
975
976
976
977
981
982
984
987
987
987
988
988
987
986
988
991
994
996
998
1002
998
1000
1002
1002
1001
1001
1001
1002
1005
1008
1010
1013
1013
1013
1012
1014
1015
1012
1013
1015
1014
1014
1018
1019
1020
1017
1017
1016
1013
1017
1017
1017
1018
1022
1024
1025
1021
1020
1019
1018
1015
1011
1009
1008
1004
1004
1004
1003
1004
1003
997
993
990
987
987
988
989
989
989
990
991
989
990
987
987
987
986
986
988
990
992
994
995
994
993
993
992
993
996
995
997
1000
1001
1004
1006
1006
1006
1005
1007
1006
1008
1009
1010
1013
1015
1017
1015
1018
1017
1017
1016
1012
1015
1011
1015
1017
1018
1022
1021
1023
1021
1021
1018
1018
1018
1016
1018
1021
1021
1025
1023
1020
1020
1020
1017
1018
1017
1019
1022
1023
1023
1025
1025
1025
1024
1025
1023
1021
1021
1021
1024
1024
1024
1028
1029
1030
1029
1027
1027
1023
1025
1026
1026
1030
1031
1032
1034
1034
1031
1031
1032
1029
1031
1032
1033
1036
1034
1037
1038
1038
1035
1036
1037
1033
1037
1036
1037
1038
1039
1042
1044
1040
1042
1042
1041
1040
1041
1042
1044
1049
1049
1057
1059
1062
1063
1065
1065
1066
1068
1069
1073
1075
1076
1079
1078
1075
1075
1072
1072
1073
1074
1073
1075
1072
1074
1073
1071
1065
1063
1059
1055
1054
1052
1054
1050
1054
1057
1057
1057
1057
1056
1056
1055
1054
1051
1053
1054
1057
1058
1060
1059
1063
1061
1060
1060
1060
1061
1061
1066
1069
1071
1075
1076
1079
1083
1087
1101
1123
1161
1209
1269
1337
1398
1443
1458
1435
1366
1258
1136
1024
951
923
939
982
1028
1071
1100
1113
1110
1103
1094
1085
1081
1079
1082
1085
1089
1093
1091
1093
1092
1089
1089
1088
1089
1088
1090
1091
1093
1092
1095
1093
1091
1088
1088
1087
1091
1090
1090
1093
1095
1096
1099
1097
1097
1094
1095
1094
1094
1094
1092
1093
1098
1100
1098
1101
1099
1098
1096
1095
1095
1094
1095
1098
1099
1100
1099
1102
1103
1099
1101
1098
1099
1099
1099
1102
1103
1104
1107
1101
1103
1103
1104
1100
1099
1102
1102
1106
1107
1109
1108
1108
1111
1110
1109
1110
1107
1110
1110
1111
1110
1113
1114
1115
1112
1113
1112
1111
1110
1112
1111
1113
1115
1115
1116
1116
1113
1114
1112
1111
1113
1111
1110
1114
1117
1119
1118
1116
1116
1114
1110
1109
1107
1105
1100
1103
1101
1099
1097
1094
1089
1086
1083
1078
1074
1074
1076
1075
1075
1075
1070
1072
1072
1070
1067
1069
1068
1068
1067
1069
1069
1070
1070
1071
1070
1070
1069
1066
1067
1069
1068
1072
1070
1074
1072
1074
1075
1074
1073
1072
1070
1071
1073
1071
1075
1077
1077
1075
1076
1076
1075
1075
1074
1073
1074
1074
1074
1075
1075
1072
1075
1073
1071
1066
1066
1066
1066
1066
1068
1072
1070
1069
1066
1068
1066
1063
1062
1063
1062
1062
1063
1063
1063
1062
1063
1061
1060
1057
1056
1058
1057
1057
1057
1060
1061
1060
1058
1055
1056
1057
1053
1053
1055
1056
1055
1059
1058
1057
1056
1054
1054
1052
1050
1050
1051
1052
1053
1054
1054
1054
1053
1051
1051
1050
1048
1050
1049
1050
1055
1056
1059
1059
1061
1061
1060
1061
1059
1065
1066
1069
1070
1075
1078
1077
1079
1078
1072
1072
1070
1069
1070
1072
1070
1072
1073
1072
1068
1066
1063
1059
1055
1054
1051
1050
1049
1049
1049
1047
1047
1044
1043
1043
1041
1039
1036
1038
1038
1037
1038
1042
1043
1039
1039
1036
1036
1035
1036
1038
1040
1041
1043
1043
1042
1041
1041
1043
1042
1044
1045
1047
1048
1052
1053
1058
1066
1080
1098
1128
1169
1219
1280
1341
1385
1408
1393
1335
1243
1128
1012
929
896
902
936
981
1021
1052
1068
1071
1066
1056
1049
1042
1040
1042
1044
1046
1046
1049
1050
1049
1050
1047
1047
1043
1046
1046
1045
1048
1048
1049
1050
1048
1047
1045
1045
1045
1043
1044
1043
1044
1043
1045
1048
1046
1045
1045
1044
1042
1043
1042
1042
1044
1046
1044
1045
1045
1044
1045
1042
1041
1038
1040
1039
1041
1041
1043
1043
1043
1038
1040
1041
1041
1039
1039
1041
1042
1044
1044
1047
1046
1047
1043
1043
1043
1041
1041
1039
1043
1046
1049
1049
1049
1048
1047
1046
1045
1046
1044
1045
1049
1049
1051
1053
1052
1052
1050
1052
1049
1045
1045
1045
1049
1049
1053
1053
1052
1052
1048
1046
1043
1045
1047
1045
1047
1048
1049
1053
1050
1048
1046
1043
1039
1035
1035
1031
1030
1028
1027
1025
1021
1019
1017
1013
1007
1007
1004
1004
1000
1003
1006
1003
1002
1002
1000
999
994
993
993
995
995
996
998
1001
1001
1001
1000
999
999
994
995
995
995
997
1001
1001
999
1001
999
1000
999
997
998
1001
1001
1001
1001
1000
1003
1001
997
997
998
994
995
994
994
996
997
998
997
997
995
992
993
988
987
988
989
990
988
988
987
987
987
986
984
981
982
982
982
983
983
983
984
982
980
979
978
979
978
979
979
979
981
981
982
983
978
980
977
976
977
979
981
983
985
988
986
990
990
990
992
992
996
998
999
1000
1004
1006
1005
1003
1000
999
998
994
995
995
999
998
996
996
995
992
988
984
979
975
971
970
970
967
971
973
972
972
968
966
965
960
956
958
962
962
963
963
963
962
963
962
960
959
960
958
960
962
964
965
965
966
966
965
966
965
967
969
968
972
975
979
985
996
1010
1031
1060
1102
1155
1215
1275
1321
1341
1328
1275
1183
1068
953
865
817
815
840
884
923
953
972
980
981
977
972
968
965
964
967
969
968
971
974
973
973
969
968
965
965
965
967
967
969
971
971
971
972
970
967
966
966
966
968
970
970
972
973
971
969
969
967
964
965
966
967
966
968
967
969
969
971
969
968
966
964
967
967
966
970
970
970
971
971
967
965
964
966
966
966
966
967
970
972
972
973
971
970
968
970
967
965
968
970
971
972
971
972
971
972
972
972
972
974
972
975
974
980
978
979
977
978
977
974
974
975
978
977
979
979
979
977
977
974
971
970
970
971
971
974
976
975
976
973
968
966
962
961
958
953
954
952
949
947
944
941
938
935
934
930
929
929
927
930
927
928
924
922
925
921
923
922
923
925
924
924
925
926
928
926
925
925
923
924
924
923
926
929
928
931
931
930
931
928
928
928
927
927
928
929
931
931
932
933
931
927
923
924
924
923
924
924
926
927
927
927
926
922
922
921
920
919
919
921
919
923
919
920
919
916
915
916
914
912
912
913
917
919
922
923
923
923
924
924
925
928
930
933
936
939
941
943
943
941
940
938
934
935
936
938
941
941
941
940
938
932
927
922
919
916
913
913
910
912
911
908
909
905
904
902
900
899
900
901
901
905
904
903
901
900
898
897
895
898
897
899
902
905
903
903
903
902
902
903
904
904
907
911
913
917
920
922
928
936
953
977
1011
1061
1118
1185
1243
1289
1312
1301
1250
1165
1054
939
838
780
760
780
818
864
898
919
927
926
923
917
912
911
911
914
915
915
917
916
915
914
913
911
912
912
914
915
916
918
918
918
918
914
917
913
912
915
917
914
918
919
919
917
916
915
915
914
910
913
914
914
918
918
919
918
915
918
917
916
916
915
918
918
917
920
918
917
919
916
916
913
915
914
919
919
920
921
923
922
922
922
921
921
920
921
922
924
926
927
930
930
930
928
928
926
928
928
929
930
933
936
936
937
938
936
936
934
935
936
937
937
939
939
941
940
939
937
937
935
934
935
935
935
936
937
937
934
932
929
924
921
915
911
910
908
906
904
902
898
894
892
889
886
884
882
881
881
881
881
880
881
881
877
877
875
873
873
874
876
878
878
878
877
879
876
876
876
877
877
877
880
880
882
883
883
883
884
882
880
880
880
884
885
886
887
886
885
883
886
885
883
881
881
881
883
885
884
883
884
883
878
878
876
874
876
875
875
878
880
879
878
877
875
873
873
871
869
871
872
874
876
876
875
874
875
872
869
868
871
872
873
873
876
875
873
874
874
875
875
877
879
879
884
887
889
892
892
897
894
897
896
895
894
895
893
894
896
896
896
896
894
892
890
885
885
882
879
877
874
875
871
867
865
865
864
864
862
863
863
866
866
866
865
863
860
862
859
859
859
858
862
863
865
865
867
865
865
866
864
864
866
866
868
871
874
875
876
879
878
880
886
896
917
951
999
1065
1142
1214
1265
1283
1253
1174
1060
932
817
745
719
735
775
823
860
883
893
894
891
883
878
874
874
873
878
879
880
881
878
879
877
876
876
875
877
876
880
883
881
882
880
878
876
877
877
876
878
879
881
881
882
879
879
878
878
876
878
878
880
879
880
881
880
881
878
876
875
875
877
876
878
879
882
876
877
880
881
880
876
876
876
881
883
882
884
886
887
884
886
886
885
884
886
887
889
889
891
891
893
892
891
892
890
891
893
894
894
898
900
902
899
901
901
901
899
898
900
899
899
903
905
904
905
904
903
902
901
901
902
902
903
900
901
901
897
893
889
886
880
876
872
870
868
867
864
864
862
859
855
853
848
847
847
845
844
845
849
847
847
846
846
844
845
841
845
844
846
844
845
847
847
848
846
847
844
844
844
847
848
850
849
852
850
850
849
850
849
848
849
851
852
852
855
855
856
854
853
852
850
849
846
847
848
851
851
852
851
850
850
848
845
844
844
845
845
846
847
847
845
847
846
844
843
841
840
842
844
844
842
846
844
843
842
840
841
838
838
841
840
840
843
845
844
846
843
842
842
845
846
848
852
856
858
862
860
862
861
861
864
864
865
868
869
867
867
869
866
868
865
867
864
864
861
861
859
858
855
851
850
845
842
840
837
837
837
839
837
837
839
837
841
838
837
836
832
833
834
834
833
834
836
838
837
841
836
837
837
836
840
838
842
841
845
846
849
845
848
852
853
856
862
874
892
922
959
1012
1069
1138
1199
1240
1256
1233
1167
1066
951
838
756
715
715
744
784
819
849
864
872
870
864
860
856
853
854
852
853
857
854
854
855
855
856
856
858
861
861
862
862
860
858
856
857
856
858
858
860
860
861
858
860
858
857
855
857
855
857
858
861
864
863
862
861
859
858
858
857
857
859
859
862
862
863
862
864
861
859
860
858
860
860
860
865
867
867
868
868
868
867
865
862
863
865
868
872
874
875
874
873
875
874
873
875
875
877
879
880
880
881
882
882
881
882
882
881
881
884
885
886
889
886
888
886
885
884
883
886
887
888
890
889
890
891
891
890
888
886
883
881
880
881
878
877
873
872
869
867
861
855
852
852
848
844
847
847
846
846
846
841
841
840
836
837
837
835
837
838
841
840
838
838
838
835
836
835
835
837
838
838
840
841
839
840
838
837
836
837
837
839
841
842
845
845
844
841
842
841
842
840
841
844
845
846
849
846
847
845
842
840
840
839
839
841
842
844
843
844
844
842
837
839
836
834
836
837
835
839
839
839
837
838
840
837
835
837
837
838
840
842
844
845
846
850
849
848
848
852
853
857
862
865
870
868
866
865
862
859
858
859
861
862
862
862
861
859
856
852
848
841
837
835
834
833
834
835
836
837
835
834
832
831
828
830
828
829
827
829
831
831
830
831
830
830
829
827
826
828
830
833
835
835
837
837
839
838
837
839
842
844
844
847
850
853
860
869
882
908
941
989
1054
1123
1187
1234
1252
1221
1149
1040
913
799
725
698
716
755
800
838
861
869
871
865
858
852
847
847
846
848
850
854
857
856
857
854
853
852
850
851
853
854
854
856
857
856
858
857
857
858
857
856
856
858
858
859
860
862
860
859
858
858
855
857
858
859
859
862
862
865
865
861
860
861
860
861
860
861
860
864
866
866
864
865
867
866
864
864
863
866
868
870
872
873
873
873
871
870
872
869
871
875
876
877
877
876
875
877
877
875
876
875
878
880
882
883
884
885
887
887
885
886
887
887
887
889
890
892
892
890
891
891
888
888
887
888
884
886
888
888
891
892
891
889
884
882
879
874
870
867
868
865
862
860
856
856
850
846
844
841
839
840
839
839
840
837
838
837
835
834
831
831
831
833
832
836
837
837
837
837
837
836
833
835
837
837
839
841
843
844
842
842
841
841
841
841
841
844
845
847
848
846
848
847
846
845
841
842
841
842
841
845
847
845
846
845
839
837
839
838
839
841
841
840
843
842
843
840
838
838
836
833
836
839
841
840
844
845
846
845
847
846
849
847
852
852
856
859
864
867
866
868
867
866
862
859
860
861
864
865
865
866
867
862
858
855
847
845
842
838
838
839
839
839
838
838
835
836
835
834
833
831
832
834
836
835
837
836
832
832
833
834
831
832
835
837
840
840
841
841
842
841
843
844
845
847
849
854
864
871
890
916
951
1003
1064
1136
1203
1252
1270
1246
1169
1058
930
812
733
702
712
752
794
835
862
874
877
872
864
855
854
850
849
849
850
855
856
857
857
856
858
858
855
857
857
857
856
858
860
859
864
863
859
861
861
861
859
859
856
856
861
860
862
864
862
863
862
860
858
858
859
859
862
862
864
864
864
865
865
864
862
861
863
865
868
868
872
872
870
869
871
871
869
868
869
870
871
875
875
878
875
876
877
874
874
874
873
875
878
882
883
886
886
885
883
882
885
884
885
887
888
890
893
895
894
895
895
892
893
893
894
893
897
894
896
899
898
897
896
895
896
893
896
895
894
894
