910
907
909
910
908
907
907
905
906
907
909
910
910
912
910
910
910
909
909
910
909
908
910
912
916
915
916
916
914
915
914
914
911
911
913
913
914
916
920
917
916
913
908
905
907
910
911
915
913
915
913
911
911
908
907
905
905
905
909
908
911
906
906
904
903
903
902
902
903
903
906
905
906
906
906
903
904
902
899
899
899
901
901
905
906
904
901
903
902
900
900
897
899
898
901
901
904
904
904
900
897
899
898
898
900
901
903
904
906
906
903
902
899
900
898
898
898
899
903
904
906
909
910
913
914
915
916
918
916
919
922
926
926
932
934
935
935
934
931
927
928
926
930
931
931
932
929
927
921
916
911
905
905
903
901
902
903
906
905
903
902
899
898
896
895
896
896
897
899
900
899
899
899
898
897
896
896
899
901
902
907
905
908
908
907
907
908
906
908
909
914
916
923
932
944
966
998
1043
1105
1175
1249
1316
1361
1377
1349
1277
1162
1034
906
795
749
749
786
841
888
923
940
946
942
935
928
921
920
918
920
921
924
928
928
929
927
927
925
925
925
923
925
924
927
927
930
930
928
928
927
927
927
927
929
929
931
931
930
932
933
930
930
930
926
929
930
928
928
929
930
930
932
932
931
930
927
929
928
929
929
931
930
931
930
935
933
932
932
930
931
929
934
934
936
940
939
938
939
939
938
937
938
938
938
942
943
944
943
944
943
945
944
942
944
944
947
947
949
952
950
952
951
949
947
946
946
947
949
948
949
949
950
948
946
943
938
943
944
943
945
948
949
949
950
948
946
943
939
937
935
932
929
927
925
925
924
921
919
914
911
908
908
905
904
902
903
905
902
902
898
899
896
895
895
895
896
898
900
899
899
898
898
896
898
897
897
897
900
902
903
904
904
903
901
902
902
899
901
902
906
906
909
911
910
911
909
908
904
906
904
904
905
908
908
910
908
909
908
905
904
903
903
903
903
904
902
905
905
904
904
902
898
899
899
899
900
900
902
902
901
900
900
900
898
896
895
893
896
899
899
900
898
900
898
895
896
894
893
892
894
896
897
898
896
895
896
896
896
894
893
893
895
896
898
898
895
896
896
893
892
890
892
891
891
894
895
896
897
898
897
897
894
894
892
894
894
897
898
899
901
902
902
903
902
906
907
909
913
916
921
922
920
923
922
921
925
924
922
920
918
921
924
924
925
925
922
920
915
911
909
908
901
896
897
895
898
897
896
897
894
893
892
891
893
892
894
893
894
893
893
891
892
891
891
891
892
894
896
897
897
899
899
899
899
900
901
903
904
908
910
914
927
940
964
998
1045
1106
1182
1260
1328
1374
1383
1343
1253
1125
997
869
754
720
740
788
846
896
928
945
944
938
925
914
907
906
905
910
914
916
919
918
920
917
916
914
915
914
914
915
915
919
919
920
921
922
921
919
915
915
915
915
916
917
920
923
920
922
921
919
920
919
917
917
920
920
920
922
920
922
922
920
919
917
920
921
922
922
925
926
925
925
925
923
921
921
921
920
922
925
925
928
928
928
928
929
926
923
925
929
931
931
934
936
937
936
939
937
937
938
939
939
941
942
946
947
949
948
949
948
948
946
948
946
948
949
952
952
951
951
948
947
948
947
949
948
950
952
950
952
950
947
942
941
938
933
930
926
925
922
921
920
918
913
909
905
900
898
896
895
895
894
895
897
894
893
888
890
889
886
887
886
886
888
889
891
893
893
892
889
888
889
886
890
889
893
895
897
897
900
898
898
898
893
893
895
898
900
902
906
906
904
903
903
901
898
898
902
900
899
900
902
903
900
901
897
898
894
893
891
894
896
895
898
897
896
895
894
892
890
890
889
891
891
892
893
890
891
891
888
888
887
887
887
888
888
890
891
890
888
888
887
886
882
882
882
886
887
885
888
887
887
889
886
885
887
883
880
883
886
888
889
888
889
888
887
885
884
883
882
883
884
886
886
887
885
887
884
885
883
883
882
883
887
886
889
889
888
889
886
885
884
884
885
884
887
890
894
893
897
897
896
902
903
904
908
909
912
915
919
921
920
917
914
911
911
910
910
914
911
912
912
912
910
905
903
895
892
890
888
887
886
886
886
888
886
887
887
884
881
881
882
883
884
885
883
883
883
884
881
880
878
881
881
882
884
887
889
889
891
890
890
891
892
893
895
897
901
909
926
955
997
1056
1135
1219
1295
1343
1349
1298
1195
1067
939
811
730
721
752
804
854
893
918
930
925
920
910
906
898
899
898
900
902
903
906
904
908
908
909
908
905
905
904
904
904
905
904
906
906
907
909
911
910
909
908
907
906
907
908
907
910
908
908
909
910
911
910
908
904
907
906
909
911
911
912
912
911
908
910
910
909
909
910
909
911
913
913
913
914
911
912
912
912
909
909
909
913
913
916
917
916
919
919
918
918
915
919
919
921
922
924
922
923
923
921
923
921
923
923
927
928
928
932
931
930
931
930
930
928
927
927
928
928
930
933
931
931
931
932
931
929
931
930
930
931
935
935
933
930
927
924
920
915
913
910
911
909
906
903
904
901
898
893
892
888
887
884
887
886
885
887
886
886
886
884
885
881
882
883
884
886
886
890
890
888
889
886
886
886
884
888
889
889
890
892
894
894
893
893
891
891
892
892
893
894
896
897
899
898
897
895
895
893
889
892
893
896
896
897
898
896
897
894
892
890
888
887
887
887
888
889
889
889
889
887
887
885
883
885
886
888
888
889
887
888
888
885
883
884
883
882
882
884
885
885
886
883
884
881
880
882
881
880
881
883
882
886
884
884
883
882
881
880
880
882
879
880
880
885
886
884
884
882
882
880
879
880
881
881
882
884
884
884
882
882
880
879
879
878
879
882
882
881
885
883
885
885
887
887
889
892
896
898
902
906
907
908
908
907
910
909
912
911
910
912
913
916
917
915
914
913
911
909
906
903
904
901
897
896
893
891
886
883
885
882
883
883
883
884
884
884
884
879
881
879
878
877
878
876
875
877
881
883
884
881
881
881
882
880
880
881
882
885
888
889
893
894
890
892
891
892
893
905
920
946
982
1037
1109
1189
1267
1330
1364
1358
1301
1202
1074
946
818
746
723
739
784
831
871
898
910
913
913
911
910
909
907
908
907
903
905
903
904
905
905
907
907
908
909
906
909
910
910
909
909
907
911
912
912
912
915
914
914
914
912
912
911
910
912
912
915
916
918
914
915
914
912
912
911
912
914
916
915
920
916
919
918
918
915
914
915
915
919
919
920
921
924
923
925
922
920
918
916
918
917
919
921
920
925
924
924
923
922
923
924
924
925
924
926
928
927
929
929
931
930
930
927
928
930
930
931
929
934
936
936
936
934
934
932
933
932
934
935
936
936
936
935
934
934
933
934
933
933
934
934
935
934
931
928
923
921
917
913
909
907
907
907
905
904
902
901
897
896
893
890
892
891
893
890
893
895
894
891
891
890
886
890
891
890
893
893
895
896
896
897
897
895
895
892
894
895
894
893
899
898
900
899
897
899
898
896
896
898
902
903
904
904
904
904
900
901
899
899
896
894
895
898
901
900
898
898
896
896
893
890
891
893
893
895
895
895
893
891
890
890
890
887
888
888
890
891
892
893
889
888
887
886
884
886
884
886
886
888
887
889
888
887
887
888
885
886
886
883
885
885
886
890
892
888
887
888
884
885
885
886
888
890
892
892
891
894
894
894
895
895
896
900
902
904
907
914
914
916
918
919
919
917
917
913
914
914
916
917
919
915
915
914
911
909
905
902
904
898
896
895
894
892
890
889
887
884
885
887
889
887
888
889
887
889
886
885
885
886
884
884
886
887
887
889
890
890
887
886
886
889
889
891
896
898
899
903
903
905
905
910
918
936
966
1012
1075
1152
1237
1320
1372
1383
1337
1235
1107
979
851
734
718
747
800
856
897
920
930
929
923
917
909
906
907
907
911
911
911
911
913
912
910
908
911
909
914
913
914
916
916
916
915
914
914
914
911
913
915
916
918
918
917
915
915
916
914
911
914
916
915
917
918
917
920
918
917
917
917
917
915
917
919
919
923
921
922
923
921
922
919
918
917
919
922
924
926
927
928
929
927
927
926
927
926
926
930
928
932
932
931
934
934
934
933
932
931
935
936
938
940
940
940
941
941
939
940
938
939
938
941
944
943
947
946
945
946
944
942
941
941
940
941
942
941
942
943
944
942
938
932
927
925
922
923
919
917
915
911
912
908
903
900
897
894
894
894
895
894
897
894
894
891
890
889
888
887
887
889
892
892
893
890
890
891
892
893
891
892
893
895
894
898
898
900
899
900
897
899
899
895
898
902
902
904
905
906
903
905
903
901
900
898
898
899
901
899
900
902
902
900
898
897
895
896
897
896
896
895
898
896
895
894
895
892
889
890
890
890
889
891
893
890
890
890
890
891
888
887
891
889
889
890
892
891
891
890
890
889
890
888
887
888
889
891
894
892
894
892
890
888
889
890
888
888
887
890
891
890
890
886
888
887
885
886
886
889
888
890
893
891
892
892
891
889
888
887
887
887
890
890
892
890
891
890
891
890
889
889
892
895
899
902
905
903
908
911
912
909
911
913
914
916
921
924
924
923
923
918
918
916
917
917
918
919
917
916
919
917
914
909
904
901
896
893
892
894
894
894
895
896
896
892
893
891
889
889
888
889
889
890
892
892
891
889
891
886
887
885
888
890
891
894
896
897
898
899
901
902
901
902
906
920
941
975
1025
1092
1173
1253
1325
1366
1366
1311
1207
1079
951
823
741
723
748
796
849
889
913
927
929
927
921
914
914
912
909
909
909
911
911
911
911
909
912
914
915
916
915
915
914
914
912
909
911
912
912
916
917
917
916
915
914
914
913
911
912
915
915
916
918
917
916
918
915
917
913
914
914
915
916
919
918
918
918
917
915
915
916
915
917
918
920
921
922
924
923
923
921
918
921
921
921
920
925
926
927
928
929
928
927
928
926
929
927
928
930
930
931
930
932
932
932
932
930
931
930
932
932
933
936
935
934
935
933
931
931
928
929
932
932
934
935
937
936
936
938
936
936
931
930
926
925
926
925
922
919
914
912
909
902
900
900
900
898
899
897
898
895
894
895
891
889
889
890
888
890
888
892
890
893
892
892
889
891
885
890
890
893
891
895
896
896
895
895
893
892
892
894
894
896
897
900
902
900
900
898
897
895
897
897
899
902
903
901
901
902
900
897
897
894
893
894
895
898
900
899
900
900
897
895
896
893
894
894
891
896
896
893
898
897
896
895
894
891
891
890
891
891
890
894
895
894
893
889
888
887
887
888
891
889
890
894
893
894
893
893
892
891
891
890
891
891
894
894
894
894
890
890
889
889
885
888
889
891
891
893
894
895
892
890
889
888
887
887
885
887
889
889
894
896
893
893
893
891
890
890
893
893
899
899
903
906
910
908
909
910
912
914
916
917
921
925
927
923
923
920
921
919
917
920
920
922
920
920
918
914
910
904
900
896
893
892
892
893
895
896
896
896
894
892
890
888
888
886
887
888
889
890
888
891
892
893
891
890
890
894
894
897
897
900
903
905
908
908
912
914
925
948
980
1031
1097
1176
1257
1325
1362
1357
1300
1192
1064
936
808
731
729
763
820
869
909
929
934
927
922
916
912
909
909
913
918
918
919
914
915
911
913
911
914
915
916
919
920
920
922
919
919
917
919
917
917
917
920
920
923
922
923
922
922
922
919
920
920
920
922
922
923
922
922
922
921
919
917
920
918
922
925
926
926
926
927
925
921
921
919
920
921
923
927
931
932
932
929
927
929
927
927
927
927
928
931
930
935
935
935
935
931
932
933
932
933
931
934
935
937
939
939
943
940
936
937
936
936
938
937
939
940
939
939
937
937
934
933
934
934
937
937
935
936
937
936
938
938
936
937
936
936
935
932
930
928
925
923
920
917
914
910
908
907
908
905
904
906
906
905
904
901
901
899
899
899
899
899
899
899
898
897
897
897
895
896
898
898
900
900
905
905
907
903
906
902
903
901
899
902
905
905
909
910
910
911
909
910
909
906
907
907
910
911
912
913
912
910
910
908
908
906
905
905
906
907
907
908
906
905
905
904
903
902
901
901
901
903
904
905
906
904
904
904
899
900
897
897
898
899
900
904
902
900
900
899
896
896
896
895
901
901
902
903
901
901
898
896
896
892
892
896
898
898
898
900
899
900
897
896
895
894
894
894
899
900
903
906
908
911
913
914
915
915
917
920
922
926
928
931
932
932
927
922
924
923
925
926
927
925
926
927
923
922
918
914
908
904
899
897
899
900
901
903
903
903
900
898
893
892
895
895
896
897
898
899
895
897
893
894
893
893
893
896
896
897
899
901
901
901
897
904
903
904
905
907
909
914
925
941
970
1012
1065
1136
1218
1295
1355
1385
1367
1296
1175
1047
919
791
729
734
773
824
874
909
926
932
931
928
924
919
918
916
918
917
918
915
915
917
921
923
924
925
921
920
921
919
918
917
919
916
920
922
924
923
925
921
922
924
921
922
925
926
926
926
927
926
927
926
925
925
924
924
925
927
926
928
930
929
926
926
924
924
926
927
929
928
930
931
931
933
932
929
930
928
927
928
928
931
935
935
936
936
935
934
932
930
931
933
933
936
940
941
943
943
941
938
941
937
939
941
943
945
946
947
949
947
947
946
945
943
945
944
946
945
946
946
946
945
944
942
941
939
937
938
939
940
943
944
943
943
940
942
941
939
939
938
937
936
934
933
931
926
923
918
914
911
908
907
908
909
910
911
909
908
905
903
900
898
896
898
899
900
901
901
902
904
902
902
901
902
902
901
902
905
906
909
908
910
909
909
910
909
909
911
912
914
916
918
918
917
919
916
917
915
914
914
916
917
919
919
919
919
918
916
914
912
913
912
913
914
911
912
910
910
910
910
908
908
908
905
907
906
907
907
908
908
909
905
903
901
902
901
904
904
905
907
906
904
906
903
904
904
900
902
905
907
907
911
911
911
906
906
907
904
903
904
905
906
907
910
911
906
906
905
906
904
904
903
904
906
909
909
909
909
909
907
908
903
905
904
904
905
909
911
910
912
910
912
912
914
914
918
923
923
925
931
933
935
935
935
938
937
936
936
937
935
936
939
938
937
936
935
933
931
929
927
923
921
918
916
916
913
912
910
909
907
908
907
908
908
908
910
910
910
907
906
906
905
904
906
903
907
909
910
910
911
912
911
911
912
913
914
917
920
923
927
928
940
961
999
1057
1137
1226
1313
1376
1393
1352
1256
1128
1000
872
749
729
758
808
864
912
941
955
956
950
941
932
924
919
921
922
924
927
929
933
934
931
930
931
931
930
929
930
929
931
930
931
933
936
934
934
933
932
931
931
931
933
933
934
938
938
937
936
936
932
930
933
932
933
932
934
939
939
936
936
936
935
933
933
934
937
939
939
941
940
939
938
939
938
939
939
940
938
941
942
946
946
946
946
944
945
942
945
944
947
948
951
952
951
951
951
949
952
951
951
950
953
955
958
958
959
960
960
960
959
957
956
957
959
958
962
961
963
958
962
957
956
955
958
959
957
960
961
960
961
960
959
954
951
948
944
942
941
937
933
933
932
928
923
920
920
916
916
917
916
914
917
916
915
916
914
911
911
908
908
911
910
911
909
913
913
914
911
914
913
912
911
912
914
915
918
920
919
918
918
919
919
919
917
920
920
923
923
926
926
927
925
923
921
921
920
922
923
924
925
926
925
925
925
923
920
920
919
917
919
919
918
921
921
921
919
917
915
914
912
914
914
916
916
919
918
917
913
911
911
909
909
910
909
910
912
914
914
913
914
912
913
911
911
911
909
914
914
917
917
912
914
911
911
911
910
910
908
911
913
912
913
914
914
910
910
909
908
912
913
914
916
916
917
918
915
915
913
910
911
908
910
915
914
917
918
922
926
925
926
925
928
928
932
935
937
941
943
944
945
945
940
938
932
936
936
939
942
940
939
937
939
935
932
926
924
920
918
915
914
915
917
916
919
914
914
911
909
911
911
911
912
912
915
914
913
911
908
909
908
910
909
911
913
915
916
916
915
914
914
915
918
922
924
931
940
956
989
1028
1092
1162
1245
1322
1374
1389
1355
1274
1152
1024
896
781
742
755
794
849
895
928
946
952
949
945
935
930
928
929
929
930
930
932
932
933
933
933
935
933
933
933
934
930
930
934
934
933
934
936
937
936
937
935
934
936
934
935
934
937
936
941
940
940
939
938
937
936
936
935
