901
903
905
905
906
907
907
905
904
902
900
899
898
898
900
901
897
900
899
901
897
895
893
891
889
890
891
892
892
892
895
896
892
892
891
890
887
890
889
891
892
895
897
898
901
900
901
901
900
902
907
909
912
916
918
921
924
919
918
915
913
910
912
913
915
919
921
919
916
915
907
904
899
895
891
888
886
885
884
883
884
879
879
877
878
878
879
880
879
881
879
879
877
876
875
873
873
875
874
878
877
879
878
878
878
878
877
877
879
880
883
885
891
891
894
896
904
918
945
984
1041
1114
1199
1279
1344
1370
1343
1261
1133
1005
877
749
704
726
780
837
882
910
923
920
911
905
897
890
886
888
891
895
897
897
897
898
898
897
895
894
894
893
896
899
899
899
901
901
898
895
897
895
896
898
896
899
902
901
904
904
902
901
899
898
898
899
898
899
901
900
903
903
903
899
901
900
902
901
900
905
907
906
908
907
908
907
905
907
905
907
906
907
911
911
911
914
913
911
912
913
911
912
913
915
916
919
919
920
921
919
919
918
918
922
924
925
926
928
927
929
929
925
927
925
925
926
925
926
926
926
928
928
927
925
923
919
916
912
909
906
904
902
898
895
890
885
880
876
873
870
871
873
870
871
872
870
867
866
864
864
864
862
864
864
865
864
866
867
868
866
864
865
864
863
864
867
867
871
871
871
873
872
870
870
871
869
873
872
874
878
878
879
880
879
878
875
876
874
875
876
876
877
878
878
876
874
873
871
869
868
870
871
872
872
873
873
871
870
867
865
863
865
866
867
865
866
869
867
867
868
866
864
863
863
866
868
870
874
874
876
878
878
879
878
879
879
884
888
891
896
899
900
900
896
893
892
890
891
889
892
893
892
893
891
887
884
877
872
868
864
862
863
861
861
863
864
864
864
863
859
861
857
856
858
856
857
859
859
859
858
855
854
855
856
856
856
856
859
863
862
862
863
865
866
866
866
867
870
873
878
884
890
905
926
960
1004
1066
1142
1223
1298
1344
1352
1303
1200
1072
944
816
698
689
724
780
837
880
904
911
907
897
887
874
870
869
873
875
878
883
884
884
883
883
884
882
880
879
882
882
882
883
884
884
883
885
885
883
882
880
882
881
882
885
886
884
887
886
886
886
886
884
882
880
883
884
886
890
891
889
888
888
887
887
885
887
889
889
891
893
894
894
889
889
891
889
893
892
895
896
897
900
900
900
901
898
900
899
900
902
902
903
908
910
908
910
910
907
906
910
910
913
914
914
918
919
918
918
919
920
912
915
915
916
918
918
921
923
923
922
921
918
914
913
910
912
910
906
905
901
900
897
893
886
882
877
872
872
870
868
868
866
868
864
863
860
856
852
853
853
853
856
857
860
858
858
857
853
854
852
852
851
853
856
855
857
859
860
859
859
857
858
859
858
860
862
863
864
866
864
866
865
863
863
861
863
866
866
865
868
867
867
865
863
863
860
859
859
863
865
865
867
864
864
863
861
860
859
860
859
859
860
860
861
860
859
857
855
853
851
852
852
855
856
858
856
858
858
858
857
856
855
855
853
854
854
856
858
858
861
860
859
860
862
863
863
866
870
874
876
880
879
880
885
887
887
887
888
886
883
887
889
889
892
888
888
885
881
879
875
877
874
873
868
864
863
858
855
852
852
852
854
852
855
855
854
855
853
850
850
847
847
846
847
845
845
848
853
854
854
853
850
850
852
851
854
855
858
859
861
864
865
865
865
867
871
883
899
927
967
1020
1090
1166
1244
1306
1334
1313
1238
1112
984
856
728
687
706
756
811
859
891
901
901
893
886
879
877
874
876
880
881
883
882
883
879
879
878
881
881
886
886
886
887
886
887
885
885
884
886
886
888
888
891
889
889
888
886
885
884
887
887
889
890
891
893
892
895
894
894
893
893
894
893
893
896
896
895
896
899
899
899
896
894
895
898
899
901
905
906
906
903
906
907
907
905
906
904
907
910
912
912
915
914
915
913
913
914
914
915
920
922
925
927
926
927
927
928
929
928
927
927
930
931
930
932
931
932
931
931
933
934
935
933
936
936
936
936
935
935
931
927
925
920
918
913
912
909
907
907
905
902
899
896
892
889
884
883
887
885
887
887
888
886
884
883
880
881
882
882
882
883
885
887
886
885
886
885
885
886
885
885
885
885
888
889
893
892
893
892
893
891
892
891
893
894
897
899
897
898
897
900
898
896
895
896
897
899
898
898
899
897
897
894
893
894
891
891
892
893
894
896
896
895
892
894
891
888
888
889
889
892
893
898
898
899
900
900
899
901
899
902
903
908
912
914
917
918
924
925
925
925
924
920
920
922
923
925
926
925
927
924
923
917
914
912
910
904
903
899
898
894
893
889
890
886
887
887
886
886
889
889
886
887
887
887
886
884
884
884
884
885
884
888
887
887
888
887
884
885
886
888
889
892
895
897
899
900
899
899
903
911
923
942
971
1013
1069
1138
1213
1285
1339
1364
1342
1270
1153
1025
897
775
728
733
776
832
880
914
933
935
928
920
916
911
909
911
914
916
916
916
915
914
913
914
916
915
918
918
920
918
918
919
918
916
917
918
919
921
923
923
924
925
924
922
922
922
920
922
922
923
923
924
924
923
924
923
923
921
921
919
921
923
923
925
925
927
925
925
926
925
923
925
926
927
928
928
929
930
932
931
929
930
932
933
935
935
936
939
942
942
942
942
941
939
941
941
941
943
945
948
948
950
949
948
946
944
946
942
947
949
950
952
952
951
950
946
949
947
946
945
947
949
949
947
950
948
944
942
939
931
927
927
920
921
919
918
917
913
908
905
900
895
893
893
892
893
894
893
892
891
890
888
886
884
883
883
882
882
883
883
888
886
885
884
884
885
883
884
884
887
890
889
890
891
891
890
890
887
888
887
889
889
891
894
893
892
890
892
892
890
890
891
891
891
890
890
895
891
889
889
886
886
884
885
886
884
884
885
885
888
885
883
880
881
880
881
880
882
882
884
885
885
887
884
885
883
886
886
887
890
893
895
898
899
902
903
905
908
907
907
906
908
907
909
908
908
908
906
905
902
901
898
894
893
889
884
883
881
878
875
873
869
869
870
871
871
871
869
871
869
869
868
867
865
865
865
865
865
867
869
869
871
871
867
865
866
865
865
867
869
872
873
876
875
878
878
880
880
880
884
887
899
917
946
986
1041
1111
1192
1271
1332
1357
1332
1250
1122
994
866
738
698
713
760
815
861
895
912
916
911
903
895
892
888
886
888
890
889
889
890
890
889
890
892
892
895
893
892
891
890
890
890
891
891
894
893
891
895
894
893
889
891
889
891
891
893
894
895
896
893
894
892
891
891
892
893
895
894
891
894
896
897
897
897
896
895
895
895
896
899
899
901
902
902
901
900
900
901
901
898
902
904
906
907
909
911
910
910
910
913
913
914
916
917
919
922
921
922
926
925
924
923
922
924
929
928
930
930
933
933
931
931
934
930
931
932
933
935
935
934
935
932
930
927
924
919
914
911
908
906
903
897
896
891
887
883
879
874
869
866
868
867
866
865
863
862
860
859
856
857
854
853
857
856
857
856
859
858
858
857
857
858
856
856
858
860
859
866
866
867
867
864
867
865
865
867
866
865
870
872
873
872
873
872
870
869
868
867
866
869
866
870
869
869
871
870
866
866
863
865
863
865
866
866
865
866
866
864
863
860
859
859
859
859
861
860
861
862
860
858
858
858
854
856
856
856
858
862
861
861
862
861
855
857
855
854
855
856
860
861
866
866
865
869
870
870
870
871
875
877
880
885
888
892
896
891
889
888
887
885
884
887
888
890
891
893
889
888
885
882
879
875
873
869
864
862
862
860
859
857
857
859
858
857
855
857
856
857
859
859
857
856
855
855
852
851
855
857
859
861
861
859
864
865
861
860
862
865
865
872
872
874
875
877
882
892
909
932
967
1019
1086
1162
1243
1309
1346
1339
1280
1176
1048
920
792
705
687
717
767
821
865
894
905
905
900
895
884
879
880
882
881
885
886
888
889
888
887
885
885
885
888
888
891
891
890
892
892
890
892
889
889
885
888
888
892
892
892
889
892
892
891
894
893
894
893
893
892
895
897
895
897
896
893
894
893
894
894
896
898
899
901
901
901
901
898
898
898
899
899
901
903
905
907
908
907
902
904
903
903
903
904
906
909
911
913
914
915
915
915
916
915
916
914
918
920
922
923
923
924
925
921
923
922
923
926
924
927
927
931
933
933
931
932
929
930
927
929
927
926
925
923
917
916
912
911
909
903
900
897
895
893
892
892
890
888
883
881
878
877
875
876
876
876
876
879
880
879
878
873
874
874
872
874
875
876
877
880
877
877
875
878
878
878
879
880
880
882
885
884
886
885
884
883
882
882
882
883
884
887
887
887
889
886
886
884
881
880
878
877
880
882
882
884
884
881
881
879
879
878
879
878
879
882
883
882
880
880
879
876
872
876
874
874
875
876
876
878
874
876
877
875
875
875
873
874
874
874
876
878
877
877
877
876
874
869
871
872
873
874
876
880
878
881
882
882
884
884
887
889
892
894
896
902
903
904
908
908
905
904
902
901
900
899
900
903
904
904
903
901
900
894
892
889
887
879
879
878
878
873
873
873
871
869
868
865
866
869
870
872
871
869
869
867
865
865
865
866
867
868
868
870
872
868
867
867
866
866
868
870
872
874
877
882
883
882
883
887
893
908
935
973
1027
1097
1173
1249
1309
1343
1329
1264
1150
1022
894
766
708
716
756
807
857
888
907
910
905
898
892
887
886
887
891
895
895
895
894
891
890
890
887
887
891
893
893
895
896
894
893
892
894
893
892
891
893
893
896
898
897
897
898
896
894
892
891
889
890
892
894
895
897
896
896
896
893
894
891
892
892
894
896
897
899
898
894
894
894
895
895
896
898
899
901
902
903
902
903
901
901
901
898
900
901
906
907
909
910
911
910
908
908
909
907
908
909
911
910
912
915
913
911
913
915
912
915
913
912
915
913
914
915
914
913
912
912
914
914
914
915
915
917
920
920
919
918
915
913
907
903
901
897
898
898
894
892
890
881
883
879
874
873
872
869
869
870
869
870
869
869
867
865
863
862
858
860
863
862
865
867
868
868
866
864
863
863
863
864
863
867
872
872
870
869
869
867
868
867
869
869
868
871
873
875
871
872
870
868
870
870
869
869
871
874
872
873
872
869
866
866
866
866
864
864
865
866
867
870
867
866
865
862
860
858
859
858
863
861
863
863
860
863
861
860
860
858
860
859
861
860
862
865
861
863
864
864
864
864
865
869
870
874
878
879
880
882
883
883
886
888
891
889
889
889
889
889
888
889
888
887
886
885
885
882
878
878
874
872
867
861
856
856
855
854
853
854
857
856
856
855
854
851
847
849
845
846
845
846
850
848
851
853
854
851
851
850
849
849
849
849
853
854
855
857
858
860
858
858
859
862
861
864
871
882
900
925
965
1021
1087
1164
1238
1302
1343
1343
1295
1200
1072
944
816
721
692
713
759
811
852
881
895
894
889
882
875
869
868
866
866
867
871
871
871
871
871
874
873
873
870
871
870
868
869
871
873
873
874
876
875
875
873
873
870
870
871
871
873
876
877
877
876
874
875
875
872
875
874
876
876
876
877
877
879
877
878
874
876
877
877
877
879
878
880
882
881
883
880
881
878
879
879
881
883
884
886
888
888
888
888
886
886
885
887
888
889
889
892
894
895
894
894
896
893
895
895
894
898
900
902
903
903
903
903
903
899
898
899
897
898
899
900
902
901
902
896
897
893
890
888
886
882
880
878
876
873
869
861
858
851
850
851
847
848
851
849
849
847
847
845
842
843
841
840
841
841
844
845
845
845
844
843
842
841
843
843
845
848
847
848
849
849
850
849
850
850
850
853
849
852
857
856
858
858
859
859
857
854
855
851
851
855
855
855
856
854
854
853
853
849
848
850
850
852
853
854
852
851
849
848
848
847
845
845
845
844
848
849
849
849
849
848
847
844
843
845
844
846
847
847
849
849
851
850
850
846
845
845
846
847
848
849
852
851
850
851
850
847
847
845
846
849
850
851
854
852
853
849
850
850
851
852
854
855
860
865
867
868
871
871
870
872
873
874
877
880
882
885
883
882
881
880
878
874
876
877
878
879
879
879
878
876
870
864
857
853
851
851
851
852
853
856
856
855
856
851
852
850
849
849
850
850
850
850
853
853
851
847
848
848
844
848
848
850
853
853
857
857
862
857
861
861
860
865
865
870
883
906
938
987
1050
1126
1208
1284
1337
1357
1326
1246
1122
994
866
740
693
699
740
792
844
878
898
901
899
888
880
874
871
869
870
873
874
874
875
873
876
877
879
877
879
879
878
875
876
877
877
875
879
881
881
882
881
879
877
875
876
877
879
880
881
881
883
884
885
882
880
878
878
878
879
880
881
885
886
886
886
885
886
883
884
886
884
887
887
889
892
888
890
889
886
888
887
889
890
892
894
897
899
897
900
900
900
900
900
901
903
904
904
906
907
910
911
909
910
909
908
910
914
912
916
917
918
919
919
917
918
915
915
916
915
917
917
923
921
919
918
915
907
903
900
899
895
891
890
888
885
881
880
877
873
872
868
868
869
869
868
871
869
869
868
865
864
864
863
863
862
864
863
865
866
867
866
865
864
864
864
864
864
867
868
869
871
870
871
870
871
869
868
868
871
872
874
874
878
877
876
876
874
874
873
872
872
875
875
876
878
878
878
876
874
873
871
871
870
872
871
873
873
870
870
870
869
867
866
865
864
868
870
868
871
870
870
870
869
866
864
866
866
869
868
868
868
868
864
863
865
864
865
864
867
866
868
868
871
871
871
869
867
868
865
866
867
866
866
867
869
870
868
869
871
870
867
865
865
868
870
873
874
873
871
874
875
871
874
873
874
875
883
886
893
894
891
892
896
895
896
896
898
899
902
899
900
897
897
897
897
898
895
897
896
895
893
890
887
885
881
877
874
874
871
871
869
870
869
873
876
875
875
872
871
870
868
869
869
871
871
870
875
877
874
876
875
875
871
874
874
877
883
883
886
889
889
893
897
906
924
958
1011
1082
1169
1257
1329
1358
1333
1246
1118
990
862
734
702
725
776
836
881
912
921
920
913
903
896
890
890
890
895
898
899
900
902
903
901
900
897
898
895
896
901
902
904
903
900
900
899
899
897
897
898
901
899
902
904
905
902
904
903
903
902
901
900
903
905
906
906
905
908
907
907
904
902
903
903
904
908
909
911
911
912
909
908
908
908
908
908
912
911
912
912
913
916
914
910
910
913
911
913
917
919
918
922
923
924
924
922
920
921
921
920
923
925
926
928
930
930
930
929
930
929
927
928
930
930
931
930
933
930
930
931
931
934
932
932
936
936
934
935
936
934
933
929
923
922
922
919
917
914
912
910
908
904
900
897
892
890
889
886
886
886
887
889
888
888
887
887
883
880
881
881
882
883
885
884
887
885
885
885
885
885
885
888
890
890
891
894
893
892
890
888
889
888
888
889
890
892
893
896
894
895
895
895
896
892
893
891
893
893
895
897
896
897
897
895
890
888
889
892
889
894
894
893
891
892
889
889
890
887
885
885
886
888
890
890
892
892
891
891
887
885
886
885
885
888
888
889
891
890
888
886
886
887
884
885
887
888
890
890
894
894
896
900
897
900
901
903
907
908
911
916
916
918
920
917
915
912
911
915
915
915
918
919
919
918
913
910
904
898
893
891
888
889
886
890
891
889
888
885
885
884
879
881
882
883
883
887
885
885
885
885
885
883
885
882
882
886
884
888
888
890
891
890
892
894
897
897
899
903
913
928
950
984
1031
1091
1168
1248
1317
1363
1369
1322
1219
1091
963
835
732
719
753
807
859
899
920
928
925
918
909
902
898
897
899
901
899
903
904
905
907
910
907
910
909
909
908
908
908
908
910
913
911
915
913
914
912
912
913
912
912
909
908
913
913
916
916
915
916
916
915
912
912
914
912
914
915
915
918
920
917
917
917
917
915
917
916
920
920
920
922
920
921
918
920
918
919
919
922
922
925
928
928
928
928
928
924
926
928
929
929
931
933
936
935
937
938
934
935
933
932
932
933
935
935
938
940
938
939
937
936
934
934
935
934
934
937
938
941
942
937
933
933
929
927
924
924
925
922
920
919
917
913
911
907
905
900
898
897
897
897
895
894
894
893
889
886
885
883
884
882
885
885
888
889
888
888
887
887
883
882
885
885
886
889
888
891
892
892
