891
890
890
891
892
892
895
897
898
900
900
898
898
899
897
894
895
899
899
900
902
901
900
900
899
897
895
894
892
894
893
893
894
896
898
895
894
893
891
892
887
892
892
892
895
895
893
893
889
888
887
886
885
886
887
885
888
891
890
890
889
889
887
888
888
892
889
896
898
901
903
904
904
906
906
908
911
913
916
921
919
919
914
915
915
917
914
914
915
915
911
910
910
908
905
901
898
894
887
888
883
887
887
886
887
889
887
889
887
885
883
882
881
879
880
883
883
884
887
884
881
884
884
883
882
882
886
887
892
893
896
895
894
894
895
898
906
914
934
963
1003
1061
1130
1209
1287
1354
1389
1379
1315
1204
1076
948
820
730
720
754
805
858
897
918
926
927
924
915
911
908
904
906
906
906
904
906
906
906
907
909
907
911
913
913
912
913
909
909
908
908
909
909
912
913
914
914
914
913
913
912
913
913
915
914
918
918
918
916
914
916
916
912
915
916
915
914
916
920
918
917
916
919
919
917
917
917
920
921
921
923
924
924
924
922
923
922
923
925
926
926
928
931
931
932
931
930
931
930
930
931
932
933
937
943
942
941
942
941
939
939
944
945
947
947
950
951
949
951
951
952
949
951
950
951
951
953
955
956
959
956
954
956
952
952
952
950
950
947
945
946
943
937
932
923
923
920
919
915
913
910
909
907
905
903
902
899
896
892
894
892
895
892
894
892
890
893
893
889
890
888
890
889
891
890
892
894
894
893
892
895
889
892
892
894
896
897
899
902
903
901
902
902
897
899
901
902
903
903
905
908
906
907
906
902
904
902
904
903
904
905
906
909
908
908
905
903
904
901
901
900
903
902
902
904
905
899
902
901
897
899
898
899
901
901
901
904
904
902
900
896
901
900
899
901
902
903
904
907
904
904
902
903
901
900
900
903
905
904
905
906
906
907
904
905
902
903
902
903
905
905
908
909
909
909
908
908
906
903
906
907
909
910
910
913
912
913
911
912
911
910
912
910
913
915
916
924
925
928
929
929
930
933
937
939
940
945
947
950
946
943
942
941
939
940
940
940
941
940
940
936
936
933
927
925
923
917
918
918
920
921
921
924
924
922
920
921
920
919
919
918
922
920
922
924
925
927
924
924
922
924
925
928
929
931
932
936
940
942
942
943
949
955
976
1004
1047
1109
1182
1269
1346
1403
1422
1391
1304
1176
1048
920
794
764
781
832
887
936
966
978
979
973
966
959
955
956
957
959
962
962
963
963
962
960
960
962
964
966
966
969
969
971
972
969
967
965
966
966
970
970
971
972
972
972
971
970
969
969
969
970
970
972
975
976
976
976
975
975
972
970
970
973
975
975
978
978
980
980
978
978
978
977
977
978
979
981
982
985
985
986
986
983
983
982
984
985
987
987
990
992
993
993
994
991
992
992
993
992
994
996
999
1001
1004
1003
1004
1003
1000
1000
999
999
1003
1005
1007
1009
1008
1004
1008
1006
1003
1002
1003
1003
1006
1007
1008
1013
1013
1014
1013
1012
1008
1004
1004
1001
1000
999
996
996
995
991
987
983
980
976
974
972
971
972
970
970
971
970
967
965
964
963
963
963
963
965
965
966
964
963
965
961
960
963
960
964
965
967
967
971
971
969
969
970
969
967
969
970
969
972
971
973
972
972
973
972
972
972
971
971
973
974
976
979
976
978
977
976
973
971
970
967
968
970
972
971
972
974
973
973
970
969
967
966
966
965
965
967
966
968
964
966
965
965
963
965
966
965
966
966
965
966
967
962
961
961
960
961
960
962
962
964
966
963
964
959
960
959
957
958
959
962
963
964
962
962
960
958
959
956
956
958
960
961
961
964
961
961
959
959
957
957
961
962
967
971
973
976
979
982
980
981
986
987
989
988
990
989
988
986
984
988
986
982
981
981
980
980
978
973
969
969
962
962
959
956
956
955
955
953
954
953
953
956
955
956
955
953
950
950
948
945
947
945
946
949
950
952
952
951
951
950
951
954
956
959
959
963
961
962
966
974
990
1017
1061
1125
1208
1290
1364
1411
1410
1356
1249
1121
993
865
783
786
830
889
942
979
998
999
993
982
971
964
958
960
960
965
968
970
971
972
970
972
970
970
969
968
968
970
971
971
973
973
971
972
970
966
966
969
969
969
971
974
973
972
973
974
968
966
966
966
967
972
971
973
972
972
973
971
972
969
969
967
968
968
971
973
971
972
974
974
970
970
969
967
971
972
973
976
978
976
976
976
976
975
975
976
976
977
977
980
980
980
981
981
981
981
978
978
979
980
984
984
985
987
986
982
981
979
978
977
977
977
979
981
982
978
978
978
979
976
976
977
976
979
979
979
977
975
972
969
966
960
958
956
952
952
948
947
945
941
940
937
934
934
931
929
929
929
928
927
929
927
929
925
923
922
925
925
925
926
925
927
927
929
929
929
928
924
926
924
927
929
932
934
935
931
930
928
928
930
930
930
930
930
930
931
935
932
930
928
927
927
927
924
925
928
926
929
927
925
925
921
918
919
916
918
918
920
918
917
920
915
915
915
914
912
911
909
909
911
912
911
912
913
914
913
908
909
908
906
906
908
910
910
911
914
913
913
912
912
914
915
917
920
924
929
930
931
934
934
937
935
934
936
933
933
932
934
934
934
935
935
934
933
928
926
926
922
920
917
914
908
905
901
900
897
895
894
896
898
898
899
900
896
896
893
892
890
889
891
889
888
892
893
894
895
897
893
893
891
892
891
895
897
897
900
903
902
901
903
903
906
915
931
957
996
1051
1121
1203
1285
1346
1374
1354
1284
1169
1041
913
785
730
726
762
810
860
893
914
921
921
917
912
911
912
911
912
910
911
907
908
904
906
905
907
906
907
909
909
909
910
909
907
904
905
905
905
908
906
909
911
911
910
907
907
906
905
905
904
908
908
908
908
909
907
908
907
905
904
903
906
907
906
909
910
909
908
906
904
906
905
904
908
907
909
910
915
912
913
908
911
909
909
910
910
909
915
915
917
915
915
916
915
914
913
915
917
917
920
921
923
923
923
924
923
921
923
921
923
924
926
929
931
932
931
930
929
927
927
925
926
929
927
929
930
931
929
928
928
926
924
925
921
925
924
922
920
916
911
912
907
902
896
892
895
893
891
889
887
886
883
879
876
872
871
870
866
867
869
870
870
869
864
862
862
862
863
863
863
864
865
865
867
868
867
865
866
862
864
865
867
867
870
872
872
873
874
871
871
870
871
873
873
875
877
878
880
881
879
877
875
873
874
871
871
871
872
876
877
874
873
871
868
867
863
865
866
869
867
868
870
871
870
867
864
863
864
862
865
864
865
864
866
864
866
863
863
861
860
860
859
857
861
862
865
864
865
861
860
859
860
861
861
861
861
864
864
865
865
866
866
868
866
870
873
873
876
881
884
884
887
888
891
890
891
890
888
888
888
889
891
892
891
890
884
883
878
875
872
869
865
865
863
861
860
856
858
856
854
855
853
854
854
853
855
852
855
852
852
851
847
848
850
851
851
853
856
855
856
855
856
855
855
856
855
861
863
865
867
867
866
870
877
891
920
962
1023
1104
1191
1271
1327
1338
1288
1182
1054
926
798
693
680
714
771
826
869
893
901
897
889
878
870
865
863
866
872
872
872
875
872
874
875
874
874
874
875
874
873
877
879
879
879
877
877
873
873
872
874
876
877
878
880
882
882
880
879
879
877
876
876
880
880
881
882
883
881
881
879
878
877
878
879
880
880
880
882
884
885
883
881
882
877
881
882
882
883
883
886
886
887
885
886
885
883
884
884
884
887
888
890
891
890
891
892
891
891
891
893
896
896
898
900
901
901
900
899
899
898
900
898
898
904
905
908
905
904
905
905
904
903
903
902
904
905
907
909
909
911
908
908
907
904
903
900
898
895
895
891
887
885
880
877
873
869
867
863
866
863
862
861
862
862
859
859
857
852
850
850
850
854
855
855
855
854
855
852
851
851
853
853
854
854
856
858
858
856
857
857
854
853
852
854
857
860
858
861
862
862
863
863
859
861
860
861
862
860
862
862
864
863
864
862
860
858
860
861
861
863
863
863
863
860
859
858
858
857
855
855
856
857
856
860
855
858
857
856
855
852
850
853
854
857
856
857
857
854
855
855
853
851
851
851
852
854
855
856
856
858
853
853
855
852
851
852
854
856
857
857
859
857
854
857
856
854
853
854
855
857
859
856
856
856
855
852
852
852
853
854
857
857
857
859
860
858
859
857
857
858
861
863
868
871
872
877
880
882
886
884
884
884
884
884
882
883
881
883
887
885
883
880
880
881
878
877
874
872
868
868
867
863
860
860
856
856
856
856
858
858
858
861
858
855
854
856
855
853
856
854
855
858
858
861
863
860
860
861
866
863
865
864
870
871
875
882
893
912
944
988
1052
1130
1216
1290
1333
1332
1273
1167
1039
911
783
701
694
725
780
830
870
893
902
902
895
887
880
874
876
875
878
881
883
884
885
887
885
885
884
883
884
882
882
884
884
885
889
891
888
889
889
886
884
885
885
886
887
888
891
891
890
888
889
887
889
886
890
888
889
889
891
891
893
892
891
891
889
890
890
888
891
892
891
896
894
896
895
893
892
894
892
894
896
897
897
901
899
900
899
899
899
897
897
897
900
902
901
907
909
909
909
909
906
905
904
903
904
906
909
911
911
912
911
909
909
909
907
909
908
909
905
906
907
908
907
906
906
905
906
909
909
911
910
913
911
908
907
904
898
898
895
893
891
889
888
889
885
884
881
879
876
874
871
871
873
871
875
875
875
873
874
872
872
871
869
869
871
874
873
877
879
876
878
875
877
872
874
875
875
879
879
882
884
883
884
884
883
882
879
880
882
882
882
885
889
887
887
885
880
880
879
881
881
882
880
882
882
882
881
881
880
880
876
878
878
878
880
880
880
879
878
877
877
874
874
872
872
875
874
876
877
875
877
876
875
876
874
874
873
876
877
882
881
881
881
886
884
886
889
889
892
892
898
902
906
908
909
910
906
904
903
901
905
906
907
907
909
908
905
902
898
893
888
884
881
877
877
878
878
878
878
878
875
870
869
869
871
874
875
877
880
876
873
871
872
871
870
870
872
874
875
876
878
879
877
876
878
880
881
880
882
885
886
892
891
894
904
916
934
964
1004
1063
1134
1213
1288
1348
1376
1364
1305
1197
1069
941
813
718
708
745
802
858
900
923
928
923
915
905
896
895
897
897
903
906
908
908
908
904
903
901
903
901
904
905
907
909
910
908
911
908
909
906
908
907
908
909
909
911
914
912
911
910
911
909
906
908
907
912
913
916
915
912
913
911
914
911
911
911
914
916
915
917
918
921
918
916
918
915
914
917
917
921
921
923
925
927
926
926
922
924
921
922
925
927
928
930
932
932
934
932
931
930
931
931
932
936
938
940
941
942
942
940
941
939
938
938
937
939
940
938
942
941
941
938
939
938
937
937
935
939
939
940
938
934
934
929
925
922
917
915
913
911
909
907
906
901
901
897
894
891
887
886
886
888
887
890
888
886
885
885
886
884
884
885
887
887
890
891
892
892
891
891
891
892
891
893
894
896
897
899
900
900
899
899
898
898
896
895
896
895
895
897
899
902
903
900
900
898
895
895
894
895
899
900
900
899
899
897
894
894
893
894
894
895
894
896
897
898
897
896
893
893
889
891
890
893
894
895
897
896
900
900
902
901
907
907
910
912
914
919
922
927
925
926
922
918
918
918
919
920
921
923
921
921
919
915
912
906
902
902
897
895
892
895
896
896
896
895
895
893
892
890
889
889
892
891
893
891
890
890
887
887
888
886
889
889
893
891
895
894
896
896
893
894
894
896
900
902
905
906
912
917
928
948
981
1026
1093
1172
1257
1336
1386
1398
1363
1281
1160
1032
904
789
737
736
772
826
876
913
935
939
938
932
924
916
911
909
909
913
914
917
919
919
920
918
920
916
918
918
919
922
922
922
923
922
925
923
922
920
921
920
920
921
925
926
927
929
929
927
927
924
926
925
926
927
928
930
931
931
929
929
929
928
927
928
928
930
931
934
935
934
936
935
935
932
934
934
935
934
939
939
940
942
942
941
941
938
940
942
944
943
947
948
951
950
949
949
951
948
948
949
951
954
954
959
961
962
962
963
961
962
961
963
964
963
966
965
969
969
973
971
969
969
967
969
969
971
972
973
972
969
968
966
962
959
952
948
944
942
938
938
936
933
930
924
919
917
917
915
915
914
913
913
914
913
910
910
907
905
905
905
904
906
906
908
910
910
912
909
909
909
909
909
911
913
914
917
918
919
918
920
918
916
916
917
919
919
921
922
925
926
924
923
923
921
918
921
920
921
923
924
923
922
921
923
920
919
918
915
917
916
919
920
920
921
920
917
918
915
916
915
914
915
917
916
919
919
919
914
912
911
911
913
914
915
916
917
920
917
916
915
918
918
918
918
921
923
926
931
934
934
935
938
938
939
940
944
944
947
946
946
946
946
945
947
947
947
944
947
944
942
942
944
942
936
931
929
924
920
914
917
916
917
916
916
918
919
919
916
913
909
909
908
908
909
909
912
913
911
913
912
912
910
910
908
909
915
915
919
920
922
921
925
925
927
926
928
932
941
957
982
1015
1064
1129
1206
1287
1356
1394
1394
1346
1247
1119
991
865
789
760
775
816
864
905
934
949
956
952
948
943
940
935
936
934
935
933
933
936
932
934
937
940
940
942
940
939
938
935
938
936
939
942
943
944
942
943
942
941
940
940
939
940
941
942
944
947
948
948
946
944
942
945
945
942
945
946
943
947
946
946
945
945
943
944
943
946
946
948
950
952
952
949
949
948
947
946
950
949
951
951
953
956
957
957
957
956
956
950
954
956
956
961
962
964
964
965
967
965
965
964
965
963
965
969
968
971
972
974
972
972
969
968
970
972
971
972
975
974
974
977
975
975
973
973
971
975
974
974
975
973
970
968
964
959
955
952
948
946
944
942
938
937
937
935
932
931
929
927
926
926
927
926
927
928
927
926
926
924
923
922
923
922
923
925
926
929
931
930
929
928
928
928
926
929
931
933
932
933
935
935
934
932
932
932
931
932
932
936
936
936
940
938
940
934
934
932
930
931
935
935
936
936
935
934
933
932
931
929
928
927
927
928
927
934
933
930
929
927
926
928
927
925
925
927
929
931
933
930
930
928
929
926
927
928
929
930
932
934
937
937
940
942
942
944
946
948
951
955
958
963
962
961
961
960
957
955
954
956
957
957
957
957
955
952
949
942
937
932
928
928
926
926
929
930
933
931
929
926
926
922
921
921
921
923
923
926
928
928
927
926
925
924
924
923
925
924
926
929
927
931
931
931
932
931
930
931
933
936
940
943
950
966
986
1025
1076
1145
1227
1311
1377
1405
1381
1298
1170
1042
914
786
757
775
828
882
930
961
974
975
967
957
950
943
942
940
942
944
946
948
950
951
951
951
952
950
948
946
945
944
946
946
951
952
952
954
954
949
950
949
948
952
951
952
953
955
956
956
955
953
953
950
949
950
951
951
953
955
956
954
955
953
954
954
955
954
955
957
956
959
960
960
959
955
957
957
955
957
957
961
963
966
967
966
963
962
959
961
961
963
964
964
966
970
974
974
972
974
973
972
969
969
969
973
975
977
981
979
980
979
978
976
978
977
976
977
980
979
981
981
978
979
978
977
978
979
975
979
978
976
973
971
966
964
961
958
955
953
948
947
944
944
943
940
935
933
930
927
927
926
927
930
929
931
932
929
928
925
925
925
923
925
929
930
931
932
931
933
933
933
932
932
931
930
932
934
937
938
940
940
939
939
941
936
936
934
934
932
937
939
943
939
943
940
938
935
933
931
933
930
932
932
934
933
934
933
931
929
927
927
929
928
930
931
933
932
934
931
933
933
935
936
938
943
944
948
952
957
956
960
958
957
953
953
955
956
957
959
961
959
956
952
946
944
938
932
928
929
925
924
923
923
925
924
920
919
918
917
917
916
915
920
921
919
916
917
917
915
911
911
914
916
915
918
918
917
918
919
917
917
920
920
922
927
929
932
935
940
956
977
1010
1059
1122
1200
1280
1352
1397
1398
1343
1232
1104
976
848
749
745
786
843
898
936
956
962
956
949
939
932
931
931
932
935
937
938
939
939
939
938
939
937
936
936
938
939
940
940
943
944
942
943
942
942
940
938
940
940
940
941
942
945
942
943
939
938
938
937
939
937
937
941
944
947
945
947
942
943
940
939
939
941
942
943
943
946
943
945
944
943
941
944
945
946
947
944
949
