834
840
841
845
848
845
848
849
848
848
849
848
848
848
852
852
854
852
851
846
842
843
839
837
836
838
835
833
834
827
825
822
818
816
814
814
808
809
808
810
811
807
805
802
802
798
793
790
791
793
795
796
798
798
798
799
798
797
798
801
808
809
815
821
827
828
830
832
837
839
843
846
853
857
863
866
869
869
868
870
871
870
874
872
875
878
880
882
880
882
880
879
877
873
873
874
877
878
886
888
888
884
882
877
882
879
879
876
878
877
880
880
878
877
878
877
876
872
871
870
872
870
869
872
873
872
872
875
871
871
869
868
872
873
872
877
880
873
874
872
872
868
867
868
868
875
882
882
887
884
881
879
879
880
878
877
880
879
880
880
882
878
877
879
880
878
878
877
879
882
886
883
890
890
888
888
886
882
885
889
891
896
897
904
906
905
907
911
909
909
915
916
924
930
935
935
935
930
924
917
914
909
908
910
914
922
931
938
942
935
926
916
907
900
890
889
886
883
884
883
882
879
879
874
872
871
866
867
866
870
874
875
877
874
871
870
870
870
870
872
872
870
873
871
874
874
872
872
875
871
869
866
864
861
862
869
884
902
932
963
998
1029
1048
1051
1047
1047
1055
1078
1116
1150
1167
1157
1103
1008
901
798
719
670
648
633
628
621
618
608
603
597
602
600
600
608
619
632
652
678
707
738
767
793
813
828
835
842
848
852
857
857
861
859
860
859
855
858
858
857
860
860
862
865
861
864
858
855
852
847
847
846
849
850
847
849
842
837
836
833
827
826
822
822
825
824
825
823
819
816
815
811
807
806
804
802
805
807
804
804
807
806
805
804
803
801
799
804
810
815
817
819
825
829
833
839
839
843
845
853
856
860
867
870
872
874
871
875
876
874
877
881
881
883
889
892
891
893
890
889
887
884
883
884
886
889
892
893
895
893
889
888
889
891
892
891
892
892
892
892
889
889
887
885
884
885
879
881
883
882
886
886
883
880
881
880
874
871
874
879
881
879
881
883
883
881
880
877
876
876
875
877
881
883
887
886
884
879
880
880
879
877
880
879
882
885
886
884
886
884
884
883
883
879
878
879
884
882
886
884
887
888
885
886
886
885
885
889
893
896
901
905
905
906
906
905
906
901
905
912
918
924
933
939
941
936
932
930
919
915
910
910
910
914
919
923
932
934
932
927
920
910
901
898
892
892
893
889
887
884
880
876
874
870
869
870
871
871
874
871
869
867
867
867
867
863
866
865
867
868
871
869
868
867
867
866
861
861
866
866
869
870
870
869
866
862
858
857
860
869
891
912
946
975
1001
1014
1019
1014
1010
1021
1041
1078
1119
1148
1149
1107
1030
924
820
736
677
644
625
616
611
610
607
608
608
608
606
604
605
606
614
625
639
666
693
725
753
779
797
811
818
820
826
831
834
840
845
851
854
853
855
856
854
852
855
854
851
854
855
856
855
852
849
849
844
842
841
839
838
837
835
834
833
830
826
828
825
823
819
816
813
816
812
814
814
812
809
808
804
800
798
796
796
798
800
804
805
804
806
808
808
809
812
814
814
819
825
830
834
838
843
846
851
852
849
854
858
859
861
865
870
870
872
875
874
875
873
874
873
874
881
883
883
886
884
881
881
877
874
876
876
876
880
880
881
879
882
878
876
869
870
871
870
870
873
874
878
875
874
876
870
868
865
864
866
868
871
869
871
872
874
870
869
865
862
868
868
868
869
871
871
872
871
870
870
869
869
867
869
870
871
871
874
871
874
873
871
868
867
869
869
869
873
877
879
880
878
878
877
872
873
867
865
874
877
880
883
883
886
883
882
882
882
883
885
890
895
892
897
902
899
907
912
914
915
912
910
907
901
898
902
901
904
905
909
914
915
912
910
905
897
890
887
882
879
872
869
866
861
859
860
857
859
861
863
861
861
860
854
851
854
849
851
853
858
859
861
862
861
857
856
856
855
854
853
859
859
861
862
860
858
859
856
861
867
884
910
944
981
1011
1026
1031
1025
1026
1037
1063
1096
1127
1132
1099
1028
929
834
747
685
652
630
620
613
609
605
602
600
601
604
605
604
605
608
614
625
637
659
679
710
745
772
796
812
823
826
833
829
833
833
835
840
845
848
850
849
848
849
844
846
844
846
842
844
846
847
849
849
848
844
839
835
830
829
830
830
830
829
827
825
822
818
812
811
807
806
805
803
804
805
804
804
802
798
795
795
794
791
792
793
791
793
795
797
799
803
803
804
806
808
815
820
826
830
834
838
843
843
845
845
850
855
857
858
866
868
867
871
869
870
873
871
871
874
873
880
879
875
881
880
879
880
877
874
875
876
875
876
879
884
885
885
882
880
877
875
875
874
874
873
876
874
876
875
873
871
869
869
870
864
870
871
870
870
871
871
870
869
870
865
867
867
869
869
872
871
875
876
875
873
873
869
870
871
868
872
877
877
877
875
877
872
873
868
868
874
874
874
877
879
880
882
882
878
878
876
871
875
877
877
878
881
886
888
888
890
889
891
892
896
897
900
903
908
908
915
921
922
924
924
925
920
919
915
912
912
910
910
913
916
920
919
922
922
918
916
908
903
895
895
891
886
884
877
870
866
868
866
868
872
870
872
870
868
869
864
865
861
864
867
866
868
867
868
868
867
867
867
864
860
862
863
869
870
872
871
871
867
864
862
856
862
874
897
926
955
986
1006
1015
1011
1013
1023
1052
1090
1122
1144
1132
1080
998
900
809
739
693
664
649
634
628
622
615
612
614
610
610
612
613
617
625
638
658
680
709
739
766
790
808
820
830
836
838
843
844
851
855
857
857
861
863
862
862
858
857
859
860
860
861
863
862
859
859
856
853
850
847
845
845
842
844
844
844
839
835
831
826
824
821
821
820
818
818
822
818
817
816
812
809
807
808
809
813
810
811
815
818
817
820
821
824
822
827
831
831
836
837
845
852
856
858
859
860
864
867
869
872
873
879
881
886
889
889
889
890
888
889
891
893
895
896
899
900
898
898
895
893
891
891
890
888
892
893
894
896
895
895
889
888
884
884
884
888
887
888
890
886
891
889
888
885
883
881
882
883
884
885
885
886
884
881
881
882
878
882
880
884
884
887
885
889
888
884
884
881
881
880
880
882
882
885
884
886
885
886
883
879
880
877
877
881
882
882
886
888
891
889
885
885
884
883
884
881
884
885
887
890
893
896
899
898
899
900
901
903
906
907
910
913
918
924
925
929
929
928
923
916
915
914
913
915
914
915
921
921
922
924
917
916
911
907
899
898
896
890
891
882
879
873
867
869
874
875
875
874
872
873
869
867
867
863
863
863
864
868
866
864
865
868
865
865
862
862
864
862
864
867
865
868
868
863
861
860
863
869
885
910
936
969
1004
1028
1037
1039
1035
1037
1047
1070
1096
1124
1129
1113
1064
983
885
799
727
677
647
626
618
611
605
598
596
593
598
600
598
598
598
601
607
617
631
652
672
705
732
763
782
800
811
823
827
829
832
836
842
846
848
851
851
853
850
849
847
848
851
854
853
854
853
852
849
846
844
838
835
838
833
837
837
835
833
829
823
821
819
811
809
811
812
809
807
803
805
805
803
801
800
795
793
791
792
797
799
798
796
796
798
799
798
799
802
807
812
816
823
825
829
835
836
840
842
846
848
851
858
862
866
870
872
871
872
873
873
873
873
875
876
879
880
883
884
885
885
884
883
879
880
881
883
885
885
886
882
888
884
883
880
877
877
880
879
880
881
880
881
880
878
877
875
875
873
874
875
875
878
877
879
877
877
876
876
874
874
875
877
878
880
882
880
882
881
879
878
877
876
881
881
879
881
886
883
879
883
878
876
880
877
879
881
883
883
887
886
887
884
883
884
883
882
884
885
887
890
893
890
895
894
893
894
896
896
902
906
908
913
920
925
927
929
930
926
923
916
912
909
909
908
910
914
916
922
926
925
921
911
906
897
892
892
888
886
881
878
876
869
865
866
867
867
866
867
868
866
870
870
865
862
864
864
860
861
864
863
866
867
864
865
865
862
861
858
861
862
864
859
859
855
854
860
873
898
926
957
989
1012
1016
1018
1018
1031
1059
1097
1132
1153
1149
1108
1034
937
838
764
711
680
659
643
631
620
612
604
602
603
605
611
614
613
617
623
635
649
672
703
735
767
792
811
824
830
836
834
839
840
840
841
843
847
850
850
851
852
851
849
846
846
845
843
842
844
845
843
841
841
837
834
830
827
823
821
821
820
820
819
815
813
812
808
805
803
795
796
795
793
794
794
798
796
793
791
791
792
788
789
791
791
795
798
799
801
806
810
810
816
819
822
827
836
833
839
846
848
853
855
855
854
859
860
864
866
869
873
877
877
878
876
874
874
872
873
872
872
874
879
881
880
879
876
875
872
871
868
868
871
870
872
875
872
873
868
866
864
862
858
867
865
864
868
867
869
866
865
863
858
863
859
857
858
860
863
870
866
864
864
860
858
861
857
857
859
864
867
867
867
866
862
861
859
859
860
861
861
864
869
872
869
868
865
867
865
865
864
864
868
867
870
869
871
871
870
871
874
875
878
879
882
883
889
892
890
894
895
898
900
908
910
914
916
911
906
905
899
894
890
888
892
897
903
910
910
912
907
901
892
884
874
869
865
862
861
861
861
858
859
860
858
856
856
852
850
846
850
850
851
850
852
856
855
852
851
848
849
850
849
847
850
849
847
852
852
851
850
847
843
842
838
842
851
866
891
920
950
974
988
989
984
983
992
1017
1058
1107
1141
1157
1136
1074
982
877
782
708
666
642
632
623
615
608
600
592
591
589
590
587
590
593
603
613
627
647
670
706
735
759
780
797
811
819
825
830
831
837
840
840
842
842
839
840
842
841
846
844
847
849
845
844
842
840
839
838
835
833
833
834
832
833
828
825
823
821
819
815
811
811
810
807
806
808
807
803
800
799
795
790
789
791
794
794
795
796
796
795
795
793
790
797
801
799
804
811
811
818
821
825
826
827
828
832
836
841
847
849
855
857
856
860
862
862
864
861
862
865
869
870
876
877
876
875
877
871
869
869
873
868
875
875
875
878
874
873
872
867
865
869
868
870
869
867
870
869
868
867
866
866
864
863
860
861
860
862
864
867
866
866
862
860
858
859
859
861
860
865
866
867
865
866
866
862
863
861
859
862
864
866
869
872
870
867
865
865
862
865
863
863
866
866
867
871
870
869
869
868
868
869
866
866
867
868
872
873
874
875
875
874
875
873
877
881
885
887
888
887
890
892
893
893
897
900
901
906
910
911
913
909
903
896
892
892
892
899
902
909
916
915
914
908
900
891
882
874
872
869
866
862
859
859
858
858
858
856
855
854
851
851
849
850
852
851
849
853
853
853
851
848
846
845
842
845
846
849
851
854
853
853
852
852
849
846
845
848
856
868
888
918
943
971
996
1005
1009
1000
994
1000
1019
1056
1098
1130
1137
1114
1046
950
843
749
681
642
620
611
609
604
596
588
583
581
584
582
578
581
589
596
612
631
650
676
708
738
763
780
795
809
817
824
827
827
829
832
834
836
837
839
838
839
839
839
844
847
846
843
842
840
835
832
831
828
827
826
827
829
826
824
820
813
812
810
807
802
804
805
803
803
799
799
799
799
795
794
790
791
791
790
794
794
792
793
793
793
792
792
791
792
795
799
803
807
811
812
814
817
821
826
828
830
831
840
843
847
850
851
855
856
858
858
860
863
864
864
871
872
872
873
873
871
869
869
866
866
867
866
864
866
862
865
861
857
856
860
860
862
865
866
868
868
866
864
864
860
861
860
860
856
862
861
861
862
865
864
860
857
856
854
851
852
852
855
859
861
864
864
861
860
861
855
858
854
856
860
863
866
865
863
862
862
858
857
857
857
859
864
863
864
865
866
864
862
864
860
862
861
866
866
868
868
869
867
864
863
863
860
865
863
864
866
870
876
880
881
880
877
882
882
881
884
891
895
902
911
913
915
913
908
898
895
893
891
890
893
895
904
909
914
915
912
903
897
889
882
879
876
873
875
871
867
864
860
857
856
858
856
859
860
858
858
862
860
859
854
856
855
852
854
855
858
860
863
861
861
861
854
854
856
854
851
852
852
852
853
853
858
868
887
914
945
977
1003
1019
1022
1018
1015
1031
1055
1089
1126
1140
1123
1069
980
881
787
719
678
660
643
634
627
619
613
610
608
607
610
611
616
618
625
635
650
674
707
739
772
795
813
823
833
836
836
838
838
840
838
842
842
843
845
847
848
849
848
848
847
844
842
840
839
838
838
837
838
834
832
831
827
827
821
817
818
817
816
816
815
810
809
806
801
798
797
796
795
795
796
796
794
792
790
787
783
782
786
789
790
792
798
802
807
804
806
810
812
815
815
820
822
829
835
844
847
850
853
856
854
857
857
859
861
864
866
865
871
868
869
868
868
867
866
865
866
868
872
874
873
874
869
868
866
858
861
863
860
862
863
865
868
867
865
861
856
854
856
856
853
852
853
856
858
859
859
855
853
854
853
850
850
852
853
856
857
857
855
856
851
854
853
852
850
855
856
859
862
863
862
862
854
853
851
847
848
851
856
858
860
863
860
857
856
855
851
850
850
849
854
857
859
865
866
867
868
868
870
869
870
870
875
875
881
886
892
896
900
897
897
894
891
887
883
881
877
880
884
889
888
893
895
891
886
879
872
864
860
857
855
851
849
843
842
837
835
836
838
837
840
837
833
835
831
829
829
828
828
826
831
834
836
837
836
833
833
828
827
827
826
823
831
831
833
835
831
824
826
819
816
821
831
852
881
916
942
965
979
975
969
967
974
1004
1043
1091
1126
1132
1103
1040
944
841
745
681
640
618
608
599
589
583
576
575
574
571
573
569
568
573
580
588
607
634
661
696
728
752
771
781
791
794
798
799
805
809
812
812
816
814
815
813
812
808
812
810
814
808
810
811
805
807
804
802
798
798
796
794
796
798
795
794
792
787
782
782
778
776
768
770
769
769
770
764
762
764
762
759
756
751
750
752
756
759
760
760
760
761
760
758
762
766
769
771
773
782
788
794
796
799
800
799
803
806
810
809
814
818
821
825
828
829
828
828
828
826
830
829
832
834
836
835
833
835
831
832
830
829
831
831
832
835
834
834
832
832
829
824
822
824
823
824
827
829
831
833
831
826
826
826
819
818
820
819
822
818
820
819
818
823
818
820
817
820
820
823
825
826
827
823
822
821
822
824
823
824
824
822
826
828
825
828
827
826
825
824
823
823
823
823
826
826
828
828
827
829
828
828
825
823
824
824
828
832
836
839
838
839
841
839
843
843
841
846
849
854
857
864
870
874
876
878
873
869
861
856
852
850
852
856
863
869
873
876
873
864
858
852
844
839
838
832
830
827
825
818
811
814
813
814
813
814
817
815
814
813
809
809
807
808
808
809
809
811
809
811
811
813
810
809
810
808
805
808
807
807
811
808
806
804
803
807
820
845
875
906
934
954
961
958
954
959
982
1020
1063
1096
1106
1076
1009
906
802
711
649
614
593
585
578
572
561
555
552
556
558
561
564
566
574
582
593
610
637
670
704
735
760
776
786
790
792
791
792
793
792
796
798
802
804
806
810
808
806
806
803
803
803
804
802
804
801
802
801
800
794
792
790
786
784
783
785
783
782
782
780
778
773
769
767
764
764
762
762
763
764
765
761
759
760
753
754
751
752
752
754
760
762
763
764
766
771
769
772
778
780
787
788
793
799
806
807
812
814
815
815
814
817
820
820
826
832
832
834
835
834
832
834
830
830
831
833
839
839
839
840
838
835
832
831
828
829
830
832
836
836
836
835
833
828
831
830
826
826
829
829
832
832
828
829
828
826
825
826
824
824
826
825
828
828
828
829
826
826
825
828
823
822
822
825
828
827
831
833
830
831
827
825
828
825
829
829
830
834
837
836
836
834
829
827
827
826
829
832
833
835
837
836
838
835
832
830
829
826
828
830
832
833
832
839
840
842
842
844
848
850
850
854
857
862
862
868
870
874
879
882
878
878
874
872
871
868
864
866
866
864
867
871
873
878
879
876
875
867
863
857
851
845
839
832
832
831
826
828
828
829
827
824
824
824
820
823
821
820
820
821
823
822
822
819
820
819
818
817
815
816
817
817
820
822
823
822
823
821
819
818
817
816
814
824
833
852
884
914
945
972
984
989
982
979
981
997
1023
1060
1093
1109
1106
1057
972
864
757
673
618
591
579
574
571
568
561
558
557
558
559
557
565
575
590
600
626
660
688
717
740
757
