938
937
937
936
936
934
935
932
927
928
928
933
938
943
943
942
938
931
924
921
913
910
906
898
894
892
889
887
883
881
881
883
881
882
883
885
880
877
876
876
877
876
876
876
876
876
874
878
877
876
875
876
879
876
876
879
873
875
873
869
867
867
873
891
912
938
975
1012
1033
1046
1043
1035
1031
1044
1072
1117
1155
1171
1159
1106
1016
900
795
707
651
620
612
605
605
601
600
602
601
601
604
599
600
599
609
629
646
675
708
744
775
804
821
831
840
843
844
844
849
852
856
861
861
863
858
860
860
858
860
864
861
860
861
859
856
853
853
854
852
848
851
847
848
846
845
843
838
840
834
828
822
816
815
815
819
817
820
822
820
817
811
804
804
801
801
804
806
809
810
811
813
810
807
802
802
811
816
820
826
827
833
833
838
840
844
852
852
853
858
858
860
865
871
873
874
873
872
871
871
870
870
877
880
881
884
883
882
880
881
878
878
874
873
870
868
871
873
879
878
881
877
872
866
867
867
869
866
869
867
869
867
870
865
867
870
868
863
863
864
867
866
864
866
864
861
859
857
856
857
858
860
863
866
866
866
866
863
863
861
862
861
862
864
864
868
869
870
868
869
867
868
868
865
864
865
862
863
863
863
866
863
865
867
868
867
868
871
871
877
877
879
876
874
876
876
881
887
888
890
893
898
902
902
905
906
907
909
913
917
921
920
921
921
919
912
909
904
902
903
906
910
915
922
926
926
919
912
900
896
884
882
879
876
873
871
866
867
864
865
864
865
865
859
859
858
858
860
862
864
867
861
860
858
856
855
857
858
854
854
853
854
860
860
863
866
862
862
857
853
858
864
878
904
938
974
1008
1031
1037
1035
1029
1035
1052
1092
1125
1149
1138
1081
986
870
758
674
626
602
595
597
594
590
584
581
576
571
576
576
578
587
599
618
645
678
715
742
768
789
803
810
813
816
817
821
829
832
835
835
837
836
833
831
832
832
832
831
835
835
840
838
836
828
823
817
817
815
818
818
819
816
817
813
809
804
804
798
795
795
795
793
792
793
796
796
794
786
781
778
775
774
777
779
781
784
787
786
788
786
787
789
790
792
796
798
804
810
815
821
825
830
831
836
839
838
837
840
844
849
855
856
855
852
852
852
854
851
851
855
854
859
864
866
866
860
858
854
851
852
853
859
857
860
858
855
854
853
852
853
852
853
855
852
855
855
855
854
853
852
851
847
846
844
846
844
846
846
846
846
849
850
853
850
843
838
839
842
847
852
858
856
856
850
848
844
849
848
849
852
853
853
855
855
856
853
858
852
848
848
851
851
848
858
860
862
863
860
857
852
853
850
849
852
855
858
860
857
858
858
859
862
862
860
863
862
869
874
877
877
878
879
879
882
882
884
888
895
901
909
915
915
917
906
900
891
887
882
884
890
895
903
910
916
914
902
895
883
875
866
865
864
859
856
856
854
856
854
851
851
850
850
848
852
852
856
858
858
858
856
854
852
847
845
845
844
846
849
854
856
856
857
852
849
850
848
849
850
852
854
862
876
901
930
963
999
1028
1043
1046
1040
1041
1051
1080
1114
1149
1171
1163
1114
1026
915
803
717
658
631
616
604
595
587
579
573
573
575
577
582
591
604
618
636
659
685
716
744
769
792
809
821
828
832
836
842
842
844
845
845
847
845
845
847
850
850
852
851
850
846
845
845
846
846
850
853
856
854
851
846
839
837
832
828
823
821
819
821
821
822
822
821
821
817
813
812
810
809
807
806
805
803
805
803
804
806
808
810
808
808
811
817
822
828
833
831
834
836
837
843
847
850
855
859
864
871
875
872
876
874
871
874
876
881
877
882
886
890
892
893
893
893
888
889
888
890
890
891
893
895
894
893
892
892
890
888
889
884
884
886
888
888
887
888
888
887
886
886
884
885
883
887
884
888
889
890
889
891
892
886
885
882
881
883
888
894
895
893
891
889
886
883
883
887
888
892
893
894
897
892
888
888
891
895
896
897
899
899
901
899
900
904
900
898
899
895
897
895
896
894
896
898
903
901
906
908
904
904
903
902
900
905
913
918
922
929
926
927
928
925
924
927
932
939
950
958
962
959
953
945
941
934
929
930
932
940
947
954
960
955
950
943
935
919
915
908
902
902
901
906
904
902
900
896
892
892
886
882
883
887
890
892
894
893
892
888
884
880
883
881
883
886
886
892
896
895
890
890
889
889
888
885
884
887
887
889
895
902
915
940
970
999
1032
1056
1067
1072
1071
1069
1090
1119
1160
1192
1200
1157
1067
944
819
728
665
638
626
622
618
618
615
615
617
615
613
616
622
630
639
651
665
689
718
745
778
804
827
845
859
869
872
873
875
878
881
882
882
882
881
889
888
893
896
895
896
894
890
890
889
887
883
883
883
882
883
884
881
880
875
871
870
869
866
868
869
867
868
859
856
854
850
845
845
844
844
844
846
846
843
845
846
845
842
841
846
844
847
849
852
859
858
864
866
870
873
874
878
883
885
890
893
900
906
909
909
911
912
912
916
917
919
918
922
927
930
929
929
930
927
927
929
927
927
929
933
932
935
933
930
928
926
924
923
923
925
925
924
930
932
927
929
926
921
917
917
915
916
915
918
917
924
924
923
922
922
920
917
915
916
921
922
922
923
924
923
926
925
923
924
920
917
920
924
923
929
927
924
925
923
919
919
916
922
927
930
931
934
927
923
922
921
922
920
922
921
926
925
930
930
928
926
926
926
925
922
920
920
923
924
929
932
938
936
939
935
938
941
940
943
945
947
947
952
961
968
971
975
972
970
962
956
951
948
948
952
958
961
966
969
968
965
953
946
936
933
932
929
930
928
920
914
909
905
901
903
905
903
904
906
904
907
906
903
905
901
898
897
899
900
901
906
903
904
906
905
904
903
900
905
905
905
904
902
902
900
902
904
917
946
979
1021
1060
1087
1101
1107
1103
1104
1120
1147
1180
1199
1190
1141
1052
940
834
750
694
668
658
650
644
639
630
626
622
623
626
626
632
633
641
643
652
667
686
712
746
780
809
835
852
863
868
872
871
873
876
880
886
886
891
891
891
890
891
889
887
886
882
884
883
888
888
890
887
885
879
878
875
871
869
866
865
865
865
864
862
862
856
853
844
846
842
837
836
842
842
843
838
835
835
828
830
833
831
833
833
837
837
845
849
851
854
854
853
854
858
863
872
880
883
891
893
897
899
896
898
900
900
900
904
909
913
915
917
921
920
921
920
918
918
921
921
927
926
930
929
926
926
922
919
917
918
924
923
924
923
923
919
919
918
916
918
919
917
917
918
917
922
924
922
918
916
914
911
908
907
909
910
913
917
917
917
916
913
911
913
910
911
910
911
913
914
920
920
917
915
912
908
911
914
918
918
921
919
923
921
920
914
917
915
914
914
913
913
917
920
924
925
926
925
921
921
919
918
918
917
918
917
920
919
926
926
930
934
932
934
933
939
941
945
948
951
956
958
965
969
971
975
972
967
963
958
948
948
945
947
947
953
959
964
968
968
962
958
953
941
935
928
924
920
915
914
912
912
912
914
910
914
914
917
916
912
906
903
899
899
901
904
906
907
906
907
906
906
901
901
902
904
906
908
911
909
909
906
904
902
900
901
902
910
925
954
988
1025
1063
1086
1096
1092
1087
1088
1111
1147
1189
1223
1238
1218
1159
1063
944
837
753
696
671
659
652
647
638
628
622
616
615
618
621
618
623
627
636
647
662
682
708
738
770
802
825
851
864
877
883
887
891
892
893
895
891
898
894
896
897
896
899
902
903
902
904
901
896
890
886
887
888
891
895
892
891
889
880
876
873
866
864
863
861
860
862
863
860
857
852
851
848
847
847
840
849
850
853
850
852
852
849
848
852
847
847
849
850
858
862
865
870
874
878
881
882
881
880
890
891
898
904
910
915
919
922
921
921
922
922
921
921
923
927
932
933
934
932
929
928
928
926
929
930
932
930
932
931
934
932
933
932
929
927
923
923
923
925
926
927
929
925
926
925
921
917
918
918
920
922
923
921
922
925
923
921
918
918
915
919
920
924
924
924
922
921
923
924
923
924
920
921
922
923
923
924
923
924
926
926
927
923
923
920
923
924
928
930
927
928
931
929
925
925
923
924
924
928
930
932
932
932
931
928
928
931
932
937
941
943
948
952
952
952
956
952
957
957
959
966
972
976
983
983
980
976
969
960
955
953
952
958
966
974
974
977
977
974
965
951
942
932
931
928
927
931
929
928
926
922
917
914
911
909
905
906
907
913
912
914
916
916
915
912
910
905
900
906
906
911
910
915
915
913
915
913
913
914
910
909
908
910
911
920
933
953
979
1018
1051
1079
1097
1099
1092
1088
1096
1120
1159
1200
1229
1232
1185
1098
983
868
771
704
668
655
648
642
636
625
619
611
611
609
614
621
630
645
659
674
696
726
755
784
812
835
854
867
879
887
891
894
894
893
897
898
899
903
905
906
907
905
906
906
899
901
896
892
889
891
893
897
899
897
893
886
880
878
876
871
870
866
866
866
864
865
863
857
857
852
852
850
849
846
847
847
846
847
847
849
850
851
853
851
851
852
853
856
858
862
864
867
872
873
875
880
882
889
895
901
904
907
910
912
912
911
913
914
916
918
923
923
928
931
934
932
932
934
933
931
931
930
930
931
927
928
930
930
931
927
928
932
928
927
920
923
924
924
924
920
920
920
920
919
919
916
917
918
916
917
916
920
918
920
920
914
912
910
908
915
916
922
924
919
921
917
912
913
915
915
917
916
918
923
924
922
921
922
919
916
913
914
913
917
916
922
925
925
924
923
922
915
914
914
916
920
920
924
924
927
925
924
922
921
922
926
930
930
933
937
936
938
940
939
939
941
943
950
957
968
972
977
976
971
965
960
950
945
947
944
948
954
958
967
974
974
969
962
948
938
928
924
921
918
918
916
915
914
912
911
907
903
901
899
901
902
900
902
903
902
900
901
900
898
898
900
901
901
901
900
903
902
903
903
902
897
893
890
890
896
911
932
963
999
1034
1068
1086
1089
1080
1075
1086
1111
1149
1192
1214
1195
1135
1029
908
786
700
646
623
614
611
611
608
601
601
597
594
596
597
605
614
627
644
671
703
732
768
798
823
839
853
859
863
867
871
872
876
879
878
875
877
875
875
876
875
877
877
877
877
874
873
871
870
867
861
858
859
857
855
855
852
850
849
843
841
836
831
829
827
828
827
827
820
820
821
819
817
813
812
807
806
807
809
809
810
812
810
809
809
813
815
818
821
829
835
838
843
847
853
853
859
860
858
866
867
874
881
886
888
889
888
886
885
887
887
890
891
895
893
891
890
890
894
895
893
890
890
883
884
890
890
892
894
892
890
886
884
884
884
885
884
885
887
888
886
886
884
881
879
876
875
876
876
876
880
881
885
883
883
884
879
875
877
873
875
882
883
886
885
883
883
883
881
882
882
882
880
880
881
887
884
885
883
880
881
882
884
884
883
885
883
882
882
882
883
882
883
885
885
887
885
885
889
887
887
886
891
881
882
885
886
891
891
893
898
899
903
905
911
910
908
907
909
915
920
924
931
941
942
941
940
932
929
919
913
913
915
922
928
936
941
940
942
931
924
916
906
901
895
894
892
889
886
881
880
873
873
872
866
870
869
873
873
876
878
877
873
867
870
867
868
870
871
870
869
871
871
871
872
874
876
870
870
871
867
867
867
867
866
871
875
888
909
940
975
1015
1046
1066
1068
1061
1062
1067
1094
1130
1167
1189
1185
1140
1054
940
823
729
664
626
611
607
600
593
587
582
580
578
578
583
591
598
604
615
629
644
675
709
743
776
801
822
833
842
847
848
850
852
852
855
863
863
866
866
864
867
867
866
865
859
858
857
861
863
863
865
864
863
860
858
853
846
843
843
840
838
840
838
839
835
831
825
824
818
820
817
818
812
812
814
815
809
807
805
806
807
807
806
807
810
812
815
818
819
817
825
823
824
829
837
840
848
854
859
859
862
861
867
867
868
871
872
874
877
881
884
887
891
892
895
895
893
894
893
893
896
896
897
898
898
897
898
895
891
893
891
888
888
890
892
894
895
894
892
891
887
887
885
883
886
888
888
896
890
889
885
887
882
881
882
882
886
885
885
885
887
889
886
883
883
877
879
881
888
889
892
888
886
887
886
886
886
887
883
883
884
884
885
887
890
890
888
886
885
884
888
886
886
887
889
888
887
888
887
885
884
887
888
892
892
890
894
893
900
898
901
902
900
901
903
904
909
914
914
920
924
928
934
938
940
940
935
930
933
932
934
926
922
922
923
926
933
939
943
943
941
930
920
913
902
900
893
891
887
884
881
881
882
883
883
884
883
882
879
879
873
872
868
871
874
877
880
876
875
873
874
873
873
873
872
871
872
873
876
880
878
878
878
879
877
875
872
873
888
909
946
983
1025
1055
1067
1067
1059
1062
1080
1112
1157
1194
1206
1176
1096
982
854
742
661
619
599
591
593
593
590
585
583
584
584
587
591
592
602
617
635
663
693
729
762
789
810
825
833
837
843
848
861
866
868
867
867
868
866
867
867
869
873
872
872
874
872
871
870
865
861
861
860
855
851
850
852
852
855
856
852
847
843
839
833
832
831
828
827
828
829
830
829
827
825
819
814
812
812
811
814
815
818
817
817
819
819
822
822
823
824
832
837
840
846
855
860
862
866
870
872
874
874
877
877
881
883
888
890
889
891
890
890
893
891
895
898
900
902
904
901
897
896
893
891
891
898
898
898
900
899
898
898
896
896
890
887
885
887
886
891
890
896
898
900
897
891
889
887
885
884
885
888
889
885
889
888
890
890
887
888
883
887
888
889
888
891
894
898
895
895
892
890
889
885
887
891
894
900
902
897
895
890
889
889
891
894
895
898
899
901
900
897
899
898
894
895
899
898
898
901
898
898
902
897
897
898
907
907
910
908
911
913
914
918
921
922
925
920
927
929
932
939
946
950
952
952
944
936
931
924
924
926
928
938
946
950
953
949
941
933
922
915
908
902
899
897
895
891
893
891
896
896
894
890
885
882
881
879
879
880
878
883
886
884
882
883
881
879
880
875
878
882
886
887
888
886
886
883
880
877
874
874
877
883
892
909
935
969
1005
1042
1073
1091
1091
1084
1080
1095
1121
1156
1194
1202
1177
1103
991
866
754
676
632
610
607
602
604
600
596
591
590
588
589
589
593
600
612
624
645
667
697
729
762
789
811
828
842
850
855
858
862
863
862
862
862
864
863
867
867
871
871
872
877
873
874
871
864
861
859
856
855
854
857
858
862
859
858
851
845
842
840
839
835
834
830
830
828
822
821
821
822
818
820
817
812
812
812
814
817
816
817
816
817
814
814
818
819
827
830
836
842
843
850
853
856
861
863
866
868
876
880
885
891
894
894
892
891
891
892
892
892
898
902
903
909
905
910
905
906
904
904
905
902
904
905
907
911
910
912
908
906
904
904
899
899
902
908
909
908
906
904
902
898
897
898
897
896
899
898
901
902
901
905
902
900
897
896
892
893
895
899
899
903
905
901
902
900
899
897
898
895
896
897
902
906
904
904
905
904
901
904
900
899
896
900
900
906
902
904
901
899
898
901
902
900
903
905
904
907
906
904
901
905
899
901
903
903
904
907
911
915
918
923
925
924
925
922
922
922
928
931
939
942
948
955
955
956
956
949
943
936
934
931
933
937
939
945
951
951
950
946
940
932
925
921
917
916
912
906
902
894
889
888
884
885
887
889
893
892
893
893
891
886
886
885
884
881
882
879
883
885
885
882
888
886
885
887
882
881
882
883
882
883
878
885
878
883
889
906
930
971
1013
1048
1074
1086
1078
1073
1075
1094
1130
1172
1203
1212
1181
1107
1004
894
790
713
668
642
628
618
606
596
585
582
579
582
585
587
589
591
595
603
611
632
663
692
733
764
794
814
831
839
844
847
851
851
855
860
864
869
870
871
870
868
870
871
869
870
871
874
874
873
871
867
867
867
863
857
857
852
852
852
851
851
848
843
842
837
835
831
827
824
824
824
823
825
821
818
818
819
816
814
812
810
811
814
814
815
814
819
818
818
820
822
824
828
827
836
842
847
854
857
860
861
862
866
867
871
875
874
878
885
888
887
889
890
889
891
891
893
895
898
901
902
901
902
900
893
895
896
899
897
900
902
905
902
901
894
896
893
893
895
893
896
896
897
898
896
893
889
889
885
884
886
884
886
888
889
893
893
892
893
892
891
886
888
887
887
888
889
888
890
888
889
889
885
886
887
884
886
889
889
892
894
898
896
894
