805
811
826
850
883
909
936
955
957
954
952
961
978
1004
1041
1071
1085
1074
1033
968
892
817
760
720
696
679
667
653
641
631
624
617
618
615
612
608
609
608
611
617
623
640
664
690
715
743
760
773
781
782
781
780
778
781
787
790
796
798
796
793
791
787
787
785
785
788
789
789
790
792
789
786
789
786
785
781
781
779
775
772
773
772
772
770
765
763
757
759
757
754
756
755
756
754
751
751
751
751
747
744
744
745
745
746
747
749
750
746
748
748
748
749
754
759
762
767
771
774
773
776
780
780
782
784
785
787
794
800
803
808
812
814
812
812
813
814
815
817
818
817
817
822
820
822
823
818
820
819
820
820
821
821
821
824
825
821
820
819
818
816
815
818
819
822
822
823
821
818
817
815
813
808
807
808
810
811
816
811
812
809
812
812
809
807
810
810
813
808
813
815
814
813
814
813
814
812
812
810
811
813
817
820
818
814
814
814
814
814
813
816
817
817
820
822
825
827
828
827
828
829
829
834
837
837
840
843
842
844
847
850
852
853
857
856
857
858
855
852
849
845
843
844
847
850
856
856
860
857
851
847
837
831
828
824
821
819
817
812
812
812
811
812
810
811
810
807
804
805
805
807
810
811
813
813
812
811
810
807
806
808
807
810
810
812
814
818
814
812
804
800
801
799
803
817
842
865
893
920
939
945
947
949
954
972
1007
1046
1088
1114
1115
1081
1012
928
849
781
736
711
696
685
672
662
648
640
635
629
626
626
624
622
627
633
643
661
683
709
735
759
777
791
801
805
806
808
811
815
817
823
822
822
824
827
825
822
824
824
823
820
824
824
823
816
819
814
813
808
805
808
806
806
803
805
800
798
792
790
789
786
785
782
786
786
787
785
785
782
782
779
778
777
774
773
776
777
781
785
784
783
782
781
781
784
787
791
794
800
804
809
812
815
820
818
821
819
821
824
831
835
837
841
842
845
846
845
843
843
845
848
849
852
855
854
855
855
852
852
850
848
849
851
852
851
853
856
856
854
853
848
849
847
845
848
846
847
848
848
848
849
846
847
843
843
843
843
842
845
847
851
847
849
845
846
843
843
843
845
844
850
851
853
854
853
851
848
847
845
845
843
844
845
847
848
849
848
847
849
846
850
852
849
850
849
856
857
857
864
864
863
866
865
865
869
871
872
875
879
872
877
881
882
884
886
884
881
880
877
879
878
876
880
882
885
890
891
887
883
877
872
866
862
861
858
853
852
843
840
840
843
843
842
843
840
839
840
842
838
842
838
837
838
838
839
837
838
837
837
834
836
835
838
834
829
831
833
837
838
838
836
836
833
834
838
854
871
903
935
963
984
993
990
984
981
988
1005
1037
1073
1100
1105
1082
1019
932
845
768
719
689
673
662
653
646
638
634
633
628
626
622
618
618
618
623
632
648
669
695
723
750
773
790
805
812
814
812
812
814
816
821
824
824
824
825
824
823
822
819
818
820
824
824
824
823
821
818
811
811
809
804
804
802
798
801
802
799
796
794
790
787
787
787
784
783
783
779
782
781
777
778
774
774
769
770
772
773
775
776
782
779
782
780
782
780
784
783
785
789
795
797
809
811
812
813
816
814
817
819
819
824
830
832
839
840
840
840
840
840
839
841
838
840
843
848
852
850
850
849
850
850
847
846
846
849
853
856
857
853
853
847
847
845
847
847
848
850
850
851
854
849
849
846
847
842
841
841
839
845
849
849
851
851
849
846
847
843
845
842
842
844
846
849
851
851
851
850
848
849
846
843
845
848
851
852
853
852
850
847
847
846
850
848
851
853
856
855
855
855
854
857
856
857
857
859
859
865
869
872
876
874
875
875
874
875
880
884
889
891
889
889
888
881
875
870
869
875
878
880
888
892
893
891
887
879
873
866
860
860
857
852
850
850
847
844
844
848
847
849
847
846
841
836
836
838
839
840
843
842
844
846
844
839
837
837
838
838
841
840
843
844
841
838
834
832
830
835
849
872
900
935
966
981
987
986
977
981
994
1021
1060
1095
1121
1121
1092
1027
942
860
797
752
727
710
700
687
675
664
654
647
641
637
632
633
629
630
636
649
665
684
716
741
771
793
806
813
820
816
818
821
824
829
831
832
829
829
829
829
829
827
825
827
830
829
832
829
828
826
824
818
815
816
812
814
816
813
814
810
803
799
794
793
792
792
789
790
792
792
793
793
785
787
782
780
778
774
779
780
781
782
787
784
781
784
783
782
786
785
788
794
798
801
805
805
805
812
816
817
820
821
822
831
833
839
842
843
844
844
844
844
845
846
849
852
855
858
860
858
859
857
856
855
854
853
855
856
853
855
856
856
858
861
857
856
858
854
851
854
855
857
857
857
860
857
852
851
846
845
847
848
851
853
855
855
851
848
844
846
844
842
843
847
846
848
852
856
856
852
852
845
845
843
846
847
850
851
850
853
853
854
852
853
854
850
850
848
851
851
855
851
854
855
856
851
856
862
862
865
867
871
873
874
875
876
876
875
879
881
884
890
896
895
897
898
891
886
881
875
875
875
876
881
888
893
896
897
892
887
875
868
857
856
855
857
855
857
855
854
852
847
845
843
842
841
841
842
845
846
848
846
847
845
841
839
839
838
837
841
842
844
843
844
845
843
842
839
841
840
839
838
836
833
832
827
833
843
860
883
910
931
953
965
970
965
967
980
1007
1046
1088
1116
1128
1111
1054
971
886
811
758
727
705
688
675
657
644
633
624
625
623
625
626
626
628
630
642
655
675
704
735
763
785
799
812
818
819
817
822
823
826
826
823
828
829
834
836
835
833
833
830
832
826
824
825
824
822
823
822
820
821
819
814
811
807
802
802
800
801
803
802
800
799
798
790
786
784
783
787
789
789
786
788
785
786
782
783
782
781
785
788
791
792
793
795
798
801
802
800
798
805
807
810
817
824
828
832
836
835
834
838
840
840
842
843
844
849
854
856
859
861
860
857
856
857
859
859
859
862
863
864
864
865
860
860
858
858
857
857
856
858
858
858
859
859
855
853
853
852
852
852
850
852
852
852
853
855
853
854
852
848
849
849
852
855
853
859
858
856
853
851
849
847
845
846
845
850
855
858
856
855
856
853
854
852
854
851
854
856
857
853
851
855
858
856
856
857
857
858
859
860
863
863
866
871
872
877
876
873
875
878
881
883
891
898
900
900
897
893
889
881
877
877
876
879
887
893
899
903
902
892
888
877
872
868
863
863
863
865
860
856
852
849
845
845
845
844
845
847
848
850
847
848
846
845
841
842
844
843
845
844
847
851
850
847
844
846
841
842
842
838
842
840
841
842
846
855
873
894
928
955
977
988
994
987
990
1002
1025
1059
1096
1126
1134
1117
1062
980
890
809
749
704
680
667
652
642
631
620
612
609
609
609
610
610
613
619
630
641
658
684
713
744
770
789
805
816
819
822
822
824
824
823
824
824
825
829
832
836
838
834
834
833
829
827
823
825
824
825
824
828
825
819
817
812
809
806
804
801
802
800
803
803
806
802
799
791
788
785
783
780
783
784
786
788
789
789
785
780
782
779
778
778
779
784
789
794
795
794
793
793
797
797
803
808
813
823
827
832
833
837
837
837
842
843
842
844
846
850
853
853
852
858
860
858
859
861
861
856
858
859
861
864
867
865
863
863
858
859
857
856
858
859
860
863
862
860
859
858
859
856
854
852
853
856
856
854
855
855
854
851
851
849
850
850
848
851
851
854
856
853
854
853
850
849
850
851
853
854
855
857
857
856
852
854
853
853
852
856
855
855
856
860
861
861
860
858
855
857
856
857
857
856
858
860
863
862
860
859
859
857
856
861
863
869
869
872
875
876
878
879
875
875
877
881
882
889
894
900
900
902
898
893
886
879
873
873
873
879
887
897
903
906
903
899
889
882
872
869
868
866
864
865
862
857
855
849
849
850
850
847
849
849
854
854
852
851
851
849
844
841
840
842
846
848
847
850
851
851
849
851
846
849
847
846
847
847
841
840
841
840
843
849
865
890
916
946
976
999
1006
1006
1002
1006
1023
1055
1093
1124
1137
1119
1064
988
897
817
758
719
691
673
655
644
634
629
621
623
617
620
620
622
626
638
654
673
700
732
762
786
803
813
824
824
827
825
825
827
830
833
838
841
841
841
841
839
833
834
833
829
828
826
828
828
824
827
824
827
825
820
818
813
812
807
810
807
806
806
807
801
799
796
793
791
788
790
789
787
783
791
789
787
783
784
784
783
780
782
785
788
788
790
795
791
795
794
799
798
795
801
809
816
822
823
828
830
834
836
838
837
841
841
846
848
854
859
859
860
863
863
859
859
856
859
859
861
868
869
869
870
870
866
866
864
862
863
864
863
867
868
868
865
864
865
860
861
861
862
860
862
859
857
862
858
858
853
852
852
853
852
857
855
861
860
862
858
858
859
857
855
854
854
855
860
863
864
864
864
862
861
855
857
855
857
856
859
862
863
859
860
861
859
861
860
854
855
857
858
863
863
864
866
866
863
864
864
868
868
870
878
880
883
885
886
886
887
884
885
893
896
900
905
908
902
904
898
893
887
884
879
878
880
889
897
905
911
906
900
893
880
876
870
862
862
863
864
860
860
860
855
853
853
852
851
846
846
847
848
850
851
848
851
848
846
842
844
842
845
845
847
848
849
850
851
849
847
846
844
843
843
841
844
845
843
839
839
839
848
862
890
918
948
973
988
988
991
994
1011
1040
1083
1120
1143
1136
1093
1018
928
841
773
735
708
692
673
658
646
629
619
615
616
618
619
618
621
618
623
625
632
644
666
699
730
759
783
803
817
823
824
825
830
831
832
832
835
843
839
841
842
842
839
840
835
834
833
831
838
839
838
841
838
834
829
828
824
820
817
817
818
817
818
819
814
812
810
805
801
800
797
795
797
796
794
792
792
793
792
789
789
786
785
785
788
791
793
796
798
796
798
799
798
798
804
806
812
817
820
824
828
830
829
832
833
838
841
845
850
853
856
854
858
858
859
857
859
859
863
866
864
869
871
872
871
870
867
864
863
862
863
864
867
866
865
866
867
868
864
859
861
856
858
857
859
858
861
863
862
859
856
854
849
847
852
855
856
856
858
861
862
860
860
854
854
854
853
855
854
856
863
860
861
858
858
857
854
855
855
855
858
857
856
858
856
856
858
857
856
856
854
860
860
862
862
864
865
865
862
862
860
855
858
859
861
865
867
873
873
876
874
878
878
877
880
880
884
889
896
903
906
906
902
897
892
886
881
880
880
884
889
894
898
903
902
891
884
875
866
860
860
860
860
860
857
855
850
846
844
840
840
840
839
838
841
842
842
842
841
836
839
837
837
837
838
843
845
847
844
842
838
838
839
838
837
833
834
839
838
838
840
845
862
886
913
944
967
979
986
985
991
1011
1046
1088
1124
1142
1126
1071
984
881
789
724
683
659
646
637
626
612
603
596
591
593
592
591
593
598
609
620
632
651
680
708
742
768
793
805
815
818
821
821
824
822
823
824
825
824
827
827
830
826
826
826
821
824
824
823
818
819
819
818
821
817
818
813
814
809
807
804
800
799
797
796
795
796
799
797
794
789
784
781
779
778
782
780
778
778
777
775
777
774
773
771
770
775
778
781
784
790
791
793
795
796
796
797
800
806
811
815
820
828
832
834
836
835
834
838
841
844
845
851
851
852
855
855
852
848
848
849
852
853
857
858
858
858
859
857
854
851
849
845
844
846
848
850
851
855
853
851
850
849
847
842
842
841
842
846
844
846
844
845
844
842
837
839
838
841
838
840
839
842
846
846
845
845
844
843
844
843
846
846
848
849
848
847
847
847
844
845
847
844
848
844
844
849
848
849
844
846
845
844
848
849
849
849
851
856
856
854
853
850
847
844
841
843
849
847
852
853
853
854
852
854
855
853
856
859
861
862
872
874
875
875
872
874
873
873
878
886
893
895
896
894
888
882
876
871
869
873
880
886
890
896
896
894
886
876
868
858
853
846
848
847
847
845
846
843
844
841
839
837
835
833
836
839
836
838
839
839
836
835
832
835
828
831
832
834
835
838
840
840
841
839
838
837
837
836
829
829
829
829
832
845
863
889
920
952
981
997
1001
998
998
1005
1027
1059
1099
1130
1141
1107
1033
936
832
750
691
658
641
629
622
614
608
603
596
591
588
589
592
596
609
624
642
667
695
719
743
763
781
794
798
803
804
805
809
814
813
813
813
817
814
816
817
818
816
816
813
817
815
814
809
810
808
808
804
804
805
805
802
800
792
791
786
784
783
780
782
783
783
775
780
778
774
771
768
765
761
762
764
763
763
764
765
766
764
765
766
765
767
765
774
775
777
783
786
788
794
796
796
801
806
807
815
818
823
827
829
831
831
832
834
835
834
836
840
839
844
848
847
849
849
848
847
844
846
847
846
848
852
852
855
853
852
852
851
847
843
845
844
847
848
850
849
849
847
848
847
844
841
841
839
842
842
846
846
844
844
841
841
841
841
841
842
844
842
846
843
843
841
842
845
842
841
843
847
845
848
848
846
844
847
842
839
842
841
840
845
847
849
854
854
852
851
849
848
848
846
848
849
849
853
854
854
852
854
848
847
849
851
852
859
864
866
868
872
873
875
871
873
871
873
880
888
891
897
900
900
894
887
883
877
876
873
875
881
891
898
901
901
895
886
876
867
860
852
851
852
852
851
852
850
844
844
841
838
837
839
837
840
837
840
843
840
845
842
839
837
839
835
834
834
834
837
839
841
841
841
844
842
835
835
836
836
834
834
834
833
835
842
860
882
915
944
971
989
993
989
992
1003
1030
1072
1114
1143
1144
1104
1030
935
844
769
723
693
673
661
641
628
618
603
595
593
597
595
602
600
602
603
610
618
628
651
678
707
738
765
787
796
807
811
813
816
816
819
823
827
830
834
837
834
832
831
826
823
825
824
824
827
826
827
828
829
824
820
820
815
814
810
812
812
811
811
811
804
802
802
798
790
789
783
783
783
785
784
785
783
780
780
779
779
775
776
773
777
779
780
783
781
784
782
783
782
787
789
792
796
801
808
814
816
817
822
827
830
832
833
834
840
846
850
854
853
853
858
857
856
856
854
856
858
861
863
866
871
864
863
859
856
859
857
858
861
860
863
865
864
864
861
858
855
857
852
852
858
857
855
858
857
855
856
853
852
851
851
849
851
854
852
855
854
853
852
851
849
850
851
849
853
854
853
857
857
858
856
853
853
852
852
851
855
854
855
858
857
857
856
854
853
854
854
853
854
856
859
862
857
859
858
854
853
855
854
855
859
861
864
868
870
872
874
874
873
873
875
876
881
885
887
891
894
900
906
907
911
908
901
895
891
887
888
889
895
898
901
905
904
901
892
889
882
875
869
867
867
865
862
859
852
853
849
849
845
850
852
851
850
851
850
848
848
848
847
844
846
849
849
848
847
851
846
845
848
845
847
848
846
845
845
849
847
843
840
838
838
851
870
896
934
967
994
1008
1004
1007
1021
1052
1097
1142
1162
1139
1075
974
871
785
722
684
666
651
638
625
610
600
596
594
596
598
597
597
599
605
612
628
650
678
712
745
771
795
808
815
820
820
820
823
825
830
835
836
838
839
837
839
838
836
833
836
832
834
835
832
835
837
837
838
833
829
824
819
817
814
816
817
815
816
811
808
805
801
799
793
793
787
790
788
791
794
792
792
791
787
785
785
783
780
786
790
789
794
790
791
794
799
802
806
808
810
814
820
821
825
834
837
839
843
844
849
848
850
853
856
857
862
864
866
867
867
865
869
867
866
869
871
871
873
875
874
872
869
868
867
862
865
865
865
866
865
868
864
866
863
862
861
861
858
859
857
859
861
858
860
859
857
854
854
853
851
854
856
860
863
860
858
859
855
853
849
850
848
851
857
858
864
864
863
862
858
858
853
850
855
858
862
861
860
860
861
862
859
858
855
854
853
851
856
856
861
861
858
860
858
859
858
859
857
860
863
863
868
864
865
865
860
867
867
867
873
876
882
886
887
887
890
888
886
888
891
896
902
903
907
906
910
903
899
894
891
888
886
888
892
897
906
911
915
910
900
892
885
877
872
867
863
867
865
864
860
857
857
854
853
852
849
847
850
850
853
852
855
855
855
853
849
847
844
844
845
845
848
852
850
850
852
851
848
849
848
846
845
846
843
842
845
851
863
886
914
949
983
1010
1027
1031
1024
1024
1029
1053
1088
1125
1158
1167
1140
1079
982
878
788
720
678
653
