851
855
860
862
863
864
863
867
864
863
865
867
867
867
872
872
875
878
876
877
872
873
871
869
871
869
871
875
877
879
879
877
875
871
870
870
869
868
871
871
874
872
870
871
868
870
869
872
868
866
865
867
867
864
866
866
871
869
868
868
867
869
867
868
874
874
876
873
874
873
873
871
870
871
870
874
878
883
882
879
878
879
874
875
876
877
879
881
882
881
879
881
880
881
877
880
881
882
884
888
890
893
894
891
892
891
891
890
892
893
896
901
904
911
921
925
930
927
920
913
906
903
899
898
901
908
913
920
924
922
918
911
905
894
894
890
888
891
888
883
880
875
872
870
867
867
870
869
871
875
874
870
869
867
869
869
869
869
865
870
872
875
876
874
870
870
872
870
868
865
868
869
873
875
872
871
870
871
871
883
902
928
961
995
1027
1050
1057
1055
1049
1042
1053
1078
1103
1123
1120
1077
995
898
798
719
670
645
635
637
634
634
635
634
635
637
634
631
633
636
642
647
659
678
704
737
770
799
818
836
848
851
850
852
850
854
856
859
866
870
868
867
867
867
865
865
862
863
866
866
868
869
865
863
859
854
853
853
850
851
847
850
850
848
847
843
841
831
830
830
825
824
826
825
826
827
824
819
821
816
815
818
817
818
821
822
827
830
830
833
835
835
836
843
842
845
851
859
863
866
868
868
871
874
878
880
883
884
886
892
897
898
897
896
895
898
895
898
892
899
900
903
905
909
907
905
905
898
899
901
899
900
901
902
905
906
907
903
902
900
902
898
898
896
899
900
899
900
898
899
897
894
895
890
892
893
896
895
897
901
898
900
896
898
896
896
893
889
893
898
902
902
900
902
898
894
895
891
889
894
893
895
900
902
901
902
899
893
893
894
897
895
896
897
899
901
906
903
904
905
907
905
906
911
912
915
920
923
923
924
920
922
922
929
932
936
942
946
940
939
934
927
923
918
914
923
926
933
938
940
941
940
933
921
917
910
906
903
902
895
895
894
891
889
890
890
889
889
887
883
882
883
885
889
887
890
887
884
883
881
881
878
877
881
883
887
887
890
888
887
887
884
881
879
875
872
876
877
888
906
929
956
989
1016
1036
1038
1033
1028
1040
1066
1103
1136
1147
1119
1052
959
859
776
717
679
663
655
650
650
646
643
642
637
636
639
639
645
657
669
689
713
741
771
798
818
832
844
848
853
860
861
864
871
872
873
874
872
868
870
866
866
869
870
875
878
875
873
870
868
865
861
859
858
856
858
856
858
851
847
845
844
840
840
833
835
834
834
830
832
834
831
829
825
820
820
821
821
821
823
827
828
828
830
828
829
829
830
832
838
841
849
854
857
860
862
865
868
870
873
874
875
877
879
884
891
891
888
892
891
894
894
889
893
893
896
898
898
900
896
896
893
891
892
893
893
895
893
896
899
898
894
892
889
888
887
886
885
885
884
888
891
889
887
888
886
883
877
873
874
879
881
881
887
885
886
885
883
882
880
879
882
881
882
885
885
887
885
886
882
882
881
880
880
880
883
886
887
890
888
886
881
879
883
880
880
882
886
890
888
890
894
892
891
893
896
898
899
904
902
907
908
908
911
910
916
920
925
926
930
925
926
922
918
912
909
906
905
910
914
917
919
923
921
919
913
899
892
886
884
880
876
874
873
873
871
873
874
875
873
872
870
865
863
864
861
861
862
862
867
868
867
866
867
864
864
863
862
862
865
867
867
867
867
858
854
852
859
866
880
906
941
973
997
1017
1019
1010
1003
1007
1025
1058
1097
1125
1127
1084
1002
899
797
720
671
642
631
623
620
617
615
614
611
613
615
617
614
620
627
635
650
673
698
729
758
782
800
813
824
829
830
836
838
843
847
851
854
852
853
852
853
851
849
850
848
847
848
854
856
855
854
848
848
843
840
837
836
832
834
836
834
833
830
829
823
818
816
815
815
816
816
813
812
812
810
809
808
805
805
805
805
807
810
810
810
810
812
813
812
812
814
819
822
829
835
838
844
846
849
850
848
849
849
855
860
860
866
867
867
869
870
873
871
873
872
873
875
875
875
877
880
880
881
878
879
875
875
874
875
874
876
879
879
879
877
877
876
875
870
872
871
873
872
871
873
874
873
871
865
863
863
861
863
863
865
867
871
873
875
871
868
867
862
864
864
864
866
866
870
870
868
869
866
866
864
866
869
873
868
871
871
871
873
875
869
868
864
865
863
865
868
869
874
877
877
878
874
875
875
874
879
881
885
886
889
889
891
893
896
894
899
904
906
913
915
914
911
909
904
897
891
891
892
895
901
908
912
914
911
902
891
882
874
868
863
865
864
862
860
861
862
857
855
853
854
851
848
848
845
849
850
853
855
853
853
856
853
851
850
848
846
846
848
850
851
852
854
852
854
851
849
846
843
845
846
848
862
881
906
935
966
984
993
991
987
988
1006
1037
1077
1112
1124
1103
1043
954
847
753
689
650
635
629
625
618
612
606
601
600
599
598
600
603
611
622
637
652
675
704
728
754
775
793
808
816
821
827
831
835
834
835
836
838
837
836
838
843
847
846
845
848
845
844
841
839
835
833
831
836
836
835
837
836
832
828
826
824
820
817
816
814
814
811
809
807
802
803
803
805
802
803
801
798
797
795
798
799
802
805
804
800
799
798
799
799
805
812
818
822
826
826
827
830
829
832
834
841
844
847
853
859
858
860
858
858
856
855
858
859
863
869
868
872
867
866
867
865
870
872
871
870
871
867
866
867
870
876
870
866
860
859
861
860
864
865
866
868
865
867
865
862
857
855
853
853
856
856
859
858
858
856
854
853
856
859
859
857
856
857
858
858
860
861
861
861
859
861
858
858
860
860
864
866
868
867
864
858
859
859
860
866
870
872
875
873
875
874
872
871
868
868
869
876
877
884
888
885
886
887
887
889
890
894
901
907
911
912
912
914
911
903
899
897
893
893
892
898
906
913
913
915
908
901
890
876
869
863
864
862
860
861
863
862
863
859
861
858
855
854
856
856
857
856
859
859
860
856
856
855
854
852
855
854
855
853
851
853
856
857
855
859
851
846
849
852
866
886
914
943
972
996
1009
1007
1003
998
1008
1036
1072
1110
1130
1117
1067
980
876
779
702
656
630
618
612
608
604
604
600
595
598
597
604
607
618
634
657
688
721
758
786
808
821
829
833
832
830
831
837
845
851
855
854
856
855
853
847
843
844
845
847
850
851
851
853
850
841
838
834
832
834
827
827
832
836
833
829
826
822
820
815
811
811
811
813
813
814
815
811
808
806
804
803
802
802
800
802
803
808
811
810
810
812
812
817
818
823
829
833
837
842
846
849
850
850
850
851
856
860
865
868
867
868
871
871
868
869
871
867
869
871
872
875
877
881
882
878
877
875
872
869
872
871
874
873
875
871
872
871
869
867
867
866
867
869
866
869
868
872
870
869
868
867
866
863
864
864
865
866
869
870
871
872
871
867
865
865
863
863
865
868
870
872
872
872
875
871
868
869
867
866
865
868
872
874
873
876
875
872
870
870
871
873
874
876
878
881
881
884
884
887
889
889
889
889
889
893
901
909
913
920
920
916
915
907
905
901
898
898
896
900
909
913
917
919
918
916
906
899
892
885
882
879
882
879
876
870
866
861
862
862
862
862
862
861
864
862
862
862
862
857
855
857
858
860
862
860
862
861
862
860
858
860
858
858
858
859
859
859
860
864
870
886
908
936
968
999
1025
1035
1034
1027
1029
1039
1061
1091
1113
1122
1107
1046
960
855
763
693
657
634
624
618
612
608
603
598
598
598
600
604
609
614
621
631
648
668
701
734
768
794
817
834
842
847
845
847
843
847
846
850
854
856
856
858
857
857
859
857
856
853
849
848
851
852
849
852
849
848
845
840
838
837
834
834
830
830
827
826
824
824
821
818
817
813
813
811
809
813
813
813
815
814
812
809
809
808
809
809
811
815
813
816
823
824
826
830
835
839
841
842
846
850
859
861
867
871
873
874
872
873
873
873
873
872
876
883
881
882
884
884
882
884
879
881
884
884
883
885
888
888
885
882
882
877
877
879
882
879
882
880
885
884
882
878
873
875
873
874
874
874
873
877
883
881
878
876
874
871
873
869
871
870
871
874
876
879
877
876
875
872
871
873
873
876
878
878
876
878
876
875
872
873
872
873
874
875
879
879
882
881
880
882
882
879
882
882
884
888
894
896
899
901
902
902
903
907
909
911
917
922
924
926
926
919
912
907
903
899
898
901
905
915
925
929
927
920
909
899
895
885
882
879
878
879
875
877
878
873
871
868
863
858
861
859
861
864
864
867
868
866
869
865
864
861
858
855
857
860
860
863
864
867
866
867
866
865
862
862
858
861
863
870
885
910
940
966
995
1012
1021
1018
1012
1017
1031
1067
1104
1135
1140
1111
1039
935
826
731
666
630
614
609
606
600
598
591
589
588
588
590
591
595
606
615
626
640
662
689
719
750
776
796
819
834
840
846
846
846
850
851
851
850
855
856
855
855
857
857
861
860
859
855
854
851
850
849
846
841
845
849
846
845
841
839
837
831
827
826
822
821
822
825
825
824
821
818
815
814
811
811
809
811
813
813
811
809
808
807
808
809
809
810
815
818
822
826
830
832
833
835
839
842
844
846
849
857
861
863
870
872
874
878
878
878
875
875
875
877
880
882
886
887
886
888
885
885
884
884
884
885
886
886
888
885
888
885
886
880
880
878
877
882
882
885
885
883
884
881
879
874
874
873
872
873
873
874
879
875
873
873
873
870
869
867
873
873
877
876
878
874
874
880
875
875
875
874
873
878
876
879
878
882
879
876
877
877
876
876
876
877
882
882
886
884
884
880
875
874
876
878
877
877
885
885
885
893
891
894
891
893
898
896
899
899
902
903
907
912
916
922
925
927
927
923
920
916
914
914
912
910
906
908
911
913
920
923
923
922
915
909
907
900
891
888
887
881
881
876
872
869
872
871
873
872
873
871
873
869
867
865
862
863
867
867
868
871
872
870
867
862
863
863
866
867
868
871
871
867
866
865
862
859
860
866
881
908
937
975
1006
1023
1034
1032
1027
1027
1043
1073
1103
1131
1139
1108
1042
947
844
756
690
652
636
622
616
610
606
604
605
604
605
609
612
616
621
629
643
664
694
723
754
781
802
817
829
835
838
845
851
854
858
862
865
866
865
865
865
864
862
862
859
863
864
866
867
863
862
862
857
851
847
841
845
843
846
844
844
839
837
837
834
828
827
820
822
823
824
818
822
821
819
821
820
816
817
816
816
819
822
824
826
826
824
831
832
833
834
835
841
848
856
858
865
865
870
871
873
871
873
874
877
879
883
885
890
892
891
892
889
889
888
886
885
887
890
891
893
894
894
894
895
889
888
888
885
887
887
891
893
887
883
886
885
884
883
882
881
882
884
885
885
882
883
880
878
875
876
870
874
875
878
880
882
878
878
881
879
873
871
871
875
875
877
879
877
877
875
875
880
880
881
879
879
882
877
879
882
884
883
883
882
880
879
879
881
886
887
889
891
895
893
892
896
895
893
897
897
900
907
912
921
927
930
927
926
926
918
916
910
910
905
905
906
913
918
923
927
926
922
923
912
905
897
892
890
886
887
881
878
876
872
869
869
869
871
868
867
867
866
864
866
864
863
862
863
865
865
865
868
866
865
864
862
859
856
859
862
863
863
866
869
869
867
869
870
877
891
912
941
971
1001
1025
1037
1029
1022
1028
1042
1071
1103
1128
1127
1095
1023
925
820
732
670
633
621
614
611
605
601
597
594
594
596
597
600
601
604
611
619
632
651
681
713
745
776
799
819
830
839
842
841
842
842
844
851
857
863
863
864
861
858
861
859
857
855
857
857
854
859
855
851
852
851
847
846
843
840
840
840
838
836
833
828
824
825
823
818
815
816
820
816
819
820
819
820
819
819
816
814
813
814
815
817
820
825
821
830
830
833
833
836
832
839
844
848
852
858
861
865
864
867
873
868
867
872
879
880
881
883
882
886
887
886
887
889
889
890
889
892
895
897
900
897
897
892
892
893
889
889
886
892
895
899
894
893
893
892
892
889
885
881
883
883
886
890
886
888
889
885
882
884
884
882
883
883
884
887
886
888
887
886
884
884
883
885
885
888
892
892
891
888
889
887
884
883
882
884
888
890
894
896
891
892
891
890
885
886
884
884
885
888
890
893
891
889
894
891
892
889
892
894
897
901
900
902
904
908
911
909
909
911
913
919
925
932
938
940
939
938
935
928
921
919
915
913
917
920
930
937
941
941
937
931
923
912
905
895
891
891
894
893
890
888
887
881
880
880
876
878
881
882
881
880
880
877
875
873
872
872
872
873
871
878
880
882
880
877
876
878
875
872
871
871
872
875
888
903
927
963
995
1021
1038
1044
1037
1036
1048
1077
1114
1147
1155
1136
1074
977
869
776
709
664
648
643
640
634
625
619
613
610
609
612
609
614
621
629
638
650
668
689
718
743
774
801
819
837
846
854
860
864
862
864
866
865
867
866
868
868
872
869
870
870
870
868
866
862
862
859
856
855
854
853
850
850
847
846
845
839
837
834
833
830
828
826
826
826
824
824
823
823
821
818
814
816
816
819
822
823
824
820
819
820
822
823
825
829
832
836
841
845
851
854
857
861
858
863
866
866
871
874
877
881
882
882
888
887
888
887
887
887
884
886
890
890
895
895
893
891
893
893
892
889
891
892
893
894
892
891
892
889
889
888
886
885
887
885
887
890
888
892
884
884
885
882
880
880
884
883
884
888
888
885
883
884
884
882
879
879
881
884
884
887
886
890
889
887
887
885
884
880
884
884
887
884
889
889
888
890
889
889
886
888
888
890
891
892
894
895
894
890
892
891
891
895
897
900
904
907
912
916
914
912
914
913
916
918
926
933
941
944
941
939
937
930
921
920
914
913
921
925
932
940
938
941
939
929
918
909
900
896
894
893
890
889
884
881
881
879
877
876
872
873
874
875
874
877
879
877
877
874
875
867
867
867
867
871
875
878
878
877
877
871
871
872
873
872
870
873
872
873
872
881
894
915
947
976
1005
1026
1033
1033
1031
1039
1059
1094
1132
1156
1159
1124
1050
944
836
743
682
646
636
628
622
617
605
600
593
595
598
601
607
613
618
627
638
651
672
697
727
760
786
811
832
846
853
857
858
858
860
862
863
867
867
868
868
869
870
870
869
867
864
862
860
858
857
857
857
859
861
858
857
849
846
842
839
834
834
833
834
835
834
832
825
823
821
817
814
812
815
815
818
819
822
819
815
817
817
816
814
818
822
825
828
831
834
836
842
842
846
845
850
853
856
864
870
871
872
873
873
873
876
877
874
877
881
885
885
891
893
898
896
888
887
886
882
885
886
885
892
892
894
890
891
885
885
881
881
881
878
883
883
882
881
880
882
879
880
880
872
876
877
880
880
880
882
881
880
877
878
876
875
877
879
880
882
882
883
884
882
885
879
878
878
876
878
879
882
885
887
889
888
884
884
881
876
880
879
879
880
885
886
883
884
880
883
882
883
884
883
885
885
885
886
888
887
890
891
890
892
890
896
900
900
903
909
908
909
907
911
910
914
921
923
926
933
935
934
928
922
916
915
914
914
919
925
932
936
936
934
926
916
910
903
898
895
894
892
892
884
886
882
882
878
878
873
871
870
871
875
874
875
878
879
877
877
873
872
869
869
871
870
874
876
879
881
880
880
877
875
870
870
867
869
882
898
923
958
992
1027
1052
1066
1070
1061
1058
1061
1079
1112
1143
1165
1164
1130
1055
952
844
752
686
655
638
632
627
625
619
615
610
605
600
600
604
608
616
625
641
661
684
712
743
774
798
817
833
842
849
857
855
861
863
868
866
864
868
869
871
870
869
872
873
872
870
870
869
865
865
863
860
858
863
862
863
858
853
853
849
844
838
835
835
835
837
835
836
835
831
828
824
826
821
821
819
821
824
823
820
821
823
823
823
822
822
822
824
827
831
833
841
844
847
848
850
854
855
859
864
869
877
881
886
887
885
890
889
887
888
893
892
896
900
900
901
903
902
901
900
898
895
896
897
898
902
903
903
905
901
902
901
902
898
899
897
897
900
895
897
900
897
897
892
891
891
890
893
892
893
892
893
894
896
894
891
888
885
886
883
885
886
885
889
894
897
899
895
891
891
892
890
893
890
895
894
893
896
896
898
898
897
892
888
889
889
891
890
893
894
896
897
897
896
897
894
893
894
895
896
898
897
902
898
903
903
905
905
908
913
916
917
926
929
932
932
938
