1168
1188
1179
1124
1034
923
816
735
680
651
636
624
611
595
577
567
564
558
560
564
567
571
576
585
599
622
649
684
716
747
772
790
802
808
812
817
818
821
820
822
824
823
818
819
824
826
827
827
828
828
824
821
819
817
819
815
816
815
818
816
813
813
806
805
800
797
794
791
792
792
793
792
790
787
786
778
773
770
769
772
770
772
772
775
775
778
776
773
770
769
770
770
772
780
782
783
787
792
794
796
799
805
808
815
819
828
831
838
839
839
840
843
840
840
845
846
852
853
857
857
857
859
858
859
857
859
856
855
856
854
855
855
856
860
859
856
855
853
849
852
855
857
859
861
856
856
854
852
851
850
852
850
850
849
854
856
855
852
848
848
845
847
845
848
848
848
850
852
851
854
851
853
853
850
845
846
854
853
856
861
860
858
857
854
853
854
853
855
855
858
858
863
858
856
854
851
851
855
854
855
858
861
861
867
865
864
863
863
860
859
859
864
869
874
878
881
885
885
888
887
888
888
888
893
902
909
913
918
919
909
908
904
897
892
887
888
890
898
907
917
919
916
910
899
887
874
870
864
866
864
865
865
861
860
857
849
846
846
844
844
846
850
853
854
851
852
848
847
845
845
841
844
845
846
847
852
855
854
853
853
848
845
844
841
841
846
847
854
869
895
926
960
990
1013
1022
1021
1019
1028
1058
1105
1151
1187
1196
1166
1089
990
876
782
712
669
643
627
614
602
590
583
582
586
585
583
585
590
601
619
637
664
699
730
756
776
796
805
815
820
824
830
834
833
833
833
831
830
830
832
834
839
844
846
843
841
839
833
833
829
828
824
823
822
825
822
819
821
818
814
808
809
804
807
802
799
801
798
797
796
794
790
788
788
786
786
789
789
791
791
790
787
784
785
783
781
781
784
788
794
795
803
803
807
811
813
815
817
822
829
834
840
842
846
850
856
850
852
853
855
853
856
859
862
866
872
873
870
870
867
865
866
864
866
867
872
873
877
876
878
876
874
875
872
868
867
869
871
870
869
873
870
868
864
863
864
863
865
864
867
866
870
869
864
864
861
860
859
859
860
864
865
865
862
866
863
864
866
863
865
861
860
859
859
865
867
864
864
862
858
858
860
858
861
861
863
867
867
864
861
859
859
859
859
859
860
867
870
869
872
867
867
866
860
861
861
861
862
863
865
869
872
877
878
881
881
881
883
883
885
885
889
888
891
896
899
900
904
911
914
916
920
923
920
912
908
898
892
892
898
901
905
914
918
920
919
912
904
897
889
883
879
874
870
865
863
862
859
859
858
858
856
862
857
855
852
856
857
857
861
860
860
859
860
856
856
854
855
855
857
861
861
864
863
863
861
858
858
853
852
848
849
850
844
851
862
879
903
938
969
1003
1027
1037
1038
1036
1043
1068
1112
1160
1195
1201
1161
1073
953
831
733
667
629
616
611
604
595
592
589
581
579
575
572
579
584
593
610
626
651
683
720
749
774
795
807
817
824
831
837
841
846
848
851
849
847
845
846
850
853
853
856
856
854
853
850
845
837
833
831
836
839
841
842
840
835
825
819
815
810
809
811
809
806
803
799
795
800
806
812
812
809
798
797
790
788
787
790
794
798
795
796
800
799
796
800
807
810
813
815
816
820
821
826
832
837
839
842
847
850
852
858
858
861
864
864
864
864
861
858
860
868
880
898
904
904
893
877
867
865
868
875
882
881
876
875
872
872
877
879
874
877
874
876
878
878
876
880
878
878
874
866
860
861
868
878
883
881
876
875
876
878
873
870
868
867
864
866
868
869
872
876
876
874
870
872
873
870
864
864
865
869
873
876
873
875
873
873
874
873
871
870
868
868
869
875
874
873
873
870
866
866
868
870
869
874
873
878
877
876
874
874
876
877
874
872
871
873
873
874
876
877
877
875
876
877
875
878
885
889
894
897
895
895
894
896
900
907
914
921
925
924
920
922
918
916
903
897
896
900
904
909
918
925
929
928
922
918
909
899
893
890
879
879
873
869
866
872
869
867
864
863
863
864
861
860
861
861
859
859
859
862
862
862
856
854
853
848
847
846
848
854
861
862
860
861
863
863
862
858
847
849
860
883
912
946
988
1029
1063
1083
1082
1077
1076
1085
1109
1143
1179
1199
1200
1169
1100
1005
901
805
736
692
666
649
629
614
602
591
584
576
572
567
567
572
577
591
601
615
632
654
679
708
737
765
796
814
824
828
829
823
819
820
823
834
835
837
840
844
840
838
840
843
845
842
833
829
831
830
835
838
836
832
830
826
824
818
816
815
808
804
804
803
799
802
800
797
794
792
788
782
781
784
786
786
786
784
783
781
782
785
785
780
777
779
783
793
800
805
803
803
804
799
803
806
806
807
812
817
824
831
834
842
842
844
842
848
852
857
857
862
865
868
868
871
873
872
873
873
876
876
875
873
870
870
876
876
878
873
870
867
866
871
873
876
879
879
879
880
875
871
865
864
861
859
861
866
871
873
871
866
867
865
867
861
857
855
854
862
866
867
868
865
865
862
858
856
856
857
865
864
864
869
867
865
866
864
862
857
849
851
855
859
870
876
878
875
873
872
869
866
865
860
864
868
870
874
876
873
874
867
867
867
870
871
878
875
878
883
886
888
890
885
886
884
886
895
904
910
914
916
920
922
926
927
920
908
897
890
890
896
902
908
913
916
917
914
911
909
903
899
894
886
882
880
881
877
871
870
866
863
859
859
861
861
862
862
862
860
857
860
858
860
858
860
859
863
861
866
864
865
860
858
856
858
861
857
855
850
847
855
863
886
915
951
986
1016
1031
1036
1042
1049
1073
1111
1157
1191
1199
1163
1084
973
859
765
702
661
647
636
625
611
602
598
592
590
587
584
587
594
607
624
652
683
722
756
785
803
818
825
829
831
835
836
840
838
840
841
844
849
851
849
849
845
845
844
846
847
847
844
839
832
825
823
818
817
817
823
828
829
828
822
814
807
798
798
797
802
806
802
799
799
795
791
788
783
782
780
786
786
791
794
797
798
795
791
792
792
796
799
800
808
806
813
819
826
835
846
847
843
838
832
832
846
857
873
880
880
880
875
872
872
871
877
878
882
881
880
880
881
880
880
879
879
881
877
880
883
882
878
876
872
872
868
872
874
880
881
882
878
872
869
871
872
874
873
873
873
873
869
865
867
865
868
871
871
869
870
871
870
868
872
868
868
871
875
874
874
873
872
873
867
865
869
871
877
881
882
883
880
878
876
869
863
862
861
864
875
877
882
880
879
879
875
877
871
875
875
873
876
880
881
880
882
882
882
880
880
879
880
881
883
887
893
898
904
904
902
895
897
893
897
903
906
912
918
922
930
932
930
928
921
917
912
910
910
908
908
911
918
921
922
924
920
912
905
898
890
886
883
882
877
875
870
863
867
863
861
863
861
864
868
869
870
867
866
861
856
855
850
853
855
860
862
863
862
860
860
859
861
858
858
858
861
864
863
860
849
848
849
857
874
901
932
969
1005
1029
1041
1040
1039
1045
1070
1103
1149
1193
1216
1209
1169
1091
992
888
796
730
691
665
646
628
614
599
591
582
576
579
584
581
579
581
580
587
599
620
650
687
722
756
784
805
821
827
829
829
831
833
841
843
845
847
845
844
843
839
839
839
841
841
843
846
845
836
832
832
832
835
836
834
830
825
822
818
816
815
814
815
810
805
803
797
793
790
792
792
795
797
796
793
789
788
786
788
785
787
785
788
792
796
801
802
801
804
804
805
808
813
820
826
831
834
837
838
845
851
853
858
861
860
867
869
866
864
865
866
869
871
873
871
876
881
882
884
889
886
880
877
873
877
879
880
882
880
875
877
877
878
882
883
881
876
872
873
866
860
859
859
866
875
884
885
881
871
862
858
860
865
870
875
876
876
874
873
870
866
864
862
862
866
867
870
873
871
871
875
876
876
874
874
873
874
872
869
871
873
873
875
876
875
876
874
874
878
879
881
885
884
882
881
880
882
877
876
882
883
885
886
887
886
884
883
882
880
880
881
880
884
888
893
898
899
903
909
903
905
906
905
912
914
924
931
938
940
940
935
932
924
919
916
912
914
916
922
927
932
935
932
926
919
904
899
891
889
889
888
887
883
881
875
870
867
863
865
864
868
868
873
873
875
873
872
873
870
865
861
862
861
865
868
870
872
874
872
870
869
869
869
865
866
864
865
858
861
870
887
913
943
976
1007
1030
1042
1043
1044
1052
1080
1122
1165
1204
1215
1186
1116
1013
900
799
723
678
654
635
623
608
599
594
588
588
584
584
588
591
598
610
624
643
673
702
731
763
789
810
826
834
840
839
839
840
844
846
848
851
855
856
857
861
860
860
859
857
854
851
849
846
848
849
846
847
850
849
845
839
837
833
833
828
826
827
825
822
817
816
816
811
808
803
798
797
797
800
799
800
801
800
798
795
794
792
791
792
793
795
799
806
809
813
817
817
818
818
824
830
834
841
844
851
854
859
861
863
863
865
869
868
871
873
877
879
879
882
882
883
880
884
881
884
888
889
890
888
891
886
889
888
886
885
882
882
883
884
886
887
889
887
887
885
884
883
882
881
880
880
883
881
879
878
878
877
872
875
875
874
874
876
878
876
878
877
878
875
876
873
875
872
872
875
878
879
883
882
883
882
882
876
876
879
875
874
880
881
885
886
887
888
882
879
880
880
880
883
883
882
883
884
887
887
886
882
883
883
882
886
886
886
889
886
885
885
886
885
885
890
891
900
899
902
908
906
909
914
912
912
910
916
925
934
938
941
941
936
930
921
918
914
915
917
922
930
933
938
937
930
921
909
900
893
887
888
885
884
883
880
876
874
870
871
869
867
866
870
871
873
874
875
878
877
875
871
870
864
865
866
863
869
870
871
874
875
876
878
872
870
869
864
861
863
868
883
906
936
975
1009
1035
1043
1044
1043
1052
1080
1124
1166
1202
1203
1153
1061
945
828
738
685
654
637
628
622
612
601
596
590
589
585
588
592
596
604
616
635
659
692
724
760
785
811
825
832
842
844
846
850
853
859
861
859
860
859
856
857
857
860
861
862
858
859
857
850
850
847
845
842
838
843
843
846
843
841
836
826
827
823
822
821
817
815
814
814
811
809
810
810
805
802
799
799
799
798
799
802
803
802
805
807
805
808
809
812
815
820
826
827
836
837
841
844
843
844
850
850
860
863
865
868
874
875
874
878
880
878
872
879
882
883
885
888
889
890
889
889
888
883
885
883
885
885
885
888
890
887
887
886
882
883
882
881
882
881
883
883
881
879
877
876
874
872
867
870
870
870
870
875
877
875
876
876
874
874
869
872
868
871
874
873
875
875
877
874
875
875
873
872
874
877
878
877
877
873
875
871
873
872
869
869
870
872
878
881
880
882
882
883
880
878
877
874
875
876
878
879
884
882
882
881
879
877
881
877
877
883
880
885
886
883
885
886
884
886
891
891
898
903
906
908
910
910
911
908
910
915
921
927
931
933
933
932
931
925
921
914
911
909
909
914
918
926
933
937
937
928
920
906
898
893
891
887
886
884
880
877
878
875
872
870
868
862
864
863
862
865
869
870
871
867
864
868
866
864
864
864
865
863
858
862
862
867
866
864
864
864
861
859
859
856
854
848
853
866
881
902
936
971
1001
1024
1034
1031
1027
1030
1050
1082
1128
1169
1192
1194
1149
1063
953
848
758
701
660
641
627
616
602
591
583
578
577
577
581
582
589
596
604
616
636
657
686
719
750
775
795
811
820
828
828
832
833
838
841
844
844
848
853
854
857
856
857
856
853
849
845
840
843
843
845
844
845
845
843
840
836
831
827
823
824
822
823
819
819
814
810
810
805
802
800
798
799
798
799
802
800
800
798
796
790
788
788
785
785
788
789
794
800
802
808
809
809
808
814
816
819
823
832
836
843
849
850
853
856
855
857
859
864
867
871
873
875
874
873
875
874
873
872
877
880
882
884
882
884
883
883
881
877
874
874
873
876
881
880
880
881
880
879
878
875
874
872
874
873
871
869
869
870
873
871
871
868
869
869
866
864
867
867
867
869
869
869
870
868
869
868
869
869
871
873
874
878
877
879
876
873
872
869
870
870
871
871
875
878
878
879
878
876
874
873
876
876
875
878
876
880
878
877
878
877
875
876
879
878
880
879
880
880
882
877
878
875
870
870
871
874
880
882
886
891
891
890
890
892
896
894
894
896
902
904
905
912
916
923
928
935
934
935
926
928
921
916
909
906
907
916
922
929
931
931
931
926
919
911
901
899
892
886
883
880
872
873
867
865
866
867
866
863
866
867
867
864
864
861
860
860
861
864
866
866
865
866
863
863
862
863
854
859
864
863
868
871
866
863
857
853
854
861
878
902
934
969
1002
1029
1036
1030
1030
1033
1052
1090
1132
1173
1194
1178
1123
1031
913
804
722
671
637
622
612
605
596
591
584
584
580
584
582
582
589
598
607
631
662
697
733
767
795
816
823
831
832
834
836
842
846
852
855
860
857
856
853
852
850
851
848
849
851
853
852
853
851
848
844
843
842
840
837
836
838
837
836
835
830
828
822
819
815
812
812
811
811
815
813
813
806
804
802
796
793
795
796
797
802
801
803
805
804
802
800
800
801
803
804
811
815
822
826
834
841
845
849
851
851
854
857
860
865
869
873
877
877
878
880
880
882
881
880
879
887
889
888
887
888
887
886
886
886
884
885
884
886
886
887
887
886
889
888
885
884
883
880
877
879
879
880
882
883
876
880
877
874
871
873
870
872
872
875
877
875
872
875
872
873
869
869
867
871
874
876
879
876
875
870
870
869
871
866
869
871
876
878
881
882
881
880
876
874
874
874
871
875
878
880
882
882
881
882
881
879
876
877
877
879
881
882
883
881
884
882
880
877
874
874
874
879
881
882
884
882
882
885
886
888
891
891
894
896
899
904
906
908
907
912
910
912
921
925
931
930
929
927
920
917
910
908
908
914
918
921
925
926
923
914
911
900
895
889
885
883
880
875
867
867
867
867
869
869
863
862
864
865
866
861
860
862
863
865
868
869
869
868
863
861
862
858
859
860
864
864
869
867
868
866
867
860
857
851
857
872
895
925
965
998
1024
1033
1032
1029
1037
1054
1091
1137
1183
1198
1174
1098
989
867
764
690
648
625
616
609
603
595
586
583
583
578
574
575
576
586
595
611
632
662
692
723
753
780
800
817
820
826
832
837
841
846
849
847
852
852
851
854
852
853
850
850
851
855
854
853
850
847
843
843
842
839
839
837
839
835
839
833
830
827
822
820
815
813
811
811
810
811
808
805
805
805
801
800
797
794
796
793
793
795
799
798
800
806
804
806
807
809
812
816
822
829
834
836
839
838
841
844
850
853
857
863
864
867
873
873
877
877
875
874
876
876
874
880
882
883
891
890
889
889
888
888
885
882
882
884
887
891
893
890
885
883
881
881
878
881
880
878
880
882
887
882
882
878
879
876
873
871
869
868
873
875
876
879
878
877
875
875
873
867
870
871
874
875
878
882
880
882
880
879
877
876
874
880
879
880
882
880
879
878
877
877
874
875
875
877
879
880
883
883
886
885
882
880
877
877
879
882
882
882
886
885
884
885
880
879
879
879
879
883
884
883
883
884
884
882
884
880
882
880
879
883
891
895
899
902
903
904
903
903
901
903
907
908
915
921
928
932
939
939
937
931
926
922
917
912
910
908
914
913
921
926
933
932
932
925
917
909
902
891
890
884
887
883
882
877
875
869
870
867
866
867
870
871
873
875
871
870
868
864
864
862
860
864
869
867
870
869
866
865
863
864
863
867
870
871
873
869
870
867
861
857
851
848
860
880
903
934
968
1000
1028
1036
1038
1032
1029
1036
1063
1104
1150
1189
1202
1171
1096
987
872
775
706
663
644
632
623
611
605
593
590
588
584
582
583
583
584
593
604
620
638
663
687
720
755
774
795
808
820
828
832
838
845
850
852
857
855
856
855
856
856
855
859
859
862
859
858
858
854
851
851
847
844
845
846
844
844
841
840
838
833
829
828
823
820
821
823
822
822
818
818
811
810
808
801
801
799
799
802
803
806
808
809
806
806
806
801
802
811
810
815
816
820
825
829
830
833
836
841
844
850
858
862
863
867
870
871
872
874
876
878
880
882
887
890
891
890
895
897
895
888
887
889
889
890
892
889
894
897
894
898
897
894
890
887
882
887
889
890
891
892
894
891
892
888
888
886
884
884
884
883
885
885
888
886
882
884
881
876
874
876
878
882
885
884
885
887
884
884
886
886
884
883
884
886
884
