935
927
913
897
888
884
885
885
889
893
893
896
896
892
880
870
863
863
865
869
873
879
885
887
884
871
861
856
861
868
877
880
882
884
878
877
872
873
873
875
878
884
896
909
922
949
979
1011
1038
1044
1040
1036
1034
1051
1082
1113
1135
1145
1116
1055
967
871
784
719
675
654
644
639
639
637
626
615
609
607
612
615
621
625
630
634
639
654
675
703
733
763
789
811
820
830
836
832
837
843
846
849
850
849
849
852
854
857
859
856
853
846
839
845
850
854
855
854
850
843
843
839
837
842
847
850
848
833
816
808
810
819
827
832
832
828
825
824
820
811
802
794
790
794
796
802
804
803
805
802
798
794
791
790
793
796
804
804
807
812
810
815
818
816
817
817
818
824
829
836
841
850
852
852
851
852
854
856
857
861
864
867
870
876
878
876
876
874
875
873
874
877
883
883
884
885
886
883
880
876
873
875
877
877
878
884
887
884
880
880
879
876
877
874
874
877
879
878
881
883
881
880
876
870
866
870
872
881
884
885
885
885
883
882
879
878
877
879
881
880
884
884
886
894
892
893
891
890
889
885
890
887
888
889
890
895
895
893
891
890
890
885
891
894
894
896
901
899
899
901
905
904
906
910
913
914
915
918
923
927
931
933
934
931
933
933
934
935
935
932
927
925
921
919
919
922
922
930
933
935
936
928
925
921
915
908
906
902
896
896
895
898
897
898
898
892
894
891
890
889
887
890
891
893
892
898
900
898
899
892
892
889
887
884
886
886
887
890
890
890
890
890
882
877
878
878
884
904
933
970
1006
1031
1046
1048
1039
1035
1044
1068
1108
1147
1175
1177
1144
1074
979
886
809
751
718
691
680
669
666
661
660
656
657
651
656
655
655
656
661
674
691
721
752
784
812
833
848
860
864
863
863
864
866
869
873
874
875
873
874
873
872
872
871
869
873
874
873
875
878
874
873
870
864
862
857
856
853
854
854
853
852
852
849
846
842
839
836
834
835
831
835
832
830
832
830
828
826
827
826
825
830
833
831
835
837
833
831
833
832
833
830
842
848
855
857
860
870
872
873
874
875
877
876
876
880
886
890
895
897
900
903
902
900
898
897
898
898
901
903
903
906
903
905
902
900
900
899
896
900
901
902
903
904
900
897
898
896
892
893
891
891
892
895
894
897
895
895
891
889
886
888
889
890
893
895
897
898
894
897
893
890
894
893
891
891
892
896
898
899
899
899
893
896
894
892
893
894
896
892
899
899
900
899
895
896
894
896
895
897
901
902
906
911
913
918
919
916
919
919
923
927
932
935
936
939
938
941
940
939
935
927
923
920
920
918
917
918
923
925
934
933
934
933
930
923
917
911
910
906
903
901
896
893
890
890
891
892
892
893
891
889
886
885
886
889
885
885
880
883
886
891
890
888
891
888
889
888
884
886
883
884
876
878
875
878
888
907
936
963
993
1012
1021
1026
1029
1042
1075
1114
1153
1178
1178
1137
1060
968
874
802
754
728
715
700
686
666
653
642
636
632
631
630
626
635
649
665
682
699
719
742
766
787
808
827
842
855
859
866
869
870
874
876
875
874
874
877
884
883
885
885
886
883
879
878
878
874
874
876
878
875
878
876
875
874
870
867
862
857
854
850
852
852
851
852
849
847
845
842
839
836
836
835
833
833
832
834
836
834
835
834
832
829
832
834
835
837
839
844
845
847
847
850
851
854
859
861
863
869
878
881
881
882
885
887
888
890
892
891
894
900
902
907
904
905
905
903
907
907
906
906
909
908
908
907
909
908
907
908
905
904
906
907
906
907
910
911
906
904
901
902
897
895
896
897
899
901
904
906
904
904
903
900
899
896
893
893
895
899
901
904
903
899
894
895
895
899
900
904
904
904
906
905
901
898
901
900
900
899
904
905
909
906
907
906
907
907
905
907
907
906
909
913
919
921
931
931
932
931
931
927
932
932
935
939
941
944
948
954
954
955
953
950
944
935
928
928
928
929
937
946
949
957
954
949
943
931
924
921
919
919
917
914
911
909
901
899
897
893
894
894
898
902
902
907
905
904
900
897
894
895
892
894
895
898
899
900
899
897
896
892
895
890
891
892
892
893
901
915
941
972
1005
1039
1058
1067
1061
1059
1066
1090
1125
1160
1182
1178
1132
1053
948
850
769
717
689
677
674
670
663
651
648
642
639
637
639
638
639
647
659
669
688
712
744
775
803
827
840
858
862
866
870
871
875
877
875
876
882
877
877
877
879
877
882
883
883
883
882
877
873
872
868
871
872
870
866
869
866
862
861
861
856
850
845
848
846
848
843
846
845
842
840
837
833
832
830
829
829
830
832
832
829
831
830
828
827
830
830
836
838
844
848
851
848
849
857
855
857
860
860
867
870
877
885
889
889
892
890
892
893
894
897
896
902
906
908
909
908
907
903
903
902
903
902
905
905
906
909
910
911
909
908
908
904
900
900
901
904
908
906
907
906
903
903
901
902
899
899
897
900
900
898
898
895
895
897
892
892
895
891
896
897
897
900
900
901
897
897
896
893
893
894
892
895
900
900
903
902
903
903
900
898
893
893
894
895
901
901
900
902
900
901
903
900
899
900
899
899
900
902
904
903
903
903
907
909
916
918
921
924
927
928
931
931
935
940
940
940
942
938
937
935
933
932
927
924
924
923
925
929
931
936
941
940
940
937
926
918
913
908
904
900
895
894
889
889
892
892
892
890
889
885
880
882
882
885
886
886
889
892
887
884
884
881
879
880
881
882
881
885
884
887
883
887
885
884
882
877
878
871
869
875
885
909
938
971
1004
1022
1029
1028
1028
1043
1079
1123
1167
1194
1186
1135
1055
956
865
790
745
720
705
694
682
666
657
643
637
637
634
639
639
640
644
650
662
679
704
731
756
787
812
826
841
851
854
858
860
866
872
869
873
873
875
874
872
872
875
876
880
880
881
879
879
876
879
875
874
871
863
865
863
864
866
865
861
856
851
850
845
842
839
836
834
834
832
834
833
830
831
826
826
825
823
824
828
829
831
829
824
821
819
821
824
831
832
836
844
848
852
851
856
857
860
863
865
870
874
877
882
886
889
892
894
896
897
893
895
893
897
897
897
902
905
904
904
906
901
900
897
896
899
901
903
905
907
903
900
901
898
897
889
893
896
894
894
896
897
894
892
894
889
886
887
887
884
888
888
893
892
893
892
893
891
890
888
888
887
887
893
893
895
896
895
898
897
897
895
891
891
891
891
890
896
898
897
897
892
891
891
891
891
897
899
900
904
905
904
901
901
900
904
905
910
915
916
923
923
923
923
927
932
938
940
949
948
946
940
935
931
925
927
927
933
937
942
945
946
942
936
926
919
908
904
901
901
898
895
891
889
889
888
888
889
889
888
887
880
883
880
885
881
884
889
889
890
888
886
884
878
877
879
881
880
885
884
888
888
888
882
880
878
874
872
882
904
933
968
1002
1031
1038
1035
1030
1035
1055
1098
1143
1177
1180
1138
1051
941
829
747
694
664
646
641
632
628
625
622
627
628
628
629
627
627
633
637
651
671
700
731
761
793
816
834
845
854
852
858
859
862
867
872
877
879
881
884
882
880
873
872
872
873
877
879
883
882
876
875
873
872
866
861
859
859
861
860
862
860
859
855
850
847
843
841
838
835
834
834
833
833
830
831
830
827
826
824
821
823
825
825
825
830
829
831
833
830
832
834
835
838
842
845
852
860
862
868
868
871
871
874
875
877
879
885
885
888
890
891
893
893
895
894
893
896
898
898
900
902
901
901
900
901
901
900
900
898
901
905
904
906
904
900
898
897
897
893
895
892
895
897
896
899
898
901
900
896
894
891
891
889
887
889
891
892
894
894
892
889
892
893
894
892
892
892
890
893
892
895
893
894
892
889
893
892
895
898
899
901
898
895
893
893
890
889
892
894
898
896
895
899
899
900
900
900
899
900
899
896
895
899
902
904
906
907
910
913
913
917
917
919
919
921
925
927
934
940
942
945
942
939
931
927
927
926
923
929
930
934
937
942
943
942
935
928
923
917
912
910
904
900
898
895
892
888
886
886
887
886
888
889
885
887
884
884
882
879
875
875
879
880
883
884
883
884
883
880
877
876
877
876
878
881
881
883
879
874
871
870
869
874
887
912
948
988
1019
1038
1041
1038
1049
1072
1110
1152
1175
1150
1080
982
876
788
725
686
667
655
645
639
633
630
630
634
636
635
637
638
641
651
667
693
720
754
783
807
826
843
852
858
859
858
859
862
864
867
871
872
875
876
876
874
873
873
874
873
873
867
866
865
865
868
866
863
864
858
853
851
846
844
844
845
840
842
836
830
828
824
822
819
817
817
818
820
821
824
819
819
818
815
818
813
812
814
822
823
829
831
833
831
832
836
839
846
851
859
864
867
871
875
871
870
876
876
881
882
883
885
892
894
896
898
893
894
894
892
893
893
893
892
894
898
902
903
901
899
896
894
894
895
891
894
898
895
895
891
891
890
890
890
892
890
889
887
886
886
885
885
884
886
886
887
884
885
884
886
885
886
889
891
887
882
884
882
882
882
884
885
888
889
889
892
891
890
887
886
884
882
884
884
884
888
888
894
894
891
892
889
888
888
891
890
892
895
896
896
892
897
900
902
902
904
908
910
914
917
921
923
923
927
930
938
939
941
940
938
936
935
933
931
927
921
920
921
927
934
936
934
937
933
929
925
917
909
903
898
894
891
887
887
887
886
887
889
885
882
879
875
874
876
875
876
876
879
878
878
880
881
879
875
872
872
870
870
872
876
879
877
880
880
876
874
872
867
867
871
890
914
944
976
1004
1018
1020
1018
1020
1036
1067
1114
1158
1182
1174
1123
1030
923
823
743
695
675
662
653
647
641
632
627
622
620
615
617
616
613
619
623
637
653
673
699
728
757
782
800
815
828
831
841
846
853
853
860
864
862
863
867
864
864
864
867
869
869
873
875
872
869
863
862
861
862
863
863
864
859
855
860
858
855
854
853
845
842
839
837
838
836
830
833
831
829
828
825
822
822
816
818
817
816
817
822
824
823
822
820
817
818
819
820
827
832
839
843
846
847
852
852
853
852
857
859
865
869
879
885
884
887
889
887
888
887
891
889
892
893
895
898
897
896
894
896
896
897
895
893
894
895
897
898
898
897
899
894
888
888
886
887
892
892
893
892
891
891
889
885
887
881
880
884
886
889
890
888
887
884
882
878
879
880
886
880
881
878
884
886
890
894
894
896
896
891
886
884
883
880
880
878
886
897
906
908
898
884
880
881
886
894
899
899
901
902
905
905
900
888
880
881
887
892
895
894
899
904
911
914
912
914
917
918
919
911
908
915
928
938
949
957
958
952
939
928
918
914
915
916
921
928
940
949
949
942
927
917
908
900
899
900
901
897
894
891
885
883
882
881
873
862
848
849
857
869
880
883
885
880
872
859
850
848
858
870
881
886
886
880
876
872
868
871
876
878
875
872
860
850
842
854
872
897
929
961
995
1020
1029
1026
1017
1014
1030
1067
1117
1154
1168
1141
1069
971
865
773
699
657
638
631
625
617
602
581
566
553
557
566
575
584
588
593
597
605
624
652
688
723
749
770
785
798
809
813
819
819
816
818
824
828
829
826
828
833
836
839
842
841
840
835
830
822
817
819
818
817
814
815
818
819
816
810
804
797
796
797
794
793
791
788
787
783
785
784
783
776
772
768
770
772
780
786
789
785
781
775
774
779
780
781
783
785
791
797
803
798
788
773
768
780
796
814
825
829
827
830
829
830
835
838
841
841
843
847
844
841
842
847
849
850
846
844
842
840
841
845
850
849
847
843
850
849
851
845
837
827
830
845
856
862
860
849
835
822
818
820
833
848
854
856
845
837
833
829
830
836
838
842
841
840
836
832
834
830
832
833
834
839
842
843
840
837
841
847
853
857
849
837
826
825
834
845
852
857
859
854
847
841
838
836
835
838
838
847
853
852
847
843
843
843
845
851
847
841
833
838
845
856
867
873
872
865
855
846
840
843
854
865
872
875
876
881
888
888
882
875
871
874
880
888
898
907
908
905
901
894
890
880
875
876
881
895
903
908
909
902
896
882
867
852
839
833
834
836
845
855
861
865
870
862
846
829
826
839
851
857
852
842
839
840
841
844
849
846
841
830
826
825
829
836
834
837
837
844
849
856
852
843
833
824
822
831
847
878
925
972
1011
1028
1026
1014
1010
1019
1047
1087
1126
1162
1176
1169
1133
1061
970
873
786
726
692
673
658
643
623
608
596
587
585
581
579
578
586
593
594
598
605
621
652
683
716
744
766
785
800
808
807
808
802
793
791
790
793
796
803
810
817
818
819
818
812
801
792
793
797
800
801
800
798
799
794
791
791
795
791
782
764
756
752
759
769
777
779
779
777
768
756
747
742
738
737
743
749
749
750
746
749
747
746
740
731
731
726
728
734
753
767
774
778
772
780
776
782
785
785
785
790
792
796
801
803
804
809
812
818
826
830
822
824
820
819
822
829
833
834
830
823
820
824
826
825
825
823
833
836
842
838
832
826
824
822
822
820
825
827
827
823
821
820
818
819
818
817
818
818
818
819
819
819
816
811
807
809
813
820
818
820
815
808
808
808
808
810
807
802
795
795
792
795
804
808
813
818
815
818
812
803
797
793
798
806
813
813
816
819
816
815
811
806
799
796
795
798
799
800
804
808
809
815
816
820
814
812
813
814
826
829
835
838
837
834
830
832
836
840
850
852
855
854
854
846
839
834
832
831
837
839
836
835
833
841
852
851
848
839
822
814
803
796
797
794
789
790
790
794
797
796
794
793
789
790
790
794
802
804
808
809
802
791
783
779
781
790
793
795
801
802
801
800
805
802
803
801
798
795
792
791
791
800
817
844
878
917
950
970
975
971
966
976
1004
1054
1106
1141
1145
1109
1025
924
823
746
690
653
625
602
588
580
570
562
549
544
544
549
557
562
566
574
585
596
617
643
673
694
719
735
752
764
771
778
782
785
788
786
792
789
791
794
795
793
790
790
788
784
785
789
792
794
780
773
770
774
780
782
785
786
785
784
779
778
773
767
761
759
762
766
768
771
765
760
753
748
745
745
748
748
750
749
752
750
749
747
747
740
739
739
743
749
754
758
764
772
774
775
779
782
786
785
784
781
788
801
814
821
823
826
823
819
820
821
823
825
828
827
831
831
832
831
832
832
837
834
836
833
834
838
838
840
837
840
831
832
828
827
829
832
834
836
839
839
839
839
837
836
831
828
825
823
820
817
821
826
833
832
829
825
823
822
822
824
828
832
835
835
832
835
831
829
829
831
834
832
834
831
834
832
832
836
839
839
832
828
837
834
836
833
826
829
841
849
851
846
837
833
832
836
840
845
842
841
838
840
842
845
842
843
843
842
844
844
844
845
849
855
863
872
875
877
874
866
865
865
870
877
887
895
903
902
894
881
873
870
871
877
882
888
892
898
901
897
891
877
868
863
862
857
855
854
851
844
840
831
827
827
828
830
837
840
842
838
832
830
830
830
834
835
831
830
833
833
837
837
831
829
829
830
827
832
832
833
829
822
817
816
820
835
857
884
919
957
989
1016
1022
1018
1016
1023
1049
1094
1137
1164
1166
1129
1056
961
860
778
721
678
654
635
613
599
590
587
585
586
588
583
583
581
583
588
596
611
631
661
698
728
757
779
793
802
806
807
808
810
810
812
817
818
819
819
820
819
816
817
815
815
810
811
809
808
809
809
809
809
805
807
803
799
795
786
783
783
780
781
785
788
787
784
782
774
773
764
763
760
764
764
767
765
765
765
764
762
762
765
765
766
775
778
784
785
787
789
792
798
796
799
799
803
812
818
825
830
832
837
839
836
835
836
834
838
839
845
846
845
848
849
851
847
848
848
848
847
849
850
853
851
853
850
849
848
850
849
850
849
851
850
854
853
852
851
845
847
842
841
844
842
845
845
849
850
849
848
846
846
841
838
840
839
842
842
845
845
847
848
844
845
842
842
839
841
842
843
846
848
845
844
843
842
845
842
840
842
843
849
851
849
848
849
848
846
846
844
842
846
849
851
850
855
857
854
855
855
852
853
854
858
862
864
869
873
873
877
879
878
877
877
885
888
898
903
900
899
888
888
882
874
871
872
875
881
889
894
897
904
901
893
884
869
861
852
847
843
844
843
845
845
845
840
838
835
835
831
831
830
829
832
831
833
834
833
832
831
827
826
826
827
825
829
827
833
835
835
834
829
827
822
823
821
820
828
839
868
896
932
965
993
1009
1010
1001
1002
1013
1039
1078
1130
