908
910
909
909
904
900
896
898
900
903
904
906
907
908
909
906
904
904
901
899
900
900
902
900
901
905
903
901
901
898
899
901
900
900
903
901
901
904
904
903
899
902
901
900
898
902
902
904
906
906
907
904
903
899
898
898
899
897
899
899
901
900
906
903
902
899
897
898
896
896
901
905
909
911
915
914
913
917
917
917
919
920
923
931
938
942
946
946
944
942
935
931
925
924
921
921
925
928
934
937
939
936
932
923
916
910
904
901
900
902
901
897
894
887
884
880
880
880
882
882
882
884
882
884
882
882
879
878
879
880
879
881
880
883
877
877
875
875
869
864
869
881
901
924
959
991
1015
1031
1033
1025
1023
1031
1057
1093
1133
1161
1162
1128
1055
958
857
774
720
687
671
662
657
652
643
637
632
628
625
622
620
619
625
636
651
669
697
725
753
781
802
817
828
839
847
850
854
858
862
865
865
867
866
863
866
867
864
866
867
869
871
870
870
868
868
865
860
861
860
860
859
859
858
858
855
854
852
846
843
841
837
837
834
837
835
834
831
831
826
823
822
818
820
820
822
826
825
829
827
825
823
821
819
821
823
827
829
830
832
838
839
845
842
845
847
845
851
855
860
863
871
873
878
880
879
881
886
886
888
893
893
898
895
899
898
900
898
898
897
899
900
903
901
903
906
907
905
905
901
901
896
893
893
894
894
896
898
897
896
898
895
892
890
887
885
886
886
886
888
888
887
885
884
881
877
881
879
881
882
882
882
882
881
880
882
882
884
881
881
881
883
885
884
886
881
880
879
875
879
878
878
879
882
884
887
883
883
884
886
881
882
880
880
882
883
887
890
891
888
890
888
888
883
883
883
888
888
887
890
890
890
889
889
886
883
882
883
885
887
889
895
894
899
896
895
892
896
896
898
901
907
909
914
918
920
919
917
922
926
932
933
934
935
933
926
921
917
913
913
916
920
925
929
931
932
929
923
917
909
904
894
891
888
887
883
881
880
887
882
883
882
883
877
877
877
876
873
877
874
875
876
877
877
872
872
871
871
872
873
874
873
877
875
875
880
877
873
870
870
878
889
908
942
981
1015
1041
1049
1046
1038
1036
1042
1067
1103
1139
1154
1131
1068
969
852
753
687
649
630
627
624
622
615
618
616
617
613
616
614
615
623
631
648
666
697
725
761
788
812
830
842
848
851
851
853
856
857
860
861
861
865
868
867
867
865
865
865
869
871
871
872
876
871
871
868
864
859
856
854
855
858
857
856
851
851
850
842
840
837
832
830
834
833
831
829
831
830
829
825
821
820
816
815
815
820
820
824
823
826
827
828
829
828
832
838
841
844
846
852
857
856
860
862
867
866
867
870
873
876
879
884
890
889
888
888
889
888
888
888
892
892
890
896
895
896
897
896
897
898
892
894
893
896
893
896
898
901
897
897
893
892
889
893
890
893
892
896
897
895
894
892
888
887
889
892
890
891
893
894
894
895
892
889
890
888
888
890
893
895
895
897
899
894
894
892
893
891
889
891
889
892
895
897
894
894
892
894
896
894
894
895
896
896
900
897
899
898
898
899
893
895
893
894
894
895
900
903
908
908
908
907
904
908
908
912
917
918
915
920
925
931
938
941
941
938
936
930
925
924
918
922
926
930
933
939
940
940
936
934
926
919
913
909
906
902
902
895
891
889
886
887
887
888
890
892
889
888
887
886
881
879
879
879
878
885
884
887
886
887
887
886
884
884
882
882
884
885
886
885
885
882
882
880
881
888
904
933
965
1000
1031
1054
1063
1057
1050
1046
1059
1086
1121
1153
1166
1145
1086
996
893
806
735
693
674
660
651
645
640
639
641
642
643
643
643
646
653
659
667
683
708
739
767
796
819
836
848
858
858
863
864
864
868
873
876
878
880
880
879
880
879
876
875
876
875
874
878
879
880
879
878
873
870
865
863
862
861
860
862
859
858
853
854
852
849
846
842
841
839
837
837
832
832
832
834
831
826
824
827
822
822
826
828
830
831
831
832
831
830
830
835
838
840
847
850
859
862
863
864
870
872
873
875
879
877
884
885
891
892
893
894
896
897
898
897
899
902
902
905
909
909
907
910
906
900
897
898
902
903
907
905
909
911
910
907
905
901
902
899
903
904
907
907
908
907
908
907
904
902
900
899
897
898
899
899
901
899
897
898
899
896
895
894
895
896
899
900
902
902
902
901
899
896
895
894
896
897
900
902
902
904
904
902
901
902
899
897
894
899
898
900
899
903
903
905
905
904
899
903
904
906
909
913
918
919
923
921
922
924
924
926
926
936
942
948
951
952
948
943
936
931
925
922
921
924
935
944
950
951
946
938
929
918
909
902
900
897
901
900
902
902
900
896
895
891
888
887
885
888
888
887
891
891
888
889
887
883
882
881
882
883
883
889
889
892
891
890
886
882
886
883
882
881
882
881
883
891
900
919
945
973
999
1017
1029
1031
1025
1028
1048
1083
1122
1159
1173
1147
1074
970
861
772
710
675
660
652
647
642
636
633
631
632
632
634
637
639
653
665
678
700
722
752
781
802
820
839
851
860
865
869
871
874
876
874
872
875
875
877
879
880
885
879
882
881
878
880
876
874
870
870
872
871
871
870
865
862
861
860
854
852
851
850
847
846
844
843
842
837
835
834
831
829
824
828
831
832
830
833
832
835
828
827
826
825
827
831
832
836
843
847
850
851
853
856
859
860
862
868
873
879
881
885
887
887
887
889
886
887
890
892
893
897
898
900
903
903
902
899
899
899
894
901
900
904
903
906
905
907
903
901
897
897
896
898
899
902
899
902
903
901
898
893
891
890
889
889
891
894
895
895
895
895
894
894
892
887
889
891
889
892
893
894
895
893
891
891
888
890
889
890
893
894
891
895
895
895
896
891
893
888
892
891
894
894
897
899
899
901
901
896
893
893
890
890
896
901
905
907
912
914
913
914
912
912
910
914
921
924
926
936
941
944
943
941
935
931
924
921
919
921
924
931
935
941
939
938
930
924
912
902
901
898
897
899
897
896
889
888
882
881
881
881
883
880
884
882
882
882
882
882
879
879
877
879
879
881
883
885
883
883
881
878
877
875
877
878
879
877
878
880
873
877
889
905
934
962
992
1013
1027
1022
1017
1019
1037
1074
1116
1152
1160
1123
1043
940
834
749
691
659
640
633
629
628
625
621
623
622
623
628
633
640
647
659
675
697
724
752
778
805
826
840
851
856
859
862
865
867
868
869
870
871
870
871
871
876
875
876
875
873
871
869
866
865
867
867
866
867
864
863
859
854
852
850
848
846
845
844
842
845
841
839
836
830
828
826
825
827
828
827
827
827
825
826
824
823
823
825
824
829
829
836
839
846
848
849
853
851
855
856
857
860
867
876
878
882
882
885
885
886
883
886
884
885
890
890
892
896
897
897
895
896
892
892
895
893
894
895
897
897
897
892
890
888
889
888
889
888
890
891
894
894
893
892
889
886
885
882
882
882
885
884
888
889
885
887
886
885
883
882
883
881
884
887
887
888
888
887
885
883
882
883
883
884
885
887
889
889
890
889
888
887
884
885
883
884
886
888
890
893
892
892
890
890
884
885
884
891
894
898
901
906
903
909
909
910
909
909
913
914
920
928
933
936
932
928
925
915
911
912
912
913
919
925
933
932
930
927
916
905
898
892
889
889
888
887
886
881
880
878
877
873
874
868
870
872
875
876
876
873
877
874
873
872
869
871
869
868
871
873
871
876
876
874
873
872
871
870
868
869
870
871
873
879
888
907
933
964
997
1024
1040
1041
1042
1037
1045
1070
1097
1130
1148
1134
1075
980
864
762
693
654
636
633
628
624
618
611
607
605
605
607
609
614
627
635
651
667
691
720
747
778
800
818
835
846
851
854
854
855
854
858
857
860
861
863
863
868
871
870
866
867
863
862
861
859
858
856
856
858
860
859
857
853
851
844
843
839
834
834
834
835
833
833
830
828
828
827
821
817
817
817
815
815
815
817
815
817
814
813
811
813
815
815
820
826
827
831
833
837
836
841
842
847
850
853
859
863
868
872
873
873
876
876
875
878
876
877
879
884
884
885
888
887
886
886
888
887
883
886
886
887
890
891
888
888
887
887
885
886
885
886
885
890
889
887
887
884
884
882
883
881
878
880
880
881
883
883
883
886
883
882
880
879
877
874
876
879
880
883
882
881
878
877
876
881
882
884
886
887
889
891
889
888
886
882
884
884
885
882
881
885
885
892
892
891
890
889
886
888
884
886
884
889
892
893
893
891
890
891
894
894
895
894
900
903
908
910
908
910
911
913
913
919
923
929
934
940
938
936
927
924
919
912
911
913
913
921
926
933
934
935
929
925
916
908
897
895
890
892
889
888
887
886
886
886
882
882
877
876
879
878
879
877
881
878
880
878
876
875
874
871
872
873
878
875
880
881
880
881
883
881
876
877
872
874
873
871
875
880
888
910
940
972
1005
1032
1046
1046
1043
1043
1056
1086
1121
1155
1170
1147
1083
986
875
779
716
677
658
650
644
636
631
624
620
621
620
619
627
631
637
648
660
673
694
720
752
781
801
824
837
848
855
862
863
866
866
871
870
873
872
872
872
876
876
880
879
877
876
875
871
869
867
867
867
869
867
868
864
861
857
853
851
848
845
848
846
847
845
845
842
838
839
834
830
825
823
820
822
823
825
827
827
824
824
825
824
825
824
824
827
830
835
838
842
846
849
852
856
861
862
866
869
873
877
879
882
883
885
888
887
888
889
891
895
895
898
899
901
898
899
899
895
894
892
890
895
897
896
902
901
897
899
896
895
893
892
892
892
892
897
895
894
893
892
892
890
891
886
886
887
891
890
890
888
885
886
883
882
883
882
883
884
884
888
889
888
889
887
885
882
881
879
879
885
885
886
887
886
887
885
883
886
885
884
880
884
885
888
889
890
890
890
888
888
890
888
890
893
897
900
905
905
907
909
907
907
907
905
909
915
925
932
936
936
933
929
924
916
913
908
904
907
912
919
930
934
933
929
925
912
903
895
891
889
887
884
886
883
880
877
874
871
869
870
871
871
876
877
876
873
873
870
866
868
865
866
867
864
868
868
874
873
872
874
870
867
865
863
865
866
867
870
867
867
865
867
873
891
921
954
987
1012
1023
1018
1009
1009
1023
1057
1101
1139
1157
1139
1081
988
887
796
726
682
659
644
635
626
614
607
603
604
609
612
614
619
623
629
635
647
660
685
717
747
776
801
821
831
840
845
845
852
852
850
850
857
858
862
862
865
864
865
860
860
862
859
857
861
860
855
854
849
850
851
844
841
837
834
834
832
834
835
834
834
829
828
822
819
813
813
810
814
811
813
816
815
812
811
811
808
810
809
813
814
820
823
831
829
831
833
836
839
840
845
850
851
855
857
862
864
865
868
870
868
872
871
874
878
880
883
883
885
882
884
882
880
879
879
880
882
883
885
887
887
885
883
883
883
878
878
878
879
878
877
879
881
881
882
880
876
873
873
876
875
876
876
877
873
874
872
871
868
872
874
873
875
875
876
878
876
877
873
872
871
872
867
870
874
876
875
876
877
877
878
876
877
875
871
870
874
872
873
877
879
881
881
880
881
878
877
878
880
880
882
881
882
887
890
888
890
893
893
896
901
904
906
909
912
917
920
922
925
921
917
917
915
910
905
905
905
911
916
920
921
921
915
908
900
891
885
883
880
878
876
874
870
864
859
856
859
858
863
866
864
863
863
862
860
858
860
855
860
861
861
864
861
861
857
859
857
855
855
857
858
858
863
864
864
865
864
861
862
865
879
908
938
975
1009
1024
1030
1023
1017
1024
1051
1089
1127
1145
1134
1075
977
863
758
680
635
611
603
595
596
593
590
590
588
593
594
598
605
610
623
642
666
699
733
768
791
812
827
834
837
839
840
841
843
844
848
850
852
857
857
855
855
854
851
853
849
848
847
847
850
848
850
848
842
838
837
834
832
829
828
825
825
825
819
820
819
816
814
808
808
806
802
806
806
808
808
802
805
803
805
802
801
803
805
808
810
816
819
819
826
825
828
832
834
839
845
849
853
856
859
860
862
861
865
862
867
869
870
874
875
875
879
878
877
875
876
877
876
879
877
876
877
880
880
880
875
877
874
872
874
870
872
878
877
879
878
877
874
873
873
871
869
867
867
869
870
870
874
870
871
870
868
866
864
863
860
866
865
868
871
870
871
870
870
868
871
870
868
871
871
872
873
873
873
870
869
868
867
867
868
871
873
871
876
873
875
871
872
871
869
870
871
876
877
876
878
879
876
877
875
877
875
873
875
880
884
887
888
890
891
890
891
893
892
895
900
901
906
914
916
923
921
915
909
904
900
899
897
899
903
909
919
921
921
917
913
905
898
888
886
887
883
882
883
879
874
870
869
866
864
862
864
862
863
865
863
866
862
861
859
857
857
859
862
864
864
861
863
863
861
859
860
858
858
858
861
862
861
860
860
858
866
877
895
923
957
991
1016
1036
1039
1036
1031
1038
1058
1088
1123
1143
1136
1092
1014
909
807
727
673
645
632
622
619
614
606
604
602
603
604
605
608
614
620
629
642
661
688
722
752
778
802
820
829
831
833
833
839
841
841
844
844
848
853
855
855
855
855
854
852
852
851
852
850
851
851
850
848
846
845
842
840
836
835
835
833
832
832
831
828
823
822
816
814
812
811
811
807
806
807
808
805
808
806
805
804
799
798
800
801
802
805
806
809
808
814
815
817
820
825
828
830
836
840
849
851
853
855
857
859
859
859
864
866
868
872
875
881
882
881
878
879
878
876
879
879
879
880
889
886
885
883
883
883
881
881
882
881
885
887
888
886
887
886
886
882
879
879
880
880
882
881
880
880
876
876
874
874
872
868
871
874
875
878
879
878
877
875
873
870
868
869
870
871
873
875
880
882
880
881
879
878
874
873
871
873
877
877
880
881
880
880
877
875
877
874
875
876
878
880
878
880
881
880
879
883
883
886
891
897
900
902
907
908
908
905
906
908
911
916
923
928
929
928
925
920
914
909
904
898
900
905
912
919
924
926
923
915
908
896
890
885
882
876
876
873
870
870
868
869
867
864
865
862
860
858
861
863
865
862
866
866
865
864
858
859
858
860
860
860
864
866
868
869
868
868
867
867
861
860
857
851
850
854
864
878
899
938
971
1000
1015
1020
1016
1016
1028
1058
1101
1139
1152
1129
1058
955
847
752
688
654
635
627
621
616
608
605
600
598
599
601
604
613
626
637
661
686
714
743
774
793
808
822
830
833
839
843
845
847
853
855
858
855
856
853
853
853
855
856
859
859
857
852
851
851
847
846
843
842
842
837
840
838
835
833
826
823
824
820
816
817
819
821
821
819
816
813
810
807
806
805
803
804
806
805
807
813
812
814
812
808
812
810
815
820
827
831
834
840
845
845
847
849
851
856
858
859
864
869
873
876
878
876
875
875
876
877
879
881
886
888
888
890
888
883
882
882
880
880
879
881
885
887
885
890
888
888
889
885
882
877
876
877
876
877
882
881
881
880
879
876
876
875
876
876
878
879
878
878
877
873
877
875
875
873
875
876
880
880
878
880
881
879
881
880
878
875
873
876
877
880
884
887
884
880
882
879
877
873
873
878
877
882
880
882
881
881
878
879
878
878
879
881
889
892
895
897
897
895
897
897
898
901
902
906
908
914
921
929
933
935
935
928
924
915
912
909
909
910
912
919
924
928
930
930
924
914
903
897
894
891
887
887
884
883
877
871
867
864
862
864
864
866
866
869
865
864
862
861
859
860
861
861
866
866
869
871
866
866
863
865
865
862
859
861
863
866
867
866
864
863
869
887
906
939
974
1003
1017
1020
1018
1021
1039
1069
1111
1144
1154
1123
1043
937
829
738
684
649
634
628
623
614
605
598
597
597
598
598
600
606
612
622
633
647
667
692
727
757
781
802
819
830
838
840
841
843
847
849
852
854
852
852
855
859
860
862
860
858
856
854
853
855
855
854
855
856
855
850
846
845
842
838
835
836
836
836
835
835
831
827
823
820
817
814
816
815
816
817
811
812
814
816
809
809
805
806
805
810
813
815
817
821
823
825
828
830
826
828
832
836
840
848
853
858
858
861
864
865
865
867
871
875
881
884
888
887
887
885
884
883
883
884
884
886
890
892
892
892
894
894
892
890
889
885
885
884
883
884
887
890
886
887
883
882
882
880
881
881
880
882
882
884
879
879
877
876
877
873
876
878
879
882
880
881
885
878
875
876
873
872
877
879
878
877
878
881
884
885
887
886
886
883
882
881
885
