821
828
828
832
833
831
831
825
818
819
817
814
821
830
836
836
834
831
826
823
815
805
800
801
797
795
792
785
786
783
784
786
787
789
792
788
788
785
781
781
785
788
794
796
795
795
787
783
772
771
770
775
779
783
790
792
792
789
786
781
777
779
784
799
824
856
890
920
932
933
922
921
929
960
996
1029
1047
1032
980
900
814
735
677
644
629
621
610
600
591
580
573
572
573
573
571
567
566
569
578
589
605
623
646
677
699
721
741
751
753
756
760
767
774
779
783
784
787
782
776
770
768
770
768
777
775
775
777
778
774
774
771
770
769
768
769
767
767
763
764
760
759
755
755
754
751
749
744
740
737
734
735
738
737
737
738
738
737
735
732
730
734
737
738
742
740
735
734
735
736
740
741
746
753
757
763
766
767
768
769
768
772
780
782
783
787
790
794
800
802
804
803
798
798
801
802
803
806
811
817
821
816
811
811
803
802
804
804
808
812
816
818
818
816
811
803
801
801
801
801
803
809
809
809
812
809
805
799
792
787
788
792
796
801
803
804
803
802
802
802
801
802
801
798
797
798
798
802
803
803
807
808
806
805
803
801
800
800
800
805
806
801
802
802
805
804
805
805
803
803
803
808
813
814
809
805
797
797
798
799
798
805
809
812
813
814
813
809
809
808
810
809
810
816
816
821
824
822
824
823
828
829
836
839
847
852
851
845
840
835
831
830
826
826
825
829
835
840
847
852
849
840
832
828
824
818
816
814
809
808
807
809
811
813
811
806
799
792
787
784
789
794
799
802
803
798
798
798
797
796
796
794
791
792
793
795
805
805
808
807
802
799
794
788
790
790
800
815
838
870
902
934
954
961
957
947
947
957
979
1011
1045
1061
1060
1025
955
871
783
709
657
629
614
606
602
595
588
586
581
583
589
592
595
601
607
613
619
632
653
681
711
734
753
764
774
778
777
778
779
776
776
775
778
780
782
783
782
790
791
790
789
786
784
782
780
779
780
779
779
781
778
782
779
770
769
767
764
763
761
757
752
748
748
751
753
758
755
752
749
747
741
735
734
737
741
742
746
747
752
748
745
743
741
736
740
744
748
754
763
765
765
767
768
767
769
773
778
783
786
794
797
802
806
810
810
808
806
804
803
810
811
813
818
820
816
815
811
810
811
813
817
819
819
819
819
816
814
813
817
818
817
813
813
811
813
810
814
813
814
815
810
811
808
808
811
815
813
815
814
817
815
810
811
808
809
809
813
814
817
819
823
824
825
826
826
823
819
815
813
813
814
818
822
825
828
827
821
816
812
812
813
817
821
825
828
831
826
827
826
825
822
823
824
827
829
834
833
832
832
829
831
832
829
834
835
838
844
845
850
851
856
855
856
852
855
857
859
865
867
862
857
853
852
850
849
845
845
845
847
855
858
865
871
874
867
865
858
850
839
832
836
835
842
844
846
841
837
832
821
817
813
810
814
821
823
824
827
824
824
818
818
817
813
812
811
811
817
819
823
825
825
824
823
818
817
816
813
814
812
813
813
814
818
834
855
879
901
923
936
941
941
940
945
970
998
1033
1061
1068
1046
989
914
835
771
723
693
680
669
659
649
641
634
631
632
633
639
638
639
641
644
648
663
683
709
732
748
763
775
783
794
796
801
803
805
809
809
812
809
806
804
804
803
802
803
806
805
807
805
803
802
802
799
802
801
804
799
796
791
788
787
786
783
786
785
782
779
777
780
774
773
773
772
770
766
763
761
761
766
766
762
764
759
752
757
752
755
758
762
765
771
773
778
781
776
776
778
780
784
789
797
801
807
809
808
810
811
816
819
821
824
826
826
827
831
832
835
838
838
835
832
832
827
827
832
835
844
844
842
836
833
826
828
827
828
826
831
832
835
835
837
838
838
837
831
830
830
830
827
829
831
831
831
830
830
829
831
828
834
834
837
835
839
839
839
837
837
832
832
832
828
832
833
834
838
836
833
836
837
832
835
834
839
847
850
850
854
854
856
855
853
855
853
853
858
856
859
861
866
866
867
867
869
869
864
867
870
873
878
882
881
886
886
883
885
884
884
889
893
898
903
908
912
917
915
914
903
898
892
887
885
886
890
894
903
910
916
916
910
901
893
884
882
877
879
880
882
880
880
880
871
869
863
862
862
867
868
871
874
875
876
875
876
876
874
876
874
876
878
881
880
877
876
877
876
875
872
875
874
872
871
868
872
882
899
925
951
975
995
1001
1004
1005
1017
1039
1072
1107
1132
1137
1113
1059
981
898
824
773
748
732
723
711
696
685
676
669
667
663
664
666
669
669
677
683
697
710
725
752
773
795
815
830
843
848
851
850
850
852
851
854
857
856
858
856
860
861
862
860
860
860
856
855
851
848
851
852
854
856
852
856
850
847
843
842
838
835
835
828
829
831
827
830
827
824
821
819
819
818
817
815
816
815
812
815
816
815
812
811
810
812
809
810
813
819
826
829
834
837
839
840
843
844
850
857
859
862
869
871
873
875
875
876
878
878
879
881
885
887
889
891
890
890
890
890
886
886
888
891
892
893
895
896
896
895
894
889
886
882
886
889
892
894
895
894
892
885
886
883
882
879
875
877
880
880
879
884
883
884
881
881
877
875
878
878
882
884
886
888
890
888
886
882
876
875
877
879
883
883
887
888
889
889
886
884
882
879
883
884
885
884
885
884
883
883
882
878
880
878
879
879
883
886
889
891
888
888
886
886
885
885
886
886
892
894
898
900
900
901
901
900
898
897
897
901
907
918
924
930
927
923
917
915
907
901
897
900
909
912
919
925
923
923
921
922
919
912
906
901
893
892
888
883
883
878
875
875
869
867
864
862
868
870
871
873
871
873
874
874
876
878
874
873
874
875
876
871
870
872
869
866
864
865
868
872
874
872
872
871
878
882
896
917
941
970
997
1015
1022
1016
1014
1019
1035
1057
1086
1110
1122
1108
1065
992
909
830
768
732
714
702
691
684
676
672
664
659
661
659
661
662
665
670
675
687
701
726
757
786
819
842
855
860
858
853
852
851
850
852
853
858
862
863
863
864
863
865
864
862
859
855
855
859
858
856
855
851
847
846
847
845
840
839
837
833
834
835
832
832
829
827
824
818
815
815
814
808
813
812
813
815
809
812
810
808
806
808
807
808
808
811
812
817
817
821
819
819
825
830
833
834
835
843
843
850
853
857
861
862
858
861
859
863
863
865
867
869
870
872
871
874
871
872
872
877
877
877
878
879
878
879
877
874
874
868
872
874
872
876
878
883
881
880
874
870
867
867
868
869
872
875
877
878
876
875
869
866
863
860
863
867
869
871
864
865
865
865
864
865
863
863
865
864
864
867
870
872
871
871
870
866
865
866
868
874
873
877
875
878
878
877
873
875
870
868
874
874
877
877
877
879
879
877
878
880
878
881
888
889
893
898
898
899
896
901
900
903
898
902
900
899
899
898
896
898
901
908
910
910
902
896
889
885
884
882
882
883
880
877
871
863
859
856
852
851
855
858
864
867
865
865
862
856
850
849
843
842
843
848
856
859
865
866
863
860
857
857
856
860
862
861
855
847
843
844
858
882
906
934
960
970
970
966
966
977
1008
1044
1088
1115
1116
1083
1020
938
857
790
751
726
710
698
683
669
658
648
644
645
652
658
663
666
669
676
686
701
716
737
756
789
814
832
839
842
844
845
847
849
850
853
848
848
846
850
850
851
852
850
841
840
842
840
846
848
848
850
849
848
846
841
834
829
826
825
823
824
821
818
818
821
822
822
819
812
809
805
802
802
803
808
811
815
811
809
803
799
792
793
794
800
802
803
803
804
805
812
814
820
821
824
819
818
817
826
834
843
849
851
850
850
850
848
845
846
847
853
855
862
865
872
871
868
869
866
866
862
865
867
873
877
875
875
869
865
863
859
860
860
862
865
866
862
867
870
872
868
861
860
856
856
852
854
855
856
856
853
852
851
850
848
848
847
851
854
859
859
862
860
858
856
853
848
851
851
850
859
861
863
862
857
854
851
850
851
855
856
858
860
863
868
869
870
866
860
858
852
852
855
856
862
863
864
866
864
865
866
869
869
873
874
879
884
891
890
889
891
890
892
893
895
897
900
898
896
893
885
877
877
876
880
884
886
888
887
889
886
883
881
874
869
866
865
860
856
848
847
844
846
843
844
843
845
848
845
846
845
844
844
843
841
838
838
837
839
841
843
843
839
838
837
840
844
851
850
844
839
829
823
821
826
833
851
872
899
924
942
951
950
943
941
957
985
1024
1067
1099
1108
1085
1025
937
845
766
714
686
665
653
646
638
629
625
626
625
628
631
633
630
630
633
643
659
686
715
748
770
792
806
813
817
819
819
819
823
825
828
831
836
834
829
829
828
826
822
821
828
830
831
831
832
831
825
821
818
813
811
814
811
810
814
812
811
808
805
802
798
795
792
792
787
788
787
786
790
790
786
783
780
777
777
774
774
779
781
785
785
785
785
786
786
789
788
790
792
799
802
803
810
811
811
814
816
822
827
827
831
833
835
837
837
841
843
840
841
842
839
841
844
845
846
852
853
849
847
843
840
839
839
841
844
845
847
841
841
841
842
843
840
838
833
835
837
838
840
839
840
842
842
836
835
836
834
835
837
836
837
842
840
841
837
838
832
831
830
829
832
838
838
837
841
837
841
836
840
840
839
837
839
842
843
848
855
858
859
857
854
848
843
844
843
847
849
849
848
846
841
834
830
829
828
831
832
834
835
838
838
836
835
834
836
834
836
836
841
845
847
853
860
867
872
872
874
873
869
865
864
860
858
859
861
863
864
868
867
868
864
863
857
856
850
842
837
832
833
830
828
824
822
821
820
821
824
823
824
822
824
820
818
816
817
817
820
820
821
821
819
813
816
814
816
816
816
817
820
821
821
820
819
814
810
809
809
821
839
865
894
925
950
968
965
960
959
965
987
1018
1045
1055
1035
974
887
793
712
652
620
604
597
595
588
586
581
581
585
586
587
588
590
595
599
614
630
652
682
712
738
761
774
785
789
788
790
789
789
794
797
802
806
808
807
806
802
800
798
798
797
796
797
799
801
802
799
798
793
792
788
783
782
776
776
782
781
782
781
778
772
768
765
759
757
758
756
755
754
761
759
757
758
758
759
756
756
755
755
755
756
762
765
766
770
767
769
766
771
775
783
789
793
797
800
802
803
805
806
805
807
806
811
814
821
821
822
822
820
820
817
820
820
822
821
822
823
826
827
824
824
826
823
823
820
819
819
821
821
824
824
821
818
814
809
812
813
816
820
820
822
819
817
815
815
812
815
816
815
816
818
818
817
819
816
818
815
814
812
808
808
811
815
816
819
821
818
817
813
812
814
815
814
812
812
813
815
819
819
819
821
822
818
815
813
812
811
813
820
819
819
821
818
817
814
815
814
814
816
821
823
829
828
828
830
828
828
829
830
830
832
841
847
852
858
859
858
849
842
836
829
825
826
836
842
848
854
857
858
851
839
833
822
816
814
814
816
817
817
815
813
809
806
805
804
801
803
802
802
803
803
803
799
802
799
803
802
802
801
802
801
806
807
805
804
804
801
800
800
797
798
799
798
802
804
816
835
862
890
921
938
941
945
943
956
982
1008
1033
1047
1032
986
908
814
728
680
648
639
638
634
625
616
610
608
600
584
566
562
569
585
609
628
652
678
697
713
722
738
761
776
788
790
791
785
777
775
776
779
785
786
783
770
766
770
784
792
797
795
795
790
787
786
775
771
773
781
789
791
788
772
755
743
743
746
751
757
763
766
772
771
761
748
733
724
732
739
748
750
746
731
716
706
710
724
744
756
758
749
740
740
746
758
774
786
784
778
760
750
753
758
771
781
784
784
785
793
793
791
785
774
770
763
770
779
796
808
826
837
842
842
828
805
784
780
786
800
816
825
832
825
811
796
785
782
790
803
814
819
822
817
813
804
790
779
769
776
786
794
795
786
783
786
797
802
799
798
794
786
783
780
786
795
797
793
787
780
778
782
785
789
790
793
794
791
789
783
785
788
793
794
794
792
790
793
795
801
805
806
802
790
786
788
790
797
803
806
807
800
798
797
799
803
812
815
812
809
800
798
802
806
809
812
815
820
826
829
823
820
812
805
807
807
806
807
809
813
816
819
819
820
821
813
809
800
795
792
789
788
789
787
781
773
767
765
766
769
774
775
771
766
759
756
756
764
768
770
772
768
762
755
755
758
761
763
765
764
762
757
761
762
762
763
767
767
762
759
754
751
765
778
801
829
862
888
908
913
914
912
917
933
962
990
1006
1003
972
920
849
773
707
653
620
603
595
587
581
572
566
559
553
550
553
553
557
553
554
556
570
590
617
647
681
702
717
721
721
715
712
711
716
719
727
728
731
732
728
727
725
723
721
722
722
729
730
731
732
734
735
738
737
732
722
709
700
699
704
712
718
718
710
706
697
692
694
692
691
693
689
689
687
684
685
684
686
686
683
679
679
683
687
694
692
689
688
689
687
688
686
687
685
685
694
704
716
720
719
711
704
700
703
710
719
728
730
733
728
729
727
727
728
733
739
746
749
749
748
744
744
741
743
750
743
743
740
739
740
743
750
755
758
755
749
743
746
745
743
744
742
736
732
731
735
747
749
752
751
751
747
741
736
735
737
742
747
745
745
742
741
740
736
738
739
746
750
751
747
747
742
741
743
745
748
746
746
747
748
748
746
743
741
739
739
737
737
740
746
751
753
752
756
756
754
753
749
745
746
741
746
751
760
766
770
774
771
765
761
764
765
764
771
778
784
785
784
787
786
783
777
776
775
777
780
781
787
792
799
800
800
793
783
772
762
757
760
767
769
769
771
763
754
747
740
737
736
744
751
756
755
753
752
749
755
761
763
760
758
756
755
753
752
756
758
759
762
765
761
756
750
745
740
740
746
762
789
822
851
874
903
917
922
916
911
914
932
960
991
1020
1020
991
936
856
770
697
649
626
618
614
604
590
577
564
560
561
558
557
552
553
555
560
574
590
616
634
660
686
707
721
735
740
741
739
741
748
757
767
769
766
762
759
753
756
757
758
759
755
757
760
761
762
763
761
764
757
752
746
745
748
746
741
739
737
734
733
731
730
733
732
732
727
722
721
718
720
728
732
731
734
730
725
722
720
720
724
726
726
725
728
725
732
736
738
739
747
750
751
747
748
753
757
762
773
779
776
779
779
781
784
786
789
788
789
789
791
792
796
797
792
796
798
802
803
800
798
794
794
796
799
801
800
802
801
801
802
799
797
794
795
800
798
806
809
808
804
801
793
790
789
793
793
798
795
796
799
797
794
794
794
792
793
793
793
796
796
798
802
800
800
799
798
799
795
795
797
800
803
805
808
810
807
805
802
800
801
799
802
802
805
805
805
803
800
801
801
805
807
808
811
816
818
823
828
827
826
823
828
830
833
837
840
844
843
839
837
834
830
824
821
821
827
833
839
842
845
842
836
832
824
818
812
804
803
799
796
799
795
799
798
795
793
792
789
792
792
790
793
792
793
796
795
795
794
791
791
790
790
791
790
795
796
799
801
798
794
788
783
782
783
793
808
832
858
894
921
942
947
943
941
947
966
995
1031
1053
1053
1027
956
869
780
712
664
642
626
614
608
604
598
596
593
590
591
585
588
588
591
601
618
639
666
697
727
747
765
773
771
771
772
773
775
780
786
791
792
789
785
783
778
775
775
776
778
783
782
785
786
784
779
777
773
766
768
768
765
766
767
769
766
765
763
760
758
752
747
748
745
747
746
746
745
747
744
744
740
738
734
738
740
744
744
746
744
747
749
746
747
752
752
753
756
761
765
771
778
777
778
777
780
784
787
788
794
798
801
805
808
812
813
810
810
808
808
807
809
812
812
812
816
816
814
813
811
809
807
812
812
811
813
816
817
819
820
812
811
807
808
805
809
813
813
817
815
814
816
814
809
809
807
805
808
807
812
814
813
813
813
813
812
810
806
803
807
810
810
816
813
814
815
812
816
811
811
812
814
813
814
819
818
819
819
817
815
814
812
812
815
820
822
824
827
825
827
831
830
831
832
830
833
831
838
843
847
851
855
855
852
847
844
841
838
839
839
843
846
851
856
857
854
850
842
835
828
827
822
822
823
821
816
814
811
806
801
802
798
805
807
806
810
809
805
804
802
800
800
802
802
803
807
810
810
808
810
808
810
807
805
807
807
807
808
807
804
802
803
