1066
1065
1059
1057
1060
1063
1067
1069
1066
1068
1067
1065
1063
1060
1061
1060
1059
1057
1054
1052
1053
1047
1042
1038
1035
1031
1026
1026
1027
1026
1024
1025
1021
1017
1012
1005
1002
998
995
992
995
989
988
985
985
980
981
978
975
974
971
970
973
975
978
977
976
975
973
974
976
978
982
982
988
993
997
1000
999
1002
1004
1003
1005
1010
1016
1026
1027
1036
1037
1041
1039
1037
1038
1038
1038
1041
1041
1045
1050
1053
1056
1061
1059
1056
1055
1053
1053
1050
1051
1051
1052
1055
1062
1063
1061
1061
1060
1054
1054
1052
1051
1053
1052
1057
1058
1059
1057
1055
1055
1054
1055
1056
1054
1059
1063
1062
1062
1061
1058
1055
1053
1054
1053
1051
1053
1055
1061
1060
1059
1063
1059
1055
1051
1049
1049
1045
1050
1049
1056
1057
1058
1060
1056
1056
1052
1047
1049
1048
1047
1047
1048
1051
1053
1057
1056
1051
1049
1048
1048
1042
1042
1043
1043
1042
1044
1046
1047
1048
1046
1044
1040
1042
1047
1056
1062
1065
1070
1070
1064
1056
1055
1055
1054
1059
1069
1074
1080
1085
1084
1082
1077
1069
1058
1052
1048
1049
1052
1051
1055
1052
1053
1051
1048
1044
1043
1042
1040
1039
1037
1037
1038
1041
1042
1047
1045
1044
1043
1040
1036
1036
1032
1034
1037
1041
1041
1044
1043
1037
1035
1033
1026
1022
1023
1020
1009
1006
990
967
938
909
872
837
812
799
808
831
863
898
934
974
1024
1093
1162
1214
1236
1224
1188
1138
1095
1059
1041
1026
1012
1005
995
986
984
983
984
984
993
994
992
989
987
985
981
982
987
995
1008
1024
1032
1041
1048
1050
1054
1052
1051
1046
1045
1045
1045
1044
1047
1047
1049
1050
1049
1046
1042
1037
1035
1029
1026
1026
1026
1024
1022
1020
1017
1012
1009
1001
1000
994
993
993
993
989
990
990
987
985
983
977
972
969
967
964
963
964
965
963
961
958
958
956
954
953
952
953
956
954
959
955
958
955
958
958
958
962
964
970
973
978
980
982
985
985
984
982
984
986
990
992
994
997
1004
1003
1008
1010
1008
1006
1008
1008
1008
1010
1014
1010
1018
1024
1025
1022
1024
1024
1020
1019
1019
1017
1020
1019
1023
1025
1024
1020
1022
1017
1013
1014
1010
1013
1015
1017
1018
1019
1014
1013
1008
1006
1001
1003
1005
1004
1005
1006
1008
1007
1010
1011
1008
1007
1005
1003
1001
1003
1004
1005
1005
1009
1008
1007
1008
1006
1000
1000
1001
1002
1001
1003
1001
1005
1004
1003
1010
1008
1011
1007
1003
1004
1004
1003
1007
1005
1006
1003
1001
993
990
989
988
989
991
994
995
1001
1002
1007
1011
1010
1007
998
994
994
996
1001
1013
1024
1033
1033
1031
1031
1024
1014
1002
999
997
996
1002
1004
1004
1003
1000
998
993
993
989
991
988
989
990
990
994
987
989
990
990
989
993
990
992
993
991
993
988
984
983
982
977
979
975
974
976
970
964
956
943
918
891
853
814
785
758
750
757
779
812
846
881
918
973
1039
1105
1160
1187
1170
1133
1076
1026
992
971
956
949
939
931
923
921
919
924
929
932
934
931
926
923
919
918
927
937
952
963
975
985
991
994
994
991
988
986
984
987
984
986
988
991
990
989
985
985
984
983
982
981
978
974
971
967
967
964
961
959
954
956
952
948
947
946
941
937
935
934
927
926
921
919
919
917
917
917
918
916
908
904
897
895
895
897
899
897
902
903
897
903
898
899
899
898
898
903
900
901
909
913
920
923
927
930
931
930
930
935
936
940
942
945
949
954
960
963
963
968
967
966
962
963
963
965
965
971
974
977
975
974
971
969
966
966
965
971
972
972
973
973
975
969
966
964
963
962
967
965
966
966
964
963
963
962
959
959
961
959
958
955
956
962
958
960
964
967
965
964
963
963
964
966
967
967
969
966
962
960
959
962
960
963
963
962
963
963
966
964
968
964
962
961
958
963
960
962
963
963
963
964
964
967
964
961
955
952
954
954
958
959
958
960
956
953
951
948
949
952
952
957
962
965
969
971
970
967
963
959
956
959
962
971
980
993
1000
1002
1002
993
982
974
963
959
961
964
968
968
974
971
972
964
958
952
949
948
948
951
955
960
961
960
961
956
957
952
955
952
953
950
952
954
955
958
957
959
955
955
946
947
941
939
932
924
914
892
868
832
797
769
744
744
761
795
826
863
898
941
1002
1069
1132
1174
1177
1144
1089
1030
983
952
941
930
919
915
903
895
890
888
893
898
903
904
903
903
896
895
898
906
914
927
943
947
959
964
965
964
963
964
964
964
961
961
962
965
962
965
967
965
962
957
955
949
947
944
938
938
935
934
933
934
933
927
923
916
910
906
901
901
901
902
902
900
895
889
889
879
875
872
867
871
871
871
869
872
866
865
861
858
855
860
861
863
866
867
872
875
871
870
870
870
868
876
879
883
885
893
897
899
901
901
903
903
906
908
910
914
917
922
930
933
934
935
937
934
937
930
934
939
939
945
945
944
948
947
945
945
943
940
944
944
946
946
950
951
946
948
944
943
941
941
939
945
952
953
951
948
946
943
941
937
938
941
938
940
939
941
941
941
938
938
935
932
930
929
933
931
932
935
936
934
933
931
929
930
930
933
933
936
938
940
943
942
943
940
938
934
931
934
931
935
939
939
941
941
936
934
931
929
930
930
927
927
929
929
928
927
927
926
928
927
935
936
943
947
947
946
946
941
940
938
939
942
946
953
958
963
965
960
958
952
942
938
938
937
935
940
939
937
937
934
933
934
934
934
929
931
929
927
929
930
928
930
929
928
927
925
920
922
923
924
924
926
927
929
930
926
922
918
916
911
903
894
882
871
851
820
792
758
723
702
689
696
714
744
777
805
845
891
952
1022
1085
1127
1134
1113
1066
1015
970
946
923
909
907
899
888
880
872
869
870
874
879
879
882
878
873
871
873
874
882
891
903
916
925
933
936
938
939
939
938
933
936
935
935
931
933
932
936
935
937
934
928
931
927
924
920
920
920
919
916
920
917
914
910
904
896
890
887
884
881
882
882
881
883
880
874
872
867
861
858
858
858
854
857
857
859
858
856
854
851
848
845
841
844
847
851
852
852
856
853
857
857
855
857
858
862
866
875
876
880
885
888
890
887
888
887
888
888
892
897
905
913
915
919
918
917
916
912
916
914
915
925
925
926
927
928
926
925
927
923
919
920
918
919
922
920
922
920
924
921
918
922
919
917
918
916
915
921
917
918
915
916
915
913
911
914
911
914
917
919
918
918
919
915
912
909
906
912
913
916
920
920
921
917
916
915
912
910
910
912
913
916
918
918
917
918
915
916
911
908
909
908
913
911
911
912
916
911
911
907
903
901
902
900
900
900
904
907
910
914
918
923
922
926
925
926
926
918
922
923
926
931
936
938
940
944
942
943
940
935
932
930
927
923
923
919
920
918
915
917
912
914
915
915
915
915
914
911
911
908
907
905
904
909
908
911
912
913
912
912
908
905
907
909
909
910
911
908
904
898
888
871
850
820
785
747
706
680
670
682
708
745
782
819
868
926
1001
1067
1111
1116
1092
1047
993
950
919
902
889
877
869
861
855
852
852
857
862
861
862
858
855
850
851
858
865
877
891
907
917
922
926
927
926
926
929
933
935
941
942
946
944
942
941
935
933
928
923
924
923
923
924
922
923
923
920
917
910
905
900
895
890
888
883
881
881
881
878
873
868
868
861
862
861
860
860
862
859
854
848
843
842
843
841
844
846
854
855
853
851
851
846
845
844
847
850
853
856
861
866
867
869
874
880
878
880
879
880
884
886
891
898
902
907
910
913
911
910
908
906
910
912
915
924
928
928
930
926
922
921
920
915
917
916
922
927
929
932
933
933
928
926
926
925
924
925
929
930
931
931
931
925
927
924
922
921
925
926
928
927
929
927
926
925
922
923
925
920
923
919
923
927
932
930
931
929
930
923
924
920
920
917
919
924
929
931
933
933
930
927
927
928
930
933
932
932
931
930
931
931
930
931
931
932
932
932
932
930
929
930
923
922
920
923
921
923
926
929
934
939
940
944
941
938
934
929
927
925
928
933
940
948
954
965
972
979
970
963
952
942
934
935
936
944
946
944
944
944
938
936
932
931
929
932
939
942
943
944
941
939
931
928
928
929
931
935
936
939
938
941
942
938
940
932
932
926
926
922
917
911
909
894
870
844
808
775
746
728
728
745
775
804
842
874
917
975
1046
1112
1158
1168
1142
1093
1030
979
942
926
910
904
896
887
878
872
871
874
882
886
891
890
887
882
876
875
876
885
901
918
936
948
955
962
961
958
956
950
946
950
952
957
957
961
957
955
953
947
949
945
941
938
935
931
931
930
927
928
923
922
926
920
912
907
902
900
901
893
895
891
885
883
878
872
868
870
867
865
866
869
869
869
869
862
859
856
854
856
856
856
861
866
861
866
867
865
867
868
868
872
878
878
885
887
894
899
901
904
906
905
909
913
916
920
928
929
935
938
939
942
939
933
936
938
938
940
948
954
954
959
956
953
950
947
946
941
942
947
948
954
958
960
957
956
955
946
944
942
945
940
944
946
946
950
951
948
946
941
940
940
940
937
938
940
945
946
946
947
947
949
942
944
945
941
942
946
948
950
948
945
943
938
938
939
935
938
942
943
951
956
952
951
948
944
940
939
938
937
943
942
942
945
944
938
937
934
931
925
918
917
918
926
928
933
938
942
945
947
947
947
944
943
944
944
943
947
948
954
958
962
967
967
966
959
961
953
952
947
946
945
945
942
939
940
939
937
941
942
947
943
942
937
936
934
933
927
929
924
929
929
927
934
930
929
925
926
925
924
924
923
925
929
927
924
922
909
899
883
861
834
807
769
742
718
711
716
741
769
801
832
870
919
983
1060
1125
1160
1167
1138
1085
1026
974
947
927
915
906
896
885
876
874
875
879
888
885
883
878
876
866
865
867
872
883
900
908
922
927
931
936
938
936
938
939
940
944
947
949
947
942
939
937
933
929
927
930
930
932
929
929
925
920
916
912
905
900
896
896
896
892
891
889
888
880
880
872
867
867
865
862
861
862
858
857
854
850
844
841
842
841
840
843
842
843
840
842
841
838
836
838
840
843
846
850
857
861
870
867
872
872
869
873
875
880
883
888
893
897
898
900
903
902
903
907
907
907
913
915
918
920
927
925
923
922
919
918
914
918
915
923
924
927
929
924
921
918
919
916
919
920
921
923
923
927
923
924
920
918
919
912
911
913
912
916
919
918
923
922
921
923
917
917
913
912
913
916
921
922
923
920
921
918
915
912
914
909
913
919
916
919
918
915
912
908
910
909
908
906
908
914
915
916
920
917
915
917
911
913
908
904
902
903
901
903
907
908
911
912
912
914
919
922
925
927
926
921
922
919
921
922
925
932
936
939
945
947
947
941
934
925
919
917
917
916
915
916
915
914
911
913
913
912
910
904
902
900
899
896
903
907
907
912
911
912
905
904
899
900
899
900
900
900
905
906
904
907
902
899
890
884
871
854
830
804
770
737
704
679
669
685
704
735
765
806
853
916
984
1054
1101
1114
1100
1056
1002
952
918
900
886
882
876
867
858
852
844
845
846
844
849
848
848
845
847
849
850
858
864
873
882
894
905
911
918
919
921
924
922
921
919
919
916
916
918
914
918
918
922
924
923
918
916
908
903
898
894
892
891
891
890
887
882
883
876
870
863
863
857
856
850
851
850
849
850
848
847
844
840
837
835
834
833
830
835
834
835
836
831
832
833
830
829
829
832
835
840
842
846
847
848
844
851
848
849
853
861
861
869
871
875
876
877
878
877
879
882
887
889
893
895
895
896
899
896
897
896
900
899
896
899
904
906
907
908
908
910
908
907
905
902
904
901
904
904
909
910
908
904
902
900
900
900
900
903
902
905
902
903
906
903
901
900
899
899
898
895
893
896
896
900
896
894
899
896
896
895
892
896
897
897
900
898
900
898
896
897
890
891
892
893
895
897
904
904
901
901
901
898
896
892
892
889
887
887
889
890
886
888
887
890
884
891
895
900
907
913
915
915
911
905
900
898
896
903
906
919
922
926
926
928
923
913
905
901
894
894
893
894
894
896
900
899
899
898
900
893
891
891
892
894
897
897
898
899
893
891
887
887
887
888
886
886
892
891
892
894
893
889
886
884
883
880
870
868
858
847
830
807
781
739
706
675
659
662
682
717
754
792
835
888
964
1031
1088
1108
1096
1056
998
946
905
878
865
856
847
841
836
827
827
824
830
834
839
838
836
835
831
830
834
838
851
864
877
891
899
910
914
913
912
911
910
908
910
906
905
907
906
905
906
904
907
904
904
895
888
887
884
882
881
880
885
884
880
876
873
870
864
857
855
855
850
847
840
841
839
835
832
830
826
823
819
819
821
822
820
821
822
819
820
822
818
816
813
814
814
811
817
820
828
832
836
833
833
831
832
835
839
846
851
855
858
861
862
866
869
872
872
874
881
886
890
894
896
897
899
900
894
893
895
899
898
903
905
904
907
910
905
904
901
901
898
900
906
909
913
917
915
912
910
907
906
899
900
900
901
902
899
901
900
896
900
900
905
904
905
900
904
904
903
903
904
904
904
904
901
900
900
900
906
910
910
911
913
911
909
905
902
903
903
904
907
905
909
911
914
914
915
913
912
911
907
907
907
909
906
913
911
910
904
901
898
890
888
889
892
895
902
911
910
916
916
918
924
922
920
915
912
910
913
913
921
930
938
942
950
948
946
941
933
924
920
921
926
928
931
925
922
917
911
911
912
916
914
919
916
916
912
910
906
904
906
907
909
913
912
911
911
910
907
908
904
905
904
907
904
908
907
903
897
883
865
842
811
775
742
712
694
698
722
758
790
828
875
934
1006
1081
1136
1161
1146
1097
1033
975
935
908
896
886
877
865
855
852
853
855
859
863
866
858
860
853
850
851
852
866
880
899
912
926
935
936
938
935
932
930
927
926
929
930
933
934
933
934
932
925
920
918
914
914
912
911
911
910
909
905
898
897
892
887
882
878
874
869
867
863
862
858
851
842
840
837
835
834
833
838
835
833
833
827
827
822
818
818
817
818
824
830
833
836
839
842
841
839
844
845
847
849
861
860
869
873
876
879
886
887
886
886
888
893
897
899
901
906
909
910
911
911
911
910
911
911
914
915
917
923
919
921
920
917
914
917
916
915
912
921
921
923
923
922
922
919
920
919
917
918
917
916
919
922
924
919
917
913
913
912
914
915
917
923
924
922
924
921
916
912
910
906
906
908
910
914
914
917
917
915
914
913
916
911
910
912
910
912
914
917
919
921
915
914
909
908
909
908
910
910
904
904
902
905
907
911
911
913
915
920
923
927
931
932
929
924
919
922
922
928
931
937
949
944
947
944
934
923
916
912
910
911
912
910
912
911
911
912
911
911
911
908
909
906
905
905
903
907
915
913
915
909
909
906
903
902
902
901
904
908
906
910
908
908
906
896
891
881
867
853
828
807
781
748
716
688
673
673
690
718
752
785
822
875
936
1016
1085
1124
1130
1101
1050
989
943
915
896
887
882
873
867
858
852
854
855
860
859
859
854
852
848
851
855
866
878
890
897
909
915
920
922
928
927
927
926
926
923
919
920
917
915
914
914
915
917
916
914
908
904
900
896
890
888
882
882
881
882
880
881
878
874
871
867
862
857
855
855
852
851
848
849
844
842
837
835
834
830
829
832
831
832
835
833
831
831
831
829
830
829
829
834
835
839
840
844
845
846
844
845
844
846
850
856
861
869
875
876
876
878
877
874
876
879
886
885
892
895
897
902
900
903
902
899
898
899
901
903
902
907
911
910
915
913
917
913
911
908
908
910
910
912
911
913
913
910
906
905
901
901
902
903
903
904
904
902
904
900
898
897
895
894
894
894
898
899
907
908
907
907
901
898
897
896
895
897
896
904
905
907
907
908
910
905
903
897
899
899
902
906
906
907
907
904
900
900
897
893
897
894
893
892
891
895
896
893
897
899
902
903
912
914
914
917
909
912
910
908
917
918
926
932
935
935
929
924
915
910
907
909
911
910
910
905
903
903
901
902
903
906
903
901
897
898
894
893
895
899
903
900
903
901
893
892
890
892
892
895
892
893
890
892
892
893
888
882
873
857
838
815
781
743
708
671
649
640
650
678
712
743
774
807
862
936
1016
1084
1117
1113
1069
1013
955
913
889
872
864
856
853
847
842
844
848
847
851
846
843
838
836
839
842
855
868
879
889
897
904
905
905
909
908
910
911
918
919
922
921
917
912
911
906
903
906
910
908
911
911
912
905
904
897
893
888
884
880
880
879
879
878
873
875
870
863
857
853
853
851
848
848
849
846
846
841
836
833
832
830
829
830
830
825
827
827
828
825
828
825
824
821
822
822
827
832
835
839
845
848
849
850
852
853
853
856
864
869
873
878
879
881
881
883
881
885
887
890
893
893
897
902
903
902
902
