852
851
850
844
837
836
835
843
848
851
852
846
835
829
830
837
841
844
843
844
848
848
845
840
828
820
817
819
826
835
838
841
838
836
833
833
830
825
824
824
830
834
836
839
841
838
834
832
829
825
825
825
827
831
832
834
836
837
835
835
835
831
832
828
826
828
834
843
839
836
831
833
834
835
837
836
836
835
838
840
843
844
844
843
840
833
836
844
846
849
854
856
857
858
858
859
858
852
852
853
861
873
888
893
891
887
874
860
852
849
854
869
874
882
891
895
894
883
868
854
849
848
853
854
849
840
835
833
832
837
838
838
833
829
827
824
830
833
829
830
827
829
827
833
836
834
833
829
826
821
824
824
830
836
837
836
834
829
825
820
823
827
848
878
914
946
970
979
987
988
983
983
1000
1030
1074
1110
1122
1099
1037
947
850
763
699
663
647
640
633
630
621
614
609
604
596
587
587
590
602
614
626
638
652
678
710
746
775
792
802
806
806
804
801
805
808
812
820
823
824
823
820
818
820
821
822
825
826
827
819
814
814
813
812
811
808
806
804
800
801
804
804
805
801
800
798
795
790
790
783
778
778
780
786
790
792
796
790
779
766
755
752
763
775
786
790
785
782
776
775
774
775
781
788
794
799
806
805
809
811
809
811
808
812
820
828
834
839
844
844
842
837
833
832
839
846
855
856
857
856
852
848
852
849
846
844
844
846
849
856
853
856
855
852
850
849
847
843
841
837
844
850
854
858
857
856
850
844
835
831
836
845
851
853
849
847
840
833
836
839
842
844
845
845
844
843
842
840
843
845
841
838
836
838
842
841
844
844
846
848
850
850
844
843
841
839
842
842
841
843
844
839
839
845
845
848
847
845
842
846
847
852
852
855
861
863
861
861
864
867
869
873
876
875
880
882
887
886
888
890
891
890
886
883
875
871
871
877
881
887
889
891
889
890
883
875
865
855
845
839
842
845
847
846
846
843
844
840
831
827
830
829
834
837
840
839
833
828
824
825
833
838
839
841
841
836
830
826
828
830
831
830
830
825
826
827
825
827
835
850
874
904
932
964
986
994
990
988
990
1005
1033
1072
1098
1109
1087
1029
944
852
771
714
672
651
639
634
625
615
602
594
594
595
600
606
611
617
621
634
653
676
708
729
752
769
791
803
813
815
810
810
813
813
816
813
812
811
815
822
823
824
825
822
821
818
819
815
812
816
815
811
809
803
804
799
798
798
799
799
797
795
795
793
790
786
782
776
772
767
767
770
775
779
780
778
773
766
767
764
767
763
762
758
759
768
774
783
784
782
778
775
782
790
793
793
798
803
809
814
816
817
819
820
820
822
821
823
832
836
843
842
841
839
840
842
841
835
830
835
840
843
846
847
849
847
847
845
839
841
835
831
830
830
833
842
844
845
845
842
840
837
841
839
835
830
824
826
832
837
843
842
838
835
832
832
832
834
834
839
839
834
832
830
828
832
839
840
838
833
830
833
834
836
840
837
835
835
839
841
845
842
842
839
837
836
835
832
833
830
835
838
843
843
845
845
843
841
839
839
839
848
852
853
855
855
853
854
853
857
856
861
866
870
871
867
864
867
870
871
865
861
852
853
856
860
868
870
870
869
865
859
854
850
849
844
838
835
828
825
822
816
817
819
823
826
825
823
824
825
828
829
820
812
807
807
817
824
829
831
828
823
815
813
813
811
813
816
823
824
825
820
816
815
821
830
857
891
919
942
962
968
963
957
956
964
987
1024
1063
1085
1074
1022
944
858
781
724
698
685
679
673
666
650
640
636
634
635
641
647
647
645
644
642
653
677
714
751
781
798
807
811
807
803
803
801
804
807
804
804
809
817
822
817
812
800
795
797
803
810
818
822
821
812
805
795
791
784
782
786
791
801
808
805
799
788
777
778
777
774
771
771
774
775
782
788
791
785
775
767
756
755
759
765
767
770
767
763
762
767
766
765
758
758
760
766
770
778
782
787
792
794
795
795
794
791
793
796
804
812
817
821
824
828
826
827
823
822
826
829
825
825
832
838
840
839
840
834
835
831
830
835
838
840
846
847
843
842
838
834
837
839
841
843
844
848
849
851
851
850
847
840
834
837
832
833
834
834
840
846
851
851
848
840
840
842
842
845
852
853
852
851
844
849
850
848
846
843
845
849
856
855
857
853
850
847
847
842
843
842
844
847
854
859
862
864
864
865
866
856
854
842
841
845
856
863
865
872
873
876
874
871
870
870
869
873
877
881
885
891
898
905
906
900
890
878
871
868
876
881
886
890
891
895
898
900
902
896
889
879
870
860
854
852
853
858
860
859
853
848
843
850
851
858
859
855
851
844
844
845
847
855
852
849
848
847
852
856
860
861
859
856
849
846
843
843
845
849
848
848
848
853
869
889
916
944
967
981
987
982
982
990
1009
1042
1081
1106
1108
1078
1016
943
867
806
771
747
734
721
707
689
679
675
668
669
664
668
671
673
678
683
704
733
766
793
808
815
825
829
834
841
840
835
837
833
827
824
827
826
827
831
836
844
849
848
841
830
819
816
818
824
828
827
826
829
830
828
822
810
806
802
805
807
811
813
814
815
810
802
795
787
785
789
788
788
791
792
789
787
782
779
783
783
783
784
788
796
793
791
789
790
800
809
816
820
815
816
814
820
823
828
836
841
846
845
843
845
842
846
848
849
850
854
854
860
859
863
868
870
866
860
853
853
860
861
862
864
864
865
865
868
866
862
856
856
858
860
863
868
865
865
861
856
856
856
853
854
857
857
860
858
852
845
839
838
844
854
860
864
865
866
857
856
849
851
853
858
858
857
857
855
853
851
852
853
855
858
861
861
858
853
850
846
843
846
848
855
859
862
861
860
861
855
852
857
862
864
866
865
870
877
882
887
884
878
870
863
864
871
881
894
906
907
907
895
887
873
864
862
868
877
882
889
892
896
894
895
890
885
874
868
862
857
851
854
856
859
861
861
853
842
836
830
838
843
845
851
849
847
852
849
849
848
844
840
835
836
840
841
840
843
848
848
844
841
837
836
834
830
832
833
839
850
864
878
903
930
959
978
984
975
965
969
989
1016
1054
1076
1084
1055
991
913
840
780
744
724
711
701
696
693
690
687
679
676
677
677
676
680
684
691
703
720
743
771
796
817
831
835
837
829
818
814
819
826
831
839
838
840
840
841
839
834
827
823
824
826
827
828
828
830
828
828
823
821
817
811
813
815
814
811
805
801
798
801
806
812
810
807
801
799
795
793
790
791
783
778
776
773
777
783
784
785
786
790
786
789
792
792
792
793
787
784
786
786
796
805
813
820
824
828
826
824
819
824
827
829
832
838
838
839
848
854
854
848
840
834
836
843
848
854
855
854
856
858
855
859
857
855
851
851
851
850
855
854
854
856
860
864
865
866
860
852
846
839
836
838
843
852
853
859
859
856
857
856
854
853
849
847
843
846
844
847
849
852
851
847
846
850
850
850
849
846
845
845
847
853
857
856
853
847
842
836
842
847
855
860
864
862
855
846
838
845
849
858
864
867
869
872
872
870
863
857
861
870
877
881
885
885
886
892
895
901
897
890
879
866
865
864
874
878
889
898
901
900
897
891
886
880
865
855
851
855
859
860
857
852
851
848
845
843
846
849
856
853
847
843
842
844
852
857
859
852
841
833
834
843
847
858
857
853
852
844
836
832
828
830
839
848
865
881
898
917
933
944
942
939
935
942
960
995
1034
1067
1067
1038
989
933
877
839
812
792
782
778
773
769
760
748
746
742
740
738
737
738
744
747
754
770
786
800
816
834
851
866
871
868
857
851
847
850
854
857
861
862
862
865
869
868
864
861
860
860
857
859
860
856
851
845
841
843
853
862
864
859
846
837
834
839
843
846
843
839
837
835
833
829
826
827
830
835
837
833
823
811
805
803
807
814
822
825
823
820
815
819
823
823
822
816
812
817
825
831
836
839
841
840
840
841
847
855
860
859
858
861
865
864
864
866
870
875
877
881
882
886
890
895
893
891
886
875
875
880
888
895
893
893
893
892
889
885
884
884
888
886
890
891
891
897
900
901
897
892
887
883
882
885
884
885
888
894
899
900
891
887
886
892
893
896
896
896
891
890
888
890
895
891
890
885
883
883
885
885
890
894
898
897
895
889
883
884
890
895
895
891
886
887
893
900
905
907
906
907
904
900
904
901
909
913
917
922
922
926
930
932
929
929
923
916
915
917
922
916
913
911
909
913
915
924
933
936
937
929
915
901
889
885
885
889
897
900
901
894
889
881
879
876
879
880
880
885
883
885
883
879
879
875
877
878
881
884
884
884
884
883
890
892
885
879
872
867
869
867
867
861
854
853
861
870
891
906
920
925
930
931
929
929
939
968
1014
1063
1097
1114
1104
1070
1021
967
930
899
877
858
838
819
809
802
795
795
797
790
783
772
766
765
764
770
786
805
832
851
863
872
875
873
868
857
851
852
858
869
872
876
873
872
871
870
870
867
863
864
863
867
869
870
864
857
852
852
850
845
842
836
836
844
846
847
848
845
846
844
833
831
827
822
820
819
824
828
832
833
832
828
823
819
820
822
825
825
827
823
821
819
823
825
826
829
832
839
843
845
840
839
837
839
842
848
857
863
871
871
874
875
870
868
869
877
879
880
880
878
881
883
887
889
889
889
891
892
889
890
887
890
891
893
891
891
890
888
888
888
888
880
872
869
875
883
894
893
890
884
878
878
883
885
888
887
881
876
876
882
890
890
888
883
879
880
877
874
867
871
875
882
891
892
893
888
883
877
878
879
880
882
875
876
878
883
888
887
890
890
889
885
882
879
876
881
888
896
900
896
888
883
879
886
891
899
904
906
907
909
911
910
912
911
911
912
914
917
922
924
927
934
933
922
914
904
899
898
906
912
917
920
921
927
933
926
916
902
893
887
889
891
893
894
887
880
877
871
869
872
874
875
877
876
878
877
878
878
880
882
884
881
871
863
863
865
870
873
877
879
883
883
882
872
861
852
849
858
879
904
931
957
974
984
984
976
979
991
1022
1061
1106
1140
1143
1115
1059
984
916
859
833
811
795
774
751
737
727
723
721
715
710
706
701
701
703
707
715
727
742
764
788
810
828
840
846
849
853
854
855
858
858
858
858
861
862
865
862
856
854
851
857
862
867
872
865
860
855
856
860
861
855
847
843
849
851
856
849
840
835
828
828
828
831
829
830
828
828
828
827
825
819
813
810
811
812
813
817
819
818
813
813
816
813
808
809
813
817
825
830
835
839
835
830
829
832
843
849
856
856
859
862
865
875
883
887
886
879
871
864
866
871
883
895
899
898
891
890
886
882
883
891
889
886
881
882
888
897
900
901
900
900
897
888
884
881
883
886
889
887
889
885
880
877
874
872
875
871
874
875
880
880
881
881
878
883
884
877
870
866
866
870
873
880
887
891
888
890
884
879
871
868
876
885
892
891
888
880
879
880
882
885
887
885
882
880
883
887
888
890
887
884
887
885
886
891
890
890
893
886
885
887
898
904
915
920
921
919
914
909
905
908
915
922
929
930
932
930
923
918
917
917
913
910
910
911
912
914
918
918
915
917
920
924
919
909
898
888
883
875
877
882
887
886
880
876
871
872
874
876
880
879
877
876
874
872
875
876
877
873
873
872
874
877
874
872
863
853
855
858
866
878
895
918
942
966
983
984
982
981
994
1024
1062
1104
1137
1149
1127
1076
995
912
839
784
754
732
722
706
694
685
677
671
671
672
673
673
674
669
673
677
695
720
755
787
812
832
848
860
860
852
843
841
842
850
855
865
871
871
869
867
869
862
860
857
861
865
863
856
848
846
846
852
851
855
855
852
846
839
836
826
826
825
826
831
834
836
828
826
823
828
832
830
818
805
801
805
819
823
831
826
826
826
822
820
824
828
829
833
830
826
825
829
838
845
848
849
849
850
857
863
874
879
878
877
875
875
874
875
874
873
874
881
886
892
896
898
895
890
886
878
881
891
896
895
893
883
877
878
881
887
889
891
892
890
886
882
883
886
887
889
883
886
879
880
875
875
876
879
882
886
889
889
882
882
875
870
870
875
881
885
879
876
875
872
874
872
880
883
886
890
890
890
887
885
882
884
882
882
882
885
884
884
884
884
883
879
875
880
883
886
888
885
887
886
890
891
893
896
900
902
905
905
896
894
898
903
909
917
920
924
927
928
927
923
915
910
913
918
920
921
921
919
913
902
895
895
898
903
910
917
921
922
917
913
905
902
900
889
884
872
866
867
873
878
879
880
879
881
878
875
872
870
865
863
866
873
876
875
871
870
870
880
883
882
872
858
851
858
871
877
877
870
863
869
882
901
926
947
968
983
992
993
988
985
995
1018
1054
1101
1140
1161
1147
1089
994
888
800
750
728
725
715
704
679
660
643
636
641
653
659
666
660
653
646
646
653
665
686
711
742
773
800
822
834
839
834
834
834
841
847
858
867
867
867
860
854
849
848
851
858
861
863
863
858
852
851
860
861
855
837
827
822
833
837
843
848
848
847
842
833
827
819
817
815
815
814
817
817
816
818
816
818
814
813
812
810
806
802
795
792
790
800
815
823
825
822
806
798
798
807
818
825
833
840
847
849
849
843
847
839
842
845
854
851
858
860
863
869
875
881
882
875
865
862
858
867
874
879
888
886
884
881
875
869
871
864
866
872
873
880
883
879
876
877
879
875
872
863
861
860
870
872
870
871
874
879
875
864
858
855
856
861
866
866
867
868
872
876
877
872
869
869
868
868
869
866
867
872
879
882
879
877
865
859
862
865
874
878
882
885
879
870
867
864
874
876
877
874
875
873
879
887
891
892
896
894
889
885
887
892
894
906
913
914
912
914
913
911
910
912
910
910
914
912
911
901
892
888
891
899
904
911
909
911
912
909
907
901
894
887
872
863
861
863
868
878
875
873
869
867
866
865
868
867
865
862
864
863
863
860
863
863
861
862
860
860
856
857
862
864
862
859
858
857
851
854
861
881
900
923
945
967
981
988
991
993
998
1013
1041
1077
1110
1132
1130
1090
1020
929
841
770
719
689
670
663
655
656
654
653
647
637
631
632
635
639
645
648
656
674
701
726
754
776
796
810
826
836
844
849
852
853
848
847
844
849
857
864
867
864
857
851
851
852
854
861
860
858
855
850
846
844
845
843
844
838
839
835
832
827
827
827
830
832
828
825
817
810
812
813
815
812
814
809
812
815
817
815
815
814
811
811
810
811
813
818
821
823
823
824
821
817
816
819
829
841
852
862
863
865
861
857
853
857
866
871
876
873
870
870
871
879
887
885
882
877
873
883
888
890
889
879
875
872
875
877
878
877
880
885
889
892
890
885
886
887
882
877
873
864
858
857
862
876
888
888
885
882
875
869
868
865
867
869
871
872
871
868
869
871
871
880
876
876
872
872
874
877
879
877
876
874
874
878
878
875
872
868
870
870
882
886
890
890
885
876
872
869
867
867
873
876
885
887
892
896
895
891
887
888
893
902
912
919
922
924
919
915
911
913
917
920
916
912
906
905
908
908
906
902
898
903
901
902
899
898
903
902
908
905
898
887
881
878
881
880
869
856
848
851
864
878
882
875
866
858
855
857
857
860
860
864
869
868
869
862
854
851
851
850
852
858
861
863
867
865
858
854
855
861
875
896
927
960
985
999
1002
993
997
1008
1035
1070
1105
1124
1119
1084
1010
915
826
750
697
675
657
650
644
636
631
630
633
638
636
633
626
625
633
643
651
662
677
706
747
777
803
820
831
839
839
834
832
833
839
841
847
846
852
856
859
858
858
857
852
848
845
844
846
847
849
848
846
847
840
840
838
837
831
828
827
829
831
825
821
818
817
820
824
821
815
817
814
808
817
813
810
807
807
807
806
802
797
801
803
807
809
812
814
814
816
818
817
818
817
821
830
837
844
847
845
847
849
850
855
858
858
855
858
861
871
875
876
879
878
878
879
878
875
872
871
872
882
884
882
882
879
871
876
880
881
880
875
879
885
881
870
864
867
874
882
876
873
871
870
878
879
877
879
879
876
872
870
865
865
867
867
871
880
884
879
871
864
860
866
868
874
877
875
875
879
879
878
875
874
876
878
882
884
886
878
873
872
874
880
886
889
888
887
884
884
885
887
890
892
891
891
890
888
890
893
895
900
901
909
917
922
926
929
929
926
922
920
920
917
915
920
928
933
934
932
922
914
910
909
911
916
920
921
919
916
923
933
