857
857
857
857
857
857
857
861
861
858
856
854
849
847
840
830
822
816
811
805
807
811
810
812
814
812
812
811
811
811
808
808
801
801
805
810
813
813
809
804
804
801
802
802
803
803
802
804
803
806
806
808
811
808
814
817
825
844
873
910
945
969
977
976
978
984
998
1021
1046
1069
1073
1055
996
909
808
724
666
640
628
622
614
600
590
590
596
609
612
615
619
627
634
644
664
687
710
735
757
778
789
796
794
790
790
796
805
812
804
788
778
782
805
827
832
825
817
810
808
816
821
825
822
815
807
801
803
803
799
796
789
787
789
787
783
784
783
784
791
798
797
794
782
779
783
781
778
771
772
782
794
794
789
783
774
760
745
730
725
727
738
749
757
769
782
793
792
781
770
764
766
772
781
790
797
806
811
816
817
819
813
810
810
816
826
832
840
847
849
846
846
841
831
823
817
816
829
843
847
854
853
843
840
833
828
833
836
837
834
832
840
841
844
838
835
835
839
841
830
817
812
814
823
836
839
840
839
838
839
838
837
839
836
827
816
809
816
829
837
843
844
832
820
810
812
820
833
846
854
850
841
829
816
815
819
829
837
843
839
836
834
833
828
829
829
827
826
831
834
838
846
851
848
849
839
832
830
828
836
844
842
840
835
841
852
860
857
850
849
853
860
872
878
884
886
884
875
868
858
858
857
860
861
856
854
849
864
879
889
894
890
876
861
844
838
842
848
856
853
850
844
834
822
814
809
807
805
810
815
824
834
838
838
833
828
822
820
825
822
824
823
822
827
831
833
842
848
851
845
830
814
812
825
842
854
854
843
834
822
825
842
867
895
926
942
950
950
950
959
987
1031
1080
1109
1106
1066
990
897
813
757
721
700
684
660
634
618
602
595
594
597
604
605
605
608
612
622
637
649
655
663
683
707
735
763
783
795
801
803
801
796
790
792
803
818
830
830
825
816
808
804
806
810
814
819
823
826
822
820
812
811
810
811
815
814
809
803
798
794
790
787
783
787
790
793
793
792
792
790
786
775
765
762
766
776
787
792
791
776
760
749
753
771
784
791
789
780
771
768
766
772
783
781
783
783
787
787
791
799
809
822
830
828
824
816
815
822
829
830
835
834
835
842
846
847
840
837
844
852
858
858
853
844
837
836
835
837
841
850
858
861
859
854
851
850
850
853
856
853
843
832
829
834
844
851
849
840
838
834
837
834
826
824
827
833
840
844
849
851
848
845
845
844
838
834
828
835
845
850
850
841
835
833
836
843
843
837
832
833
836
847
849
856
855
854
848
840
839
845
853
857
853
852
852
853
851
844
843
844
850
854
858
854
845
840
835
838
842
849
851
850
853
853
852
853
857
860
866
869
873
873
877
880
880
882
882
884
883
880
874
870
863
861
867
881
890
898
893
887
880
881
884
875
860
845
839
842
847
851
857
855
848
845
843
839
837
831
829
828
827
826
831
837
843
845
839
832
826
818
819
824
829
829
825
824
829
837
836
839
833
826
822
821
823
819
817
821
841
871
902
933
954
959
953
944
950
978
1023
1073
1108
1111
1076
1004
917
829
757
703
670
651
644
638
635
627
615
607
600
602
607
606
607
611
620
630
643
658
673
692
718
744
767
787
800
802
801
798
794
799
803
812
821
822
826
830
828
816
799
788
784
795
807
819
825
833
833
829
823
808
794
787
789
792
795
793
793
792
792
783
776
767
763
763
765
770
776
780
784
785
779
771
767
760
756
752
752
753
763
776
782
782
784
778
771
766
761
757
760
762
769
775
784
790
791
799
799
805
811
813
817
820
821
811
798
792
810
829
847
856
855
851
840
835
834
837
837
833
830
831
834
838
837
836
831
835
831
830
829
832
826
818
808
818
834
851
861
861
857
844
832
821
816
813
820
823
825
823
820
815
817
822
834
839
841
839
834
830
821
819
825
834
843
845
839
836
833
830
829
826
823
819
815
819
826
832
835
841
841
843
842
841
836
837
837
830
827
827
834
844
857
868
869
865
854
842
833
831
835
837
842
841
839
834
833
835
837
844
844
853
857
854
850
851
854
864
865
866
871
875
875
875
872
872
878
881
881
876
872
863
856
849
853
860
874
884
892
899
896
885
869
842
832
832
838
845
853
852
850
845
846
841
831
818
807
810
814
818
823
828
831
833
834
836
840
850
855
852
850
845
844
843
844
836
837
839
837
837
829
821
818
814
814
821
836
856
879
905
932
960
980
987
986
981
986
996
1026
1059
1082
1083
1051
989
903
817
741
690
655
636
627
621
620
622
620
614
606
601
597
595
594
598
605
626
649
672
700
731
753
777
789
797
796
799
801
806
813
816
819
810
799
792
800
810
818
818
819
814
809
805
802
799
801
800
801
799
796
796
796
794
791
787
786
782
782
779
780
778
775
774
771
767
765
764
760
760
761
765
765
761
755
751
746
751
758
762
763
764
762
761
762
761
764
768
774
778
781
785
783
784
786
790
795
802
806
809
815
821
824
824
820
815
815
822
826
831
834
835
835
836
835
835
830
832
834
833
835
834
829
830
832
830
829
831
828
831
829
830
831
830
826
824
821
823
821
820
819
821
823
824
825
826
827
829
829
824
821
826
828
832
830
823
820
818
814
816
819
815
815
815
814
817
813
815
816
817
821
819
822
820
822
820
825
825
826
827
824
818
817
815
811
808
806
805
808
813
815
816
814
816
814
813
817
819
820
825
827
832
834
834
832
834
831
827
828
831
835
832
833
834
832
834
837
842
852
859
864
865
867
862
857
853
847
845
843
844
849
856
863
863
866
863
862
856
853
850
845
841
837
834
832
830
831
829
831
830
829
827
825
822
824
825
823
819
815
813
811
811
809
809
812
812
812
814
815
812
811
803
799
791
789
791
798
805
806
809
808
813
812
824
842
863
892
921
952
976
987
986
983
984
992
1011
1038
1065
1080
1079
1052
1000
925
843
768
709
671
651
643
636
630
624
618
615
614
612
607
607
605
609
615
619
629
645
667
694
723
753
775
794
807
811
806
808
805
806
813
819
823
826
828
828
825
822
818
818
816
816
818
819
821
818
816
811
809
804
803
805
804
801
801
799
798
802
798
793
790
783
781
778
776
776
777
775
777
774
772
774
770
770
766
763
762
759
760
762
764
767
770
769
770
771
770
774
769
777
781
787
792
793
797
798
798
800
805
808
810
813
818
821
826
826
829
834
835
835
836
837
838
839
844
844
849
850
849
850
851
848
847
845
846
846
846
848
848
853
851
853
848
847
848
847
846
847
844
848
850
850
847
849
847
844
843
846
844
843
845
846
846
850
850
846
847
840
842
841
843
840
848
847
852
851
848
850
849
847
846
845
845
846
848
851
853
853
850
847
847
848
848
846
846
849
850
849
854
854
853
854
852
852
850
851
846
849
853
857
857
859
856
856
861
859
859
860
860
865
865
871
874
878
880
878
878
880
883
888
890
893
892
892
894
895
886
884
879
877
879
882
890
895
901
902
903
899
888
882
877
872
868
867
863
860
861
858
859
861
859
853
853
852
852
851
850
849
854
856
855
856
854
855
855
855
854
855
855
856
859
856
859
859
859
857
852
849
845
843
845
856
875
902
933
960
983
987
987
981
972
978
988
1015
1050
1078
1093
1079
1031
957
878
806
755
722
701
687
680
670
663
658
654
653
651
649
650
650
647
654
663
674
693
724
753
784
811
830
841
848
847
847
852
854
856
861
858
860
857
854
852
852
847
848
845
850
849
851
851
847
843
841
835
831
829
829
826
829
829
829
829
822
820
817
815
810
807
805
801
799
795
792
788
784
779
775
769
768
762
761
762
768
769
777
778
783
787
792
799
804
809
813
820
823
827
835
834
839
842
842
843
847
843
844
848
852
856
856
859
857
859
856
857
856
856
859
860
867
865
868
868
869
871
868
866
862
863
863
863
865
866
870
871
867
865
864
860
859
855
855
855
857
859
859
859
859
857
852
853
853
847
850
851
852
853
851
853
849
852
853
853
853
851
853
856
855
856
857
857
858
855
851
851
850
849
850
853
855
860
861
858
857
856
853
852
853
851
855
854
857
853
861
857
859
857
857
856
856
857
861
864
867
869
872
871
876
874
874
876
876
879
883
890
894
898
899
895
892
886
881
878
874
874
880
888
894
898
900
896
889
882
872
865
859
856
858
857
859
856
858
851
851
844
844
840
843
842
842
841
845
850
850
851
850
847
844
841
842
839
837
838
839
841
843
847
846
844
846
847
842
837
836
836
840
844
855
871
894
920
945
975
995
1002
997
992
994
1006
1031
1060
1091
1105
1095
1053
980
891
802
733
687
663
646
641
631
624
619
614
613
613
612
616
619
622
628
636
648
668
691
723
752
776
798
815
825
828
830
829
831
833
835
834
834
835
838
837
837
836
837
833
835
836
832
827
828
827
827
827
823
824
823
821
824
818
816
813
809
808
804
805
803
805
805
802
796
796
791
786
783
785
784
786
788
787
791
788
787
788
788
786
784
780
785
789
792
797
797
803
804
808
808
811
811
815
819
823
828
834
839
838
838
841
844
845
850
850
851
853
853
855
857
859
859
859
860
858
859
855
855
859
858
859
860
860
863
862
856
862
860
858
856
854
854
858
857
862
861
862
860
857
853
856
854
853
853
854
857
855
854
857
852
849
852
853
853
856
858
857
860
859
856
856
855
855
856
857
855
861
860
862
863
860
862
860
859
858
858
859
860
864
864
865
868
867
866
865
865
864
862
860
865
867
867
869
872
873
871
869
870
869
874
876
877
881
885
889
892
893
893
892
890
892
894
894
898
903
904
902
902
895
891
887
885
879
881
882
885
887
890
894
890
886
880
872
864
857
855
851
849
847
847
848
848
848
843
844
842
839
835
833
834
837
836
840
843
840
840
839
839
839
837
836
840
841
841
846
848
848
851
847
843
835
836
831
834
847
869
894
928
958
985
997
999
996
997
1004
1030
1061
1091
1107
1092
1043
967
879
797
736
694
671
661
658
654
650
648
644
642
639
635
635
637
640
645
654
671
692
722
750
776
797
813
821
820
823
822
822
828
832
832
837
838
838
838
835
835
827
831
833
833
834
836
835
834
829
829
825
824
823
822
820
819
817
820
820
816
813
810
808
806
805
801
799
798
803
801
800
800
796
795
792
788
787
784
786
787
787
789
791
792
792
790
789
789
793
795
797
803
805
808
814
820
822
826
831
833
833
836
840
842
846
850
852
857
854
854
857
859
859
863
862
865
870
871
871
871
870
872
870
871
872
873
872
875
876
877
877
874
872
872
872
870
871
872
873
876
876
876
876
872
871
869
864
864
865
867
868
867
867
866
868
862
863
856
855
852
849
850
849
852
853
855
857
857
854
851
850
849
849
851
850
850
849
851
852
854
853
851
849
848
846
847
848
848
849
850
852
850
849
847
848
845
845
844
846
846
848
853
858
861
861
862
862
860
863
868
865
872
875
880
881
882
888
890
889
886
882
878
877
880
875
875
880
881
887
886
887
890
890
888
881
880
874
869
867
863
856
851
852
846
841
843
843
847
849
848
851
847
843
843
846
843
842
840
841
844
840
847
847
845
845
844
842
836
838
838
841
842
845
846
849
847
845
838
839
840
841
853
873
899
928
963
985
994
999
991
986
992
1010
1041
1073
1098
1104
1079
1017
938
850
774
721
685
665
655
642
632
627
624
620
622
621
621
622
623
627
638
656
682
713
745
773
793
810
819
822
822
820
821
823
829
829
834
835
833
830
825
824
828
826
825
824
829
830
834
829
828
820
816
817
814
811
810
812
812
811
809
803
807
802
800
799
793
791
788
789
787
787
789
787
786
786
782
783
778
778
777
780
781
784
786
792
794
793
793
798
799
798
800
805
806
814
818
823
827
832
830
832
833
836
837
840
845
845
847
846
844
845
847
847
843
846
849
849
852
852
855
854
855
855
855
854
850
847
847
849
851
853
852
851
854
852
852
847
848
845
843
844
847
847
851
849
849
848
845
844
842
840
841
839
842
846
845
847
846
846
844
845
843
849
844
844
847
846
844
849
845
845
849
847
847
847
847
849
853
852
856
855
853
851
848
846
847
847
849
849
848
852
857
854
856
857
856
856
855
856
853
857
860
865
867
870
871
872
869
871
871
872
876
881
887
888
889
883
881
878
873
871
869
873
875
880
885
887
888
887
881
874
867
863
858
855
856
856
851
850
850
851
848
846
845
843
841
841
840
842
844
847
846
846
846
843
839
840
839
838
839
842
843
842
844
846
847
843
840
839
836
834
835
833
835
840
850
871
895
924
949
972
981
980
975
977
985
1013
1043
1074
1088
1068
1017
941
858
792
742
716
703
696
686
679
667
659
655
651
648
647
645
646
650
658
673
693
719
743
770
795
809
817
823
822
821
823
829
834
838
837
835
834
836
838
840
839
835
835
834
836
833
832
834
830
832
830
829
829
828
827
830
827
821
816
811
807
810
810
810
810
810
808
805
804
802
795
795
791
792
788
789
787
787
787
790
792
792
791
792
791
790
789
791
794
800
803
807
812
816
818
818
817
823
825
828
832
838
840
846
848
850
849
850
853
850
850
849
850
856
859
858
863
861
859
857
854
855
856
859
858
861
862
864
863
864
862
860
855
853
855
854
856
858
857
857
858
857
856
852
851
847
845
847
845
846
847
847
851
856
861
860
855
851
841
835
841
848
851
857
853
848
840
837
836
837
835
838
837
841
842
847
847
845
846
843
839
844
842
842
845
847
851
853
854
853
851
850
850
854
851
858
857
863
871
870
874
875
877
875
875
872
869
868
871
872
874
877
871
869
871
872
877
881
878
879
874
874
866
865
858
845
840
839
838
835
836
837
837
836
834
828
831
832
831
828
825
826
827
830
828
833
829
832
830
831
827
826
824
822
817
816
817
820
821
823
824
825
821
819
816
811
805
801
800
805
811
828
847
872
892
902
906
907
909
923
950
988
1029
1062
1070
1059
1021
962
894
824
768
729
705
691
685
677
667
652
643
638
634
631
629
636
637
645
655
671
691
717
743
764
782
795
799
802
799
800
802
804
806
808
808
808
810
806
807
808
811
812
810
809
812
809
808
805
800
798
794
796
794
795
795
796
793
788
787
787
789
787
780
776
771
769
773
771
774
775
775
775
773
768
764
763
765
766
765
765
768
771
771
772
769
769
765
766
770
772
777
782
787
787
789
792
792
796
797
797
803
813
814
820
825
828
831
827
823
820
816
819
821
822
824
827
832
833
833
833
827
825
826
822
826
827
827
829
832
835
837
833
825
819
815
811
811
817
825
830
830
825
818
814
813
811
817
821
824
824
823
822
816
815
811
808
811
814
816
819
819
819
819
816
816
816
812
809
808
810
812
811
815
816
813
813
812
812
804
801
798
794
793
799
809
816
820
817
812
806
801
802
801
805
803
801
799
799
805
807
809
810
810
806
802
802
799
795
798
803
804
805
804
804
804
809
809
812
811
811
810
810
812
812
821
819
821
827
830
833
833
835
835
835
831
829
825
822
822
819
822
826
832
836
837
836
830
820
812
806
802
802
798
793
792
791
787
785
786
784
786
785
784
788
789
787
782
779
775
775
776
786
788
791
783
784
779
780
778
777
779
783
787
793
794
788
782
775
767
759
758
762
776
799
832
861
887
900
912
911
907
908
914
938
970
1004
1032
1034
1016
955
871
788
712
655
618
591
581
575
576
576
582
581
583
581
578
572
572
577
586
606
633
661
687
709
722
738
745
747
747
749
748
754
761
766
771
771
770
766
763
764
759
755
748
751
749
757
760
763
763
755
752
752
747
746
747
748
751
748
742
738
736
735
733
731
728
724
719
719
716
719
724
721
724
725
725
717
716
714
715
717
720
725
726
725
723
724
722
723
721
720
723
729
739
749
756
761
761
758
752
745
747
753
761
773
780
783
789
790
789
792
791
792
789
787
783
781
782
783
786
789
787
787
789
788
787
787
784
785
789
791
794
792
795
793
789
792
787
784
782
789
791
787
789
791
789
783
777
772
775
775
776
783
786
789
788
786
780
777
774
776
777
778
783
783
788
784
786
787
791
794
794
788
784
776
773
773
778
779
783
789
785
787
791
790
791
788
786
784
786
785
785
788
787
787
789
790
792
789
787
788
787
785
790
789
794
794
793
792
792
792
790
792
797
798
802
799
797
792
789
788
792
795
801
805
807
809
814
813
813
816
817
