820
820
823
819
817
813
810
804
800
795
793
790
788
789
794
794
795
794
788
789
789
792
791
792
795
802
809
807
813
812
812
816
820
824
826
834
839
843
847
850
852
854
858
860
864
866
869
871
872
875
880
879
880
878
877
877
874
875
878
881
883
883
887
887
886
886
882
878
880
880
879
879
881
879
886
885
885
880
877
876
871
874
874
874
876
876
877
876
874
873
871
870
868
867
868
872
872
872
872
873
874
874
874
872
871
869
869
869
873
874
876
879
881
876
876
874
870
871
871
873
874
873
879
877
878
879
876
877
877
874
877
880
878
880
882
878
882
882
881
879
880
878
877
880
881
882
886
884
882
883
883
886
885
886
889
894
898
901
907
907
908
906
905
907
911
914
920
931
934
932
933
929
924
919
911
908
908
911
915
925
928
932
934
933
924
914
908
899
891
890
881
884
883
881
877
875
873
870
869
869
867
865
869
868
868
870
869
869
869
870
868
865
862
859
862
862
867
867
870
871
873
872
868
870
866
862
855
855
853
857
869
891
922
960
995
1022
1033
1032
1027
1030
1049
1090
1132
1174
1198
1188
1132
1043
933
831
747
692
668
652
638
632
616
602
594
588
585
584
585
591
595
601
609
621
637
658
688
718
748
775
792
814
825
832
836
839
842
842
843
847
847
845
850
850
853
856
856
853
857
855
855
851
848
848
847
843
845
845
841
841
840
835
833
827
823
820
818
817
817
817
815
813
810
806
805
805
802
797
795
797
796
797
798
798
799
796
794
790
788
793
795
797
803
806
810
815
817
816
819
820
825
828
832
838
844
849
854
860
860
864
861
867
868
866
868
873
875
876
882
886
882
880
880
878
878
877
880
876
883
883
883
885
885
883
884
882
879
877
875
880
878
881
883
881
878
876
875
870
869
865
865
868
868
870
875
873
872
872
870
869
864
865
864
862
864
868
870
873
871
873
873
870
872
867
869
874
871
873
874
878
876
873
876
874
870
869
870
875
876
879
881
879
880
879
874
871
872
866
869
871
872
875
880
879
883
879
875
870
873
870
873
878
881
885
889
894
894
896
895
897
899
898
901
900
904
915
921
926
932
928
928
923
916
910
907
902
903
902
902
906
912
917
922
921
918
912
901
896
889
886
880
878
874
870
867
863
858
855
856
855
858
859
863
865
865
861
859
856
856
854
853
852
852
854
857
856
856
860
852
849
848
848
851
855
856
858
859
855
851
852
852
863
877
905
939
971
997
1017
1017
1014
1012
1018
1042
1078
1125
1158
1166
1142
1075
977
871
775
704
661
638
623
613
600
589
578
571
568
571
579
583
581
583
591
596
609
634
664
699
736
764
790
807
817
823
823
826
827
831
836
839
845
849
847
847
847
843
845
844
845
845
842
840
841
842
842
840
840
835
829
830
824
823
820
819
820
815
814
812
810
805
804
800
799
796
798
799
800
799
799
794
791
792
791
784
785
783
785
792
793
797
799
802
804
807
806
812
812
815
817
829
834
836
845
847
846
851
851
855
855
856
858
859
863
867
867
871
872
871
871
872
869
868
871
872
874
876
880
880
880
873
875
871
871
871
871
873
876
879
874
875
872
872
869
869
868
866
867
869
869
868
867
866
865
865
862
860
859
860
861
862
865
864
865
865
866
867
865
863
861
862
863
863
862
863
865
867
867
865
863
861
861
863
865
867
868
870
871
873
872
868
868
865
862
863
867
868
871
870
872
869
871
869
867
866
866
867
866
868
872
873
873
874
873
871
873
874
872
876
877
881
879
887
890
892
892
893
895
895
897
903
911
917
920
921
917
912
908
899
896
895
895
900
908
913
913
920
917
909
900
889
883
873
874
867
866
865
864
862
863
861
857
856
851
849
848
847
849
852
852
855
856
853
852
852
848
845
846
846
848
850
848
852
855
852
850
850
847
844
841
838
835
839
848
868
893
923
960
995
1019
1030
1029
1022
1021
1035
1064
1106
1144
1162
1156
1100
1007
895
788
703
650
623
608
600
594
587
578
572
566
564
566
568
574
580
593
608
627
661
693
729
759
783
799
809
814
816
821
823
825
830
831
833
829
831
827
830
830
833
831
834
833
832
832
825
821
819
818
815
818
820
816
816
816
813
811
807
805
800
796
797
792
792
791
792
791
788
785
786
780
779
777
774
774
774
777
780
781
783
784
783
781
782
785
788
793
799
805
808
816
819
825
827
827
832
834
838
842
846
849
851
854
860
857
859
862
860
859
865
864
868
869
872
872
873
873
868
864
864
865
865
865
869
869
873
870
869
866
867
863
860
857
860
860
863
863
864
866
867
863
861
858
857
855
854
854
855
857
859
860
858
862
860
859
858
859
859
857
857
859
863
863
864
861
860
858
858
859
857
855
857
859
863
867
867
867
865
864
862
862
862
864
865
866
871
872
871
871
871
867
864
864
863
865
864
865
868
869
869
871
870
866
873
875
877
883
884
889
889
896
896
897
895
893
896
903
909
915
920
922
924
922
918
909
901
896
893
892
895
905
912
919
924
924
917
910
900
891
882
876
871
868
865
865
866
864
861
859
855
853
850
850
851
852
854
854
855
856
855
854
851
850
849
848
848
847
849
850
854
855
854
851
848
850
846
849
843
843
842
843
843
851
862
885
911
939
970
995
1008
1009
1006
1008
1023
1056
1102
1146
1170
1166
1115
1021
904
792
705
651
623
608
599
591
582
572
565
558
559
560
563
568
572
583
595
615
639
670
705
740
769
791
809
817
823
827
828
833
834
836
836
834
836
837
838
842
842
847
846
843
843
841
839
834
829
831
833
833
834
833
829
827
822
821
815
809
807
804
803
802
801
801
801
799
797
796
789
789
783
783
786
786
787
786
787
787
783
783
778
781
783
783
786
792
795
795
801
800
803
805
808
815
822
827
833
840
843
848
846
849
850
847
853
854
856
856
854
861
865
869
869
869
869
866
863
863
866
865
865
870
868
869
872
872
868
867
863
864
863
864
864
862
866
867
866
864
862
860
857
855
855
855
857
858
857
857
858
858
856
854
853
853
850
851
854
858
859
858
854
855
859
856
852
854
853
857
856
860
855
859
857
857
856
860
859
855
852
856
859
858
862
862
864
863
860
859
857
854
855
855
859
861
858
861
859
863
857
859
861
861
858
858
860
868
870
875
876
878
880
880
880
876
880
880
886
893
899
910
912
911
909
903
899
892
888
884
883
885
890
896
900
906
906
903
895
884
872
865
860
858
855
855
851
849
846
841
839
837
837
841
839
843
841
843
842
839
839
840
836
828
831
833
834
835
835
839
839
837
836
835
835
834
833
832
832
832
833
834
830
831
836
855
883
913
947
976
994
998
993
999
1019
1054
1096
1139
1159
1146
1094
1001
892
783
697
645
612
593
583
573
563
556
548
545
549
553
557
562
569
576
589
609
635
669
705
738
767
788
802
811
812
812
814
814
816
816
813
818
820
826
829
829
829
825
824
823
819
821
819
816
820
820
818
819
819
817
813
810
809
807
801
798
793
792
790
790
787
787
784
781
778
775
773
772
772
773
769
771
771
767
766
764
762
765
763
765
767
770
774
778
777
780
780
786
784
791
794
800
803
811
817
821
824
825
829
826
828
829
830
829
834
836
840
844
846
846
847
846
843
845
841
841
844
842
842
852
850
849
847
845
843
843
839
841
841
843
846
849
849
848
843
838
836
835
834
834
838
836
839
840
838
837
838
834
833
833
831
833
833
837
837
837
837
838
836
834
833
832
832
832
836
836
838
844
841
842
837
837
834
833
834
837
838
838
841
842
839
840
841
841
840
840
836
837
841
840
842
844
846
841
842
841
837
838
840
838
840
842
845
848
850
853
852
852
856
856
854
857
859
860
865
870
876
878
885
889
892
892
888
881
879
875
872
871
871
875
882
887
891
886
880
870
864
856
851
846
845
842
838
836
829
826
821
820
819
824
824
826
823
822
827
823
819
817
815
815
815
818
820
822
821
820
822
818
816
816
814
813
815
815
819
820
816
816
814
808
813
826
847
881
920
953
981
998
998
987
989
1003
1034
1074
1112
1126
1103
1025
914
794
684
608
564
543
533
532
528
531
533
533
535
535
539
544
555
568
592
619
651
686
717
744
762
777
784
788
788
790
790
792
794
795
798
802
804
807
807
807
803
800
799
797
798
793
793
794
795
794
791
789
786
782
779
775
770
768
763
762
764
765
761
757
755
753
752
750
746
744
745
745
746
744
745
741
741
740
738
736
738
742
745
749
753
754
757
762
766
767
767
772
777
783
787
795
800
803
807
807
811
811
807
809
812
812
815
819
822
826
825
824
823
820
819
822
819
820
821
823
828
828
827
826
825
824
819
820
816
813
813
814
816
818
819
819
818
817
815
814
810
812
812
814
811
814
812
814
811
811
811
808
807
806
808
811
813
813
812
811
812
812
812
808
807
806
810
812
813
817
817
815
815
813
812
810
810
809
812
815
815
817
815
814
811
808
810
812
811
808
814
816
816
819
816
816
815
818
816
816
819
824
827
832
836
841
841
839
840
840
839
843
848
858
865
874
874
873
867
860
854
846
842
836
839
845
855
864
870
870
867
857
845
833
823
821
812
810
809
813
811
809
806
805
803
796
797
799
799
801
798
800
799
803
799
797
799
798
796
799
798
797
798
801
803
805
804
801
804
797
796
797
791
791
790
790
796
808
827
851
884
909
937
956
961
958
962
974
1006
1056
1099
1120
1105
1041
937
813
703
615
568
546
535
534
531
525
520
517
516
516
517
519
523
531
540
555
569
593
621
651
682
708
727
744
760
768
776
780
780
781
783
784
788
785
789
790
789
795
798
799
799
798
794
794
790
788
785
785
782
783
782
784
779
778
781
776
775
770
763
761
762
762
762
760
760
757
755
750
748
746
743
744
743
743
744
745
742
741
742
740
739
738
736
738
740
748
749
749
754
758
761
763
764
767
771
773
779
788
788
793
799
803
811
807
809
811
811
809
809
814
819
821
825
828
829
824
826
825
823
826
829
827
829
829
829
830
828
828
826
824
825
825
828
828
826
828
828
827
823
821
821
815
815
814
816
818
816
819
816
817
816
814
812
811
810
809
808
814
817
816
816
815
817
814
809
808
810
810
810
812
815
816
817
815
815
810
812
806
810
809
809
815
816
818
819
816
814
813
811
811
811
811
816
816
816
817
816
820
817
815
811
811
811
813
816
818
821
823
828
830
831
832
831
831
832
833
833
836
841
847
853
860
864
864
862
856
849
841
839
834
837
840
846
851
857
860
857
853
842
836
830
825
820
817
812
812
809
804
803
797
793
793
796
796
796
796
796
793
795
791
787
787
788
786
790
792
795
795
797
796
796
792
791
794
790
791
792
796
796
799
796
794
791
792
797
814
839
876
913
949
967
977
974
974
987
1015
1052
1088
1104
1081
1018
918
809
710
642
598
577
566
556
546
537
531
524
524
530
532
531
533
536
545
553
564
587
617
647
680
709
732
749
762
767
769
771
770
773
777
781
784
786
787
789
792
789
792
789
787
785
783
784
783
786
784
785
783
782
775
769
762
761
758
758
763
758
759
757
756
753
749
745
743
740
741
739
738
737
737
738
735
735
732
731
729
729
730
734
735
735
739
744
746
749
750
752
753
756
763
766
770
777
780
788
791
792
793
794
795
799
798
800
805
805
809
812
813
816
817
813
817
815
814
817
819
818
820
821
821
822
819
818
817
816
816
815
820
819
820
822
818
819
818
814
810
810
807
808
809
811
812
814
816
813
811
808
807
807
806
809
805
809
810
811
809
808
808
811
809
809
810
809
810
811
815
814
816
815
813
811
810
808
813
810
813
815
816
816
820
817
816
815
814
815
816
818
818
819
820
822
823
822
819
819
815
814
819
822
827
830
833
839
841
843
843
845
846
846
848
853
858
863
872
879
882
881
878
872
865
857
851
850
855
860
870
878
881
882
875
865
852
847
842
837
833
833
833
830
827
828
817
818
818
816
815
816
819
816
818
824
823
822
816
815
813
814
813
816
817
816
822
821
822
822
822
822
820
815
814
810
814
821
831
851
878
914
949
975
986
986
982
989
1016
1054
1100
1134
1142
1110
1035
925
811
712
641
603
585
576
570
565
557
549
546
546
545
543
546
555
561
569
584
603
621
651
683
711
738
762
776
788
796
799
804
808
813
812
817
816
818
817
817
818
817
817
819
822
822
824
821
818
815
812
810
808
811
808
807
806
802
801
795
795
792
787
785
784
782
781
783
780
780
775
773
771
769
767
766
764
766
767
771
772
772
770
771
770
770
770
774
776
780
786
790
795
798
800
800
803
807
808
812
816
818
825
827
831
835
837
840
839
839
840
842
843
845
848
850
848
848
851
850
847
849
847
843
847
848
849
850
850
850
850
849
848
845
844
844
845
845
846
849
848
848
846
845
843
840
837
840
838
837
840
841
844
842
842
841
840
839
839
838
838
840
843
844
847
845
844
843
843
842
840
839
842
843
842
844
846
845
843
843
842
840
842
840
842
843
844
846
849
847
849
848
847
845
844
843
845
845
846
848
848
850
851
848
845
845
849
850
852
857
862
865
871
877
877
879
877
883
883
884
892
899
907
914
911
907
906
896
893
887
882
885
887
896
903
908
911
915
907
900
890
878
868
869
867
867
864
861
862
859
855
849
849
847
845
846
845
847
850
851
853
850
849
848
849
849
848
846
845
846
848
853
851
852
849
850
851
848
850
848
845
843
845
846
856
870
895
926
957
984
1005
1013
1009
1008
1014
1035
1072
1117
1155
1172
1155
1096
998
884
779
701
649
631
619
611
601
593
581
576
574
577
579
586
589
594
604
613
629
645
673
702
734
765
788
810
823
831
837
837
839
840
845
844
848
848
846
851
853
859
857
856
856
853
852
849
849
847
848
849
850
845
845
846
842
838
834
830
826
825
824
823
824
824
821
819
816
813
809
807
806
802
804
804
805
807
806
803
805
805
801
802
801
801
800
801
804
807
813
814
814
816
817
819
821
825
830
836
841
848
853
852
860
860
861
862
863
863
867
871
875
878
881
882
880
880
880
882
882
881
881
885
884
886
886
892
891
890
887
887
884
884
883
885
888
888
889
886
884
882
882
879
880
881
880
880
881
882
880
877
877
872
874
876
877
873
874
876
875
878
878
879
879
876
876
874
876
877
877
878
877
877
878
878
881
880
881
879
877
877
876
877
879
880
881
882
881
881
881
878
878
879
878
883
884
884
882
885
884
881
880
882
879
878
881
879
881
886
889
894
894
895
894
894
894
894
895
902
904
907
910
913
914
919
920
926
928
929
934
930
927
922
918
911
913
909
913
914
920
925
930
930
926
922
915
907
899
891
887
881
880
875
871
870
869
868
868
868
869
867
865
864
861
861
858
860
862
862
863
862
863
863
863
860
862
858
860
861
860
862
866
867
871
863
862
856
852
853
853
858
875
899
929
962
992
1018
1036
1036
1029
1027
1038
1065
1106
1146
1171
1169
1124
1039
923
813
720
655
623
610
605
602
598
586
579
572
574
573
575
576
578
588
592
607
626
650
677
707
741
768
788
806
817
824
829
834
838
844
847
846
846
845
843
844
842
845
845
848
849
848
844
842
838
836
836
833
835
833
835
836
838
831
828
825
820
811
808
805
807
807
804
804
810
805
802
799
791
793
791
788
792
793
794
798
795
794
794
795
795
790
791
797
799
803
808
813
819
821
824
826
828
830
836
840
843
849
856
858
858
860
863
866
864
867
869
870
869
870
876
880
881
879
878
871
873
873
876
876
878
877
880
883
880
883
878
877
878
871
874
873
875
874
875
871
876
875
874
872
871
871
868
868
870
871
869
869
871
869
868
867
868
866
865
867
867
867
869
870
872
871
870
869
866
863
866
863
867
871
872
877
876
874
873
873
871
870
868
866
869
870
872
875
871
873
871
871
874
871
870
870
870
872
874
877
878
877
877
880
878
878
879
881
886
887
891
895
900
901
902
899
898
900
905
911
917
921
925
929
927
920
914
907
901
900
903
906
913
920
924
925
921
913
898
891
879
877
875
871
869
865
865
864
865
865
864
863
860
857
854
855
855
854
856
857
859
859
861
859
860
855
856
854
854
855
858
862
862
861
860
861
858
852
852
850
848
854
871
895
928
961
995
1019
1023
1016
1013
1015
1038
1076
1123
1161
1176
1151
1076
969
856
753
681
638
620
613
605
600
594
589
583
584
585
587
588
588
595
609
626
649
681
715
748
771
796
812
824
828
