891
890
892
892
892
894
895
893
896
896
893
894
893
891
885
886
889
892
896
894
899
897
897
897
893
893
893
896
901
902
909
915
919
922
924
922
922
919
927
930
938
940
947
950
949
945
938
936
927
923
922
923
926
935
944
950
949
946
941
929
918
913
907
900
899
898
897
893
891
888
884
879
880
877
876
877
881
883
883
884
882
883
882
879
880
878
874
872
872
875
873
873
875
875
876
880
881
884
878
873
871
867
870
878
891
910
942
976
1011
1043
1064
1070
1063
1058
1062
1082
1117
1159
1190
1192
1150
1064
946
825
725
657
623
607
602
595
587
580
570
568
568
567
570
577
582
589
602
619
641
666
698
736
766
791
812
828
840
845
850
850
854
856
857
859
865
864
860
861
862
868
869
866
866
865
862
857
858
855
852
853
852
848
850
845
842
839
836
830
826
821
820
818
819
820
824
818
814
810
808
806
803
801
802
804
807
808
808
809
808
809
808
803
804
805
810
815
820
827
830
834
838
842
844
847
851
853
853
860
867
871
876
878
880
881
879
879
882
879
882
883
886
886
887
886
890
891
888
888
885
883
881
881
882
888
890
888
887
886
884
880
877
875
877
881
882
881
884
882
878
878
876
872
873
871
872
873
872
876
877
875
877
878
874
873
873
872
875
873
877
880
877
874
873
872
874
871
872
873
872
876
877
876
876
876
874
875
875
874
871
872
869
873
876
876
879
881
877
883
877
877
876
876
876
876
875
875
878
876
875
873
875
876
877
877
880
884
885
883
885
888
892
894
896
898
899
899
898
902
902
912
920
929
931
931
925
923
915
908
906
902
902
909
916
924
928
929
927
919
911
905
894
891
886
881
878
875
871
870
864
863
860
854
851
853
855
859
860
862
865
860
863
857
855
851
854
854
859
860
863
862
861
862
859
859
856
854
853
850
851
850
857
858
865
869
884
906
940
982
1025
1059
1079
1082
1074
1068
1072
1087
1115
1149
1171
1175
1134
1059
955
843
742
669
627
608
596
589
580
573
566
558
560
561
561
565
570
573
581
590
602
618
646
683
722
758
790
814
824
832
828
825
825
824
827
832
836
844
847
845
847
844
839
836
835
834
835
836
836
837
835
835
833
832
828
825
822
818
814
813
811
809
807
807
808
801
795
797
795
796
795
794
791
790
785
785
784
783
783
782
775
779
779
781
784
789
792
795
798
799
802
801
802
804
809
812
821
830
836
841
846
849
851
855
854
850
854
858
863
868
871
872
874
873
872
873
873
871
876
875
873
873
874
874
877
880
880
876
871
866
866
873
878
882
887
885
883
877
875
872
869
867
870
874
873
874
875
874
873
873
874
872
871
872
867
869
868
870
872
875
875
876
872
874
871
867
868
870
869
875
873
876
871
871
876
874
872
874
874
874
876
878
881
882
877
877
877
873
871
871
869
872
875
874
877
881
883
887
886
884
878
872
872
872
876
883
883
885
888
887
887
889
891
889
893
895
898
902
903
905
908
913
916
923
925
928
929
925
926
923
920
917
913
909
906
909
919
923
926
929
927
926
923
915
904
897
891
889
883
879
874
875
871
871
870
871
872
868
869
865
868
866
867
867
868
867
867
868
862
864
862
862
859
859
860
865
870
869
871
869
870
864
866
863
860
855
856
858
863
873
890
916
951
989
1022
1044
1060
1059
1054
1059
1074
1109
1147
1183
1191
1166
1095
991
873
773
700
660
639
627
615
604
596
583
577
572
575
577
580
585
594
604
617
637
663
694
728
759
781
799
812
828
835
841
845
846
849
849
850
851
852
851
854
854
856
857
859
860
861
859
854
852
847
844
845
846
847
848
846
845
838
838
832
832
828
827
824
822
827
824
824
822
819
814
807
803
798
795
796
794
799
798
798
801
800
798
794
793
792
792
792
796
795
804
809
815
817
819
819
822
822
828
835
842
847
853
857
862
863
864
867
867
867
865
869
871
878
884
887
891
893
893
889
888
883
884
881
882
885
888
893
893
891
891
889
883
884
881
884
886
886
888
892
893
892
887
884
882
881
880
880
879
883
882
885
886
883
880
872
870
869
865
865
869
872
874
879
878
877
877
879
874
875
874
875
874
879
879
879
881
879
878
875
873
870
872
872
876
879
879
878
881
883
882
876
876
873
875
877
875
878
881
883
885
884
883
877
880
878
876
877
878
882
886
887
896
895
894
892
889
889
889
892
901
904
911
914
919
921
924
927
932
934
931
930
923
920
916
912
911
909
911
919
924
930
926
926
916
911
905
897
891
884
882
879
876
872
867
863
865
866
865
870
871
871
869
864
865
863
860
856
857
862
866
866
867
866
861
863
865
863
863
861
860
864
864
866
869
866
865
860
858
859
860
878
901
937
975
1012
1038
1050
1043
1039
1044
1061
1095
1141
1174
1179
1136
1047
928
803
699
633
594
575
567
568
567
569
571
574
574
572
575
580
588
605
626
649
684
719
752
784
806
824
831
835
838
840
843
846
850
849
854
859
860
861
861
858
854
853
850
850
852
856
857
858
854
850
843
839
836
832
828
829
828
826
825
823
818
816
817
814
812
807
803
806
801
800
802
799
803
804
801
802
802
797
799
797
800
803
808
811
816
813
817
822
823
829
834
835
841
843
852
855
859
859
861
866
865
865
864
869
869
873
879
882
887
889
886
882
880
877
878
875
879
883
885
890
889
888
887
885
879
881
882
880
881
883
883
881
880
880
879
879
877
877
877
881
878
876
875
875
874
875
873
872
875
874
873
874
875
872
877
881
878
877
875
875
874
875
877
878
877
879
878
881
883
886
882
883
881
876
872
870
874
879
882
883
885
884
881
876
876
877
881
883
879
879
879
882
887
889
887
884
883
877
878
881
883
884
893
894
898
897
896
893
894
896
899
902
906
907
911
914
918
922
926
934
937
936
938
934
929
926
920
919
918
921
922
927
931
934
936
933
926
918
911
903
899
896
891
886
883
877
878
870
871
869
874
878
876
870
869
867
866
869
870
870
867
871
872
874
873
875
871
869
866
860
861
862
864
862
869
872
870
873
871
867
864
861
864
876
891
913
949
987
1019
1043
1055
1049
1045
1049
1075
1114
1158
1189
1183
1124
1027
899
778
688
631
600
591
587
584
578
575
572
571
573
573
572
569
573
583
593
609
632
660
696
731
763
791
813
826
831
836
840
845
852
857
861
865
861
860
859
859
857
857
857
860
860
858
858
862
861
858
856
855
852
852
851
842
843
844
844
842
843
841
838
833
825
821
814
811
812
816
819
815
814
813
809
806
803
802
799
801
801
804
804
806
808
808
808
808
810
813
815
820
829
832
837
842
845
848
851
856
858
859
863
864
866
870
872
878
882
884
885
884
882
883
889
887
890
890
890
889
897
895
894
889
886
887
890
891
891
892
892
889
888
891
889
886
887
885
883
882
883
883
885
885
884
883
881
878
877
876
877
885
886
883
886
885
881
880
884
883
881
879
876
877
878
880
884
888
888
891
887
885
882
879
878
882
881
883
886
888
888
886
884
882
882
883
885
886
887
888
890
888
891
887
886
884
882
882
882
885
886
889
894
893
892
894
891
892
892
894
894
896
897
902
907
910
914
921
920
918
919
922
929
935
942
945
943
939
933
926
918
913
911
913
922
930
940
943
945
937
927
916
909
903
894
892
888
886
884
883
882
877
877
873
871
873
872
871
870
870
871
872
870
872
871
874
867
868
864
863
864
864
868
869
871
873
874
874
871
870
868
866
863
859
864
874
891
920
953
990
1024
1049
1058
1053
1049
1057
1082
1118
1158
1186
1182
1137
1044
926
806
712
651
616
597
594
588
582
577
578
568
568
568
571
574
573
586
597
614
638
663
698
731
760
786
805
815
831
837
841
845
846
849
854
854
858
861
859
862
863
864
863
862
862
860
860
860
858
856
854
853
854
851
851
849
844
845
843
838
832
829
823
825
822
822
819
821
818
816
815
819
816
814
812
810
808
804
804
801
805
808
807
806
805
799
799
803
810
813
819
821
826
828
829
832
834
832
838
843
845
851
861
864
871
874
874
875
872
874
874
879
879
879
887
886
888
889
889
889
890
888
892
892
894
893
892
893
892
892
892
892
892
887
885
886
889
887
887
886
885
887
883
880
879
882
879
877
880
881
883
886
883
883
883
880
881
877
874
876
878
879
879
884
883
885
883
884
882
882
882
884
883
886
889
887
885
884
879
879
878
878
878
883
885
890
894
891
893
892
892
887
885
885
882
882
883
885
889
889
892
888
892
889
888
886
885
883
884
886
890
892
894
897
899
899
899
901
900
902
902
905
906
912
915
918
921
923
923
924
929
936
939
942
940
939
933
929
928
921
920
921
928
929
934
940
942
941
937
928
919
911
901
899
896
892
887
886
885
888
889
885
886
887
884
885
884
881
879
879
878
876
878
880
879
879
878
879
878
881
881
885
885
884
886
885
885
881
883
877
877
878
883
902
931
969
1011
1054
1084
1100
1101
1090
1088
1094
1118
1147
1178
1190
1170
1104
999
886
784
706
655
631
619
616
613
611
608
605
598
599
597
599
601
608
618
628
645
672
706
742
780
808
827
839
844
847
852
853
856
863
861
867
870
870
868
865
863
864
865
865
870
871
872
867
872
865
867
858
853
852
850
849
852
854
855
851
845
840
835
830
830
828
825
824
824
823
822
816
817
820
818
817
815
815
815
818
817
821
824
826
830
831
833
836
835
840
842
851
861
867
875
879
880
883
884
885
890
893
898
903
908
913
914
916
918
919
922
920
922
924
922
925
928
930
930
929
929
926
927
931
929
927
927
930
933
930
934
935
931
932
931
930
928
927
929
929
927
928
929
930
926
927
927
926
927
926
923
927
927
931
933
932
931
930
930
926
926
926
927
929
929
932
938
938
940
934
936
938
934
937
938
934
937
939
940
940
938
940
940
939
938
941
940
942
938
940
940
940
940
939
937
938
938
936
937
937
942
943
948
946
945
948
948
947
948
948
953
954
958
965
967
969
971
972
976
978
982
987
988
989
988
985
984
978
975
973
972
973
979
985
986
992
993
986
979
971
962
956
950
946
944
941
936
939
937
939
937
935
933
933
929
929
925
927
926
928
928
931
933
929
929
927
925
922
922
921
921
923
926
928
930
931
929
928
922
918
915
912
915
919
931
954
986
1018
1054
1079
1095
1099
1094
1096
1109
1138
1180
1220
1248
1250
1210
1140
1034
923
829
763
722
700
686
677
667
653
648
644
640
639
637
638
644
653
665
680
706
736
773
805
833
855
870
882
891
895
897
900
904
905
908
907
911
910
912
912
909
915
915
913
911
911
909
906
907
902
903
902
901
902
899
900
898
893
889
886
882
879
875
872
872
872
871
870
871
865
856
858
856
852
853
849
846
848
849
850
852
851
853
852
853
854
857
858
861
865
865
869
874
875
878
882
884
886
891
895
901
910
916
919
924
925
924
927
924
924
926
925
931
936
936
940
943
944
943
939
938
936
935
932
933
937
940
942
943
942
939
933
935
932
930
928
930
934
937
938
934
932
931
929
924
923
926
924
924
927
928
931
929
929
928
926
923
922
920
918
921
922
921
926
927
930
925
929
925
923
926
924
922
923
923
926
929
932
929
928
925
924
923
920
921
922
927
928
930
927
929
927
928
928
927
925
928
929
930
931
933
933
933
931
931
929
930
931
936
940
946
951
955
956
952
952
952
951
949
952
960
970
975
980
982
980
976
973
967
960
957
952
950
952
959
968
974
975
975
969
964
954
944
933
925
922
922
920
920
918
915
911
909
907
906
908
908
910
911
906
905
907
902
902
901
899
898
894
895
898
900
904
905
907
908
905
904
903
903
903
899
901
902
903
906
915
930
956
993
1028
1063
1083
1094
1091
1093
1097
1123
1156
1188
1210
1191
1129
1024
901
786
703
648
625
615
614
610
608
603
600
599
598
602
606
611
620
632
643
660
685
713
751
780
810
835
856
864
869
872
877
880
881
886
885
883
885
885
886
891
890
893
893
889
890
887
885
885
880
881
881
881
881
879
876
872
873
865
861
858
859
856
857
857
856
857
853
848
841
837
836
833
830
830
833
830
831
836
833
834
835
833
833
831
832
834
837
839
844
848
850
854
856
861
865
868
872
875
877
884
888
891
894
896
899
901
902
903
899
904
907
910
915
917
920
920
916
912
913
911
913
911
914
915
918
917
918
918
915
915
913
911
913
911
915
913
916
915
913
911
909
906
906
904
902
904
906
908
910
915
913
910
905
905
900
899
902
901
906
904
908
911
910
907
908
908
906
908
903
904
905
909
910
910
909
914
915
912
911
909
908
903
906
910
911
911
914
913
910
904
904
902
905
905
906
906
907
911
908
909
908
906
906
902
907
908
916
915
917
918
917
918
916
920
919
923
923
927
927
926
934
937
938
941
944
949
950
956
955
957
955
951
949
947
942
940
941
944
951
953
957
956
951
942
934
928
923
917
916
911
908
903
900
900
897
899
898
899
897
896
898
891
892
892
892
889
893
895
895
897
899
899
896
894
890
890
886
888
892
893
897
898
897
898
896
893
890
889
887
890
899
918
953
991
1030
1064
1087
1091
1090
1079
1084
1096
1126
1162
1191
1205
1188
1127
1034
920
816
740
689
660
649
642
639
637
633
626
626
619
619
622
621
627
639
653
678
704
736
769
799
823
842
855
862
865
869
871
869
873
876
877
879
881
880
881
878
879
883
882
883
885
884
883
880
873
870
870
868
867
866
867
867
865
864
861
856
854
848
845
842
839
838
835
838
837
832
831
831
827
825
822
819
819
820
818
822
822
826
828
827
829
828
833
835
836
842
851
854
860
861
860
868
870
872
874
879
881
883
886
892
896
897
901
901
898
900
899
897
898
902
907
909
912
912
909
911
912
912
911
913
910
911
912
914
914
913
913
912
907
905
906
908
908
911
910
910
908
907
908
904
902
905
901
894
897
898
904
906
907
908
905
904
901
900
901
898
899
902
902
903
906
905
903
902
902
899
899
896
901
903
905
908
908
908
905
907
907
904
906
903
905
906
905
906
907
908
905
903
903
905
903
900
899
903
911
914
919
921
923
924
924
922
923
923
928
931
935
937
948
954
959
960
960
954
949
942
932
931
929
936
940
945
953
954
954
950
940
932
922
917
913
908
904
905
903
899
896
893
893
892
889
893
895
896
897
895
894
893
891
888
885
883
885
885
886
891
891
894
890
891
890
887
887
887
887
890
889
886
886
882
879
879
887
902
931
962
993
1028
1046
1052
1047
1043
1049
1069
1105
1152
1191
1208
1191
1130
1037
927
825
745
695
664
646
633
620
614
605
604
609
610
612
611
612
622
628
642
660
684
717
751
782
809
829
845
853
860
861
861
864
869
871
874
875
880
881
881
877
880
875
876
874
875
876
878
878
880
878
880
875
872
865
862
860
856
857
856
859
857
854
855
853
848
844
842
836
833
832
830
834
831
831
828
828
827
825
821
821
822
823
824
827
824
829
832
830
835
834
836
838
839
843
851
857
860
866
870
873
872
873
874
876
881
885
889
892
896
901
898
901
904
902
906
901
904
901
904
905
910
910
906
909
906
905
906
903
904
905
905
906
907
909
909
905
904
903
902
900
897
896
900
902
900
905
901
900
896
893
887
891
891
890
888
891
894
896
897
898
898
896
891
892
890
893
895
895
894
897
897
898
897
891
892
892
890
890
891
896
898
902
901
900
898
898
895
897
892
890
895
902
903
902
900
899
896
895
892
893
894
892
895
896
905
907
910
914
914
913
916
913
914
917
918
922
926
930
937
944
946
950
948
943
938
933
927
927
927
929
931
936
938
940
942
939
933
925
920
917
915
911
910
906
898
889
886
883
883
880
883
885
886
889
884
886
887
888
885
882
880
879
882
880
879
881
882
883
881
880
881
883
879
880
882
883
887
886
883
881
880
876
876
887
906
935
976
1017
1056
1080
1085
1080
1076
1077
1093
1118
1151
1165
1149
1086
984
872
765
688
640
613
604
600
597
596
597
602
602
604
609
611
613
612
616
627
648
684
723
767
800
823
836
839
845
850
857
859
860
864
870
874
873
870
872
874
873
874
872
866
862
869
880
887
888
878
853
838
836
844
856
863
871
870
854
837
828
825
827
829
826
825
830
831
829
824
817
814
814
818
826
828
825
816
808
807
811
815
828
831
828
824
819
820
825
829
831
831
830
832
834
838
849
858
865
875
878
878
878
877
881
881
885
887
889
893
900
905
904
899
888
873
869
871
881
898
910
914
913
911
909
911
911
908
901
891
882
886
892
903
906
907
