872
879
883
885
880
880
881
875
871
867
860
858
863
868
876
879
884
883
882
878
873
867
867
868
860
864
868
869
868
873
875
870
863
861
861
863
863
864
866
865
864
864
869
872
878
875
875
870
867
865
872
873
879
881
881
876
872
871
868
866
866
871
873
874
875
876
878
878
880
882
881
882
886
888
893
893
895
895
897
906
908
911
913
913
911
908
909
910
905
906
899
897
895
896
900
909
911
915
917
918
912
904
895
889
886
885
882
883
880
878
875
871
871
867
865
866
866
867
867
870
870
866
867
865
861
861
860
862
860
861
860
855
852
854
860
864
870
869
866
863
858
850
847
839
837
837
847
869
896
933
964
988
995
993
988
992
1015
1060
1111
1150
1158
1128
1063
982
903
837
791
759
738
719
705
687
675
668
662
657
654
651
650
653
657
666
685
711
743
770
797
813
824
832
830
827
824
825
830
836
838
845
842
841
840
835
832
834
836
839
841
840
840
841
840
834
831
829
829
825
822
819
818
822
819
819
816
811
810
805
799
799
795
793
794
793
794
794
792
789
794
789
784
787
785
783
784
787
786
785
786
787
789
791
793
792
794
797
802
806
808
815
821
820
825
824
829
831
835
838
843
844
848
854
857
861
861
862
861
858
864
864
866
866
866
868
865
865
864
862
863
865
864
862
864
868
868
869
867
867
865
864
858
857
857
853
854
856
856
859
859
860
860
857
854
853
850
850
851
849
852
854
855
857
854
850
854
850
851
852
853
857
856
856
854
853
850
853
853
854
854
857
857
859
862
865
864
864
861
861
861
860
857
856
858
857
858
864
865
864
864
862
863
860
861
861
865
865
867
869
871
873
875
879
880
881
884
886
885
889
892
897
900
902
905
903
902
902
898
896
890
891
888
890
895
899
903
904
904
902
897
894
888
880
872
871
869
864
864
860
855
853
849
847
847
848
850
851
853
851
847
846
843
843
844
842
846
847
847
849
851
848
846
847
847
844
843
846
847
849
849
851
850
846
841
838
831
828
830
846
869
904
936
968
986
990
986
983
989
1013
1054
1099
1133
1143
1121
1054
968
876
804
747
714
694
681
667
653
638
630
623
620
618
617
612
611
611
613
621
636
660
686
714
745
767
785
798
807
808
812
818
821
825
828
827
833
833
836
832
836
834
832
831
833
836
837
836
833
830
824
823
817
817
816
821
819
819
817
815
812
806
805
799
795
794
791
791
790
788
791
790
791
790
787
783
781
779
780
777
779
780
785
784
785
785
783
783
785
787
788
791
797
801
807
810
812
812
817
816
820
824
826
830
838
838
842
849
849
850
850
850
849
850
850
853
854
858
861
862
863
863
859
862
857
856
856
857
856
857
856
861
858
859
853
853
848
848
847
848
853
854
855
856
853
851
851
849
847
845
843
842
844
844
847
846
848
847
845
844
840
839
837
839
838
838
843
845
846
847
846
847
845
844
842
845
847
850
848
852
851
850
849
846
844
844
845
846
843
848
848
851
854
854
850
848
849
849
846
845
846
848
851
854
856
858
856
854
856
856
858
863
866
871
873
877
877
879
882
882
889
889
893
899
900
896
892
891
885
880
873
871
874
878
885
888
897
895
894
888
877
868
856
851
848
847
843
843
841
839
837
839
837
837
840
838
836
834
832
831
832
830
832
833
833
836
835
833
832
829
827
830
834
835
838
838
837
832
830
823
824
825
835
854
880
917
951
976
985
984
978
981
1000
1035
1084
1118
1134
1110
1048
955
855
765
700
660
634
621
609
600
595
587
588
589
588
589
590
588
595
599
610
627
653
681
716
745
768
788
797
806
807
810
810
818
823
827
831
834
836
833
833
826
824
824
823
828
828
831
830
828
828
824
822
816
813
807
804
799
800
804
807
808
808
806
803
797
793
788
784
782
782
781
779
781
778
781
780
783
778
783
779
780
780
781
785
786
788
787
788
786
788
792
793
797
804
810
816
821
822
825
828
830
826
828
831
836
837
843
844
850
851
853
853
852
852
855
851
853
854
853
854
856
855
857
857
856
852
855
855
854
853
855
856
857
852
853
851
849
846
846
846
846
847
846
846
851
848
849
848
846
845
842
841
840
846
846
848
848
850
850
851
847
849
848
848
849
849
851
852
853
847
849
845
845
848
849
851
848
856
858
860
862
860
859
857
856
854
851
856
854
858
858
856
859
862
860
861
858
858
855
853
855
856
861
863
866
867
869
869
869
868
873
876
878
878
880
882
883
886
887
892
897
901
903
905
905
901
901
899
894
891
890
889
892
897
900
902
904
904
899
893
889
882
875
873
865
861
857
850
847
846
849
848
850
850
849
850
846
844
841
840
843
840
838
841
844
844
842
841
838
839
839
836
839
841
844
845
848
847
844
840
838
836
837
845
864
894
930
967
998
1023
1036
1031
1020
1018
1024
1042
1073
1105
1125
1117
1067
979
876
775
699
646
618
606
603
597
592
585
584
582
579
579
578
578
582
587
599
613
635
668
704
737
765
786
801
808
809
811
810
814
818
820
824
827
828
827
823
823
824
824
824
825
822
823
827
823
821
821
820
815
817
811
809
812
810
808
809
801
797
800
795
792
790
788
784
783
783
786
785
781
785
782
777
775
772
771
774
776
778
781
783
783
782
784
782
784
785
787
786
790
795
800
803
809
810
817
819
822
824
825
829
832
838
840
843
847
847
849
850
851
850
849
854
852
855
857
862
859
859
856
853
851
853
854
855
855
859
859
862
860
855
857
853
851
850
850
852
853
854
857
858
857
856
852
852
848
843
842
843
846
848
850
854
852
849
849
847
844
847
847
848
854
851
852
856
857
857
854
853
851
852
850
849
851
852
857
857
856
856
855
857
856
855
854
855
857
858
860
861
862
861
861
860
860
857
856
858
861
865
868
871
873
873
873
874
875
878
879
884
885
888
892
899
903
905
911
909
909
906
901
897
895
891
890
890
889
890
896
900
906
909
906
900
895
888
882
874
871
869
866
862
856
855
851
851
852
852
856
859
856
854
854
851
848
847
847
847
848
852
854
854
857
854
851
849
850
849
846
846
847
849
851
851
850
847
846
843
840
845
857
876
905
939
971
996
1006
1005
1001
997
1008
1036
1071
1113
1141
1143
1111
1039
944
848
767
709
675
656
641
629
622
612
610
607
606
606
606
604
607
615
621
632
652
677
704
735
762
784
802
813
818
823
827
826
830
835
839
844
839
842
844
841
840
838
838
838
837
841
842
844
841
837
839
835
827
829
827
824
827
827
826
825
824
820
817
814
811
810
807
806
801
803
800
800
800
802
797
796
797
790
791
792
795
796
794
799
799
798
799
797
797
798
798
800
804
806
808
820
822
824
824
829
833
835
838
839
843
842
848
852
854
854
860
859
859
863
865
864
869
869
872
872
870
870
865
869
866
867
865
866
868
870
870
874
872
869
869
863
862
857
859
854
856
860
861
865
866
864
859
858
860
856
855
853
853
855
853
857
853
854
855
854
855
853
852
855
851
852
854
859
856
860
855
860
856
856
854
856
855
858
860
861
862
862
857
857
857
855
853
852
852
855
860
859
863
864
864
862
861
862
859
860
862
862
864
865
863
867
867
866
869
874
880
883
885
885
883
885
888
892
895
899
901
903
904
908
907
903
900
895
893
886
888
891
899
905
906
910
906
903
894
886
878
871
871
869
871
865
860
855
851
849
846
848
848
851
855
856
856
857
853
843
842
844
847
852
852
851
849
847
846
849
849
851
852
853
854
856
854
851
852
852
851
853
863
881
912
951
984
1017
1033
1039
1035
1028
1031
1051
1080
1112
1134
1140
1103
1028
925
823
729
669
634
614
608
604
599
597
595
597
596
596
593
593
594
600
609
624
643
672
710
744
777
797
815
822
822
829
829
832
834
839
841
844
847
845
847
842
843
844
839
840
841
842
844
842
840
842
841
839
836
831
829
831
828
831
829
827
830
827
823
817
813
807
808
804
808
811
809
809
806
801
803
805
804
803
799
798
798
800
798
800
802
799
800
801
803
803
806
809
812
815
820
822
824
829
833
837
837
839
838
842
847
850
856
863
866
868
870
866
866
862
862
862
863
870
873
878
879
878
877
876
874
869
870
870
873
873
875
874
872
874
873
873
873
869
872
871
866
868
867
867
866
865
866
862
862
863
864
863
865
867
869
870
870
869
868
866
867
864
864
860
864
867
870
867
870
871
872
870
870
870
873
874
872
872
873
874
871
872
874
872
873
870
869
870
872
876
878
877
874
874
871
869
870
871
873
872
876
878
877
878
880
879
882
882
887
888
884
885
888
889
894
900
904
905
906
909
909
910
913
919
920
920
918
913
905
903
897
898
902
907
910
917
921
919
918
915
906
895
886
878
874
872
875
876
873
872
868
868
863
861
861
865
864
863
865
863
864
864
862
860
863
866
865
865
865
864
861
861
860
863
864
864
864
864
862
861
858
853
847
849
852
867
886
916
955
989
1013
1029
1025
1021
1015
1032
1062
1100
1135
1155
1142
1090
1006
902
814
746
701
681
670
661
657
651
642
637
627
625
624
628
626
630
636
644
660
682
712
742
772
792
811
822
829
833
837
843
844
847
848
850
846
845
848
846
848
849
854
854
853
854
852
851
848
847
848
847
846
843
838
835
836
839
838
839
835
833
827
825
822
820
822
821
824
821
820
819
818
810
806
805
803
802
799
801
802
806
804
804
804
806
802
798
795
801
802
806
811
814
818
822
824
824
829
829
830
834
843
854
858
860
860
858
855
857
856
859
861
865
870
877
877
879
881
881
877
876
874
875
878
879
879
881
883
883
884
880
882
880
882
884
882
878
878
877
875
873
877
878
878
877
878
879
876
874
872
872
872
873
873
875
877
875
874
872
869
868
869
867
864
869
875
874
874
872
873
870
867
867
868
870
872
875
876
876
875
874
873
870
867
868
869
873
878
882
878
876
874
873
867
869
870
871
876
879
882
881
878
881
879
881
881
882
883
882
882
886
891
893
897
902
901
900
901
902
907
912
919
923
925
926
923
920
915
911
905
901
898
898
907
918
923
926
929
921
907
898
891
885
875
873
868
869
871
871
870
869
872
872
868
863
863
863
863
868
866
869
872
867
867
862
860
857
858
861
864
866
866
868
867
864
864
861
862
859
862
860
861
860
861
862
866
886
909
944
975
1001
1014
1016
1011
1012
1026
1053
1089
1129
1158
1162
1129
1057
958
859
776
718
686
667
655
643
637
631
626
624
621
622
623
630
643
651
667
691
716
742
763
785
803
817
828
837
844
848
853
852
852
852
854
852
852
851
849
852
855
862
867
869
866
862
857
852
850
849
849
850
849
849
853
853
849
847
844
835
830
831
827
826
827
828
830
829
829
823
821
815
813
809
810
810
814
816
817
815
813
812
811
810
811
814
815
817
819
824
827
833
835
834
837
839
842
847
853
859
862
865
866
865
868
870
868
872
875
878
879
882
883
882
882
884
887
885
884
883
880
884
885
886
889
889
892
890
888
884
880
881
878
877
878
877
878
880
879
881
881
879
874
875
874
874
871
874
875
876
877
871
868
866
867
864
864
861
866
874
875
876
878
878
875
873
871
870
868
868
870
872
875
878
879
878
876
876
873
874
874
873
874
872
874
876
876
872
876
875
877
872
872
871
872
869
868
872
876
875
877
878
875
876
877
879
881
885
886
892
892
893
892
894
895
892
891
894
896
906
910
917
922
923
920
919
913
907
903
899
899
904
910
915
922
923
918
912
903
896
887
882
878
875
878
878
880
878
875
865
863
859
859
862
861
864
861
861
864
864
863
863
857
858
855
851
856
858
856
859
861
858
855
856
858
856
858
858
860
859
858
860
866
881
907
941
974
1006
1029
1039
1038
1035
1041
1056
1085
1119
1137
1125
1074
980
871
769
696
652
632
625
624
622
618
612
606
600
598
600
604
608
614
628
638
653
680
707
733
762
783
802
811
816
818
822
828
835
840
843
846
844
843
843
845
846
848
854
855
853
852
849
848
843
838
840
840
842
845
844
844
842
839
833
826
823
819
821
822
827
822
822
819
814
812
810
806
804
802
799
800
799
804
803
807
804
804
803
800
803
802
802
801
802
807
813
818
817
824
826
826
827
834
834
842
848
855
861
865
868
865
864
865
866
867
872
871
873
878
880
882
885
887
882
881
881
881
882
880
880
879
881
879
879
884
882
881
882
880
876
878
878
877
879
878
880
879
876
873
870
866
870
867
871
874
874
875
876
876
872
872
870
868
865
866
863
867
872
878
878
879
875
871
867
865
870
868
867
869
869
873
873
874
875
873
870
872
874
872
873
876
876
877
875
877
871
872
870
873
872
874
877
876
878
880
877
877
878
879
881
886
888
888
890
893
898
901
904
903
902
902
901
903
911
919
926
931
929
921
913
904
899
895
895
896
904
912
920
924
925
921
914
908
899
891
884
880
878
878
876
872
871
871
871
867
868
864
866
864
865
864
862
861
865
865
870
865
865
864
859
857
860
859
861
862
865
865
863
861
864
864
860
858
857
859
860
865
874
895
923
954
986
1009
1020
1018
1020
1024
1047
1080
1119
1148
1156
1130
1062
965
869
784
724
686
674
666
664
656
645
637
627
622
619
618
620
624
629
636
641
650
664
686
714
741
765
786
798
813
822
826
835
838
840
846
847
849
847
849
847
851
854
854
853
855
857
854
849
848
847
847
845
846
849
848
848
846
844
842
841
839
836
831
825
824
826
828
827
827
825
819
815
811
809
809
805
810
811
807
809
809
811
815
808
808
809
810
809
809
810
811
817
821
823
826
827
830
834
832
836
844
852
855
860
859
859
860
861
866
866
868
870
873
874
879
884
886
882
882
876
878
877
877
876
881
882
884
885
887
889
887
885
881
881
880
882
885
886
889
890
887
884
881
881
879
881
880
882
883
879
880
880
877
881
880
881
876
873
872
873
876
880
878
880
884
883
883
886
883
884
884
882
877
880
880
883
881
881
877
876
877
877
881
882
885
888
887
891
889
886
884
881
878
878
876
878
882
885
888
890
890
891
887
884
881
877
874
876
881
882
884
888
891
895
893
895
896
899
905
907
909
910
910
913
911
918
922
926
930
930
928
924
922
919
912
908
910
913
918
920
925
928
927
920
916
910
909
899
895
892
894
891
887
885
879
873
869
872
871
880
877
880
875
876
874
871
870
871
873
872
869
870
871
872
876
878
876
873
875
872
874
876
875
874
874
874
871
867
867
869
878
891
922
958
994
1018
1029
1028
1024
1028
1041
1070
1108
1141
1164
1159
1120
1047
953
853
780
729
700
686
677
666
657
645
638
636
634
636
636
637
638
640
645
654
667
689
718
747
779
801
815
825
830
835
841
845
851
854
860
867
869
869
869
867
866
864
865
863
866
866
870
870
871
869
867
863
860
859
857
855
853
854
855
855
854
851
849
842
835
832
827
827
829
831
833
831
833
832
831
828
827
824
820
822
823
823
828
829
832
831
829
831
828
827
828
832
838
841
844
847
856
855
859
863
863
863
863
866
870
873
876
888
891
888
888
886
889
889
890
891
892
897
900
899
903
902
902
900
895
896
896
895
894
894
893
897
900
899
897
893
892
890
891
888
890
891
891
888
888
885
887
884
884
881
882
882
883
886
886
885
890
888
889
886
886
884
880
880
885
886
889
893
891
890
885
885
884
885
888
886
885
887
886
887
891
894
892
892
886
884
887
887
886
890
888
889
893
890
889
892
888
889
887
887
890
889
891
894
896
896
898
895
894
896
896
896
896
905
908
910
914
914
914
914
915
915
917
920
929
931
936
938
940
933
928
921
917
914
913
916
923
930
930
938
942
936
930
920
906
899
896
890
889
890
887
885
888
886
885
879
879
877
876
872
874
876
878
878
879
882
880
881
881
877
875
873
872
875
876
874
878
879
877
879
878
875
872
872
869
871
872
876
883
893
915
939
968
992
1016
1026
1022
1020
1022
1041
1072
1108
1137
1150
1131
1071
985
883
795
733
698
678
669
659
654
644
636
630
630
629
629
631
635
643
651
658
672
690
713
741
768
795
815
829
843
854
858
858
858
862
864
865
863
865
865
870
874
874
878
873
872
874
871
868
866
862
861
864
861
863
865
865
860
857
855
852
844
841
842
844
840
842
842
841
838
835
835
832
831
829
828
828
829
829
834
829
832
829
831
828
827
824
829
831
837
842
847
850
847
851
852
855
856
862
861
868
874
879
883
883
887
889
889
892
894
895
896
894
896
898
901
901
903
901
902
897
