766
796
821
845
861
873
877
878
873
878
880
881
887
890
891
891
892
887
888
886
883
884
883
883
887
883
884
883
882
879
873
870
865
865
865
859
858
860
863
863
863
862
855
849
843
841
837
837
839
839
844
844
841
838
837
835
833
832
831
829
830
833
837
838
836
835
836
836
839
845
850
854
858
866
872
876
880
882
881
881
882
885
886
890
894
896
900
904
907
908
910
906
909
903
903
904
908
910
912
921
920
920
920
911
913
910
909
909
912
913
917
918
917
916
913
910
907
908
905
907
911
912
914
915
912
911
907
904
898
901
903
900
905
906
909
914
912
911
912
904
902
904
903
905
905
908
914
916
918
919
916
914
910
907
908
907
909
911
912
915
914
914
913
914
913
911
911
911
914
914
914
916
915
915
912
914
912
912
914
914
919
923
922
924
920
924
923
925
927
927
926
930
932
935
942
945
952
955
959
960
959
954
950
941
936
938
938
938
940
944
950
954
958
953
948
939
930
927
923
923
921
916
916
911
908
906
904
905
910
912
910
910
908
906
906
904
903
902
897
899
901
902
902
902
903
903
904
901
902
901
900
900
898
900
901
903
900
900
901
901
904
923
945
975
1012
1043
1064
1069
1062
1057
1063
1075
1106
1136
1159
1160
1130
1060
971
878
802
746
714
690
679
672
667
666
667
667
669
669
670
671
676
680
688
701
726
756
786
812
835
850
863
872
876
876
879
882
884
887
892
891
890
888
890
888
889
891
889
888
887
886
887
890
888
890
887
883
881
879
877
874
870
868
867
865
864
865
864
856
854
854
854
849
845
843
842
839
841
844
843
843
837
835
836
834
832
829
832
836
836
842
846
848
849
848
853
853
855
860
866
872
876
883
884
885
888
886
883
887
891
889
896
899
904
909
909
909
911
909
906
906
903
902
903
906
908
910
910
906
904
904
902
904
905
904
903
906
907
911
910
907
907
904
902
901
901
902
902
902
902
903
903
899
896
892
894
893
889
894
897
896
896
899
899
898
897
895
891
891
891
890
894
896
898
901
904
903
899
898
896
891
892
895
896
895
899
898
897
899
899
898
897
895
891
894
894
893
896
898
901
901
898
895
896
896
895
900
903
907
906
914
920
925
925
921
922
919
921
926
933
938
940
940
939
935
931
925
920
918
919
922
933
936
941
936
931
922
913
909
908
903
902
900
894
891
888
888
886
887
883
884
883
883
885
886
885
886
883
882
880
883
883
880
879
880
883
884
884
885
885
884
889
888
885
882
881
876
873
873
876
884
902
929
958
987
1007
1025
1025
1018
1012
1020
1042
1079
1120
1149
1146
1106
1024
925
833
758
711
684
672
666
663
658
652
651
649
649
646
644
647
655
667
683
703
732
763
787
809
825
838
846
851
852
859
864
867
870
871
872
871
869
866
869
868
867
866
869
868
871
869
873
873
868
866
863
863
860
859
856
857
856
854
850
850
848
845
843
841
835
837
834
837
839
836
830
831
826
827
827
826
830
829
830
828
830
833
831
836
835
837
839
838
837
842
848
853
861
866
867
871
872
875
873
874
876
879
882
885
889
893
894
891
890
890
890
889
891
896
899
901
902
899
899
896
891
892
888
887
887
891
890
894
893
897
894
894
890
888
885
884
883
890
887
887
886
889
887
885
884
882
881
880
879
880
881
883
882
882
882
885
885
882
881
880
881
880
882
884
884
887
886
885
885
885
883
883
884
885
885
885
888
888
888
884
886
890
887
888
887
885
887
888
892
893
893
891
887
887
887
887
888
890
892
891
897
900
904
904
905
904
904
904
905
906
907
913
917
925
926
935
932
931
926
921
919
914
916
914
917
924
929
929
931
928
925
919
913
909
904
900
900
899
896
893
889
887
881
881
880
882
883
884
886
889
888
883
882
881
878
876
875
876
874
881
881
884
882
883
883
885
882
880
881
884
886
886
883
882
880
879
880
885
896
917
947
980
1012
1036
1055
1058
1049
1045
1049
1064
1089
1118
1135
1126
1082
1000
904
814
743
699
673
661
654
651
653
652
654
650
649
647
648
653
657
666
677
698
722
754
782
811
830
842
847
850
848
847
849
853
858
864
871
873
870
866
867
863
862
865
858
860
864
866
863
863
865
865
865
860
859
856
855
851
852
848
847
842
839
839
841
842
840
833
834
827
827
826
823
824
822
822
820
821
822
820
820
819
818
814
821
824
829
831
830
835
834
837
837
838
840
849
852
861
864
868
869
872
870
872
872
873
878
879
885
888
889
891
887
888
887
887
889
888
887
886
887
890
894
900
900
897
896
889
882
886
886
889
891
895
896
893
895
896
892
887
883
881
882
886
887
892
889
887
883
882
877
878
876
876
874
880
882
882
886
884
881
879
881
879
881
880
885
886
887
885
882
880
881
881
881
881
879
884
883
882
883
877
880
882
883
885
882
883
882
884
884
886
888
892
895
893
890
889
887
889
892
898
901
903
903
909
911
917
923
926
927
917
916
907
902
901
902
905
903
908
911
917
918
917
914
903
896
893
888
893
894
889
883
874
868
866
866
867
867
867
864
870
875
876
873
871
869
861
859
860
858
863
861
868
874
878
874
873
871
866
862
863
860
862
866
866
866
863
856
853
847
850
860
875
899
928
957
977
982
983
978
985
1006
1040
1081
1115
1137
1129
1093
1019
933
855
790
751
727
708
689
674
658
651
650
650
652
652
654
652
652
663
673
688
707
735
761
785
810
823
833
842
843
846
845
848
845
849
851
854
856
859
853
857
857
858
859
859
859
859
858
858
858
857
855
856
854
850
847
842
836
833
836
834
838
837
837
838
837
834
827
824
820
818
819
820
821
820
822
824
824
825
822
819
819
816
819
817
820
824
824
830
833
833
832
836
837
841
848
854
859
864
868
867
868
868
869
869
869
874
882
884
888
890
889
889
887
881
881
880
880
881
880
887
888
890
889
890
887
884
884
885
884
885
883
885
885
883
884
881
881
880
878
878
877
880
879
878
878
880
877
878
876
878
876
878
878
876
877
880
882
879
880
875
874
872
872
874
872
874
876
881
883
886
886
885
886
882
878
880
878
878
880
880
881
886
884
885
884
879
881
881
882
882
886
885
885
888
885
882
883
885
883
885
883
889
897
898
903
904
902
903
905
908
911
916
922
928
929
930
928
924
919
916
914
910
908
904
911
915
922
927
925
921
918
909
899
894
890
887
884
878
879
877
877
881
878
876
875
871
867
868
866
868
869
870
872
869
872
872
869
867
865
866
864
865
867
869
871
873
872
868
869
864
863
859
858
860
868
882
903
932
960
988
1007
1015
1011
1002
1002
1011
1044
1084
1120
1136
1121
1061
972
864
776
703
667
650
640
637
632
630
628
625
626
622
620
623
626
633
642
661
676
704
731
760
782
802
813
825
831
837
842
847
853
857
861
864
864
866
863
857
860
856
857
859
862
864
861
863
862
862
856
853
849
845
847
850
850
850
849
847
841
836
832
831
831
829
828
830
832
831
829
825
822
818
815
813
814
820
823
823
822
824
823
825
827
825
826
825
826
832
835
846
849
849
851
855
856
857
857
862
865
871
874
874
875
881
881
883
879
878
881
881
885
887
884
886
885
889
884
886
885
884
880
878
878
881
884
885
888
890
885
885
883
881
879
873
877
875
877
875
879
877
877
876
876
874
875
875
875
874
874
880
876
878
877
877
872
871
870
868
869
869
871
874
875
879
875
875
872
873
872
873
870
874
879
882
882
884
881
876
871
869
872
875
877
878
877
879
882
884
881
883
883
880
877
880
874
877
880
885
892
898
897
902
902
901
899
899
901
904
911
918
920
926
927
929
925
921
913
910
908
910
914
920
922
923
923
920
917
912
906
899
891
888
886
884
889
887
880
877
868
867
862
866
864
868
872
876
876
873
869
862
860
862
864
864
863
862
867
867
868
868
865
865
867
866
865
866
866
868
869
866
864
863
864
870
882
898
917
944
972
995
1013
1018
1015
1013
1018
1037
1069
1098
1117
1110
1058
970
874
781
709
668
645
638
636
629
628
621
618
616
619
616
625
630
632
639
643
658
672
697
722
751
777
798
817
831
845
845
848
845
847
851
853
856
858
856
856
859
859
862
861
856
855
856
855
852
854
853
855
857
854
853
847
846
843
843
834
836
834
837
836
832
831
827
824
821
822
822
818
816
819
819
820
823
820
814
811
807
807
811
813
816
820
817
819
825
826
827
828
831
829
834
837
842
849
852
856
860
860
857
861
859
860
864
865
867
870
872
875
879
878
877
878
878
876
877
876
880
884
884
883
884
879
877
875
873
872
874
872
875
879
881
879
883
884
883
880
874
872
865
864
865
868
869
871
874
874
874
874
872
869
864
860
857
861
867
870
874
875
874
874
869
867
864
865
866
869
870
872
873
874
874
874
871
869
869
866
864
868
870
877
879
878
877
877
877
872
869
868
864
871
879
881
884
882
881
876
878
879
881
883
887
890
892
893
894
899
903
904
903
909
906
907
911
917
920
916
918
912
904
898
893
895
903
909
914
921
920
919
910
899
891
886
882
879
875
869
866
863
866
868
869
868
868
866
864
861
862
862
858
862
863
863
866
856
860
862
860
865
866
865
858
857
860
863
866
866
869
871
866
863
859
854
854
858
866
880
900
926
959
986
1009
1014
1010
999
998
1005
1036
1074
1107
1115
1082
1006
901
796
713
659
629
617
616
616
615
615
612
613
612
615
610
616
618
630
648
666
693
718
747
771
794
808
821
827
832
839
845
850
855
856
856
852
849
849
851
849
855
853
857
860
863
863
861
860
855
850
848
844
842
848
850
848
847
847
840
833
832
833
831
832
826
824
826
825
827
827
822
816
816
811
812
814
817
813
815
813
817
818
819
822
824
823
823
823
824
827
831
843
849
851
851
851
851
855
854
859
860
865
867
874
875
873
870
873
874
877
880
880
884
886
888
886
888
888
887
884
881
880
880
881
886
883
882
885
883
879
880
880
878
876
877
875
875
872
880
882
884
885
882
881
876
876
875
872
871
869
870
874
880
882
882
879
876
870
867
867
866
869
873
876
878
881
880
880
876
876
873
873
878
879
880
880
879
880
881
879
877
877
878
877
879
880
881
883
887
884
884
883
880
879
882
879
878
880
883
891
897
898
898
897
898
902
903
903
903
906
911
916
923
929
927
927
918
913
907
905
906
909
911
916
921
922
923
918
914
911
898
892
883
882
882
882
880
879
875
869
868
866
865
866
869
869
868
869
873
877
875
870
868
863
862
862
865
870
871
869
867
866
866
870
868
865
866
867
869
868
871
870
869
873
882
897
925
955
987
1008
1022
1021
1016
1012
1022
1046
1081
1110
1123
1103
1043
951
847
757
694
659
642
641
638
636
630
626
620
619
618
621
628
633
643
653
659
673
691
718
747
779
805
826
838
844
846
848
847
851
852
854
853
853
852
858
862
860
861
863
864
865
867
865
861
861
858
857
853
852
848
848
853
849
848
845
837
833
832
832
835
836
838
836
832
827
822
822
820
818
817
819
821
823
822
820
821
819
815
814
817
821
829
837
842
846
845
850
850
849
848
854
853
857
865
867
872
874
879
881
884
885
884
885
882
883
885
886
887
881
887
885
888
892
893
894
891
887
886
886
888
887
889
888
890
884
883
883
882
879
883
884
881
884
886
885
884
881
879
882
880
877
876
878
880
881
884
881
880
881
883
881
880
881
881
882
884
883
888
886
889
887
888
886
880
878
879
877
883
885
888
890
892
891
891
888
886
882
883
884
886
891
891
891
889
892
891
890
890
889
890
893
895
898
902
908
910
911
909
908
911
916
923
929
932
933
931
929
925
922
914
911
910
913
917
924
928
930
931
929
922
912
904
899
889
886
883
886
884
882
882
882
881
879
877
876
869
866
864
867
872
876
880
879
876
870
867
865
866
863
869
873
875
872
876
875
876
872
870
868
869
866
870
868
868
874
876
885
900
923
953
983
1011
1030
1033
1030
1026
1028
1042
1067
1103
1126
1129
1099
1032
931
831
746
686
655
639
636
631
628
624
620
617
615
618
620
625
630
635
645
651
665
688
715
745
773
792
816
827
836
843
848
850
852
853
851
848
847
848
849
853
857
861
863
861
861
858
856
852
853
850
852
854
856
856
856
851
849
846
843
842
837
835
836
838
834
835
836
830
828
823
823
820
819
817
816
817
818
815
816
813
813
811
810
814
813
818
818
821
823
824
829
825
825
829
829
833
836
837
842
849
854
862
864
865
864
861
860
862
864
865
867
867
870
871
875
879
881
881
883
882
877
876
878
876
879
881
884
880
882
881
881
879
877
878
875
877
877
881
882
876
876
874
875
870
872
871
871
871
873
878
878
876
872
869
867
867
867
865
868
871
875
877
879
880
879
875
872
865
863
864
866
871
875
878
877
877
877
875
871
871
873
873
873
869
871
871
873
871
870
873
868
869
868
868
871
877
879
881
879
880
878
877
877
876
878
880
881
885
884
884
890
891
896
896
895
894
893
897
904
910
913
916
917
915
914
912
914
909
906
904
901
904
906
912
918
919
921
915
906
895
883
879
874
874
876
877
877
874
868
867
866
862
860
860
860
860
863
865
868
868
868
865
864
865
862
865
862
866
859
864
863
862
866
862
862
856
858
864
868
870
871
869
869
867
872
886
912
942
971
1000
1017
1019
1014
1008
1013
1031
1061
1099
1119
1116
1078
994
892
790
709
657
636
624
623
623
622
616
616
616
620
618
625
631
639
658
675
696
720
746
770
789
807
821
828
832
835
840
840
846
849
848
847
846
849
849
850
854
855
860
861
860
855
850
841
839
840
846
852
851
852
851
845
842
837
839
836
834
830
826
824
823
824
825
822
823
821
815
810
811
811
814
810
812
812
811
808
802
805
806
812
813
815
819
814
817
821
826
827
827
830
835
835
836
843
847
850
861
865
864
864
861
860
856
858
859
863
866
869
874
878
880
876
875
871
874
873
878
877
879
879
878
876
877
874
874
875
874
873
872
872
870
874
872
873
873
872
872
867
863
861
858
862
864
864
865
861
862
866
864
863
859
857
857
860
863
861
862
865
867
866
860
856
855
854
856
861
866
870
869
871
869
867
864
862
861
856
863
864
869
868
871
874
874
870
871
867
867
863
864
863
865
870
873
878
880
880
881
880
878
883
887
886
885
888
890
894
900
906
910
912
912
909
910
904
901
898
896
894
897
902
905
911
908
908
901
898
893
888
881
873
866
866
865
866
866
862
858
856
856
857
861
862
862
860
857
852
851
845
844
844
846
852
856
860
862
860
855
853
849
848
848
844
845
849
856
859
858
857
856
851
848
849
856
870
891
914
946
970
986
999
1002
992
987
992
1013
1046
1082
1111
1110
1069
983
877
774
690
635
612
604
603
607
608
608
612
609
608
607
607
612
613
626
640
661
689
723
754
778
799
811
815
815
819
824
830
836
841
846
847
847
843
841
838
841
840
842
844
843
842
841
842
843
843
841
838
834
826
824
824
824
827
829
830
827
822
814
810
810
811
812
806
803
804
805
805
806
805
803
799
799
799
801
803
804
805
805
805
804
804
802
811
814
817
817
822
827
832
837
842
846
848
848
846
841
842
844
847
851
859
861
869
865
865
864
863
861
858
859
860
863
866
869
872
871
871
868
869
864
863
862
861
863
866
866
868
863
863
865
865
865
862
856
856
852
855
858
862
861
860
859
861
859
859
858
854
857
858
858
857
861
860
859
856
857
855
856
854
859
860
865
869
871
868
866
865
861
858
854
854
858
860
866
868
869
867
862
857
856
856
860
863
864
867
870
871
869
867
866
866
866
869
872
871
876
883
886
890
887
886
883
882
886
893
901
907
911
911
909
905
900
895
894
889
892
894
904
906
913
909
906
900
890
881
874
868
866
865
864
861
861
860
856
856
851
853
855
856
856
858
855
849
846
849
850
852
855
858
855
852
849
853
851
854
856
857
858
860
859
854
854
850
848
849
846
850
861
879
910
944
980
1010
1028
1032
1025
1018
1016
1027
1055
1084
1105
1100
1051
966
860
758
679
630
606
595
593
604
608
610
610
608
606
604
608
614
624
636
656
681
713
739
768
789
805
815
819
821
822
825
827
832
836
836
840
839
841
841
841
839
839
838
837
841
839
844
843
839
836
835
831
830
827
823
826
824
822
823
819
815
814
812
812
810
809
805
806
805
805
804
803
802
799
796
794
792
793
792
793
797
802
804
805
805
806
807
804
806
812
815
819
822
831
834
839
842
843
846
849
850
