772
780
783
792
797
799
802
805
807
808
807
809
808
804
807
808
809
810
809
810
812
808
803
802
801
800
799
794
795
796
792
790
791
790
783
782
774
776
774
775
773
771
767
764
767
761
760
758
759
756
759
760
758
758
759
756
760
760
761
759
761
763
766
772
774
776
781
781
790
792
793
796
793
799
800
806
809
816
820
823
825
825
826
826
826
824
829
832
834
836
840
841
841
841
840
837
835
838
837
839
839
841
844
842
842
838
834
834
834
834
835
836
840
841
841
838
837
837
838
837
831
830
830
830
833
835
835
834
834
830
831
828
831
830
831
832
832
835
836
838
837
836
836
833
832
831
831
836
838
837
842
842
840
839
839
834
834
837
839
842
841
844
846
843
844
840
840
837
835
836
837
839
839
841
845
845
842
838
839
837
842
841
842
846
849
857
860
862
862
864
863
864
861
866
866
875
882
889
896
891
885
884
878
870
868
865
867
868
875
881
891
890
888
881
873
862
855
852
849
848
847
847
843
840
838
837
835
833
831
830
830
828
831
835
833
833
833
833
832
831
831
828
831
829
834
835
837
835
839
834
834
832
834
832
830
831
832
828
831
830
831
841
856
879
908
938
966
983
985
983
987
999
1027
1065
1099
1116
1098
1035
942
840
751
692
659
641
634
623
613
606
595
590
588
588
594
596
601
604
608
612
618
628
647
672
704
733
759
779
797
805
807
810
811
811
816
817
823
826
830
831
834
834
832
833
829
829
826
827
827
829
830
830
830
827
825
821
816
815
813
809
807
809
811
810
806
805
803
802
798
797
797
794
788
789
787
787
786
785
784
783
779
783
779
781
781
783
785
786
790
792
792
794
794
795
798
798
800
808
815
818
826
829
831
831
833
833
837
839
841
848
850
853
856
857
857
858
857
856
855
857
861
864
865
867
870
867
864
862
863
861
864
862
861
861
863
860
861
858
862
861
862
860
856
859
858
860
860
860
860
857
852
853
853
849
854
851
850
851
853
853
855
858
854
854
853
851
853
852
851
853
857
857
858
857
859
857
855
854
855
851
855
855
860
859
864
863
861
863
863
860
859
855
857
859
861
864
863
858
857
859
859
859
858
858
859
862
864
867
871
871
875
872
871
873
878
881
881
883
888
890
896
898
904
911
910
910
908
904
899
892
892
891
896
897
905
909
912
912
907
902
895
887
883
878
873
871
867
867
859
859
857
853
852
855
855
856
855
854
857
857
854
851
851
850
849
847
853
855
857
855
852
851
852
848
850
847
846
850
850
851
854
853
850
851
849
851
860
885
914
951
980
1003
1009
1009
1012
1029
1062
1098
1128
1123
1081
998
893
785
705
650
623
612
608
606
600
599
597
598
600
601
602
608
614
624
637
660
684
711
745
774
795
815
828
826
829
831
828
832
833
835
835
839
845
844
843
846
844
843
839
839
841
836
836
837
836
833
833
833
831
825
824
818
818
813
813
811
811
809
812
804
801
801
795
794
795
792
790
790
793
792
790
787
787
791
790
790
790
791
788
793
793
797
802
807
813
816
819
820
825
825
830
833
839
843
847
850
850
855
856
853
854
856
859
858
862
866
869
870
872
870
870
870
870
870
870
870
870
870
874
871
870
869
868
871
867
862
866
867
868
871
872
868
864
865
864
861
859
859
859
860
862
866
867
865
865
863
864
860
863
861
862
866
865
869
870
869
863
864
864
861
860
864
863
865
867
866
870
871
868
868
867
865
865
867
867
871
871
870
871
874
876
872
869
869
866
863
867
868
872
873
873
876
871
871
871
871
872
873
872
873
877
878
882
885
885
888
886
886
890
890
893
893
897
906
909
916
918
921
921
915
909
905
900
896
898
900
906
910
914
918
921
915
912
904
898
891
887
885
885
883
883
879
874
872
865
859
863
861
863
867
870
871
866
864
862
862
859
860
860
864
864
864
868
866
866
865
867
861
861
859
861
860
860
863
865
864
859
858
855
853
859
869
887
920
950
986
1015
1029
1033
1029
1023
1025
1039
1071
1106
1138
1148
1129
1073
987
886
795
726
682
661
647
642
637
632
629
626
625
624
622
622
619
624
628
639
653
672
702
731
759
785
805
818
829
836
836
838
841
846
846
854
855
856
857
854
856
853
855
853
853
856
860
859
857
855
852
850
848
844
843
841
842
841
843
838
836
833
826
824
823
820
814
811
814
814
815
810
808
807
804
797
795
795
797
794
795
797
799
804
805
804
804
801
802
803
808
806
813
817
823
826
833
834
837
840
842
849
851
852
856
863
866
871
873
873
874
873
871
873
872
878
879
882
883
884
883
882
881
881
879
878
878
877
875
882
881
882
883
880
878
877
878
877
873
873
873
875
877
878
879
879
876
871
872
870
872
872
872
874
872
872
872
870
866
867
871
869
867
868
869
873
873
876
878
876
876
873
870
873
870
872
874
874
876
876
877
875
875
872
873
870
871
870
872
874
877
881
879
883
878
879
877
873
875
879
880
883
886
891
892
894
893
896
900
900
897
898
902
908
914
917
922
927
929
923
920
912
910
903
900
901
904
912
921
926
928
926
920
915
906
897
892
888
886
885
884
881
879
873
869
861
860
863
865
864
868
871
871
869
867
865
862
861
862
862
862
865
866
865
868
868
868
869
867
862
863
864
866
866
867
866
860
862
856
859
869
886
917
950
981
1006
1015
1013
1010
1014
1036
1063
1112
1143
1152
1126
1060
965
863
778
714
678
655
645
636
627
617
612
611
615
616
620
621
623
627
634
642
655
675
704
733
764
792
811
827
837
843
845
841
847
845
847
850
857
855
860
859
863
862
857
856
855
854
854
855
855
858
854
850
851
849
847
841
839
835
833
833
837
830
829
832
828
827
822
821
814
811
811
806
810
810
812
810
806
804
803
803
801
799
798
799
801
804
806
808
809
811
813
814
818
818
816
821
826
834
841
847
850
851
849
851
853
853
858
861
865
868
873
874
875
874
874
876
875
876
872
877
879
878
880
881
881
880
876
875
874
872
873
872
876
877
879
878
875
874
872
867
862
865
865
867
867
866
869
866
866
866
865
864
863
857
861
862
862
864
865
865
861
863
863
862
859
857
858
864
863
865
868
868
866
866
865
862
860
857
862
862
866
864
868
868
868
866
865
865
862
865
864
865
867
867
867
867
867
867
864
862
860
863
863
866
868
870
872
876
881
880
881
881
881
880
884
886
892
894
899
903
908
911
911
908
901
896
892
892
888
889
891
893
897
900
900
905
903
897
893
881
878
873
867
864
865
861
852
850
850
848
849
849
850
850
853
849
850
846
845
844
843
843
843
844
844
845
842
846
844
845
841
842
842
841
843
845
842
842
841
842
841
843
854
874
900
929
960
984
995
995
992
996
1016
1049
1087
1114
1114
1079
1004
903
800
721
666
639
626
622
610
603
597
590
587
587
593
592
596
601
607
616
625
644
667
697
727
752
780
795
810
815
820
821
821
825
827
828
829
831
834
835
835
836
833
830
833
824
826
824
826
826
829
825
824
824
825
821
818
813
811
810
808
805
806
802
803
801
797
794
793
788
785
786
784
787
786
786
787
787
787
782
783
783
777
779
779
780
787
791
790
795
796
797
799
800
803
807
811
817
824
828
832
835
839
841
841
840
839
842
844
848
851
854
856
858
856
857
854
853
851
853
851
853
858
858
860
858
858
858
856
854
853
853
847
846
853
852
851
855
855
855
855
854
853
853
850
851
851
853
852
853
852
851
851
850
845
845
842
846
845
845
849
851
851
850
849
847
845
842
842
847
847
853
854
852
852
850
849
846
849
847
844
843
845
848
851
851
853
853
852
852
848
849
847
849
853
854
854
856
855
856
849
852
848
852
851
857
856
861
864
870
871
869
871
871
872
872
874
876
884
886
898
905
907
906
900
895
889
885
882
881
881
884
891
896
902
903
902
894
888
874
864
859
854
855
859
858
856
851
848
848
845
844
844
843
842
846
847
847
846
846
845
840
840
838
839
841
842
844
843
847
844
844
840
840
835
833
837
834
840
840
837
836
837
834
831
848
863
890
921
953
983
998
999
992
988
1000
1022
1060
1099
1125
1128
1096
1029
931
836
754
691
656
638
624
614
603
596
589
583
584
585
591
592
595
595
602
613
622
643
675
708
742
768
787
802
807
810
809
811
810
818
817
824
826
829
832
832
834
828
828
826
828
825
825
824
826
827
828
827
824
819
814
814
810
808
809
808
811
807
808
803
799
795
789
788
787
785
784
783
783
785
784
784
783
781
775
774
774
772
774
776
779
780
781
780
782
783
782
780
784
789
792
798
799
803
806
807
812
818
821
823
826
827
828
833
835
841
844
845
848
845
849
847
848
849
853
854
856
857
857
854
858
854
856
850
850
853
855
856
857
860
859
860
856
854
853
852
847
850
850
846
851
853
854
850
850
848
847
844
843
842
845
849
850
851
852
849
850
847
849
848
846
845
846
846
846
850
849
850
850
849
843
845
846
845
847
849
850
852
852
852
849
851
849
847
846
844
846
849
851
854
853
852
848
848
851
848
850
847
852
852
853
854
858
856
858
862
859
861
866
869
869
871
874
877
880
881
889
890
895
896
902
902
899
898
893
888
881
881
879
883
886
889
892
895
894
897
893
881
878
871
868
862
855
853
850
849
847
847
846
847
847
846
845
844
841
842
842
840
839
842
841
845
846
843
844
843
839
839
840
841
838
842
841
844
844
844
841
834
834
834
839
854
872
905
938
967
986
989
985
981
983
1002
1034
1078
1112
1130
1111
1050
954
847
752
683
641
620
610
604
602
598
597
598
599
601
599
599
606
609
619
633
657
686
719
749
776
791
806
816
819
820
823
824
830
832
838
839
838
838
835
835
834
835
833
835
834
835
836
837
837
839
831
826
824
820
817
816
817
818
818
817
815
814
812
808
805
800
797
794
799
798
795
795
794
792
790
789
789
783
785
783
785
786
787
791
797
795
794
798
797
801
801
803
808
815
817
827
828
833
835
840
839
844
843
847
847
853
856
858
863
865
862
865
862
861
859
859
863
865
864
869
870
870
869
867
867
860
864
864
862
864
864
866
866
866
867
863
862
860
859
857
856
860
860
860
862
861
861
858
858
852
855
855
853
856
860
859
864
859
857
855
854
851
850
850
853
856
858
859
860
859
860
858
858
856
858
857
857
856
864
862
863
861
860
862
857
860
862
859
862
861
864
864
865
865
864
862
862
861
860
859
862
867
867
871
874
874
875
877
875
873
876
876
879
881
887
893
900
905
908
908
906
900
895
889
884
879
883
889
894
899
905
904
902
899
895
888
878
872
864
864
871
866
865
860
855
849
849
845
843
846
848
851
853
852
845
843
841
840
844
842
844
845
844
848
847
848
848
846
845
844
844
844
849
845
845
844
846
840
845
843
850
867
896
928
963
996
1018
1022
1022
1014
1017
1037
1070
1100
1116
1097
1033
936
825
731
668
629
612
605
599
592
588
584
580
587
587
590
596
600
606
615
628
648
679
714
746
774
799
813
824
826
824
825
827
828
828
833
834
835
835
835
837
836
835
836
834
832
832
832
830
831
829
833
834
832
826
824
818
816
811
809
806
810
811
810
808
805
802
800
794
796
792
792
787
790
791
786
790
786
783
783
782
781
779
781
782
782
786
788
793
795
798
802
803
809
812
813
816
826
831
836
841
843
846
845
849
847
845
848
849
855
855
858
861
859
861
860
859
862
864
863
864
865
868
866
867
863
865
863
863
858
858
856
857
859
860
861
863
861
858
860
855
854
853
852
851
852
852
856
858
860
857
856
854
851
853
851
849
852
856
856
856
855
855
855
855
855
855
853
850
853
854
856
858
857
859
857
853
853
853
853
852
856
856
859
860
858
856
855
853
854
856
853
852
854
856
859
862
862
861
861
861
857
861
859
861
862
868
866
872
875
878
878
876
875
876
876
879
883
889
898
904
906
904
898
894
888
885
879
880
884
891
898
902
906
903
896
885
878
870
861
860
859
858
861
857
853
850
849
845
842
843
842
845
844
845
845
849
846
848
847
842
839
840
839
840
840
839
844
847
844
844
844
844
845
842
839
839
837
840
835
841
848
862
886
921
954
984
1003
1013
1012
1010
1019
1043
1074
1110
1135
1134
1105
1036
943
841
754
695
667
653
643
633
624
615
608
605
604
605
601
603
610
613
619
625
644
662
689
720
750
771
792
810
817
821
821
822
822
818
824
826
826
827
832
832
832
837
835
833
833
833
831
829
827
824
825
828
826
827
823
816
816
815
812
811
806
805
803
801
800
802
798
794
793
791
784
784
780
778
779
781
783
782
779
778
779
776
776
773
772
770
775
780
783
789
790
793
792
793
797
802
803
807
813
820
826
829
831
832
835
834
838
838
842
844
847
850
854
855
855
859
858
857
857
857
853
858
858
862
865
865
866
866
863
863
859
859
859
856
861
861
864
860
860
861
857
860
857
856
852
850
857
859
859
860
861
859
858
856
856
854
851
851
851
854
855
858
857
857
855
855
851
851
855
854
857
860
860
858
859
860
857
854
852
853
853
853
857
856
857
858
863
860
859
857
856
854
856
855
858
863
864
865
863
863
861
859
856
858
859
861
868
868
874
875
875
881
881
882
882
880
880
885
890
896
902
913
911
913
911
906
900
893
887
883
884
887
892
901
907
911
910
904
897
888
877
871
868
868
868
867
865
862
856
854
851
847
846
847
848
849
849
854
853
852
850
848
845
845
847
845
847
850
849
853
852
852
846
844
848
849
850
846
848
849
850
845
843
836
838
848
856
879
906
938
968
989
996
999
990
992
1006
1037
1081
1120
1146
1145
1097
1012
907
808
725
671
641
624
613
609
603
601
603
606
607
608
611
613
618
629
644
666
694
725
756
780
799
811
823
829
829
828
829
832
833
836
838
842
845
846
844
843
841
839
838
837
834
838
837
836
837
835
834
832
834
829
826
821
820
816
816
816
817
818
816
814
810
805
802
798
795
792
792
795
797
796
795
793
789
787
785
784
783
786
788
792
796
800
802
802
804
808
807
808
815
817
824
828
830
837
840
844
848
847
849
850
854
855
860
861
868
868
870
870
868
869
871
872
869
871
872
876
875
878
873
875
871
871
871
868
866
867
869
873
871
875
874
875
875
874
870
867
865
862
865
864
866
867
868
870
869
868
866
865
866
863
864
865
865
866
866
866
865
869
868
867
867
868
870
869
869
869
870
870
871
870
869
867
865
869
871
874
875
875
874
873
873
869
865
869
868
870
873
874
873
878
877
877
876
875
877
875
878
880
885
887
892
895
899
898
899
898
898
905
910
918
921
922
921
918
911
906
902
901
898
900
905
911
917
920
917
912
902
891
885
883
878
877
873
871
873
870
869
869
869
866
863
862
862
861
862
860
861
861
863
862
863
864
863
859
860
859
859
860
862
863
864
867
870
869
867
866
859
855
857
854
860
871
893
922
955
988
1017
1039
1044
1036
1027
1030
1046
1077
1115
1146
1145
1109
1029
923
815
725
663
630
616
612
611
613
613
613
609
608
608
606
608
614
625
640
659
685
713
742
770
794
812
824
833
834
835
839
842
845
853
856
852
850
853
853
850
855
854
855
857
857
857
857
856
847
845
845
847
847
846
845
847
842
841
836
833
832
827
825
819
818
815
819
820
823
818
814
813
806
806
801
801
800
800
803
802
807
806
807
810
806
805
809
811
811
814
816
820
823
827
830
836
840
839
845
846
846
854
857
862
864
865
867
868
869
869
871
877
876
880
877
882
883
883
883
886
884
882
880
882
882
884
885
889
891
892
890
888
887
884
884
882
883
883
882
884
884
884
885
883
880
878
876
876
876
877
875
876
880
881
880
876
878
877
875
875
875
876
876
875
878
881
880
881
877
876
875
875
877
878
877
881
884
880
879
880
878
875
874
878
875
877
879
880
882
885
880
880
880
878
879
874
875
876
878
879
884
884
886
885
885
887
884
887
891
894
902
903
906
906
908
907
905
908
916
919
925
927
925
923
917
912
906
906
908
911
916
920
925
924
922
919
906
900
894
891
886
884
878
876
873
872
874
877
877
878
877
876
874
873
872
867
867
864
870
871
871
870
874
872
871
872
869
870
868
865
869
870
873
873
870
867
865
859
854
857
863
875
896
931
968
1003
1025
1034
1034
1029
1037
1060
1098
1132
1153
1136
1075
981
877
787
720
678
653
644
641
641
634
632
634
633
628
628
625
631
634
644
663
686
717
746
780
807
826
837
844
