800
805
814
819
825
827
828
828
827
829
828
832
840
844
844
846
849
849
853
856
858
859
859
859
858
857
860
862
862
862
859
851
851
851
853
855
859
858
860
860
860
857
856
858
860
858
856
855
854
858
857
856
853
852
850
850
853
851
854
850
848
843
847
851
854
856
857
851
849
847
848
848
852
851
852
850
852
850
855
857
859
857
856
853
850
849
848
853
861
864
863
858
856
851
853
853
856
858
861
865
866
864
863
863
863
864
872
879
885
889
888
889
885
883
881
884
892
899
905
906
908
902
895
886
882
880
885
891
900
900
904
906
903
899
891
883
877
875
870
872
867
864
861
855
854
849
852
853
852
857
856
853
851
853
857
855
854
854
854
853
858
856
858
855
856
854
857
857
856
855
854
853
852
850
848
842
837
836
844
859
881
903
928
951
959
956
954
958
980
1017
1066
1111
1137
1133
1099
1037
967
908
861
834
814
795
773
753
739
728
722
719
719
716
709
708
704
701
702
707
719
734
757
781
804
822
837
846
847
846
838
834
834
837
839
846
850
856
854
854
856
854
853
846
844
848
844
845
848
850
850
845
843
837
834
830
829
831
832
834
833
832
829
826
819
813
810
811
810
810
809
807
807
806
802
801
798
795
795
797
797
801
798
800
798
801
801
799
806
809
811
809
808
814
819
827
830
832
837
841
846
850
851
854
853
857
860
868
871
871
873
871
872
871
871
869
871
873
880
885
883
884
881
881
879
874
875
875
879
881
884
885
886
882
879
877
876
874
878
875
871
867
868
872
876
879
881
880
879
874
870
868
864
865
866
866
868
876
876
873
870
865
866
867
867
870
873
874
875
877
876
876
871
869
868
865
865
867
870
874
874
876
877
875
872
870
872
871
867
865
865
863
865
867
872
873
872
867
866
866
868
873
872
868
867
871
872
871
869
869
873
877
883
885
885
881
885
888
891
895
899
903
908
907
904
901
893
894
893
896
901
901
899
889
882
876
875
880
885
888
898
903
907
903
893
888
880
876
878
879
876
870
859
851
851
854
860
858
859
850
849
847
851
852
858
856
854
851
851
853
851
852
852
853
855
860
860
857
858
858
856
853
846
843
838
842
848
864
891
924
960
994
1013
1022
1017
1011
1016
1037
1067
1108
1135
1136
1097
1022
929
838
772
732
714
694
685
674
667
661
658
658
654
640
632
628
632
639
649
660
673
694
724
752
780
801
815
819
820
820
817
820
819
824
829
832
832
833
830
833
829
828
827
831
833
835
832
826
826
831
832
827
824
818
813
808
805
810
811
815
815
805
794
787
788
787
789
787
785
788
790
791
793
789
788
782
778
775
773
770
768
774
780
784
791
790
787
780
782
787
790
793
799
809
812
815
818
817
821
825
826
831
832
833
833
836
844
846
848
849
852
847
847
848
849
852
852
855
860
860
863
862
860
860
857
858
859
855
855
856
864
865
865
858
854
853
846
849
852
857
857
858
859
857
857
852
853
850
848
854
857
859
859
857
853
854
856
858
861
863
861
855
850
849
851
858
861
859
856
854
858
857
857
858
856
857
855
855
861
863
866
867
866
863
858
852
851
851
857
863
871
870
870
867
863
862
859
859
862
870
876
880
881
881
885
887
890
891
892
894
897
900
900
904
902
899
891
887
883
878
878
879
876
878
880
885
891
897
905
901
892
884
870
864
863
864
867
868
868
862
856
850
848
850
852
856
853
850
842
843
850
852
856
853
852
847
848
847
846
846
847
848
850
851
848
850
846
838
837
839
840
842
842
843
844
851
870
894
922
951
976
988
988
987
994
1016
1048
1082
1119
1138
1137
1100
1034
957
879
826
789
773
759
744
723
712
699
691
682
677
676
676
674
672
676
680
680
690
705
718
740
764
788
805
817
828
840
847
846
848
846
846
847
843
841
842
846
848
852
850
851
851
851
846
845
843
841
843
844
848
846
845
841
837
834
833
830
830
827
826
826
830
825
820
816
815
814
814
811
807
798
797
800
801
799
798
802
810
813
808
802
794
786
788
795
802
808
810
812
815
816
817
819
824
828
831
835
830
832
838
847
856
858
858
857
852
857
863
864
870
873
876
879
874
877
881
882
883
883
884
885
883
881
880
882
883
888
888
884
884
888
886
887
888
892
891
890
886
881
877
874
880
889
897
901
900
894
891
886
881
877
872
869
869
873
878
884
886
891
890
887
886
882
876
868
865
869
874
880
885
888
891
893
892
896
898
902
904
906
912
917
920
920
918
918
918
918
915
914
916
923
928
934
935
933
927
916
906
892
887
885
889
891
901
901
902
897
891
885
874
872
869
868
870
871
874
878
877
877
876
875
875
878
878
874
871
870
871
874
876
879
881
880
880
881
878
875
873
871
873
871
869
879
881
886
888
884
879
875
874
874
874
875
876
872
868
866
870
878
898
924
951
983
1011
1018
1021
1026
1037
1069
1115
1158
1177
1160
1100
1006
908
824
764
729
707
697
689
681
674
672
672
669
665
656
653
653
657
668
679
695
719
743
772
798
819
834
844
849
851
851
852
852
854
857
854
857
859
861
864
870
872
873
869
866
862
863
858
860
854
856
850
854
853
852
848
845
838
835
833
829
832
832
833
832
833
831
827
822
817
813
813
814
815
816
818
816
816
814
811
808
809
807
808
811
811
814
817
822
827
830
830
833
833
832
832
838
847
852
858
862
867
871
872
874
872
873
875
874
874
876
877
882
885
885
887
886
883
885
885
888
886
886
884
888
890
890
886
885
886
887
888
890
892
890
889
890
884
884
881
880
875
877
876
878
876
878
879
883
886
887
890
882
877
869
871
871
877
881
883
888
885
884
881
879
876
876
876
883
884
881
881
878
879
881
881
884
877
877
878
879
884
884
885
886
881
885
883
885
885
882
883
881
882
882
882
882
884
886
883
879
876
880
885
886
888
887
885
884
882
886
885
888
884
881
875
879
886
889
895
898
897
896
894
889
886
890
892
897
906
909
913
912
913
914
914
919
924
926
925
925
927
923
919
917
905
902
902
906
912
915
922
928
927
928
923
915
905
897
890
884
879
882
880
878
879
877
878
875
870
869
868
867
873
877
875
874
869
866
867
865
867
866
869
869
869
867
867
865
869
870
871
873
869
864
860
859
863
879
907
935
966
991
1014
1019
1015
1013
1014
1028
1061
1098
1136
1161
1170
1137
1068
976
883
805
749
715
695
681
670
659
651
643
643
643
643
644
644
639
639
646
657
676
700
731
763
791
816
825
835
834
831
831
833
841
850
856
856
858
857
855
854
849
849
848
848
849
843
847
846
849
847
844
841
841
839
837
833
831
828
826
830
832
831
825
819
816
809
807
809
808
809
807
810
810
810
809
802
797
793
793
792
797
803
804
810
811
808
808
805
811
813
820
826
831
835
838
838
840
842
844
849
851
855
856
855
859
867
874
877
872
867
869
872
876
880
882
884
882
881
881
880
878
876
875
874
873
874
876
878
879
881
880
882
881
878
877
879
880
880
878
873
866
864
861
867
871
874
874
874
872
866
867
866
863
864
865
868
868
868
866
865
864
863
866
865
863
866
869
872
875
876
874
873
866
861
859
861
866
871
873
878
878
874
872
870
868
863
864
867
866
865
865
868
871
874
876
875
874
877
873
872
871
874
874
875
877
877
881
885
890
890
894
891
891
890
895
902
911
919
918
912
906
899
897
892
884
886
886
893
903
907
913
916
911
905
896
891
882
878
874
868
867
865
869
867
863
863
861
860
859
858
854
854
850
849
850
854
861
860
859
856
859
861
858
858
858
859
855
858
855
852
848
844
845
841
845
847
856
868
887
914
949
986
1014
1025
1022
1014
1013
1021
1049
1082
1116
1148
1147
1108
1041
949
854
778
728
701
691
675
672
667
661
652
645
641
639
638
638
643
649
654
664
680
702
728
757
787
813
833
838
839
839
834
833
833
837
840
840
837
835
838
839
846
845
845
841
839
839
839
836
833
831
830
828
829
833
834
830
826
819
810
810
807
807
809
813
811
813
809
803
798
794
792
788
792
790
792
789
792
797
797
799
798
794
789
787
787
788
794
796
794
800
803
806
805
811
814
821
819
821
826
831
835
847
849
852
854
855
853
849
848
846
854
860
868
874
876
877
872
869
868
869
873
871
875
877
874
877
880
880
878
880
877
876
879
882
884
886
883
881
878
879
876
876
872
874
867
869
873
877
878
877
875
875
872
871
871
870
869
868
869
869
870
869
869
872
871
870
870
870
870
865
871
874
879
882
874
874
875
869
866
866
866
869
876
881
884
885
880
879
877
872
870
871
870
867
865
869
873
880
881
881
878
877
881
880
882
882
884
891
898
900
899
896
896
897
896
897
900
905
911
918
923
925
924
921
914
909
902
900
901
901
907
912
919
922
923
918
916
914
913
911
906
903
896
891
882
880
876
873
875
872
870
872
867
869
871
874
871
869
867
869
864
863
862
864
864
866
867
870
870
873
874
872
873
866
865
863
864
855
852
850
848
853
869
887
911
939
967
993
1006
1008
1010
1014
1036
1069
1108
1151
1173
1163
1119
1043
954
869
808
773
756
739
725
709
693
679
674
668
669
669
669
667
663
665
673
683
700
725
752
781
800
817
830
840
849
851
856
852
851
851
850
851
849
850
855
851
852
859
856
855
854
850
850
848
848
850
850
847
845
847
844
840
836
829
825
824
824
827
827
825
825
820
817
817
817
816
818
818
813
808
806
805
804
809
808
806
807
808
802
799
801
803
804
808
812
817
818
821
818
816
819
824
831
841
848
854
853
856
859
861
864
863
864
865
863
864
871
876
881
887
891
888
886
879
877
878
877
878
881
884
886
889
884
887
888
887
882
877
878
877
879
882
885
888
884
882
878
873
873
872
875
877
877
879
881
877
876
871
872
872
871
872
870
865
869
873
878
881
880
884
880
878
874
871
872
873
873
877
881
883
882
875
873
875
872
876
875
879
879
882
883
885
885
881
877
875
875
878
882
882
882
880
879
886
891
900
901
903
906
907
907
905
906
907
907
912
917
929
933
931
926
920
913
910
910
908
911
911
911
916
922
925
929
928
926
920
906
897
892
893
897
898
892
886
878
870
868
870
870
874
878
879
884
884
880
880
873
871
869
862
866
871
875
876
881
882
883
881
876
875
871
873
873
876
874
870
868
863
863
865
874
891
919
951
982
1005
1012
1008
1010
1023
1052
1092
1137
1171
1179
1154
1096
1020
939
874
826
793
770
751
731
715
700
691
686
680
681
682
682
680
684
692
703
721
740
772
797
823
841
855
857
856
855
855
854
857
855
858
861
865
863
866
871
873
870
870
864
857
854
857
859
858
861
861
858
855
851
849
847
846
842
840
837
837
835
837
834
832
832
829
831
824
820
815
811
809
812
819
824
823
818
809
807
806
806
815
820
826
828
830
832
834
831
833
837
842
843
848
856
861
863
868
870
873
875
877
879
880
881
882
885
888
887
891
889
892
894
895
895
894
894
898
896
899
900
902
902
898
900
895
892
892
890
892
893
891
895
896
891
893
890
892
892
895
891
890
890
890
888
885
883
886
885
886
888
886
884
883
884
889
888
893
887
887
885
889
891
894
892
892
890
891
895
893
896
892
891
885
885
881
887
886
891
892
893
898
898
893
893
894
894
890
890
886
890
895
898
901
903
903
902
899
898
895
900
905
913
914
920
923
924
918
919
918
920
927
933
938
940
940
936
937
932
929
924
915
915
918
917
928
933
940
944
947
942
931
920
909
900
896
893
892
892
889
893
893
891
891
887
882
880
880
881
883
884
885
885
886
884
880
879
878
873
875
877
881
886
886
884
885
886
884
883
880
875
868
864
860
867
889
915
949
979
1001
1013
1020
1017
1026
1046
1077
1123
1168
1199
1202
1162
1094
1010
921
852
801
774
749
736
723
706
698
688
682
677
671
670
668
671
673
677
687
700
728
754
786
811
831
844
849
852
852
855
855
857
863
868
875
880
877
873
868
860
863
867
866
866
865
870
868
866
862
857
854
855
855
859
856
854
847
847
843
841
836
838
836
828
831
827
829
830
828
827
828
821
822
820
817
816
815
811
810
808
811
813
816
822
819
817
814
813
815
819
822
828
833
841
841
844
844
848
853
855
859
860
863
869
874
877
879
879
879
884
887
885
884
886
885
889
890
890
898
899
901
900
896
893
892
894
896
894
894
894
894
893
892
891
888
890
891
892
889
890
890
888
887
890
890
890
885
877
875
874
878
882
889
893
890
888
881
876
874
875
878
884
883
884
887
888
885
884
882
879
880
879
880
884
887
889
890
889
887
881
879
884
884
882
881
880
881
886
890
894
890
889
884
888
883
886
885
886
886
889
893
897
895
894
891
889
883
882
882
884
889
896
901
905
911
913
913
907
900
895
895
902
913
921
931
937
940
942
940
935
925
917
912
908
903
907
916
918
922
927
929
930
931
925
920
914
905
900
896
896
892
890
886
882
885
881
875
876
875
879
879
884
879
877
874
873
869
868
869
872
873
876
874
875
874
877
877
876
874
876
877
879
880
877
875
868
864
864
867
874
891
916
944
970
994
1007
1014
1010
1011
1025
1052
1093
1143
1176
1187
1163
1101
1015
919
833
775
737
717
700
689
675
664
656
652
650
653
656
651
653
653
660
670
689
712
740
767
793
814
832
843
846
851
850
851
851
852
852
856
861
866
869
867
866
864
857
855
853
855
856
862
859
853
851
853
855
860
859
855
853
845
842
844
838
837
838
838
834
831
829
827
823
825
823
824
824
823
820
821
819
817
816
812
808
808
808
813
818
818
813
813
820
821
827
826
825
824
828
830
837
841
846
851
855
853
860
863
869
869
873
873
873
876
878
878
881
886
882
881
877
877
882
886
892
898
900
899
895
889
888
886
886
885
889
890
890
891
887
889
889
888
885
888
885
885
884
884
886
888
889
884
881
878
876
877
878
883
888
891
888
887
883
877
878
877
874
870
871
874
879
882
882
885
892
891
886
882
876
877
878
877
881
882
887
886
887
888
885
884
885
882
881
883
881
883
881
884
885
887
888
885
883
884
887
886
890
892
895
890
892
897
901
902
905
906
907
911
915
919
917
920
925
931
935
939
939
933
924
915
907
906
909
911
918
924
931
933
937
936
930
920
910
901
896
896
895
893
891
886
883
878
877
876
875
874
875
878
879
880
877
871
872
872
873
874
878
877
878
877
877
881
878
877
874
870
871
872
874
876
874
871
870
879
892
912
944
973
1000
1015
1022
1022
1024
1042
1074
1114
1156
1185
1177
1128
1037
927
829
755
714
693
687
680
670
657
647
642
640
636
634
641
644
651
658
674
694
723
753
783
808
830
840
852
855
860
865
867
863
862
860
861
868
874
880
880
877
875
873
869
873
871
872
865
863
859
860
863
865
870
866
862
858
850
848
841
842
842
841
843
838
838
840
839
835
836
826
824
824
821
821
822
826
826
825
818
814
816
817
823
824
825
829
830
832
832
839
844
847
848
854
853
858
860
862
867
877
885
888
886
887
882
883
884
882
888
888
892
897
897
902
904
905
900
896
895
892
891
893
893
895
897
901
902
901
901
900
896
897
894
898
900
901
900
896
894
892
891
890
888
887
887
885
888
885
888
892
889
888
887
889
887
892
892
891
888
884
882
880
883
884
884
888
894
898
897
896
894
892
892
894
891
891
893
892
889
883
881
882
888
895
899
899
896
897
895
893
895
895
896
898
898
898
901
898
898
896
899
906
909
911
911
914
911
911
912
922
924
925
927
929
931
932
936
938
940
941
937
932
927
926
921
921
921
928
934
941
948
943
931
918
906
901
900
899
898
893
888
884
879
881
882
883
883
882
881
882
882
882
878
880
884
888
886
883
877
875
873
871
874
876
876
876
878
881
880
884
879
867
859
856
861
872
891
915
946
978
1006
1034
1050
1052
1050
1048
1064
1096
1133
1167
1185
1162
1098
999
890
797
733
694
677
667
655
637
629
624
621
620
618
619
623
622
624
625
625
643
669
706
744
775
802
819
832
837
842
844
847
847
853
858
858
862
863
864
862
862
861
861
862
858
858
856
852
855
863
865
864
859
851
850
847
848
849
846
846
843
839
839
836
836
831
828
825
822
821
821
820
822
823
822
816
813
810
806
806
805
808
810
812
813
811
812
815
816
816
819
820
825
828
834
839
845
850
856
856
862
865
863
866
866
867
872
875
880
883
887
884
884
881
885
882
887
890
891
892
893
896
889
890
891
893
892
891
894
890
890
892
892
893
892
889
887
