784
782
779
774
772
769
768
765
759
756
753
751
750
747
747
745
742
739
738
734
731
729
721
721
718
713
712
711
709
709
701
703
698
697
694
691
689
690
687
686
684
686
685
680
681
680
680
680
675
668
662
657
655
650
642
639
630
620
612
600
593
586
583
583
583
586
589
590
597
602
607
616
626
635
646
657
669
683
692
701
710
723
733
742
751
759
769
780
784
790
796
799
799
799
798
800
800
802
805
807
804
806
806
803
806
803
802
805
802
805
808
810
812
813
809
810
805
807
809
808
809
808
811
810
815
817
818
815
816
812
811
809
811
812
814
813
817
821
815
818
815
816
816
815
814
815
818
820
819
823
821
821
817
820
819
815
819
817
819
823
823
825
823
823
821
820
820
819
819
821
824
822
823
827
825
826
822
823
823
819
819
822
823
825
830
834
830
829
825
826
823
825
824
828
829
831
829
833
831
833
830
827
829
826
826
827
832
835
835
838
835
835
835
831
830
830
831
829
833
835
836
837
838
837
834
833
832
833
830
833
837
837
840
842
842
841
838
837
837
833
836
837
836
840
839
840
842
842
840
838
838
839
835
833
837
836
841
842
841
838
838
833
838
837
837
840
840
843
842
844
846
847
845
841
840
839
838
837
835
841
842
843
845
843
843
842
843
840
839
839
841
846
845
848
847
845
844
841
842
840
841
841
843
843
847
848
845
842
845
845
843
841
840
841
844
846
847
851
846
847
850
844
843
840
841
842
842
842
845
847
846
845
845
844
844
843
844
845
844
847
847
850
848
847
847
842
844
844
841
844
842
843
846
848
849
845
847
845
843
840
839
840
846
843
848
851
849
849
847
850
846
850
848
846
844
845
846
854
852
851
849
849
849
851
853
856
860
867
871
878
880
880
882
883
890
894
902
910
915
914
914
917
914
915
910
911
905
900
893
883
873
868
864
857
851
848
847
841
842
847
845
847
848
847
846
847
847
846
846
844
842
843
840
842
844
842
841
837
832
832
839
857
887
936
998
1070
1150
1215
1262
1280
1271
1249
1200
1121
1022
922
845
808
819
844
875
897
904
896
885
866
853
842
842
843
848
849
850
849
848
845
842
839
836
838
837
839
840
840
841
843
842
839
838
837
833
834
834
831
835
835
835
839
840
837
838
833
837
837
836
834
836
836
840
839
839
838
843
839
838
840
836
839
840
842
845
846
845
847
848
850
850
851
851
850
858
860
863
866
865
868
870
872
872
873
876
881
885
892
892
897
900
901
904
904
906
907
909
914
916
917
922
925
922
925
927
930
931
933
929
938
942
939
943
945
946
946
945
936
933
929
924
923
922
919
918
916
910
907
904
895
887
882
877
879
878
878
877
876
874
872
866
868
863
863
861
860
861
865
866
867
863
861
860
862
859
856
856
863
862
869
868
869
868
867
867
866
866
865
867
866
867
868
869
873
873
871
871
869
867
867
866
866
868
870
870
873
870
871
867
866
859
864
861
861
864
865
865
865
863
864
862
859
854
855
854
852
853
854
856
858
857
854
854
854
853
849
851
851
852
852
854
856
855
854
850
848
848
845
845
845
849
853
854
853
854
854
852
848
846
847
847
846
846
849
850
849
849
850
848
845
843
840
841
843
845
849
854
853
858
855
852
854
857
859
862
863
869
873
880
883
879
884
891
900
907
912
912
911
910
910
908
911
907
902
899
893
879
865
856
849
844
842
843
846
843
841
839
839
837
837
834
835
835
837
834
838
838
839
837
835
837
833
835
838
837
835
840
838
834
827
826
831
845
871
914
974
1047
1122
1190
1238
1260
1259
1237
1188
1112
1010
915
841
809
812
840
869
886
891
885
871
854
842
839
838
837
842
844
843
847
844
841
838
835
830
829
830
833
837
839
835
838
839
839
836
836
832
830
833
834
836
834
838
834
835
838
836
837
837
836
837
838
840
840
843
843
846
845
843
842
845
846
846
848
849
853
854
856
857
856
858
859
863
861
864
867
875
875
880
882
886
887
890
891
891
893
901
904
911
914
921
926
928
929
931
933
935
935
941
944
945
951
951
951
953
953
952
947
948
942
941
940
937
932
928
923
917
914
905
898
891
885
879
877
875
873
876
872
868
866
862
859
854
853
852
856
854
857
856
856
856
854
854
851
847
848
849
847
852
852
854
854
858
856
854
853
854
854
854
858
860
863
862
862
863
860
861
868
876
890
916
944
977
1010
1043
1081
1119
1160
1205
1246
1286
1326
1359
1387
1407
1418
1421
1420
1415
1402
1386
1370
1355
1346
1343
1350
1357
1359
1356
1341
1316
1289
1254
1221
1184
1136
1075
1006
938
879
842
829
822
825
828
826
818
806
799
791
786
783
784
779
777
773
768
763
762
757
755
754
755
755
753
750
751
746
740
735
730
729
725
725
725
724
723
717
714
709
707
701
699
698
697
699
701
700
700
696
693
692
688
685
685
684
687
687
686
680
674
667
661
655
648
641
631
625
613
605
595
589
582
578
574
572
572
572
574
577
581
588
595
601
611
618
629
640
649
655
665
674
688
699
714
726
736
751
759
765
768
773
778
782
786
793
797
799
802
803
801
803
803
801
798
801
800
803
804
807
811
808
808
807
806
806
805
803
805
806
806
808
811
812
813
811
808
803
805
808
809
812
810
813
816
818
816
815
814
814
813
814
816
815
817
819
820
820
820
818
816
813
813
814
815
818
817
820
823
823
819
820
816
816
815
816
814
817
820
820
823
822
819
818
816
816
819
818
816
819
819
822
825
825
825
825
824
821
824
822
820
823
825
825
829
828
829
827
824
825
822
824
822
824
823
827
832
828
830
829
827
827
826
824
825
828
830
830
830
830
830
828
827
828
832
830
827
827
831
833
836
835
835
831
833
833
827
832
831
831
831
835
838
835
838
837
834
836
832
832
831
832
836
835
838
836
836
834
831
830
835
831
831
834
838
839
837
839
837
839
836
836
831
832
835
833
837
836
840
839
836
837
836
836
833
834
836
837
839
844
843
843
845
842
840
837
834
830
833
831
836
835
836
841
843
838
839
837
836
834
833
835
835
836
841
841
840
840
836
835
833
832
834
834
838
841
842
845
845
842
840
839
834
839
834
834
837
839
845
846
843
846
841
841
838
841
841
842
843
845
845
845
845
844
841
841
840
838
838
841
842
845
845
849
847
847
843
842
839
838
842
844
847
850
856
857
860
863
864
861
864
867
870
876
879
885
894
900
904
908
909
904
900
899
901
906
906
905
902
895
885
872
858
848
837
836
834
835
837
837
837
839
839
838
836
829
830
830
831
831
833
833
839
843
839
840
834
830
825
819
814
816
830
849
880
923
977
1046
1113
1178
1223
1248
1257
1245
1212
1148
1060
955
868
816
803
822
849
869
880
879
873
860
848
840
833
831
829
833
830
828
828
830
827
829
829
831
832
833
828
827
829
825
824
824
825
827
828
828
827
827
827
825
823
824
821
824
825
827
827
829
827
826
825
824
824
822
823
828
830
832
832
833
831
830
831
830
831
831
834
835
839
843
845
848
845
845
845
845
847
848
850
856
857
862
865
868
870
870
873
872
877
876
880
882
885
892
896
898
898
901
900
901
903
907
906
911
913
919
919
923
924
923
919
922
922
921
920
920
920
918
917
918
911
909
903
899
893
889
881
883
877
875
873
872
868
865
861
858
853
856
851
855
855
854
854
852
853
852
849
846
843
846
848
848
852
854
856
858
859
857
857
857
853
854
855
858
859
861
859
864
865
860
860
858
855
855
855
854
857
861
860
862
860
860
858
855
853
851
848
851
850
853
852
855
850
851
845
846
842
845
841
843
844
846
848
849
848
844
846
842
836
839
835
837
840
840
843
845
843
845
840
839
836
837
836
837
836
837
839
842
840
840
839
836
834
837
836
834
836
836
840
842
845
841
841
838
833
832
830
832
835
838
839
841
840
835
839
842
840
841
842
843
848
853
860
865
865
867
869
871
875
881
886
894
902
905
907
910
905
903
900
898
897
892
884
878
866
859
849
843
837
832
831
831
830
833
831
832
832
833
831
832
829
829
826
822
824
825
828
829
831
832
834
836
834
832
829
822
818
816
825
847
879
923
982
1051
1123
1184
1229
1253
1254
1241
1204
1141
1058
959
873
821
807
820
847
869
879
879
871
858
848
842
839
837
837
836
836
832
831
833
828
827
828
833
834
837
836
835
832
829
827
827
825
826
828
829
831
832
833
833
830
830
830
827
829
831
833
834
836
838
840
836
835
837
836
836
837
839
839
839
843
849
849
849
850
847
849
849
852
856
858
864
864
869
866
870
873
876
875
879
882
888
890
895
896
906
906
910
910
914
914
914
920
922
926
927
935
939
938
939
941
940
936
938
940
941
944
941
940
940
934
930
921
916
909
903
896
890
887
884
880
878
874
866
865
859
855
852
850
849
848
850
849
849
848
847
848
845
843
842
843
840
842
843
841
843
845
846
846
845
843
839
843
845
849
852
852
852
852
851
854
855
853
854
853
852
851
852
854
855
857
860
869
887
905
933
962
994
1032
1068
1108
1151
1185
1227
1266
1303
1332
1358
1376
1392
1400
1404
1400
1395
1385
1365
1349
1340
1335
1337
1343
1345
1342
1331
1310
1281
1246
1201
1154
1083
1010
935
873
832
811
809
814
818
817
807
803
790
780
772
765
767
766
766
768
766
761
755
750
745
746
741
741
740
740
740
740
736
735
733
730
726
724
723
721
723
726
724
725
728
724
722
720
720
718
723
724
723
719
714
708
702
696
690
679
671
659
646
631
619
602
594
588
581
574
567
563
560
556
553
550
545
550
548
549
553
556
554
558
559
562
566
574
581
592
601
612
624
635
644
653
664
672
682
689
702
714
724
738
748
754
758
762
763
765
771
772
773
777
782
783
783
786
787
787
785
779
782
782
782
784
781
783
788
785
785
785
784
780
780
778
780
781
787
787
790
791
788
783
786
788
787
786
786
789
791
792
793
796
795
793
795
791
792
787
792
795
799
799
801
800
799
798
793
793
792
790
790
793
797
797
799
799
798
797
796
795
795
794
797
799
799
802
804
807
801
805
800
803
800
801
802
801
806
805
807
806
805
806
805
802
804
806
806
808
811
811
813
810
811
810
805
808
807
806
808
811
811
814
819
819
820
817
815
814
813
810
808
814
818
818
819
820
820
815
815
813
816
815
817
815
817
818
822
818
820
817
816
814
812
810
811
817
814
818
821
820
817
819
821
817
817
815
810
815
818
817
813
816
818
819
815
817
814
814
813
815
819
822
822
822
820
820
818
821
817
817
819
821
821
822
825
823
824
826
823
821
821
819
816
821
824
825
824
826
824
822
822
819
821
820
818
820
820
821
824
827
827
825
822
819
820
817
819
823
820
824
823
820
818
819
819
819
819
821
817
818
822
822
825
824
822
823
823
821
818
817
816
820
823
823
824
824
822
821
819
817
819
816
820
820
823
824
825
826
825
826
825
824
821
822
823
823
824
825
826
829
824
828
824
825
820
819
823
821
827
831
834
835
838
840
841
843
844
844
850
853
860
862
868
874
882
887
886
889
887
886
884
883
884
888
889
888
887
873
867
853
840
832
823
823
821
825
823
825
827
827
825
824
821
819
818
819
819
824
827
827
826
824
822
818
815
811
806
807
816
831
858
899
944
1001
1073
1139
1191
1226
1244
1245
1229
1189
1126
1039
938
853
803
794
810
838
862
872
871
860
851
840
832
827
823
823
824
823
824
825
822
825
826
826
825
822
821
819
817
816
818
817
820
824
823
821
821
820
819
817
815
815
816
814
815
818
815
818
819
818
817
817
818
818
819
818
820
822
825
824
825
824
824
821
824
824
827
829
833
833
836
839
838
838
839
839
840
841
844
847
849
853
857
859
863
864
868
869
869
869
872
879
883
885
889
893
894
896
896
892
898
895
901
903
908
914
919
923
922
927
925
923
924
920
920
918
918
918
917
914
906
902
895
893
889
882
879
876
870
870
870
866
863
860
853
851
853
852
851
851
852
856
853
855
854
854
851
851
847
846
845
850
852
854
858
859
857
857
855
857
855
854
855
855
853
858
861
864
861
859
857
857
855
858
871
895
919
955
985
1020
1055
1093
1134
1179
1222
1268
1310
1351
1381
1404
1422
1429
1432
1427
1420
1403
1385
1369
1354
1344
1350
1350
1356
1360
1353
1341
1321
1291
1258
1222
1180
1131
1070
999
928
869
832
814
809
812
815
812
805
797
786
780
776
772
768
764
756
754
752
748
746
746
746
743
743
740
736
732
733
728
727
723
719
720
719
716
718
713
708
703
696
693
688
687
683
680
680
680
679
679
675
670
668
662
658
658
655
657
657
657
663
662
655
648
641
636
630
629
626
622
620
611
607
598
589
584
577
568
565
564
563
567
574
584
586
591
598
605
612
618
623
640
650
662
675
687
699
714
722
734
740
751
755
762
764
773
777
782
786
783
783
787
786
784
783
784
785
787
787
788
791
793
790
787
787
790
789
789
788
790
790
796
797
797
794
794
791
791
792
791
792
792
796
797
799
800
797
798
799
795
798
797
798
801
798
805
805
805
804
805
805
801
799
798
799
801
804
805
805
809
806
806
805
801
801
801
800
804
806
807
806
806
807
806
806
805
805
801
803
805
808
810
811
809
808
809
809
806
807
807
806
809
810
810
813
812
813
812
812
813
809
810
809
813
815
816
816
818
820
818
817
815
815
815
812
816
818
816
821
822
820
819
818
813
815
816
811
815
815
818
820
820
819
816
820
819
818
816
815
818
822
822
824
826
823
825
822
822
821
818
818
819
819
822
824
824
822
819
821
821
818
821
821
823
826
824
827
828
825
824
824
823
819
822
822
823
826
827
830
828
827
825
826
825
824
825
819
818
824
825
827
829
828
827
823
823
822
823
824
821
824
823
827
831
830
829
829
828
824
823
822
825
828
827
832
832
833
834
831
830
830
825
825
826
828
830
833
830
833
831
830
825
823
824
825
825
828
825
830
833
829
833
831
830
828
828
828
831
832
835
835
832
834
833
836
834
832
832
832
832
833
837
839
837
837
837
834
834
833
834
833
834
838
839
839
842
839
840
845
845
848
851
854
859
861
862
869
873
877
884
889
900
902
902
901
897
897
897
899
900
896
889
879
869
857
847
838
834
830
832
831
835
837
834
834
830
830
825
826
825
828
828
831
831
828
830
829
828
824
819
818
809
808
813
825
843
872
912
965
1030
1101
1165
1215
1246
1252
1245
1213
1157
1070
969
873
816
796
809
838
866
877
877
872
861
847
835
828
822
820
820
824
828
825
827
825
827
825
826
822
819
819
822
819
820
820
823
824
825
825
821
822
820
818
817
817
815
816
819
821
821
822
824
821
822
819
817
816
820
821
819
825
827
827
823
823
822
822
820
824
826
832
834
835
836
835
833
832
833
835
839
840
841
846
848
851
855
857
858
858
860
863
865
868
870
873
876
881
884
886
890
889
892
892
892
896
899
903
904
907
913
913
913
915
916
915
918
917
920
922
925
928
932
927
926
923
920
916
912
907
906
902
899
896
891
887
887
878
875
871
871
865
862
863
862
858
859
855
853
849
849
847
846
846
850
849
852
855
857
856
853
849
849
846
851
850
851
854
855
857
860
858
856
852
855
855
853
853
854
854
855
858
859
860
859
856
853
853
854
850
849
854
852
855
858
855
853
852
851
848
848
845
845
844
846
846
851
849
846
847
848
845
846
847
844
844
846
844
844
844
842
841
840
839
839
838
837
840
839
838
841
840
837
840
836
836
834
833
835
837
840
841
843
840
835
841
840
837
839
834
836
838
840
842
845
846
842
845
847
845
850
853
860
862
866
868
874
875
882
888
893
901
899
899
898
896
896
898
900
898
891
885
878
868
859
845
839
836
830
832
835
832
832
832
830
830
829
827
827
828
831
831
832
832
831
829
828
823
821
822
822
825
832
833
834
830
822
819
817
820
833
858
894
955
1021
1096
1166
1219
1248
1257
1242
1204
1135
1039
937
850
807
802
823
849
867
880
874
861
847
836
826
827
827
831
836
833
832
830
826
825
822
820
819
822
825
828
830
829
827
822
822
825
825
820
820
826
828
828
832
831
829
828
823
825
825
824
826
829
831
832
836
833
835
834
832
833
834
834
835
835
840
846
849
848
850
849
848
848
853
852
857
856
863
866
874
873
877
878
879
880
888
887
889
900
902
907
913
916
916
920
919
922
921
923
926
929
932
937
935
938
938
937
933
931
928
924
922
919
918
915
909
905
901
893
884
876
872
864
862
859
858
853
852
849
849
846
841
