972
972
974
977
977
978
975
973
977
978
977
977
975
977
977
979
976
976
972
974
976
975
977
976
974
976
977
978
978
976
975
976
977
975
976
975
975
977
978
980
979
979
978
979
982
983
984
986
989
995
1004
1012
1020
1027
1036
1046
1053
1054
1042
1030
1014
993
966
937
903
876
874
886
898
909
912
917
922
925
925
922
919
918
920
925
926
924
920
914
912
917
924
930
941
952
970
990
997
999
997
993
992
993
994
995
992
994
993
995
996
998
996
997
998
1000
1001
1002
1002
1003
1002
1007
1008
1010
1008
1007
1008
1013
1016
1017
1016
1017
1018
1021
1023
1026
1028
1027
1030
1032
1035
1037
1041
1040
1043
1048
1054
1056
1058
1061
1063
1069
1075
1079
1082
1085
1089
1095
1100
1102
1108
1112
1115
1121
1124
1128
1131
1132
1132
1133
1135
1133
1131
1126
1121
1119
1117
1111
1102
1096
1087
1082
1075
1069
1062
1053
1047
1041
1034
1029
1025
1017
1011
1010
1006
1003
1001
994
993
992
990
990
987
984
984
984
985
983
983
980
978
980
981
982
980
978
978
979
981
982
980
978
980
981
983
984
982
982
980
981
983
982
979
979
978
980
983
983
983
979
979
981
983
983
981
978
977
979
979
981
979
977
976
976
978
978
977
974
972
978
977
978
978
975
975
975
978
977
977
973
970
972
974
976
976
972
973
972
974
975
973
972
970
971
972
972
972
970
970
970
972
974
971
971
972
972
971
972
971
970
970
970
971
971
970
968
968
970
970
969
969
969
968
971
972
972
968
968
966
968
971
970
969
969
968
971
969
969
968
969
968
969
970
971
969
967
966
970
970
970
970
967
967
968
970
969
970
969
966
968
970
971
970
966
966
966
968
972
969
969
966
965
970
970
970
970
968
970
970
969
970
970
968
969
969
971
970
969
968
969
971
971
972
969
967
967
970
971
969
969
968
969
970
970
970
970
968
970
972
971
970
970
967
967
969
970
971
970
967
971
971
971
970
969
968
969
973
972
972
970
969
970
970
970
970
970
969
971
972
971
970
969
970
972
974
974
973
972
971
973
972
973
974
971
968
969
972
974
973
972
970
973
974
974
973
970
971
973
975
975
974
971
972
973
975
974
973
972
970
973
974
974
973
971
971
974
975
973
973
974
970
971
973
974
974
973
973
974
975
977
975
972
972
975
977
977
977
974
975
979
979
980
980
981
982
985
989
989
988
986
988
992
995
994
995
994
995
997
1000
1001
1001
998
996
993
992
992
991
989
988
986
984
983
981
979
975
974
975
976
973
970
971
969
973
971
972
971
970
970
971
971
972
972
971
971
971
970
970
969
971
971
973
974
972
973
972
974
975
978
980
983
985
991
995
1005
1023
1042
1065
1091
1118
1138
1157
1177
1198
1215
1214
1192
1154
1108
1066
1033
1007
986
969
960
966
972
981
983
980
980
974
975
974
972
972
972
970
970
971
972
971
969
968
970
969
971
968
969
969
972
973
971
971
969
968
972
974
973
972
973
972
972
977
976
976
974
974
976
977
977
977
975
977
978
981
981
980
980
980
984
985
986
986
985
985
988
989
990
990
991
987
992
996
998
997
996
997
1000
1004
1006
1007
1008
1008
1011
1015
1017
1017
1017
1018
1020
1023
1027
1026
1025
1026
1028
1031
1031
1031
1031
1032
1031
1030
1032
1030
1028
1026
1027
1026
1024
1021
1017
1014
1012
1010
1009
1006
1004
999
997
997
994
991
988
988
988
987
987
986
984
983
983
984
985
981
981
981
982
983
983
983
982
981
978
982
981
983
981
980
983
984
984
983
983
980
982
984
982
982
982
982
984
984
983
983
983
982
984
984
981
982
982
981
983
984
983
982
983
980
984
984
983
983
982
982
983
985
986
984
981
980
982
983
983
983
981
980
980
982
983
982
978
979
980
981
981
978
979
976
977
980
980
980
978
978
979
982
982
981
980
980
979
980
980
979
978
977
978
982
980
980
980
978
980
980
980
979
977
975
978
981
980
980
977
978
979
980
981
981
977
978
977
980
980
981
979
975
978
981
981
980
980
977
979
981
980
978
978
977
978
981
981
980
980
977
980
982
983
981
981
978
980
983
981
981
981
980
982
984
982
982
982
978
981
983
982
982
980
980
980
982
981
981
980
978
979
982
984
980
981
981
981
981
982
981
980
979
983
984
985
983
983
983
983
983
984
984
982
984
982
986
986
984
983
986
988
991
993
995
995
995
998
1000
1003
1003
1004
1005
1005
1006
1005
1008
1006
1007
1007
1005
1002
1000
1000
998
999
1000
999
998
996
994
993
991
989
984
982
980
984
984
982
980
979
979
980
984
982
981
979
979
982
983
982
981
980
978
982
982
982
981
981
981
984
984
984
982
982
983
986
990
989
990
995
998
1003
1010
1017
1033
1050
1068
1090
1115
1137
1151
1166
1183
1203
1210
1195
1168
1133
1095
1059
1032
1011
998
986
986
993
997
997
995
991
985
987
986
985
983
980
980
981
983
982
980
978
978
978
981
980
979
978
979
980
981
981
979
975
976
979
981
983
982
977
981
982
984
984
981
981
981
984
987
988
984
985
986
989
989
990
988
987
988
992
994
992
992
994
995
997
997
999
1001
1002
1004
1006
1010
1013
1012
1013
1015
1019
1020
1023
1023
1024
1026
1028
1030
1031
1032
1033
1034
1037
1040
1040
1040
1038
1039
1038
1038
1036
1032
1029
1027
1022
1022
1018
1014
1011
1009
1008
1006
1003
998
996
993
993
995
991
990
987
986
987
987
986
985
982
982
983
986
985
985
982
982
983
986
984
983
981
983
983
986
985
985
981
982
984
986
983
983
981
981
982
984
981
981
981
982
981
981
981
980
979
981
980
980
983
981
980
980
983
983
981
980
978
979
979
981
981
981
979
978
979
980
979
979
977
977
975
980
979
980
977
977
978
978
978
980
977
976
977
978
978
977
976
976
978
979
979
978
975
975
978
979
980
978
979
976
977
977
980
978
976
975
975
978
977
978
975
975
977
979
978
978
974
974
977
978
979
976
977
975
978
979
977
974
972
972
976
977
979
976
970
974
975
979
975
977
973
973
975
977
977
977
973
975
976
978
977
976
974
974
977
979
979
977
973
974
976
977
975
977
974
975
976
977
978
975
974
973
976
977
979
976
975
975
977
980
980
977
977
976
978
980
980
977
975
976
979
980
977
979
976
977
977
979
979
978
977
978
978
981
981
983
984
985
990
992
993
992
990
992
995
1000
1000
997
998
999
1003
1007
1005
1002
998
996
996
998
996
994
991
989
989
991
990
988
986
987
993
1000
1006
1014
1022
1030
1040
1049
1054
1050
1040
1027
1012
995
967
930
896
874
873
884
897
906
910
915
917
916
911
907
902
900
901
906
907
903
897
892
893
897
900
902
908
920
936
955
969
977
978
979
982
983
986
986
987
987
990
994
993
991
990
992
995
1000
1001
1001
1000
1002
1005
1007
1008
1007
1006
1010
1013
1017
1016
1017
1018
1021
1024
1028
1029
1031
1032
1035
1039
1043
1045
1047
1051
1054
1060
1065
1069
1070
1074
1076
1080
1085
1092
1095
1097
1102
1106
1112
1115
1119
1123
1126
1130
1134
1134
1136
1133
1132
1131
1130
1126
1121
1114
1107
1104
1099
1091
1085
1076
1068
1061
1055
1051
1044
1035
1030
1027
1024
1018
1015
1007
1004
1004
1005
1000
998
994
993
991
994
991
990
987
988
988
991
990
987
984
986
989
989
990
989
987
986
987
990
989
987
985
985
987
989
989
988
986
984
988
989
990
990
987
986
988
992
991
990
990
988
989
992
991
990
986
988
989
991
989
988
986
987
986
988
990
984
984
983
986
986
987
985
984
983
984
987
985
984
982
980
983
984
983
981
980
979
982
982
983
982
980
978
981
982
982
981
979
978
981
983
982
980
978
978
979
981
982
981
978
978
978
982
981
979
979
978
980
980
981
978
976
977
979
980
980
978
978
979
979
981
981
978
975
975
977
981
979
979
979
978
979
982
982
980
977
976
979
981
981
980
978
978
981
984
981
979
977
979
979
983
982
981
978
979
982
984
982
979
979
979
982
986
982
981
980
980
981
984
984
983
980
980
982
984
985
981
980
980
983
984
984
982
981
983
985
987
987
983
983
981
984
986
984
982
983
982
984
987
985
984
982
985
986
987
986
985
985
985
988
992
988
990
991
992
996
997
997
997
997
999
1003
1005
1006
1007
1007
1009
1013
1015
1016
1012
1009
1007
1006
1007
1003
1003
1000
1000
1000
1000
996
993
989
988
990
988
987
984
984
982
981
983
984
982
982
982
986
987
984
983
982
983
984
985
985
984
982
982
982
986
986
984
985
986
990
992
996
1002
1002
1006
1020
1039
1057
1078
1096
1119
1142
1162
1177
1198
1207
1197
1171
1140
1099
1055
1024
1004
992
990
992
996
995
993
993
992
990
985
983
982
982
984
980
979
978
978
980
980
978
979
976
975
979
979
977
980
979
979
983
983
984
982
983
984
984
987
985
985
984
984
987
989
988
987
988
988
989
992
991
991
992
992
993
995
997
998
998
997
1000
1003
1005
1006
1006
1005
1008
1012
1014
1014
1015
1015
1019
1023
1025
1026
1026
1027
1031
1032
1034
1035
1036
1037
1039
1043
1043
1043
1040
1038
1039
1041
1038
1034
1031
1027
1024
1025
1022
1018
1012
1008
1007
1007
1002
998
995
993
992
995
992
989
985
986
986
989
988
984
983
983
985
985
985
985
983
983
985
987
989
984
982
983
987
988
986
984
982
981
983
987
985
985
981
981
983
986
984
983
981
982
982
986
984
982
979
980
982
984
984
980
979
981
982
984
984
981
980
979
983
983
982
980
979
981
983
985
983
981
981
981
981
983
982
982
980
980
979
980
979
979
977
979
979
980
979
976
978
977
977
979
979
977
976
975
976
976
975
975
976
979
977
979
978
976
974
974
979
979
977
976
974
976
976
977
976
974
972
975
977
978
975
974
974
974
976
977
975
974
972
974
975
975
974
972
972
973
973
976
973
972
971
971
973
974
973
971
972
971
972
975
974
972
972
971
971
972
972
974
972
975
972
974
974
973
972
973
972
975
973
973
971
972
973
973
973
972
971
973
974
975
974
971
973
972
973
972
973
969
968
971
971
972
973
973
971
970
971
973
972
972
972
972
972
974
973
970
968
974
974
975
975
974
973
971
972
973
973
976
974
973
976
979
979
979
978
980
982
985
987
986
986
987
990
993
996
995
994
994
996
1001
1002
1000
997
995
996
995
995
991
988
987
987
986
983
981
977
976
977
976
974
973
971
970
971
973
974
970
967
969
972
972
970
970
968
967
972
972
973
971
969
968
972
975
972
971
970
972
974
976
976
978
982
985
992
999
1009
1025
1047
1074
1100
1126
1147
1166
1187
1210
1218
1206
1168
1123
1077
1037
1006
983
967
956
958
968
977
982
983
977
973
974
973
970
971
968
966
967
967
969
966
965
964
966
967
968
968
966
966
966
967
968
968
967
965
966
969
970
971
969
968
970
972
973
973
971
971
972
973
975
976
975
975
976
979
980
980
978
979
979
984
985
985
983
982
987
984
991
991
991
989
993
995
1000
1001
1000
1000
1003
1008
1008
1011
1009
1012
1014
1018
1020
1022
1021
1019
1023
1025
1030
1029
1029
1026
1030
1031
1036
1033
1032
1028
1027
1028
1026
1023
1019
1015
1013
1013
1011
1008
1004
997
994
992
994
991
984
980
982
981
983
982
980
976
977
979
978
980
978
975
973
974
977
977
976
974
975
977
974
976
974
973
972
975
979
979
978
975
975
978
979
979
977
975
977
977
978
979
977
976
976
976
979
979
977
975
976
977
980
979
978
977
978
976
981
979
980
975
975
979
978
979
976
973
974
975
978
978
977
977
975
978
977
976
975
975
975
975
976
974
974
973
973
976
975
975
973
971
972
974
975
972
975
973
974
975
976
971
970
971
972
971
974
975
971
969
972
975
973
974
972
971
974
975
975
975
972
970
972
974
975
973
971
971
973
974
977
975
974
971
973
975
977
975
972
970
972
972
975
974
974
971
971
974
975
974
973
970
972
972
975
975
973
971
972
974
975
975
974
972
970
974
977
975
972
971
975
974
975
975
975
973
974
975
977
976
976
975
971
974
975
977
975
975
975
977
979
978
976
974
976
978
978
977
977
976
975
977
979
978
976
977
978
979
978
979
977
976
978
980
982
981
980
978
980
983
986
991
996
1001
1012
1023
1033
1040
1045
1051
1059
1062
1056
1046
1030
1012
986
957
924
894
880
884
897
908
916
922
924
927
927
925
922
918
917
912
914
916
916
913
910
904
905
910
914
920
927
938
951
968
982
988
988
987
986
988
991
993
990
992
994
996
997
1001
998
998
1001
1003
1004
1003
1004
1003
1006
1007
1009
1010
1010
1009
1012
1014
1017
1017
1019
1017
1020
1024
1026
1027
1028
1027
1031
1034
1037
1038
1038
1038
1040
1045
1050
1051
1053
1052
1057
1060
1068
1069
1071
1073
1077
1083
1089
1092
1095
1096
1101
1107
1112
1117
1117
1120
1124
1128
1134
1137
1140
1141
1144
1147
1145
1146
1145
1142
1137
1135
1131
1125
1120
1112
1108
1104
1097
1090
1083
1077
1070
1064
1061
1052
1046
1038
1034
1030
1026
1020
1015
1010
1006
1004
1005
1000
994
991
994
995
994
990
989
986
987
987
988
988
985
982
984
987
988
987
985
983
984
986
988
988
985
983
983
985
987
986
984
983
982
984
988
988
986
982
983
983
986
986
985
982
983
985
987
984
986
983
983
983
985
986
984
984
984
985
986
984
981
982
983
983
984
982
984
983
982
981
983
981
980
980
980
981
982
982
979
979
979
980
981
980
978
976
977
980
981
978
977
976
977
978
978
979
976
974
976
978
978
977
975
974
975
976
978
977
973
973
975
977
977
978
976
973
973
975
980
977
975
973
973
976
976
975
972
973
974
975
977
974
973
972
973
975
975
974
975
973
974
976
977
976
974
973
973
975
976
976
973
971
974
975
976
977
975
973
974
976
979
978
975
973
973
976
977
976
975
975
977
978
980
981
975
973
976
976
979
977
972
974
974
976
976
978
976
974
975
977
977
978
976
974
974
977
977
978
976
974
974
977
979
977
975
975
972
975
977
976
976
973
974
973
978
978
976
975
974
977
978
978
977
976
975
977
978
978
975
974
975
977
979
977
975
973
977
978
978
979
978
975
976
978
980
981
978
976
976
977
979
980
977
975
975
978
979
978
976
976
975
978
977
979
978
975
975
978
978
978
978
976
975
978
978
980
977
978
977
978
981
982
980
982
984
988
991
992
990
992
994
997
1000
1000
999
999
1000
1002
1005
1008
1004
1003
999
1002
1004
1001
1000
997
997
995
994
993
990
986
986
985
987
980
979
977
977
976
978
977
975
976
975
977
978
978
976
975
974
978
978
977
975
975
978
979
979
978
976
975
978
979
983
981
978
979
979
984
988
989
993
994
999
1004
1011
1024
1038
1056
1083
1108
1134
1153
1169
1191
1212
1224
1216
1187
1144
1094
1051
1021
999
981
966
964
970
980
986
988
986
981
981
982
980
979
976
974
973
974
976
977
975
971
973
975
977
978
975
975
974
976
977
978
976
973
975
978
979
980
978
978
978
980
981
983
982
978
979
982
986
985
985
984
983
985
987
987
987
984
988
989
991
992
993
992
993
995
999
1000
998
997
1001
1005
1008
1006
1007
1007
1010
1010
1015
1018
1018
1015
1018
1023
1026
1026
1025
1027
1029
1032
1035
1034
1036
1034
1036
1040
1041
1039
1037
1034
1035
1033
1032
1029
1024
1018
1016
1017
1014
1012
1008
1003
1001
1001
999
995
993
991
993
992
993
991
988
986
987
988
989
988
988
984
986
987
989
987
987
986
986
988
989
986
984
985
986
989
990
989
987
986
987
989
988
987
987
988
987
988
989
987
988
988
989
988
989
988
988
986
988
988
988
987
986
987
987
988
989
987
987
985
986
987
988
988
987
982
983
984
985
985
985
983
985
984
987
984
983
982
982
985
985
984
983
981
984
983
985
986
983
981
981
983
987
983
982
982
981
983
984
982
981
981
984
984
983
982
981
979
983
984
984
984
983
982
982
986
986
984
983
983
984
985
984
984
983
981
983
984
984
984
984
983
983
983
987
987
984
984
984
986
987
987
986
985
984
986
986
989
987
984
985
984
987
985
984
984
985
985
987
987
985
981
986
988
988
989
987
986
987
987
989
989
987
985
986
985
990
987
986
984
986
987
989
990
986
985
987
986
989
989
989
989
991
994
997
999
1001
1000
1001
1004
1006
1008
1010
1008
1010
1011
1010
1012
1013
1013
1014
1014
1012
1008
1009
1006
1007
1006
1007
1003
1000
996
997
997
995
992
990
985
985
987
988
985
983
981
984
985
987
987
986
984
986
987
986
986
986
983
985
986
987
986
984
984
987
987
989
990
989
991
998
1003
1006
1009
1015
1031
1053
1077
1098
1123
1147
1169
1191
1213
1221
1210
1179
1139
1097
1058
1030
1011
997
990
995
1001
1003
1002
996
992
992
992
990
987
986
984
984
986
985
985
985
983
984
987
987
986
987
985
985
988
989
989
989
987
989
991
994
992
991
993
994
995
994
993
992
992
994
996
997
997
997
997
1000
1001
1003
1003
1002
1003
1003
1009
1009
1011
1010
1011
1013
1014
1017
1019
1018
1019
1022
1024
1027
1030
1030
1031
1035
1034
1038
1038
1039
1038
1042
1043
1044
1045
1046
1045
1046
1048
1049
1046
1044
1041
1039
1037
1035
1032
1029
1023
1021
1020
1018
1015
1010
1005
