971
968
968
967
968
969
967
967
965
965
966
968
965
964
962
963
966
968
968
968
965
965
969
972
974
973
974
976
977
979
982
982
984
983
982
983
979
980
977
976
978
980
981
981
978
977
977
979
977
979
976
974
976
978
977
975
973
972
976
976
975
974
969
970
973
971
971
971
968
969
969
971
972
970
968
968
971
973
973
973
971
974
976
979
981
982
979
979
979
982
982
980
980
979
981
985
985
983
984
985
988
992
997
1000
1001
1004
1010
1026
1043
1063
1080
1101
1128
1150
1164
1176
1181
1182
1164
1136
1097
1053
1016
994
982
979
975
975
978
981
985
985
981
979
975
972
973
973
973
970
969
970
973
976
976
974
972
974
976
976
976
976
976
976
977
980
978
979
976
977
980
982
980
978
976
978
982
984
983
982
980
981
985
988
988
986
985
985
986
988
988
988
987
988
991
992
991
991
990
989
993
993
993
993
989
989
993
994
994
994
995
998
1001
1004
1005
1004
1004
1006
1009
1012
1011
1008
1008
1006
1007
1007
1003
1001
998
996
996
995
992
990
987
986
986
988
983
984
980
979
979
981
980
979
975
974
976
978
978
976
974
975
976
976
975
977
976
974
976
979
978
978
977
975
977
979
978
977
977
977
979
983
984
982
982
985
987
990
988
987
986
985
985
986
984
982
980
980
980
981
980
979
978
980
981
982
981
979
978
978
981
982
980
979
976
974
976
977
976
975
972
972
975
977
974
972
972
973
977
980
979
977
975
974
976
979
977
977
977
979
982
984
984
983
982
982
983
984
983
985
983
984
983
987
986
985
988
992
999
1003
1003
1008
1016
1034
1055
1078
1098
1121
1141
1163
1185
1201
1209
1207
1183
1148
1110
1071
1032
1001
982
970
964
968
971
977
979
977
974
975
973
972
972
970
974
975
973
974
974
975
977
978
978
977
976
975
976
976
976
976
974
975
976
976
977
976
975
973
974
976
976
974
974
972
973
976
976
975
973
975
975
977
976
972
973
974
976
978
976
976
975
975
980
982
982
982
981
981
984
988
989
989
991
994
998
1000
1000
1001
999
1002
1004
1008
1008
1009
1007
1008
1009
1010
1009
1005
1001
1000
1000
1002
1001
995
990
989
991
989
988
984
982
984
983
982
981
980
977
977
976
977
975
974
969
969
970
970
969
969
967
967
968
971
971
969
968
971
973
974
975
973
974
977
978
980
979
978
978
977
978
981
980
979
976
977
977
979
979
980
980
982
984
984
983
980
978
979
979
981
981
980
976
974
976
977
976
974
971
972
972
973
973
973
972
973
973
972
970
970
968
969
970
973
972
972
970
968
969
969
968
967
969
968
972
975
973
973
968
968
967
969
969
967
966
966
970
972
971
970
971
971
973
973
973
973
971
974
974
973
974
971
969
969
972
974
971
970
970
970
971
974
973
971
969
971
972
972
969
971
970
969
970
970
970
968
968
968
969
974
972
972
969
969
970
972
972
972
969
970
973
974
974
974
977
979
983
988
991
993
997
1009
1026
1046
1063
1081
1099
1124
1146
1162
1173
1183
1183
1175
1157
1133
1098
1061
1028
1012
1004
998
993
989
990
991
989
989
985
981
978
977
976
975
975
973
970
969
970
971
970
967
968
968
971
973
968
967
966
967
970
972
971
971
969
970
973
975
975
974
974
973
976
980
979
979
976
976
976
976
975
977
976
981
984
985
985
984
983
984
986
986
985
985
983
984
985
987
986
987
984
986
986
989
990
991
989
992
997
998
999
997
997
999
999
1002
1000
998
997
996
998
999
996
996
992
992
993
995
994
991
986
982
984
985
983
979
977
978
980
983
982
978
975
974
976
975
975
972
969
969
970
973
970
968
967
968
968
969
969
968
967
969
968
971
968
968
969
970
973
974
974
974
974
975
978
978
979
978
973
977
977
981
981
981
981
981
982
985
982
979
978
979
978
982
980
979
977
976
978
979
976
973
970
972
973
975
973
971
967
968
968
971
967
965
964
965
967
969
969
966
965
967
969
972
973
972
974
975
973
975
976
973
971
972
974
977
978
978
974
975
977
979
979
978
973
972
976
974
974
973
971
971
972
975
975
974
972
971
972
973
972
969
968
966
966
969
972
970
968
968
969
970
972
972
974
976
980
984
988
994
996
1009
1028
1052
1071
1088
1109
1130
1149
1164
1178
1184
1178
1157
1129
1096
1060
1024
1000
990
984
983
983
985
986
987
986
985
982
978
974
974
973
973
974
974
969
969
970
967
967
963
965
967
967
969
967
965
966
969
971
972
972
972
971
970
971
975
975
975
974
976
978
979
978
978
976
976
981
982
982
982
982
982
984
988
988
987
987
989
993
995
995
993
994
995
998
999
1000
1000
1000
997
999
1001
1000
999
998
997
1001
1004
1002
1004
1001
1001
1000
999
999
995
992
991
990
990
987
983
980
980
981
980
980
976
974
972
976
977
976
976
976
977
978
979
976
975
970
970
973
975
973
973
972
973
975
977
978
978
976
977
977
979
981
980
981
984
985
986
986
985
982
982
984
984
981
977
974
974
974
973
975
973
971
971
971
973
977
972
973
974
976
977
977
976
975
972
971
973
973
972
969
969
970
971
972
970
971
973
974
976
978
976
977
979
980
982
981
978
973
975
975
975
975
973
972
970
971
973
973
971
968
967
968
971
972
971
971
975
980
988
993
999
1001
1014
1033
1056
1081
1104
1131
1155
1176
1197
1209
1206
1179
1137
1093
1050
1009
983
969
962
963
972
984
985
983
979
980
979
976
975
972
973
974
975
972
970
968
968
969
970
970
967
965
968
968
971
969
969
967
969
969
968
970
969
972
972
974
976
976
975
975
976
977
979
980
981
980
981
983
986
985
985
984
987
988
990
990
992
992
994
998
1002
1000
999
999
1002
1005
1006
1007
1005
1005
1005
1004
1007
1005
1003
999
997
998
997
995
993
990
991
989
989
988
984
982
982
984
984
982
979
977
977
976
977
976
973
972
971
972
971
972
970
969
969
972
972
973
972
970
971
973
974
976
976
976
976
978
981
981
978
975
976
977
979
980
979
979
978
979
980
980
980
978
978
979
982
983
983
983
982
982
985
986
984
983
982
984
985
984
981
982
981
984
986
985
983
979
979
979
982
980
980
977
976
978
979
979
978
976
976
976
979
978
976
977
975
977
978
979
977
973
976
976
978
978
978
978
980
981
982
982
982
981
980
982
985
986
986
984
986
988
991
990
992
997
1002
1004
1010
1019
1038
1056
1078
1101
1128
1154
1174
1189
1206
1211
1195
1163
1124
1079
1037
1009
996
985
982
985
988
991
988
986
981
978
979
979
981
980
981
980
979
982
983
982
980
977
979
981
986
987
983
983
981
982
983
983
980
977
976
978
982
982
981
980
979
979
983
985
984
983
986
987
990
989
984
982
984
987
989
988
989
987
991
995
998
1001
1001
1003
1007
1011
1012
1014
1014
1014
1016
1018
1020
1018
1017
1016
1017
1015
1013
1012
1010
1006
1003
1001
1001
997
995
991
991
991
987
987
987
985
986
985
985
985
984
984
982
981
982
983
979
979
980
983
984
984
983
984
983
986
987
988
988
989
988
992
994
996
999
1000
1004
1010
1018
1030
1050
1070
1093
1116
1135
1160
1180
1193
1195
1188
1173
1147
1117
1079
1042
1021
1017
1016
1008
998
993
993
993
989
985
977
976
977
978
976
974
972
971
973
974
973
973
970
971
974
974
977
973
972
974
976
977
979
976
974
976
977
981
981
980
979
980
983
987
988
988
986
989
990
992
995
991
989
989
989
990
991
989
987
991
994
997
996
994
993
993
994
996
995
993
991
992
995
997
996
997
994
994
997
999
997
996
991
993
994
996
994
994
988
988
990
992
990
986
985
985
987
989
988
986
982
982
986
986
986
984
983
984
985
985
983
981
978
979
978
980
978
976
974
975
976
974
974
974
971
973
974
974
975
973
972
972
974
974
972
973
970
970
969
971
970
973
971
972
974
976
976
977
978
980
983
982
982
979
977
978
979
980
979
977
976
975
975
976
976
974
973
972
972
974
976
975
973
974
975
979
980
977
972
970
971
972
968
967
962
962
965
965
965
962
959
966
969
973
976
974
971
973
973
975
976
973
969
972
972
973
972
970
967
968
971
971
973
972
971
970
972
975
975
974
971
972
973
973
977
975
973
974
977
980
979
979
978
979
978
979
980
980
978
982
982
987
990
992
994
996
1002
1014
1034
1053
1073
1096
1122
1144
1161
1174
1182
1178
1154
1119
1076
1030
1003
990
983
978
977
979
981
982
982
979
976
971
970
970
971
970
970
966
966
967
968
969
968
968
968
967
967
968
972
969
967
966
965
968
967
966
963
964
965
965
966
964
962
965
963
966
966
963
962
962
966
968
969
968
967
971
973
975
977
979
978
980
981
984
988
989
991
994
997
1000
1003
1002
1001
1003
1004
1009
1010
1012
1012
1014
1016
1017
1017
1017
1013
1011
1009
1008
1004
1003
998
994
993
993
990
987
981
981
984
983
982
980
978
975
977
978
978
976
973
974
974
976
975
973
973
973
975
978
979
978
976
976
977
978
975
976
975
977
981
985
987
989
987
990
992
991
991
991
990
990
988
989
989
987
985
983
981
980
980
978
976
973
974
975
973
971
970
970
970
973
971
971
968
969
968
970
971
970
969
968
970
972
972
972
973
973
973
977
978
978
977
981
984
988
991
994
997
1002
1017
1038
1059
1080
1100
1125
1150
1171
1189
1202
1202
1185
1155
1114
1067
1023
993
979
970
968
975
982
981
983
978
978
974
971
966
966
964
965
963
963
959
960
962
963
963
963
961
963
966
968
968
966
966
967
970
972
973
973
972
973
973
976
977
977
977
978
981
981
981
981
983
985
989
992
992
990
990
992
992
993
992
986
985
987
987
990
988
988
985
988
989
990
989
987
987
989
990
991
990
989
986
987
985
985
985
983
981
981
980
981
980
977
975
974
974
976
975
974
972
975
977
977
977
975
973
972
972
972
972
970
967
971
971
972
970
969
968
969
969
971
970
966
964
966
967
969
969
971
972
977
981
984
982
981
981
982
981
984
984
982
981
983
984
986
986
984
983
984
983
986
986
985
981
982
983
986
986
984
982
981
984
986
984
980
980
980
979
981
979
977
974
974
975
976
974
972
968
968
972
972
971
967
967
965
966
967
963
963
961
963
967
970
973
972
972
974
978
977
977
975
973
976
977
978
979
977
975
977
979
978
979
976
974
975
977
980
982
981
981
983
986
991
992
993
994
996
1003
1013
1030
1046
1063
1085
1107
1131
1151
1164
1175
1187
1183
1169
1142
1108
1070
1033
1010
1000
992
982
978
979
985
985
985
983
982
985
985
986
984
981
980
979
978
980
978
979
975
976
976
977
975
973
972
973
974
976
975
976
975
975
978
979
981
981
980
981
980
981
981
980
978
980
979
982
979
980
977
976
977
979
980
979
978
981
983
984
983
983
981
984
986
988
989
992
992
995
999
1003
1000
999
997
999
1003
1002
1002
1003
1002
1001
1003
1004
1002
1000
996
997
998
995
993
991
988
987
986
982
982
980
978
979
984
981
980
981
980
980
981
980
981
978
979
978
981
982
981
979
977
979
979
982
980
981
979
980
982
982
983
982
984
985
989
989
991
989
988
988
989
990
989
988
986
988
989
989
989
985
983
984
985
984
984
980
981
981
983
983
984
982
977
982
983
985
985
982
982
980
982
982
979
977
977
977
975
975
974
973
974
973
978
980
980
980
977
981
981
979
978
976
974
975
976
976
975
973
971
972
971
972
971
969
965
966
968
966
964
964
963
964
966
969
971
968
969
972
973
973
972
972
971
973
973
976
974
973
971
971
975
976
978
977
976
980
982
984
983
983
983
985
987
988
988
990
988
989
988
988
990
987
987
985
988
990
990
986
985
984
984
986
992
996
997
998
1002
1010
1022
1034
1048
1065
1086
1108
1129
1149
1157
1170
1176
1167
1144
1114
1077
1041
1017
1006
1000
992
987
985
988
993
990
985
981
980
980
980
979
976
975
976
978
981
976
975
973
975
976
978
977
975
974
975
979
980
979
978
977
976
979
979
979
977
974
976
978
979
979
978
976
979
982
984
985
988
988
992
993
993
991
991
989
989
990
993
992
989
987
990
990
995
995
995
994
996
997
1000
1001
999
999
1002
1005
1007
1009
1007
1006
1005
1008
1009
1009
1006
1003
1004
1005
1006
1004
1002
998
997
996
997
996
993
991
988
986
989
988
985
982
983
984
986
984
986
984
985
987
988
985
982
979
980
980
981
980
981
978
981
980
981
983
980
979
982
985
984
984
980
981
983
984
985
983
979
976
978
979
981
979
979
978
980
981
981
982
980
978
979
980
981
982
980
978
980
982
984
985
983
984
984
988
988
988
986
982
983
986
985
982
978
977
979
980
981
981
980
978
977
980
981
982
981
978
979
980
982
980
979
977
978
979
981
978
977
975
974
978
980
981
979
975
976
979
979
980
978
977
977
980
979
977
975
974
974
977
979
977
973
970
968
970
973
973
973
972
977
981
981
981
978
976
979
984
985
984
983
977
978
980
982
982
980
978
978
979
982
982
979
978
978
980
980
981
979
980
982
981
985
983
983
980
979
982
983
985
983
982
982
983
985
981
981
976
976
977
977
978
978
976
977
980
984
982
981
980
981
985
985
985
983
981
982
984
986
987
982
981
982
982
983
982
981
981
980
983
983
982
981
979
980
983
984
984
982
981
981
981
982
982
979
976
976
977
979
979
980
977
978
979
984
984
983
982
984
986
987
986
983
982
984
986
986
987
985
985
982
980
984
984
981
981
980
980
981
982
981
979
979
980
982
984
985
982
983
985
987
986
986
985
984
985
988
988
986
984
986
987
990
988
988
984
987
990
992
990
995
998
1002
1009
1012
1015
1024
1040
1062
1082
1104
1130
1152
1170
1191
1210
1225
1225
1209
1174
1130
1085
1049
1021
997
981
975
971
980
990
993
992
991
988
987
985
984
982
983
983
982
981
980
978
980
981
983
982
982
981
980
981
983
983
985
983
985
987
989
989
987
987
988
990
990
989
988
985
987
989
989
989
988
987
989
990
991
991
989
987
989
991
993
993
992
991
995
995
997
996
995
992
993
994
993
996
997
997
999
1003
1005
1007
1004
1003
1004
1006
1008
1008
1006
1006
1009
1010
1012
1013
1012
1009
1012
1013
1016
1012
1009
1004
1004
1003
1002
1001
999
997
997
998
997
996
995
992
989
990
992
991
988
986
987
989
992
991
991
989
989
991
992
995
996
995
997
999
1001
1000
999
996
997
998
996
995
993
991
991
992
995
995
994
994
993
996
998
997
999
997
996
996
995
994
994
992
992
993
992
992
990
986
987
988
987
988
985
984
983
983
982
981
980
977
979
981
983
986
984
984
988
989
993
991
991
989
991
992
992
991
991
989
988
989
990
986
985
983
986
988
992
990
986
986
989
990
990
986
983
981
981
984
985
984
979
976
977
979
981
980
980
978
980
980
983
981
980
980
979
982
984
987
987
985
987
986
989
988
989
989
989
993
994
994
992
988
991
993
994
992
990
991
988
989
990
989
986
983
986
986
988
989
985
985
985
986
987
984
983
982
982
985
987
987
985
982
982
985
988
985
984
983
985
989
995
999
1001
1004
1009
1018
1033
1052
1069
1085
1107
1132
1151
1165
1171
1180
1188
1182
1158
1128
1090
1050
1020
1007
1001
997
991
987
991
994
996
992
990
987
987
986
985
985
985
979
978
980
981
981
978
978
978
980
981
979
977
973
976
977
979
980
980
978
982
984
987
989
989
988
991
993
996
996
996
993
993
994
997
996
995
993
994
995
995
997
998
1000
1003
1006
1009
1009
1008
1010
1010
1010
1009
1010
1008
1009
1010
1012
1014
1017
1015
1014
1017
1017
1020
1019
1017
1016
1016
1016
1018
1017
1013
1011
1011
1009
1009
1004
1001
997
996
995
995
995
995
994
995
994
994
994
989
988
988
989
988
988
986
984
986
987
988
988
986
986
986
987
988
988
986
984
986
986
987
986
985
984
985
987
990
990
988
985
986
988
989
990
988
986
988
991
992
991
987
986
986
988
989
988
986
983
984
984
984
982
983
983
985
988
991
988
987
984
984
985
985
986
984
981
980
983
983
983
984
984
985
988
990
987
986
984
985
987
988
986
983
983
985
987
990
990
989
986
989
990
992
991
989
986
991
995
998
999
1002
1003
1006
1011
1026
1042
1058
1074
1090
1112
1133
1149
1163
1175
1180
1166
1139
1103
1059
1024
1005
992
990
990
991
993
990
989
987
987
982
981
980
979
982
980
977
974
975
977
979
977
976
975
975
976
979
978
978
976
979
982
985
984
979
981
983
984
988
986
985
986
987
990
993
994
996
998
1001
1003
1005
1004
1002
1003
1005
1003
1006
1004
1002
1003
1004
1009
1013
1011
1009
1009
1008
1010
1013
1010
1010
1009
1011
1011
1012
1009
1008
1006
1005
1005
1003
1002
998
994
994
993
993
990
989
987
988
987
985
984
983
982
984
986
985
985
982
982
981
985
985
986
987
988
988
986
986
986
985
983
986
987
989
989
988
986
985
985
985
984
986
982
984
984
985
985
985
983
985
986
987
