988
986
984
984
983
986
988
987
986
988
988
990
991
992
994
997
999
1008
1015
1023
1031
1051
1071
1093
1108
1125
1145
1166
1186
1196
1200
1195
1171
1138
1101
1063
1024
999
988
982
979
980
984
988
989
984
980
978
979
975
974
973
973
972
971
971
968
968
969
970
970
969
966
967
967
968
968
969
969
970
973
977
977
977
978
982
984
986
986
985
983
986
988
991
992
990
988
989
993
994
995
991
990
993
993
994
997
992
991
995
1000
1001
1002
1000
998
1000
1004
1003
1005
1004
1005
1006
1006
1010
1009
1006
1004
1003
1006
1002
1002
997
993
996
998
998
997
992
991
992
992
992
990
987
982
982
986
984
985
982
982
983
983
985
981
981
976
979
981
980
978
978
977
977
979
979
980
979
978
980
982
983
982
980
979
982
982
981
981
982
980
984
986
986
984
984
982
985
989
990
990
989
988
991
992
993
991
991
990
991
991
992
992
990
986
985
986
985
984
983
978
979
982
981
981
979
977
976
977
979
976
977
976
978
981
985
986
988
988
995
1005
1024
1047
1068
1091
1119
1145
1166
1183
1192
1182
1154
1115
1071
1030
1007
995
993
993
998
1002
998
991
989
989
986
984
981
980
979
981
979
977
974
971
969
969
969
968
965
966
967
969
970
970
966
964
965
967
968
969
970
969
967
970
972
975
972
975
978
981
983
983
984
984
987
990
992
994
991
993
995
997
1002
1002
1000
999
1001
1006
1004
1003
1004
1001
1005
1007
1008
1008
1005
1003
1003
1004
1003
1000
996
992
992
990
989
984
981
979
979
977
977
975
973
971
974
975
976
980
978
980
984
986
987
988
987
986
988
988
989
990
990
987
989
990
992
991
990
988
990
990
990
990
988
987
986
989
990
988
985
983
982
980
981
981
980
979
979
978
979
978
976
974
973
971
975
975
975
974
977
979
979
979
975
973
977
979
982
981
981
980
981
984
983
981
980
978
978
979
981
981
979
978
980
981
979
976
974
973
975
976
978
978
976
977
979
980
979
981
978
977
977
979
978
978
976
975
974
976
979
977
976
975
975
978
979
980
979
980
983
985
988
985
988
987
993
997
1000
1005
1005
1014
1032
1053
1069
1087
1104
1125
1148
1162
1173
1180
1173
1153
1123
1090
1049
1019
1004
998
995
992
989
989
988
985
984
983
981
980
977
975
974
974
975
976
976
975
976
977
980
982
982
982
983
985
988
987
985
982
984
986
986
984
981
979
977
979
980
980
979
978
978
981
983
984
984
985
986
988
990
990
986
987
987
990
989
991
989
990
992
992
995
996
994
995
999
1002
1006
1006
1003
1004
1006
1007
1008
1007
1006
1004
1007
1006
1004
1003
998
995
995
994
992
987
982
981
980
981
981
980
977
974
973
973
975
974
974
972
973
975
974
975
976
974
975
975
976
977
978
975
977
980
982
983
981
981
983
981
984
983
983
981
977
978
979
978
974
972
975
975
975
977
974
974
973
976
976
975
974
971
971
972
973
973
972
971
972
973
974
973
971
970
972
973
977
977
975
972
974
976
974
975
974
974
976
976
979
976
974
974
975
978
977
976
973
970
973
973
977
977
974
972
972
974
972
974
973
970
971
972
972
973
970
970
971
972
973
972
972
971
969
970
969
969
966
965
965
967
969
967
968
968
970
971
971
971
969
971
972
973
973
974
973
973
974
976
975
976
975
973
974
977
978
977
975
974
974
975
975
974
975
972
974
976
977
976
975
974
975
976
975
974
975
972
973
974
973
975
973
971
972
974
975
975
974
972
971
970
972
973
971
970
971
972
973
974
974
975
976
976
978
977
977
976
979
982
985
987
989
993
998
1002
1011
1024
1042
1060
1082
1105
1130
1153
1173
1186
1202
1209
1194
1163
1119
1074
1035
1008
994
984
978
978
985
991
991
988
984
978
979
979
980
978
977
974
978
976
977
975
974
971
972
972
971
970
970
969
970
974
973
973
971
970
970
973
976
975
973
970
973
978
977
978
976
974
976
982
982
983
981
982
982
986
987
986
984
983
986
990
993
994
993
990
994
996
1001
998
997
996
999
1000
1003
1001
999
999
1001
1002
1004
1005
1006
1003
1003
1003
1002
1001
994
992
993
995
993
991
988
986
985
986
987
984
981
980
983
981
982
981
979
975
977
978
979
978
976
975
975
980
980
982
980
977
979
981
982
980
980
978
980
981
980
982
977
977
980
983
983
981
982
980
981
982
986
984
981
982
983
985
985
985
984
983
984
987
988
986
984
982
985
988
986
986
985
983
985
987
989
992
992
996
1007
1015
1028
1044
1063
1078
1096
1116
1137
1159
1178
1190
1198
1199
1184
1154
1119
1079
1038
1005
987
978
972
968
970
974
975
974
971
969
969
971
975
975
976
975
975
977
978
977
977
977
978
977
980
978
977
974
973
972
971
971
968
967
969
970
969
968
966
965
967
969
970
969
966
964
969
969
969
970
968
967
970
972
973
971
971
970
973
977
978
980
981
981
984
986
989
989
989
988
990
993
996
996
995
997
1001
1006
1005
1005
1002
1002
1003
1004
1006
1004
1002
999
998
1000
999
998
993
990
988
988
984
982
980
977
976
977
977
974
971
971
972
972
972
971
970
966
968
969
969
968
968
966
968
971
970
968
970
971
973
976
977
975
975
974
977
979
980
978
978
977
977
979
979
977
976
975
977
979
978
979
976
975
975
976
975
974
970
970
970
971
970
969
968
966
967
968
970
970
969
967
970
971
971
969
966
964
963
966
966
965
965
961
963
965
967
964
963
961
964
967
967
966
965
964
965
967
969
969
968
968
971
974
973
972
973
970
971
970
974
972
968
969
969
972
973
973
971
968
970
972
974
972
969
966
970
968
969
968
967
965
968
967
966
965
963
961
962
963
964
963
963
959
961
963
967
969
969
968
972
974
975
975
975
975
978
981
979
981
979
977
978
979
980
981
982
987
991
996
1001
1002
1005
1010
1022
1041
1057
1074
1091
1110
1135
1152
1164
1174
1180
1179
1164
1140
1114
1077
1041
1015
1003
997
989
983
978
976
978
981
978
974
971
968
969
969
967
965
964
962
966
968
968
968
967
966
970
971
972
970
971
971
974
976
977
979
980
980
983
988
990
989
988
988
985
988
989
988
986
982
983
985
982
982
982
981
982
984
984
985
984
979
981
983
986
987
985
984
983
983
985
986
984
980
981
982
983
983
982
981
984
985
988
987
990
991
992
996
995
996
996
993
995
998
998
997
996
997
996
995
993
990
990
987
987
986
986
984
981
979
980
981
982
978
977
978
979
983
983
983
983
981
984
985
985
982
980
980
982
981
981
979
979
976
978
981
982
982
979
980
980
982
983
986
983
981
983
984
985
986
984
983
984
988
988
989
990
986
989
989
989
987
985
983
982
981
983
981
980
978
978
980
982
982
981
979
980
981
981
979
976
976
974
977
975
973
973
971
974
973
973
972
968
971
970
971
972
971
970
969
969
970
974
972
972
972
977
976
978
974
973
971
972
974
978
976
973
974
976
979
978
976
976
976
979
986
993
994
996
1004
1019
1036
1054
1068
1083
1103
1130
1149
1164
1176
1179
1172
1152
1128
1096
1057
1023
1005
996
992
990
986
985
985
982
983
982
980
974
972
974
975
975
974
969
970
969
969
971
969
967
966
972
974
977
976
973
973
976
976
976
975
975
974
977
978
979
978
977
973
974
976
976
976
977
975
977
979
978
979
978
978
982
985
987
986
986
988
989
990
991
991
990
990
992
994
995
997
994
994
995
999
999
998
999
995
1001
1005
1005
1002
1002
1002
999
1000
1000
996
990
988
987
987
986
984
979
976
978
979
978
978
976
973
974
976
977
975
975
974
975
977
977
977
974
971
971
972
974
977
974
972
973
976
978
975
974
972
974
977
978
975
975
974
977
980
981
984
983
984
985
987
988
986
983
983
983
984
984
982
979
978
979
981
982
982
978
978
979
980
979
978
978
975
977
979
977
976
976
971
971
975
975
973
972
971
971
971
974
974
971
970
974
974
977
976
976
976
978
979
981
982
981
981
984
985
985
983
981
978
978
980
980
979
978
977
979
980
981
979
978
976
977
978
980
981
978
976
978
978
981
980
978
976
977
980
979
977
979
974
975
974
975
975
973
971
971
973
976
972
973
973
975
977
977
977
977
975
978
983
984
983
983
982
984
985
984
987
984
983
983
984
986
985
984
983
984
983
986
985
982
980
981
981
980
979
977
976
978
979
979
980
978
979
979
984
986
990
995
997
1001
1005
1014
1029
1049
1069
1091
1117
1144
1168
1187
1205
1217
1217
1196
1157
1112
1068
1031
1006
994
982
975
977
987
995
997
999
992
991
990
989
987
985
983
980
981
979
981
979
974
973
975
974
975
972
971
970
972
973
973
974
972
970
972
972
975
976
975
972
974
976
977
978
978
977
980
980
983
982
982
982
983
986
987
989
989
990
993
994
997
996
995
995
996
997
1000
1001
1001
1000
1004
1004
1007
1008
1007
1006
1009
1011
1013
1011
1008
1007
1005
1006
1007
1006
1004
1001
1000
1000
1001
996
996
993
992
993
992
990
987
984
984
985
987
987
984
982
984
985
986
985
984
985
986
989
989
988
986
984
985
983
985
985
982
983
986
986
988
992
989
994
997
1004
1013
1028
1054
1083
1109
1134
1159
1184
1200
1205
1200
1180
1147
1108
1069
1031
1007
998
997
993
989
988
990
989
985
980
977
974
974
972
974
974
973
970
972
975
976
974
973
972
971
972
975
975
975
976
974
978
981
979
981
977
977
977
977
977
976
971
974
976
976
976
974
972
975
980
982
980
981
980
983
984
986
986
986
986
986
990
991
991
991
990
992
995
996
1000
999
1000
1002
1007
1008
1007
1005
1004
1005
1004
1004
1003
1000
997
997
997
997
995
992
990
988
988
986
983
979
977
978
977
975
974
972
974
977
978
978
979
978
978
978
980
979
978
978
975
974
977
976
975
975
972
975
975
978
977
976
976
979
982
981
980
980
979
980
982
983
982
982
982
982
983
982
980
978
977
979
978
979
975
973
972
972
970
974
974
973
971
973
977
978
977
977
974
974
977
977
974
974
973
971
973
972
972
969
968
970
972
973
970
968
968
967
969
972
971
969
970
971
972
972
971
970
971
970
971
972
970
972
972
974
978
979
980
976
975
974
976
977
975
974
971
973
976
976
978
976
973
972
974
974
973
972
971
973
973
975
974
974
972
973
974
972
974
974
973
976
977
977
976
976
975
976
976
976
974
973
970
974
977
979
981
983
985
990
995
999
1001
1006
1018
1038
1062
1081
1102
1126
1145
1161
1177
1186
1182
1164
1132
1096
1056
1024
1004
993
987
984
987
989
991
987
981
979
979
978
975
974
971
971
973
974
974
972
971
973
975
975
976
973
973
975
975
976
973
971
968
969
973
976
976
978
976
978
979
980
979
980
979
980
982
984
982
981
979
981
985
988
988
986
984
988
992
991
991
988
989
990
992
992
988
986
986
987
988
989
990
988
987
989
993
994
994
993
992
994
998
1000
1000
997
995
996
999
998
998
992
992
996
999
999
996
993
990
991
992
989
990
986
984
986
987
987
986
984
984
985
986
987
986
984
980
983
984
986
985
983
980
980
981
982
981
977
978
976
977
977
977
975
973
973
976
978
976
974
973
976
978
981
982
980
982
979
982
983
986
981
983
983
984
985
983
981
979
978
979
979
980
974
974
976
976
977
977
974
973
974
975
977
975
975
975
976
977
977
977
975
974
972
974
973
972
969
967
969
972
971
972
968
970
972
976
979
976
973
972
974
976
977
977
975
976
979
980
982
981
979
978
978
981
979
978
978
975
978
979
981
980
979
980
986
993
998
1000
1002
1012
1032
1055
1074
1095
1116
1136
1160
1175
1189
1197
1187
1160
1121
1075
1032
996
974
965
963
966
974
979
978
977
975
976
975
973
971
968
972
976
978
976
974
974
976
978
978
977
977
976
979
978
978
977
976
975
979
981
980
979
979
978
976
977
978
977
974
976
976
976
976
974
974
973
974
978
975
976
974
975
977
979
978
977
977
978
979
980
982
985
984
985
986
988
986
989
988
990
994
1000
1002
1003
1002
1002
1003
1006
1004
1002
1002
1002
1003
1002
1001
997
993
990
989
989
987
983
983
980
979
982
982
979
976
972
975
977
976
975
975
972
974
975
975
974
972
973
973
975
976
978
975
976
976
977
980
979
980
983
990
998
1006
1017
1030
1053
1081
1109
1131
1153
1177
1198
1215
1217
1205
1175
1140
1101
1059
1023
1002
998
997
990
985
986
983
980
976
973
972
970
969
966
964
962
964
964
965
965
964
962
966
968
966
965
963
963
964
966
966
965
968
967
969
971
973
972
970
971
974
974
975
974
975
974
976
982
982
982
982
982
983
982
983
981
981
979
982
983
982
981
980
980
982
981
984
983
984
984
987
990
993
995
993
996
1000
999
999
996
994
991
992
990
990
988
983
983
985
984
984
984
981
982
982
983
985
984
979
979
979
977
978
979
977
976
975
977
977
976
973
973
974
975
972
973
971
971
972
972
973
972
973
969
971
974
977
976
972
972
975
977
977
979
977
977
978
983
983
984
984
985
986
987
986
984
983
982
984
985
985
983
981
981
982
984
983
981
978
978
979
980
980
979
977
974
975
974
972
973
971
970
970
971
972
972
972
971
974
977
981
985
987
990
997
1010
1029
1050
1066
1086
1111
1136
1155
1168
1182
1193
1193
1181
1155
1124
1089
1049
1022
1008
1002
995
993
994
996
997
995
991
986
984
983
982
983
981
981
980
981
980
981
979
977
976
978
978
978
978
976
977
977
978
975
974
972
970
972
972
972
972
972
971
973
975
977
977
977
980
982
983
984
984
984
984
987
988
988
986
985
986
987
987
988
986
985
985
986
987
987
987
986
985
989
991
991
988
988
988
990
990
995
994
995
994
993
994
996
993
992
992
992
993
993
992
989
986
987
989
987
987
986
985
987
989
991
989
989
986
989
992
992
991
989
985
987
989
989
988
984
984
985
987
985
983
978
979
980
979
981
980
978
980
986
990
993
998
1000
1008
1024
1045
1065
1085
1107
1129
1155
1177
1193
1201
1193
1175
1151
1119
1079
1039
1014
1006
1009
1008
999
991
987
985
984
985
980
976
976
972
973
974
972
968
965
964
964
964
963
961
959
961
962
965
965
965
966
966
967
968
970
972
971
971
974
975
975
975
976
976
977
981
980
980
979
980
980
984
982
982
980
980
983
984
985
984
983
983
982
984
984
984
983
981
982
984
984
986
984
984
986
990
990
989
988
987
987
987
987
987
984
982
982
983
982
981
980
980
981
982
984
983
981
982
982
983
982
980
980
980
981
980
980
981
978
979
980
979
979
975
974
975
974
975
974
973
971
973
974
975
975
974
973
974
975
978
978
979
978
977
979
977
978
977
975
972
975
976
974
975
973
972
974
977
974
972
971
970
972
973
973
972
972
970
971
974
974
971
969
971
971
973
970
969
966
966
969
970
970
969
966
966
968
969
970
969
968
969
972
973
971
973
972
973
975
978
978
975
971
971
971
973
973
971
968
966
969
969
973
970
972
968
969
972
971
971
972
969
973
977
974
974
973
976
980
981
981
983
981
981
986
988
994
996
998
1000
1009
1025
1044
1061
1079
1100
1125
1147
1161
1173
1181
1176
1155
1121
1081
1038
1005
990
981
979
974
976
979
981
981
978
977
973
970
970
970
972
969
967
966
967
968
968
968
967
967
969
972
975
975
975
974
975
977
979
977
975
974
973
977
979
978
977
975
977
979
980
979
979
977
976
978
981
981
977
976
976
979
981
980
979
979
979
979
980
978
978
976
977
981
981
981
980
981
981
986
987
992
994
994
999
1001
1006
1007
1005
1006
1006
1009
1010
1009
1008
1006
1003
1003
1003
1002
1001
997
995
997
995
993
992
987
989
989
991
990
987
990
990
991
990
990
987
986
982
982
984
981
981
978
975
975
977
978
977
975
973
974
976
978
974
975
974
978
982
983
984
983
981
984
986
987
988
985
983
985
986
984
983
980
978
981
981
982
979
978
978
979
979
982
981
979
982
984
986
986
983
981
979
981
981
979
976
974
974
974
974
974
971
971
969
970
971
972
971
966
966
970
970
970
968
968
968
970
971
971
970
968
967
970
971
974
974
973
974
978
978
979
976
974
974
974
976
976
976
974
972
976
977
980
979
978
977
980
979
980
977
977
976
978
979
978
978
976
979
975
977
977
978
975
974
975
978
977
976
975
976
976
977
978
978
975
977
976
977
975
975
975
973
973
975
974
973
972
973
974
978
979
980
978
979
980
981
980
979
979
980
985
990
993
996
997
1004
1022
1045
1067
1086
1105
1131
1157
1177
1193
1202
1199
1178
1147
1111
1072
1031
1001
982
970
967
969
973
979
982
984
982
979
975
974
972
973
975
972
971
968
969
970
972
972
971
970
973
974
976
976
974
973
974
977
977
977
978
977
976
977
980
980
976
973
972
974
975
972
970
969
968
968
970
970
968
967
969
971
974
973
973
972
970
972
974
972
975
972
973
976
979
977
