1006
1005
1009
1013
1017
1017
1017
1020
1023
1029
1032
1033
1035
1036
1044
1047
1051
1053
1054
1055
1064
1069
1075
1076
1080
1083
1089
1096
1101
1104
1105
1108
1115
1119
1122
1123
1122
1122
1122
1125
1123
1122
1116
1112
1106
1103
1100
1092
1083
1079
1072
1067
1061
1053
1045
1039
1035
1031
1027
1022
1013
1007
1006
1006
1001
998
993
990
988
987
988
984
982
980
981
981
980
978
976
973
976
977
979
974
974
972
975
978
978
976
977
975
973
976
979
976
975
973
975
976
977
976
975
974
973
975
977
976
973
971
973
974
975
975
974
971
972
975
975
975
971
970
971
973
973
974
972
970
971
972
973
973
969
969
970
971
971
972
970
968
967
968
968
968
968
966
966
969
967
969
967
966
967
969
969
969
965
965
966
969
969
966
964
963
965
967
968
967
964
965
965
966
968
967
966
964
964
965
965
965
964
965
965
966
964
965
963
964
965
966
965
965
963
963
963
964
967
964
966
964
965
969
967
966
964
966
968
968
970
968
967
966
967
968
968
967
964
966
968
970
968
969
967
966
970
972
968
967
965
967
967
968
970
967
966
965
967
969
967
965
965
963
966
969
971
967
965
965
965
966
968
967
966
966
967
967
967
970
968
966
968
970
969
966
967
966
969
968
968
966
967
966
968
968
968
967
968
967
969
970
970
970
968
969
971
972
972
973
971
972
973
977
978
981
981
980
981
985
987
988
986
988
990
994
994
997
997
994
994
994
994
990
989
986
986
983
983
983
980
977
974
971
971
971
966
966
966
969
968
968
966
965
967
968
968
966
964
965
968
969
970
967
964
963
967
967
969
967
966
966
967
971
972
974
975
980
986
990
996
1008
1026
1047
1069
1094
1117
1138
1154
1173
1191
1187
1164
1126
1084
1044
1013
995
981
972
969
973
980
982
980
976
971
972
970
971
969
967
966
965
964
965
966
965
963
963
963
962
963
964
962
961
966
967
967
965
965
966
968
968
968
970
967
967
969
970
971
970
970
970
972
974
975
973
974
970
973
977
978
978
977
978
979
981
984
984
984
983
986
991
994
992
992
994
995
999
1000
1001
1002
1003
1006
1009
1010
1011
1011
1011
1015
1017
1019
1022
1020
1020
1023
1024
1024
1024
1020
1019
1020
1020
1018
1014
1008
1007
1006
1005
1000
996
992
990
990
989
987
985
980
979
980
982
978
977
976
975
977
978
976
975
973
974
974
974
973
971
972
971
971
974
975
974
973
971
974
973
973
972
971
969
971
973
974
973
971
971
973
974
972
973
971
971
972
974
975
971
970
968
972
971
971
973
971
970
971
972
973
972
969
970
971
971
970
970
970
968
969
970
972
971
969
967
968
968
969
970
966
968
968
969
969
969
968
966
968
970
970
969
969
967
965
968
968
967
966
964
964
968
968
968
965
966
966
968
970
970
968
966
968
969
970
969
968
966
967
967
970
971
966
966
969
970
969
967
967
968
967
970
970
968
965
965
968
971
971
970
967
966
967
969
971
968
968
968
969
970
970
968
967
965
968
966
970
969
966
967
968
967
970
970
967
965
967
969
969
970
968
969
968
970
971
970
967
966
969
969
969
968
966
965
967
970
972
968
967
967
969
971
971
969
966
966
968
970
970
970
968
969
969
970
968
967
968
967
968
970
970
968
966
966
969
970
970
970
967
968
970
973
970
969
967
969
972
975
975
973
971
976
980
983
984
983
980
982
986
988
988
989
987
988
992
995
995
992
987
985
986
986
987
983
982
982
981
979
979
974
972
968
970
970
969
966
964
963
965
967
967
965
963
963
966
967
967
965
964
964
967
969
967
966
966
964
966
967
968
967
967
967
970
974
972
972
973
977
983
987
992
999
1015
1035
1057
1081
1103
1125
1143
1163
1189
1210
1212
1194
1161
1122
1081
1045
1014
989
969
959
960
968
976
978
976
973
973
973
971
969
965
964
964
967
967
964
963
962
963
963
965
964
963
964
965
966
967
964
962
962
968
971
969
965
964
963
969
970
971
969
967
968
969
974
973
972
973
973
975
975
978
977
976
977
980
982
984
982
981
981
984
987
988
988
986
987
989
995
995
994
996
995
1000
1004
1006
1006
1006
1008
1010
1015
1015
1016
1015
1016
1021
1025
1025
1025
1024
1026
1027
1029
1031
1028
1027
1024
1026
1024
1023
1016
1013
1010
1011
1008
1007
1001
998
992
993
993
992
987
983
982
982
983
981
979
976
977
978
979
978
977
975
973
975
976
977
977
973
973
975
978
978
975
972
975
975
978
977
975
975
975
977
978
978
976
976
976
976
977
977
976
972
973
975
976
976
975
973
974
977
976
976
977
975
975
976
975
976
975
972
973
975
973
975
973
975
971
973
974
975
974
972
972
970
974
974
974
972
969
972
974
975
974
972
970
973
972
974
974
971
971
970
973
971
971
970
970
973
974
972
971
968
968
970
972
972
971
967
968
971
970
969
970
969
969
968
971
970
969
969
969
970
972
971
970
970
970
971
971
973
972
971
969
972
972
972
971
971
972
973
975
972
974
975
973
973
974
975
972
972
973
972
973
974
974
973
973
975
977
974
975
976
973
973
974
976
976
973
972
975
975
978
976
975
973
975
976
978
977
975
973
977
978
978
976
976
974
976
978
981
980
979
982
986
991
998
1003
1008
1015
1028
1040
1051
1061
1068
1068
1063
1053
1039
1020
991
955
914
882
870
879
891
899
903
910
909
910
905
900
899
900
898
897
895
891
889
887
886
889
891
895
909
926
941
958
969
975
978
982
983
983
982
982
986
990
991
990
990
988
993
996
997
997
994
996
999
1003
1004
1001
1002
1002
1002
1008
1008
1008
1008
1008
1011
1016
1017
1018
1019
1019
1024
1028
1031
1032
1030
1032
1039
1045
1045
1049
1049
1055
1061
1065
1069
1072
1074
1079
1086
1093
1096
1097
1100
1105
1110
1118
1121
1123
1123
1124
1131
1133
1135
1133
1129
1127
1127
1125
1122
1115
1108
1100
1094
1089
1084
1074
1063
1057
1053
1047
1039
1032
1025
1019
1014
1012
1007
1001
998
993
993
990
988
986
982
983
983
983
979
978
975
975
975
977
976
976
975
974
976
976
976
976
974
974
975
976
975
974
973
973
974
976
975
975
973
973
975
975
976
974
973
971
972
974
975
973
973
970
972
973
974
972
970
969
969
973
973
971
969
967
969
971
970
971
969
965
969
967
970
966
967
965
967
970
969
968
966
966
967
967
968
967
964
963
964
968
966
966
963
964
965
966
966
964
963
963
964
966
965
965
962
963
967
967
964
963
963
964
965
966
963
963
962
961
964
967
965
964
964
964
963
964
963
962
961
962
961
963
963
963
963
963
963
964
963
963
963
961
963
965
964
963
962
963
962
965
964
965
962
963
964
965
964
964
961
961
963
962
963
963
960
960
961
961
963
961
960
960
962
962
963
962
959
960
961
962
963
961
960
959
961
963
962
959
956
960
962
963
963
960
959
957
960
964
963
961
958
962
962
961
962
960
958
956
959
965
963
961
959
959
961
964
963
963
961
958
961
963
962
960
960
960
962
963
962
962
960
960
961
964
961
963
962
960
961
964
964
963
961
958
962
964
962
963
962
960
959
962
964
963
962
960
961
964
962
960
959
960
964
966
966
967
965
966
968
973
973
974
974
975
977
981
981
981
982
982
982
984
985
987
987
985
986
986
985
981
979
979
976
978
975
974
970
969
969
967
967
963
959
958
959
960
958
958
957
958
957
961
959
959
958
957
960
959
959
959
958
958
961
961
961
960
958
959
960
962
960
961
962
960
965
973
978
981
983
991
1005
1026
1046
1071
1093
1115
1137
1157
1180
1199
1207
1189
1161
1120
1072
1031
1003
978
961
950
952
959
966
968
969
967
965
964
961
959
959
958
958
954
956
956
957
957
958
957
956
955
957
959
956
957
957
957
959
959
961
961
960
959
961
961
962
962
960
960
962
964
965
966
965
964
966
968
970
967
967
969
972
973
974
975
974
975
977
981
980
981
981
983
985
987
988
989
989
990
994
996
999
999
1000
1000
1002
1005
1006
1008
1006
1010
1012
1015
1017
1016
1016
1018
1020
1021
1021
1022
1022
1022
1024
1025
1022
1019
1017
1016
1013
1013
1011
1005
1001
998
999
997
995
990
987
985
983
985
984
981
980
976
978
979
976
974
973
973
974
975
975
973
971
970
974
976
976
973
971
971
974
976
975
973
971
971
974
974
973
973
970
973
974
975
977
975
974
971
973
976
977
976
972
974
974
976
975
974
971
973
975
978
975
975
972
974
975
977
977
975
973
972
974
975
975
976
974
974
974
976
974
976
973
971
973
976
974
975
972
970
973
975
974
973
972
971
971
974
974
975
973
972
973
974
974
972
973
971
973
974
974
974
969
971
974
975
973
972
971
971
973
974
973
972
971
970
974
976
975
973
973
971
973
974
976
972
970
971
973
975
975
974
972
972
973
975
975
973
972
971
973
976
977
972
970
971
973
975
975
975
972
972
973
975
975
974
975
973
972
975
976
973
973
971
974
973
975
975
973
974
975
975
976
976
975
975
975
976
975
976
975
975
975
978
976
976
975
975
975
976
975
974
973
972
973
976
974
975
976
976
978
979
977
978
976
974
975
979
978
977
975
976
976
979
980
978
979
979
983
985
986
988
989
990
992
996
996
996
998
996
996
997
998
1001
1001
999
1000
998
996
995
993
992
992
993
990
989
986
983
982
981
978
976
976
975
975
976
972
971
971
969
973
975
973
971
971
971
973
974
973
973
971
970
972
974
974
972
970
972
971
975
975
975
973
975
982
987
991
993
997
1007
1025
1047
1067
1085
1107
1128
1146
1165
1181
1194
1192
1173
1145
1115
1080
1041
1014
992
980
976
976
981
982
982
981
982
977
975
972
970
971
970
969
968
967
968
967
969
968
968
966
967
968
969
968
970
968
968
970
971
970
970
968
970
971
973
971
970
972
973
972
973
974
972
973
974
976
979
977
976
976
978
980
983
983
980
982
983
985
986
984
987
985
984
988
992
992
991
993
993
998
999
997
1000
999
1002
1005
1009
1009
1008
1010
1009
1014
1018
1019
1016
1018
1021
1024
1026
1027
1026
1025
1025
1029
1030
1029
1027
1023
1021
1023
1022
1017
1014
1011
1007
1007
1004
1000
997
992
989
987
990
987
985
980
976
978
979
978
977
975
972
975
975
976
976
973
970
973
975
972
972
967
968
970
973
973
971
969
969
969
971
972
972
968
970
971
971
971
973
972
970
971
972
972
972
971
970
972
973
972
971
968
970
972
974
970
968
967
969
972
973
971
970
968
968
971
971
972
970
968
968
971
972
971
967
965
968
970
971
967
966
967
966
968
969
967
965
965
966
969
967
968
965
964
964
966
967
966
965
963
963
963
963
966
964
963
961
963
967
966
964
962
963
963
966
965
965
964
961
962
965
966
964
963
963
963
965
965
963
960
958
962
964
964
962
963
961
962
964
963
962
960
961
962
965
963
963
960
957
960
964
963
958
957
958
959
962
961
961
958
960
959
964
963
962
959
960
961
963
964
961
959
958
960
961
962
961
959
958
960
962
963
962
962
961
962
964
965
962
961
960
962
965
964
963
962
961
964
965
966
964
963
962
963
966
965
963
961
961
962
964
967
965
963
963
965
966
964
965
962
962
963
966
966
966
964
963
965
964
967
966
966
967
969
970
970
970
970
971
975
978
978
977
977
979
982
985
987
987
983
986
990
992
994
994
994
994
992
993
996
999
1002
1009
1018
1024
1033
1038
1043
1049
1049
1042
1028
1013
997
980
954
925
891
865
856
867
884
897
904
908
911
912
908
902
897
896
894
898
900
899
897
890
887
887
891
892
897
901
911
925
945
960
967
970
968
969
972
975
975
974
975
976
980
985
982
982
979
982
985
988
988
988
986
990
991
995
994
995
994
996
1000
1001
1002
1002
1002
1003
1006
1010
1012
1011
1010
1014
1017
1023
1025
1026
1025
1028
1033
1037
1041
1042
1043
1048
1053
1058
1061
1064
1065
1069
1075
1081
1086
1088
1089
1094
1099
1105
1110
1111
1111
1114
1117
1120
1120
1121
1118
1116
1115
1115
1111
1105
1099
1097
1090
1087
1082
1076
1064
1061
1055
1053
1047
1041
1029
1024
1021
1017
1012
1007
1000
996
997
992
993
989
983
982
982
980
980
976
976
977
977
977
977
975
974
974
975
977
975
975
971
972
974
975
976
975
974
976
975
977
977
973
974
974
976
975
976
974
973
975
977
978
977
976
970
972
974
976
977
977
974
973
976
974
975
973
971
971
973
976
975
974
971
970
972
973
973
971
970
971
971
974
973
972
970
970
969
971
972
970
967
968
971
972
971
969
966
967
969
970
971
970
968
966
968
971
968
967
966
965
968
968
968
968
964
964
966
970
970
968
966
964
965
966
967
967
964
965
968
970
968
966
964
965
970
970
969
969
967
968
969
970
971
968
965
968
969
970
968
967
964
966
967
968
968
967
968
965
967
971
968
968
967
969
968
970
970
966
965
968
970
969
969
969
968
970
969
971
972
968
967
969
969
970
969
967
967
969
968
970
970
968
967
968
969
971
972
968
968
968
969
972
971
969
967
970
969
971
971
970
967
967
970
972
971
970
969
970
969
972
971
970
968
968
970
973
973
970
967
969
972
974
970
972
969
970
973
974
973
971
968
971
974
975
974
970
971
972
972
976
974
973
971
972
973
976
976
976
973
976
979
984
984
986
985
989
990
990
991
992
990
993
994
995
998
997
996
997
996
996
993
990
989
987
990
990
988
986
985
982
982
981
979
975
972
972
974
976
973
969
968
970
970
973
971
970
968
970
970
973
970
968
967
969
970
970
971
971
969
970
972
973
974
974
974
976
983
988
991
994
1002
1020
1043
1064
1086
1110
1129
1146
1165
1184
1190
1178
1145
1106
1065
1033
1010
993
981
974
977
984
985
984
979
979
974
977
974
971
971
969
970
971
970
970
968
968
971
968
969
968
967
968
968
972
970
968
966
969
970
972
972
972
971
971
971
972
974
972
972
973
974
978
977
977
975
977
979
982
982
980
979
979
982
984
986
985
984
986
990
994
994
994
993
996
998
1001
1002
1001
1001
1005
1009
1011
1013
1013
1012
1017
1019
1022
1021
1021
1021
1023
1027
1029
1030
1028
1028
1027
1029
1031
1027
1024
1018
1019
1016
1011
1010
1004
1000
998
998
995
990
986
986
984
983
985
982
980
977
976
978
978
977
975
974
974
976
977
976
976
972
973
974
975
974
973
971
973
973
974
974
971
971
972
971
974
972
973
970
970
972
974
974
971
969
971
972
973
972
970
970
971
972
974
972
972
970
972
973
973
972
972
968
971
971
972
971
969
968
971
972
972
971
971
969
971
970
972
972
969
968
967
971
971
969
970
968
967
966
967
966
965
966
966
966
967
968
967
965
964
966
967
968
965
963
966
968
967
967
967
964
965
967
968
967
965
963
964
967
968
966
964
961
965
966
968
966
963
960
963
965
965
965
963
961
963
964
966
963
963
963
964
966
966
966
964
964
963
964
965
965
964
962
962
964
963
963
962
961
961
961
964
963
962
959
961
962
967
966
964
961
964
962
965
964
964
962
963
962
964
965
963
963
963
964
965
964
963
961
962
963
965
965
963
962
962
964
966
967
964
961
962
966
967
966
965
961
963
966
968
965
963
963
967
965
967
968
968
967
968
972
977
976
974
974
975
981
982
982
984
983
984
986
988
990
989
987
986
985
984
982
980
979
978
978
977
973
971
968
971
968
968
965
965
961
962
962
964
961
961
960
962
962
962
963
961
961
961
963
965
962
961
961
961
962
963
963
965
961
963
964
965
965
966
965
969
974
980
984
987
995
1016
1040
1062
1087
1110
1128
1146
1169
1193
1209
1207
1179
1137
1088
1044
1008
979
960
951
954
961
970
969
969
968
966
966
963
962
961
961
961
962
961
960
958
958
959
959
959
959
959
959
959
959
960
960
959
961
962
964
962
962
960
961
963
965
964
964
964
966
967
968
971
967
968
969
970
972
974
974
972
976
976
978
980
979
977
980
983
984
987
987
985
988
990
995
995
996
997
999
1003
1007
1007
1009
1009
1011
1014
1016
1018
1019
1019
1023
1024
1027
1027
1028
1026
1028
1029
1030
1029
1027
1023
1021
1019
1017
1015
1010
1004
1004
1003
1000
997
994
988
987
986
986
984
982
978
977
980
980
977
976
973
975
976
980
977
978
973
974
975
975
974
975
973
972
973
975
975
975
973
975
976
977
975
975
976
975
975
977
978
977
973
974
975
976
976
974
972
974
975
976
976
974
973
973
975
976
975
975
973
973
975
975
975
977
974
974
976
975
975
975
974
974
975
975
976
973
974
976
975
978
974
973
973
975
975
977
974
974
973
973
972
973
973
973
972
974
974
974
972
971
967
973
973
974
974
973
969
971
973
974
972
972
970
970
972
972
969
971
969
973
971
972
972
970
968
969
973
973
973
972
971
972
974
975
972
972
972
975
973
974
973
971
971
972
975
976
974
972
971
972
972
975
972
975
972
970
972
974
974
975
972
974
973
975
977
976
973
974
974
977
974
975
972
974
976
976
977
976
