983
981
979
977
975
974
975
974
974
971
971
974
974
973
972
972
973
974
975
974
975
972
974
974
974
976
975
973
975
975
978
977
976
975
977
978
980
979
981
977
981
980
983
982
981
981
982
986
985
986
986
987
987
988
992
991
989
989
993
995
995
996
997
994
998
998
1002
1005
1004
1003
1005
1007
1010
1010
1010
1011
1013
1014
1015
1015
1016
1016
1016
1019
1022
1020
1020
1018
1020
1021
1023
1021
1018
1016
1015
1013
1014
1012
1010
1008
1005
1004
1002
999
998
994
994
995
995
992
991
990
989
988
989
989
987
985
984
986
986
988
986
984
985
985
986
984
985
987
985
987
989
989
985
985
984
985
986
986
985
983
984
984
986
986
985
982
981
984
985
986
982
980
983
982
984
986
984
983
983
984
986
986
982
982
982
983
983
985
983
985
983
985
985
986
983
982
984
984
986
985
983
982
981
982
983
983
980
978
980
982
983
983
981
978
980
980
981
981
979
977
980
980
981
979
980
978
977
980
982
981
981
978
979
981
982
980
979
977
979
979
981
980
978
976
978
978
979
978
976
973
974
978
979
979
976
976
977
978
977
979
978
975
975
979
978
977
974
975
976
979
980
980
980
976
978
980
981
978
977
976
977
978
980
979
977
975
977
978
980
978
977
975
976
978
981
980
978
975
977
981
980
981
978
977
977
980
980
980
978
975
977
978
977
980
978
977
978
979
980
978
979
974
976
978
979
979
977
977
976
979
980
979
978
977
979
979
980
979
980
977
980
981
983
982
981
982
984
987
991
992
991
990
991
995
998
997
997
996
997
1000
1001
1003
1002
1002
1001
1000
999
996
995
992
993
990
990
989
988
984
981
983
982
980
977
975
974
976
977
975
974
973
973
972
974
973
973
973
971
974
976
975
974
973
973
974
976
975
975
973
974
977
979
979
977
978
984
989
992
993
997
1007
1027
1050
1073
1099
1121
1141
1164
1193
1219
1226
1213
1179
1137
1091
1055
1024
997
974
962
958
967
978
979
979
979
977
975
974
972
969
969
971
973
971
971
970
970
972
973
973
972
971
971
974
974
974
976
974
973
974
976
975
976
975
976
979
979
979
978
978
980
981
983
984
982
979
983
984
985
986
983
985
986
988
990
990
990
988
991
993
996
997
997
996
1000
1001
1003
1006
1005
1004
1006
1009
1011
1011
1011
1009
1013
1016
1018
1017
1017
1017
1021
1023
1025
1025
1024
1023
1023
1025
1027
1025
1022
1020
1021
1021
1020
1018
1015
1012
1011
1008
1011
1008
1004
1000
1002
999
999
997
994
995
993
994
997
996
993
989
990
992
992
992
993
989
989
991
994
992
992
990
990
989
992
991
989
989
991
993
994
994
993
991
992
992
993
991
991
990
989
989
993
992
991
989
991
990
991
991
989
987
991
990
991
990
988
987
988
990
990
989
988
988
989
989
991
990
987
986
988
989
990
990
988
987
987
988
989
986
987
984
987
989
989
988
984
986
987
989
989
989
986
986
987
988
988
986
987
984
985
987
989
987
985
984
986
987
987
987
987
983
985
987
987
986
984
983
983
986
989
988
986
985
986
989
990
989
985
984
985
987
986
987
986
984
984
987
989
988
987
983
986
986
987
988
985
984
985
986
989
987
984
983
984
985
986
986
987
985
986
988
988
987
987
982
986
987
989
989
988
985
985
988
989
986
988
986
988
989
989
991
990
986
988
990
990
988
990
988
989
989
990
989
989
987
989
991
992
991
989
988
987
990
991
991
990
988
990
992
993
992
990
988
990
991
993
992
989
988
990
992
993
995
994
992
995
999
1003
1005
1006
1008
1010
1015
1022
1028
1034
1039
1045
1054
1062
1070
1078
1082
1077
1069
1055
1041
1022
995
965
933
908
897
900
906
915
920
920
917
914
913
911
913
912
912
907
905
905
902
902
903
905
908
914
924
936
955
972
982
988
990
991
990
992
994
996
998
1001
1001
1000
1000
1002
1005
1005
1005
1005
1006
1007
1008
1011
1013
1012
1012
1015
1016
1019
1022
1021
1023
1024
1025
1028
1031
1032
1030
1034
1038
1041
1042
1042
1044
1046
1050
1053
1056
1059
1059
1063
1068
1070
1073
1076
1077
1082
1085
1088
1092
1097
1100
1103
1109
1114
1116
1117
1121
1125
1130
1131
1133
1135
1134
1138
1138
1139
1139
1137
1137
1136
1135
1133
1126
1122
1118
1112
1111
1107
1100
1093
1087
1081
1076
1072
1065
1056
1053
1047
1043
1038
1035
1028
1023
1021
1020
1017
1013
1010
1008
1007
1007
1006
1005
1002
999
999
998
999
999
998
996
998
999
999
998
998
995
996
997
997
997
994
995
994
997
997
998
997
996
996
995
998
999
995
995
995
995
995
995
994
994
994
994
994
993
991
991
991
993
991
993
990
989
990
992
993
992
991
989
990
990
989
990
987
985
987
988
987
987
987
985
986
988
989
987
986
984
986
988
986
985
985
983
984
984
984
983
983
980
982
985
986
985
982
981
977
984
984
984
982
981
981
983
982
983
983
980
982
983
983
983
982
980
981
982
984
982
980
979
982
983
983
981
983
982
981
983
984
984
981
981
980
981
981
982
981
979
979
981
982
981
981
978
981
982
984
982
981
979
981
982
982
980
979
977
976
979
981
981
980
979
980
980
982
982
979
978
979
981
980
981
979
979
978
980
981
979
978
977
978
980
981
980
979
978
980
980
982
981
978
978
975
981
981
979
977
977
978
979
979
979
978
977
979
979
979
979
977
975
978
980
979
979
975
976
978
978
980
979
978
976
978
979
978
977
976
975
977
978
981
981
979
977
979
979
981
978
979
977
979
979
981
980
978
977
978
980
981
980
979
980
981
983
983
984
981
982
983
987
991
993
992
990
991
997
998
1002
999
998
1000
1002
1004
1004
1004
1002
1002
1000
998
996
995
991
994
993
993
991
989
986
983
982
982
980
979
977
977
977
979
978
977
974
974
976
976
976
975
975
975
976
976
976
976
976
975
974
977
977
974
973
977
978
981
983
987
990
992
996
1002
1010
1026
1045
1070
1097
1126
1147
1168
1189
1213
1226
1222
1196
1159
1114
1070
1036
1012
988
966
958
960
969
976
981
979
977
976
975
973
972
970
966
967
968
969
968
969
966
969
967
969
969
966
966
966
968
968
967
968
968
967
969
969
972
970
967
968
970
971
970
970
970
971
973
973
973
974
973
975
976
979
979
977
977
980
982
982
982
983
982
983
985
987
988
989
987
991
993
997
996
996
996
999
1003
1002
1003
1004
1003
1006
1008
1011
1012
1014
1013
1014
1016
1015
1018
1018
1018
1020
1020
1022
1021
1020
1017
1019
1018
1018
1016
1015
1012
1009
1010
1008
1007
1005
1000
999
999
998
996
993
992
992
991
993
992
989
989
989
991
992
989
986
987
987
989
991
990
988
988
988
990
991
992
990
988
990
990
992
991
990
988
989
991
991
991
991
990
991
989
990
991
989
987
990
989
990
990
990
988
989
990
991
990
988
987
989
991
991
990
988
988
988
990
990
988
987
986
984
987
987
986
985
982
986
987
987
986
986
985
985
986
987
985
984
983
984
986
986
984
985
981
983
983
982
983
982
983
983
985
986
986
985
984
985
987
986
987
985
986
986
988
987
988
985
984
985
987
987
988
987
984
986
988
986
988
985
984
983
985
985
985
985
983
984
987
986
988
985
984
985
987
986
988
985
984
987
989
990
989
988
987
988
987
988
989
987
987
986
987
991
990
988
984
985
990
990
989
988
986
984
986
988
990
989
986
986
990
992
991
990
988
990
988
990
990
989
986
988
989
991
989
989
989
989
992
992
991
990
988
988
990
992
993
992
992
992
995
999
1000
1001
1001
1004
1005
1005
1007
1009
1010
1011
1011
1013
1012
1012
1015
1014
1012
1009
1009
1008
1004
1003
1006
1006
1006
1002
998
998
997
997
994
990
988
988
989
990
988
985
985
983
985
987
986
983
983
982
985
989
987
984
983
986
986
987
986
985
982
985
987
987
987
986
988
991
995
1001
1002
1002
1005
1017
1035
1055
1075
1094
1116
1133
1151
1169
1190
1204
1202
1180
1149
1112
1069
1032
1007
992
984
982
989
992
991
993
989
987
985
980
978
979
979
979
979
979
977
976
978
978
977
975
976
976
979
980
981
978
978
979
983
983
982
981
979
980
981
982
984
982
981
981
985
984
984
981
981
983
987
988
987
989
987
990
993
992
992
992
992
994
995
1000
1000
999
1000
1002
1004
1007
1008
1008
1009
1011
1014
1016
1016
1016
1016
1020
1021
1023
1026
1025
1023
1024
1027
1027
1028
1026
1024
1027
1025
1024
1022
1019
1016
1017
1014
1014
1011
1009
1005
1004
1006
1005
1002
998
996
996
998
995
994
992
990
991
991
991
990
988
987
987
987
989
988
986
985
986
988
989
988
987
986
988
988
989
988
986
985
987
988
988
986
986
985
985
986
988
987
986
982
985
986
987
986
986
983
985
987
986
984
983
982
982
985
984
984
984
979
982
982
984
984
982
980
982
983
983
982
979
979
981
981
983
983
984
981
982
981
981
981
980
979
981
980
982
980
978
977
977
982
980
980
979
976
978
979
980
980
976
977
978
979
978
977
978
975
976
978
978
980
977
976
976
978
979
978
976
978
978
979
979
977
975
976
978
980
977
977
975
976
977
977
979
978
974
973
974
978
979
978
977
975
975
977
978
977
976
975
977
978
979
980
977
976
977
977
978
976
975
975
976
979
980
978
976
976
978
980
980
978
977
975
978
980
980
980
979
977
978
980
979
980
977
977
978
978
979
980
978
977
978
981
981
980
978
978
981
982
983
981
981
978
978
980
982
981
981
981
985
984
986
985
985
988
991
994
995
997
1001
1006
1015
1024
1033
1040
1046
1054
1065
1074
1074
1063
1047
1028
1006
979
948
911
889
891
903
911
915
917
918
917
916
916
915
911
911
911
912
911
906
900
897
897
902
909
920
932
946
963
973
977
977
976
976
978
979
984
985
987
986
986
990
991
993
994
992
994
997
1000
1000
1003
1002
1001
1001
1007
1010
1011
1010
1010
1015
1018
1020
1021
1022
1025
1028
1033
1036
1035
1039
1040
1044
1050
1052
1055
1058
1061
1066
1073
1077
1080
1081
1084
1090
1097
1100
1102
1104
1108
1113
1118
1121
1124
1122
1123
1128
1128
1129
1125
1122
1121
1118
1115
1112
1106
1100
1094
1089
1085
1082
1074
1067
1058
1053
1048
1042
1037
1030
1024
1022
1019
1016
1010
1006
1006
1003
1002
1001
998
995
993
992
995
992
992
990
989
989
990
990
989
987
988
989
989
992
987
988
987
987
989
989
988
987
985
987
990
990
990
988
987
988
989
990
990
989
985
987
988
989
987
985
984
987
985
986
986
985
981
985
984
986
985
984
982
984
983
983
984
982
983
983
986
985
984
982
982
983
983
984
984
981
980
982
984
984
984
983
980
981
983
983
982
981
980
982
982
983
982
981
980
981
981
983
983
982
979
982
983
984
982
979
980
981
981
981
983
981
980
982
983
982
980
981
979
983
983
984
982
982
979
981
981
983
982
982
981
981
981
984
984
980
980
983
984
982
983
981
979
982
984
984
981
983
980
982
984
985
985
983
982
983
983
986
984
982
985
985
985
986
986
983
983
984
985
987
985
983
983
985
987
985
987
984
983
985
986
988
987
985
984
986
988
989
987
986
984
985
988
987
986
985
986
987
988
989
988
986
986
988
989
987
989
988
986
988
989
989
990
988
986
988
988
989
990
988
986
989
991
991
991
987
987
989
989
991
992
991
988
988
990
992
989
990
988
990
993
993
991
991
991
991
993
993
990
989
988
991
993
992
993
992
992
991
993
993
994
994
995
997
1001
1004
1002
1003
1003
1005
1009
1010
1011
1010
1010
1011
1013
1014
1016
1015
1014
1014
1013
1011
1010
1007
1005
1006
1007
1006
1005
1002
1000
999
999
998
994
989
990
988
990
991
989
987
985
986
985
986
986
985
983
986
987
986
986
984
982
985
988
987
985
984
982
985
985
987
987
986
987
990
994
999
1003
1001
1003
1013
1025
1040
1057
1076
1093
1115
1135
1149
1167
1182
1197
1200
1185
1157
1123
1088
1057
1032
1013
998
986
979
981
988
994
993
992
988
984
983
984
980
979
978
977
977
979
978
977
977
977
978
977
977
978
976
975
977
977
980
977
976
977
979
980
981
979
978
978
980
980
980
979
978
978
980
982
983
982
983
982
984
985
985
986
984
984
988
989
988
989
988
987
990
992
992
993
993
994
993
996
998
1000
999
1001
1004
1006
1008
1007
1008
1008
1011
1014
1015
1016
1016
1017
1018
1020
1020
1021
1022
1022
1023
1026
1027
1029
1027
1027
1029
1026
1032
1030
1028
1027
1024
1026
1028
1024
1022
1019
1019
1017
1016
1013
1011
1008
1009
1008
1007
1005
1002
997
998
997
997
995
994
993
993
993
994
992
990
990
991
990
990
989
988
987
988
992
990
989
989
988
990
990
989
989
986
986
988
988
989
987
988
985
986
987
989
988
987
987
987
989
988
987
984
984
984
984
988
986
987
984
986
986
988
985
985
985
985
986
987
985
983
981
985
985
985
983
982
982
984
984
985
981
981
982
982
984
983
983
982
981
984
983
983
981
980
980
981
983
984
981
982
980
981
983
982
982
979
981
979
980
984
979
979
978
980
981
981
982
980
981
982
983
985
983
982
981
982
982
984
982
982
981
982
984
984
982
983
980
981
982
984
983
981
980
983
985
986
982
982
981
983
983
984
982
981
980
981
980
983
983
982
980
982
984
984
982
980
980
981
984
983
983
981
983
981
983
982
981
979
980
982
984
983
983
981
982
982
984
985
984
982
982
983
984
984
981
982
981
982
982
984
982
979
979
983
985
984
984
983
981
984
983
984
985
981
982
983
985
984
983
981
984
983
986
985
985
982
981
985
987
985
987
986
984
986
987
987
986
984
984
987
989
991
992
990
992
994
998
999
999
996
999
1003
1005
1006
1005
1003
1003
1007
1011
1011
1012
1008
1007
1005
1004
1005
1002
1000
998
999
1001
997
994
991
989
989
989
989
986
982
982
984
985
985
983
980
979
980
983
985
983
982
980
982
982
983
983
981
978
981
982
983
983
979
978
980
984
985
986
986
989
996
1000
1002
1005
1015
1029
1054
1075
1100
1121
1143
1162
1186
1212
1231
1233
1221
1194
1155
1113
1073
1042
1016
991
970
963
967
975
980
982
983
982
981
980
976
975
976
974
975
975
972
974
975
976
976
975
974
972
975
976
977
973
974
974
974
976
976
976
976
974
979
980
981
979
979
979
980
982
984
983
980
981
983
987
985
986
985
985
986
988
989
988
988
989
990
993
995
994
994
995
996
998
1000
1000
1000
1002
1003
1007
1008
1008
1008
1010
1013
1017
1017
1017
1017
1019
1023
1024
1025
1025
1024
1023
1026
1030
1029
1028
1028
1029
1030
1031
1031
1030
1029
1025
1026
1028
1024
1024
1019
1017
1018
1016
1017
1014
1010
1008
1007
1006
1006
1001
998
996
998
997
997
995
992
991
992
994
994
992
990
989
991
994
992
992
991
989
992
993
992
991
990
990
991
994
994
993
991
991
992
995
995
993
989
992
992
994
993
993
990
989
991
993
993
992
991
989
989
992
994
992
990
991
989
993
992
993
991
989
991
993
994
992
991
988
990
992
992
992
991
991
990
992
992
991
989
990
990
988
990
991
988
987
988
990
991
988
986
985
988
990
988
987
985
986
987
989
989
987
984
986
987
989
989
987
984
983
986
987
986
985
984
985
985
987
986
985
983
982
986
986
985
983
983
982
986
987
987
984
985
985
985
986
985
985
984
984
985
986
986
986
984
983
985
986
986
985
983
983
985
986
984
985
985
984
985
986
989
988
985
987
987
986
986
986
984
985
988
988
988
987
986
986
987
988
988
989
986
985
985
989
987
987
984
987
988
990
986
987
986
986
986
990
991
989
986
986
990
991
990
990
989
987
989
992
997
1000
1004
1010
1021
1028
1037
1045
1053
1061
1066
1062
1053
1040
1022
999
976
945
914
896
896
907
919
928
932
931
928
926
924
925
925
923
921
922
922
920
915
910
911
915
920
927
935
951
968
978
987
990
988
987
987
990
993
993
995
995
994
996
1001
1000
1002
1003
1001
1003
1005
1008
1008
1007
1007
1008
1010
1015
1015
1015
1017
1015
1020
1023
1024
1024
1025
1024
1031
1035
1035
1037
1037
1041
1044
1048
1053
1056
1055
1060
1065
1070
1072
1075
1077
1082
1086
1093
1099
1100
1103
1107
1111
1116
1120
1122
1122
1126
1130
1133
1135
1135
1133
1134
1133
1133
1131
1127
1121
1117
1114
1109
1106
1098
1089
1084
1078
1074
1067
1059
1052
1047
1043
1039
1033
1030
1024
1020
1017
1016
1014
1009
1006
1004
1003
1003
1000
1001
997
997
997
998
995
994
992
993
996
998
995
994
995
992
994
995
996
994
993
992
993
994
994
992
992
991
992
994
992
992
992
989
992
992
992
991
991
990
992
992
991
991
988
989
989
988
989
987
986
986
984
987
987
986
984
982
984
984
986
985
981
983
982
981
983
983
978
979
980
981
982
980
977
979
982
984
982
981
977
979
979
981
981
980
977
977
978
980
978
976
976
976
978
978
978
976
976
978
978
981
979
978
979
977
977
979
979
978
977
976
978
978
979
978
977
978
978
979
978
977
975
975
977
978
979
977
975
975
977
978
978
976
976
973
975
976
977
975
974
974
977
978
978
978
974
975
976
979
978
977
974
976
975
980
978
976
974
975
977
978
979
976
973
975
976
979
979
979
976
976
979
980
