989
992
997
994
994
992
993
993
993
991
990
988
986
990
989
988
989
985
986
986
988
988
987
985
986
982
985
982
983
979
977
978
981
982
982
982
981
983
985
986
989
987
987
991
992
990
992
991
993
993
1000
1002
1004
1008
1014
1027
1043
1060
1078
1094
1112
1135
1156
1168
1181
1191
1190
1177
1152
1116
1073
1038
1014
999
992
988
989
992
995
999
998
995
991
988
987
985
984
980
979
977
977
976
980
976
975
973
974
975
979
979
981
982
984
987
989
987
987
986
988
991
994
989
990
991
993
995
995
995
996
995
994
996
997
997
993
994
995
997
1000
998
997
995
995
996
1000
999
998
995
995
997
998
996
996
996
996
995
997
999
1000
1003
1004
1005
1007
1005
1004
1001
1002
1002
1002
1002
1002
999
999
1000
1000
998
999
999
1000
998
997
996
997
995
995
998
998
998
997
995
996
998
998
997
996
995
995
997
1000
1000
997
994
992
998
1000
999
996
996
996
997
998
997
995
995
995
995
995
993
992
990
991
989
991
989
988
989
988
990
991
987
985
983
985
984
985
984
986
986
989
993
995
993
992
991
991
991
992
992
992
990
991
992
995
994
993
992
992
993
993
993
994
993
993
995
997
998
996
995
995
996
998
997
998
997
998
1002
1006
1010
1012
1013
1013
1024
1039
1055
1073
1091
1112
1138
1163
1177
1189
1197
1195
1181
1158
1125
1083
1049
1025
1016
1013
1008
1003
1006
1008
1008
1006
1003
996
994
995
993
995
995
994
992
992
992
995
992
994
991
990
990
992
989
987
988
986
987
991
991
990
987
984
986
991
991
991
987
986
986
989
988
986
986
983
986
988
989
988
988
987
992
995
996
995
994
992
994
993
993
991
987
988
989
991
989
987
987
987
989
992
993
994
998
998
1000
1002
1005
1007
1007
1006
1008
1011
1009
1008
1008
1009
1009
1009
1008
1008
1002
1000
1000
1001
1001
996
993
992
993
993
992
990
988
987
989
990
989
989
989
988
989
991
990
990
988
989
993
995
993
990
989
993
994
996
993
992
991
989
991
994
993
994
991
990
992
993
993
990
991
991
993
995
994
996
997
1001
1010
1017
1022
1030
1038
1053
1071
1086
1102
1116
1132
1153
1173
1184
1185
1180
1165
1141
1110
1078
1041
1020
1013
1015
1012
1006
998
996
993
991
990
989
987
986
983
982
984
986
986
985
983
983
982
986
984
980
981
979
981
982
981
978
976
975
976
979
980
978
977
977
979
979
980
979
978
978
979
981
981
982
979
983
988
993
992
992
991
990
989
990
991
991
991
991
991
996
995
996
996
997
999
1001
1003
1004
1004
1006
1010
1013
1013
1010
1007
1009
1011
1012
1011
1007
1003
1002
1003
1002
1000
996
994
991
989
991
989
987
984
983
984
984
981
980
979
978
976
981
980
979
977
977
978
979
979
977
978
976
978
981
982
981
982
983
983
986
988
987
987
989
990
992
992
989
989
990
994
995
995
992
990
992
990
993
993
998
1001
1006
1017
1029
1046
1065
1079
1096
1113
1135
1157
1174
1183
1191
1192
1186
1160
1129
1093
1051
1015
997
991
988
983
980
982
983
984
980
974
972
970
972
972
971
968
969
971
972
973
971
970
972
974
975
975
975
972
974
976
978
978
978
976
977
980
981
980
978
977
977
979
981
982
978
976
979
980
980
979
977
974
976
975
979
974
973
972
973
974
976
975
973
972
973
975
977
978
977
975
977
980
981
982
982
981
983
987
988
990
991
992
993
997
999
1001
1002
1001
1003
1003
1003
1004
1004
1000
1002
1002
1005
1004
1003
998
996
996
996
995
993
993
993
992
993
994
993
989
990
991
990
991
989
986
990
992
995
996
999
1006
1023
1040
1057
1074
1090
1107
1127
1146
1163
1174
1179
1175
1167
1157
1142
1120
1093
1063
1041
1033
1030
1019
999
985
981
983
985
983
977
975
973
973
974
973
970
968
968
968
968
969
969
967
967
970
970
971
968
967
967
967
970
967
965
963
962
964
963
963
963
960
960
961
959
959
959
957
959
959
960
958
957
955
957
958
959
958
957
956
958
962
966
965
967
965
967
970
974
974
975
975
980
979
982
984
984
983
984
984
989
992
992
990
991
992
994
989
989
986
987
985
985
984
981
978
976
977
977
977
974
972
974
974
975
974
974
971
973
971
973
975
972
969
969
970
971
972
969
966
968
967
969
970
968
965
966
967
970
970
968
968
966
969
970
971
971
969
970
974
974
974
976
973
974
976
980
981
980
976
975
977
978
977
976
973
975
975
976
978
975
972
973
973
975
975
975
972
973
973
975
975
973
971
971
972
973
973
972
974
977
981
985
989
993
996
1012
1030
1049
1073
1094
1116
1139
1161
1178
1191
1191
1173
1141
1104
1064
1025
998
981
971
969
975
982
985
983
982
982
980
979
977
976
976
977
977
976
974
974
973
974
975
975
973
973
972
971
973
977
975
974
974
975
977
977
975
972
973
972
976
976
975
973
972
973
974
974
972
970
970
969
972
971
968
964
963
964
963
962
961
959
961
960
961
962
961
962
962
963
967
968
968
971
975
978
980
981
982
981
987
990
993
993
995
996
999
1003
1006
1005
1005
1006
1005
1008
1008
1007
1005
1004
1005
1006
1006
1006
1002
1000
997
1000
1001
1000
998
994
995
995
994
992
990
987
984
986
987
985
983
980
981
981
980
980
979
977
978
977
978
977
976
976
977
978
981
981
979
977
979
979
981
980
980
977
980
982
983
987
986
984
985
988
988
991
991
990
991
993
994
992
992
988
988
989
990
990
989
985
984
989
988
988
986
983
983
984
984
982
981
977
975
977
979
978
977
977
977
980
982
983
982
981
985
989
993
999
1007
1018
1036
1056
1072
1091
1114
1136
1153
1167
1176
1177
1163
1137
1104
1069
1043
1028
1017
1013
1006
1003
1002
1002
995
993
991
992
991
990
989
986
985
986
987
984
982
979
978
980
979
978
976
973
973
974
975
976
976
972
975
975
976
976
976
972
972
974
976
976
974
972
973
976
976
975
974
972
972
974
975
976
977
978
978
977
978
977
976
975
976
978
980
978
979
978
981
982
984
985
985
985
988
992
994
996
993
992
994
996
999
997
997
995
994
995
995
994
991
989
989
990
989
987
983
983
985
988
988
986
985
983
984
983
984
983
983
983
982
983
985
984
983
984
985
987
987
986
983
981
979
982
980
979
978
975
977
978
979
981
983
980
982
984
985
985
983
981
981
983
985
986
984
984
985
985
982
983
981
978
978
979
981
980
979
976
975
978
978
978
978
976
977
975
975
975
975
972
974
973
975
976
975
975
975
976
978
978
977
975
976
977
978
977
977
975
977
977
979
977
977
974
975
972
974
974
975
979
981
981
983
983
981
978
979
980
980
980
979
980
981
983
984
982
982
979
979
982
985
984
982
979
982
983
984
984
984
982
985
985
986
986
985
983
986
989
991
996
1001
1000
1008
1012
1027
1044
1064
1077
1095
1113
1134
1150
1164
1173
1179
1178
1162
1133
1096
1056
1021
1000
995
994
991
988
992
993
992
990
985
979
979
977
979
976
973
971
971
969
970
971
969
968
968
969
971
972
973
970
971
974
975
975
974
972
973
975
976
977
976
976
977
978
981
982
980
978
982
981
980
981
981
978
978
982
985
985
984
982
983
986
989
991
990
992
992
995
999
999
998
997
997
1000
1002
1001
999
997
998
998
1000
1000
1000
998
1000
1002
1002
1003
1003
1002
999
1000
999
998
998
995
995
996
996
995
993
992
993
992
994
990
987
984
984
983
986
985
982
980
982
984
985
985
985
982
986
989
992
994
993
992
999
1002
1012
1023
1038
1051
1064
1072
1086
1095
1103
1105
1103
1095
1086
1081
1077
1074
1074
1078
1082
1086
1088
1086
1086
1089
1091
1088
1080
1067
1055
1043
1031
1021
1011
998
991
986
980
974
969
963
964
963
965
964
961
959
961
962
963
962
960
957
957
958
959
959
958
957
956
956
958
958
956
955
956
958
958
960
956
954
955
959
962
964
962
962
964
969
972
974
974
974
974
980
983
984
984
984
984
987
991
990
991
989
992
995
1000
1000
1001
1001
1003
1005
1007
1008
1010
1009
1011
1012
1014
1015
1014
1013
1013
1013
1013
1013
1008
1005
1003
1004
1007
1007
1004
1001
1000
1000
999
998
994
994
995
993
1000
1007
1017
1025
1038
1049
1062
1071
1083
1089
1095
1092
1086
1077
1071
1066
1068
1071
1077
1085
1089
1089
1087
1087
1091
1090
1091
1084
1078
1066
1056
1044
1033
1024
1016
1010
1003
994
984
974
969
965
963
958
954
951
949
947
946
945
943
939
938
940
940
941
939
938
940
941
945
947
947
947
949
951
951
952
951
949
951
953
954
957
956
952
954
955
958
959
958
959
964
969
972
973
971
974
976
977
981
983
983
982
988
991
994
996
995
996
1000
1001
1006
1007
1006
1009
1008
1009
1011
1011
1008
1005
1005
1003
1002
999
996
992
991
989
988
986
984
979
981
980
982
979
976
974
975
974
975
974
972
970
971
976
977
978
977
976
980
982
983
983
982
981
980
982
981
985
982
982
984
985
987
986
984
982
982
982
981
980
979
975
976
976
979
976
973
969
970
969
969
967
965
964
963
967
967
966
965
962
963
966
969
971
972
971
973
971
975
975
973
973
975
978
979
980
980
978
981
983
985
988
986
984
986
988
991
993
992
995
1002
1007
1013
1021
1035
1053
1072
1096
1120
1142
1159
1169
1181
1188
1186
1165
1133
1095
1054
1026
1014
1004
996
988
984
985
984
980
975
972
973
973
972
972
970
966
968
971
971
974
974
972
976
975
976
975
975
972
971
971
974
975
976
973
975
977
978
978
978
977
978
979
980
981
978
975
975
976
974
976
974
971
972
972
974
973
971
968
972
972
974
974
972
972
973
973
975
977
978
977
979
981
984
983
985
987
991
995
999
999
999
1000
1004
1005
1005
1007
1005
1001
1002
1004
1003
1000
998
995
996
996
996
996
995
991
991
993
992
991
990
987
986
987
990
988
985
984
983
985
986
983
983
980
981
981
982
982
980
979
979
979
980
978
978
977
977
976
981
979
978
977
977
977
979
979
978
977
980
980
982
982
982
981
982
982
982
982
981
981
982
983
983
982
981
979
979
980
980
978
976
976
974
974
975
973
972
971
972
975
978
976
975
972
975
976
978
976
973
970
973
973
977
974
973
970
973
974
975
974
975
972
975
976
976
975
975
974
976
978
980
981
979
980
982
988
992
997
1001
1007
1027
1047
1066
1084
1098
1121
1142
1155
1167
1170
1167
1150
1126
1096
1064
1032
1012
1002
1000
996
991
988
987
983
982
982
980
975
974
971
972
973
971
971
969
966
968
968
971
970
969
966
968
970
972
971
969
969
968
971
972
970
968
969
971
971
976
976
975
975
979
981
984
984
984
986
988
991
991
991
988
986
985
985
982
980
977
974
975
976
975
974
970
970
969
970
972
968
967
968
969
970
973
974
973
972
975
976
979
980
979
979
978
980
982
979
976
975
978
979
978
976
975
972
973
974
972
972
971
972
971
972
976
977
976
975
977
979
980
980
977
978
978
978
980
981
982
981
980
980
980
977
977
974
976
974
976
974
973
973
975
977
978
977
973
971
971
971
972
970
970
969
970
969
971
969
967
966
966
967
966
966
965
964
967
965
966
965
963
961
962
965
965
965
964
962
964
965
967
965
964
962
965
967
969
967
966
965
966
968
970
972
968
969
970
972
972
971
971
970
969
969
972
972
969
965
967
968
969
969
966
964
965
962
963
964
963
959
960
962
961
961
958
956
956
956
959
959
959
956
958
959
961
963
964
963
964
965
966
968
967
966
966
968
970
968
969
968
967
968
973
972
972
971
973
976
978
977
977
976
977
978
980
977
977
975
976
976
977
974
972
969
970
971
971
971
967
963
965
966
969
965
963
960
961
961
962
962
961
957
960
958
960
962
959
957
957
961
963
961
964
961
962
963
963
965
964
961
965
965
967
965
967
967
968
969
971
970
970
970
972
976
977
979
979
978
981
981
983
983
979
979
977
978
980
976
976
974
975
975
975
971
972
969
971
970
972
971
969
964
968
970
970
969
970
969
970
972
971
971
970
968
968
970
970
970
970
965
965
967
968
968
966
964
967
968
970
971
970
968
971
971
975
974
975
973
978
982
983
985
983
984
984
988
989
989
988
983
985
988
989
989
987
984
985
982
984
984
980
979
979
979
982
984
983
985
990
995
1000
1005
1011
1023
1046
1072
1094
1121
1144
1166
1185
1203
1214
1214
1195
1163
1120
1074
1035
1008
990
976
970
970
979
984
987
983
985
985
986
984
982
978
979
981
982
982
983
981
980
982
982
981
980
977
978
978
979
980
977
976
977
978
978
980
979
977
978
980
981
982
979
975
977
980
980
981
981
977
977
980
981
980
981
978
979
983
984
985
983
980
982
987
987
989
988
987
989
991
991
993
993
989
992
995
999
1000
999
1001
1003
1006
1008
1011
1012
1010
1012
1014
1015
1015
1015
1012
1014
1013
1014
1013
1012
1008
1007
1007
1009
1006
1004
999
1000
997
1000
997
995
990
991
994
993
991
992
987
988
990
991
989
988
987
988
987
988
986
987
986
984
988
986
987
985
984
987
988
988
989
986
988
988
988
990
988
987
985
986
988
992
991
989
987
989
991
988
988
987
985
987
988
989
988
986
981
981
982
982
980
978
975
977
978
981
983
982
983
986
987
989
990
990
987
987
989
988
984
982
981
981
981
983
983
982
978
979
981
981
979
977
977
977
978
979
980
977
976
979
980
981
981
982
980
981
981
982
981
979
977
977
976
979
980
979
977
978
978
981
982
983
980
981
983
983
985
985
982
982
983
984
985
984
981
983
984
987
983
983
980
979
981
983
982
982
983
987
989
990
987
985
984
985
986
986
982
982
982
983
983
984
983
981
978
977
978
979
981
981
978
980
980
982
981
977
977
978
980
979
980
977
975
977
979
980
980
979
977
978
982
984
984
983
981
985
987
990
990
990
988
989
989
992
992
991
989
993
997
996
1002
1002
1006
1011
1016
1024
1040
1057
1074
1093
1114
1137
1157
1168
1179
1189
1190
1175
1150
1115
1075
1044
1025
1018
1011
1004
1002
1003
1006
1004
1001
997
992
991
990
992
989
988
986
985
985
986
985
985
984
984
986
989
990
989
990
987
991
992
992
991
989
989
991
991
993
993
992
991
992
994
992
992
990
991
993
994
992
993
992
992
993
994
994
992
990
990
991
994
993
994
993
994
997
1001
999
997
999
1000
1001
1002
1001
1000
1000
1001
1003
1005
1006
1006
1004
1007
1010
1014
1015
1013
1011
1012
1011
1012
1010
1006
1004
1005
1004
1008
1005
1002
1000
1000
999
999
998
997
993
995
994
992
990
989
985
985
987
986
985
983
980
983
983
984
982
982
979
981
985
986
987
987
986
987
988
989
988
985
982
983
983
984
985
983
983
982
984
985
988
986
983
984
985
984
982
979
979
979
981
981
981
981
980
980
983
984
985
984
983
983
983
985
982
980
975
975
975
973
973
972
968
972
973
973
973
973
971
970
975
976
977
977
976
976
977
979
979
978
976
976
978
980
979
980
977
981
984
989
989
987
987
985
984
986
986
982
979
981
982
983
982
980
978
978
979
980
978
978
976
975
978
979
978
980
976
978
979
979
977
974
973
973
973
975
973
971
970
973
974
975
973
972
971
967
971
973
972
970
969
970
973
974
972
971
969
970
972
973
974
974
975
976
977
978
979
978
978
980
978
980
977
975
973
974
978
976
977
978
977
980
982
986
991
994
996
1003
1020
1044
1069
1090
1115
1147
1172
1189
1204
1209
1197
1169
1132
1087
1042
1007
986
978
974
976
982
985
986
984
983
983
980
977
974
974
973
976
977
975
973
972
975
978
976
975
973
976
973
974
971
970
970
972
976
974
975
973
972
977
977
979
978
978
976
977
980
981
980
980
977
979
979
980
980
979
979
982
981
985
984
985
982
984
985
987
991
989
990
993
997
998
998
996
995
997
998
999
1000
1000
997
998
999
1001
1000
999
998
999
999
999
998
997
994
994
994
993
991
987
983
983
982
983
980
980
976
976
976
975
977
976
973
975
977
976
974
973
973
975
977
978
978
976
976
980
982
983
984
982
985
988
994
1006
1020
1033
1046
1057
1065
1075
1084
1093
1095
1093
1086
1079
1073
1069
1068
1070
1071
1077
1084
1087
1085
1084
1083
1084
1085
1079
1073
1062
1050
1040
1028
1019
1010
1003
997
989
982
976
972
969
967
967
965
964
963
962
964
964
960
961
959
956
956
959
957
956
954
954
957
958
958
955
956
955
957
959
958
956
955
955
958
959
958
955
955
957
959
962
963
964
961
965
966
970
970
971
969
971
974
976
976
976
973
976
979
983
985
986
985
990
995
998
1000
1002
1003
1006
1010
1012
1012
1011
1014
1016
1019
1021
1022
1020
1019
1018
1020
1020
1018
1014
1008
1011
1010
1009
1007
1003
1001
996
995
992
992
986
984
984
984
984
981
979
978
977
980
982
979
977
972
976
979
979
979
974
973
974
975
976
973
973
969
970
971
972
969
968
967
968
972
972
970
969
967
971
973
975
975
973
972
972
974
974
971
969
966
966
968
969
968
969
967
968
970
969
968
968
966
969
970
970
970
970
970
969
970
970
968
968
968
971
970
969
969
967
966
967
969
969
968
967
967
