960
965
964
962
959
960
961
966
965
969
966
968
973
976
979
979
978
980
985
985
987
987
984
986
987
987
990
987
984
985
986
988
988
987
986
988
987
992
993
991
991
990
991
992
989
990
988
988
988
988
987
984
979
980
980
981
981
978
974
974
975
977
975
972
969
970
973
975
975
974
972
972
975
978
983
982
982
985
988
987
989
984
982
982
984
984
984
981
980
982
982
984
982
980
976
978
979
981
980
978
973
972
975
977
976
971
970
973
975
977
977
973
970
971
973
974
977
976
974
975
978
979
980
978
975
974
975
977
977
975
972
974
976
976
975
972
970
969
968
970
969
968
968
972
976
981
981
980
976
977
976
979
978
977
974
973
976
973
974
973
970
970
970
972
972
972
970
970
971
973
974
975
974
975
974
976
977
976
977
978
977
980
978
977
976
976
976
978
976
976
974
975
977
976
975
973
970
973
974
974
972
970
967
972
974
974
976
976
975
975
978
980
981
980
978
979
980
981
981
979
978
977
978
981
981
980
976
976
976
978
978
977
976
978
978
980
980
981
977
975
979
980
982
980
980
983
990
993
998
1003
1005
1014
1027
1046
1067
1088
1107
1132
1157
1177
1194
1209
1217
1212
1190
1156
1114
1069
1027
1000
984
971
964
960
964
978
986
990
991
987
985
984
984
983
983
982
983
985
985
983
980
978
975
978
978
979
977
975
972
973
973
974
973
972
973
976
975
978
977
976
973
973
977
979
978
976
974
974
974
975
974
972
973
974
974
976
976
973
971
975
976
978
980
981
977
980
983
987
984
984
982
986
990
997
1000
1003
1004
1008
1012
1015
1018
1018
1017
1018
1021
1022
1021
1022
1022
1022
1023
1022
1021
1018
1017
1016
1018
1018
1015
1014
1009
1009
1007
1006
1003
1000
998
996
996
996
992
987
987
987
989
989
988
983
981
984
983
987
984
985
981
984
986
991
991
988
986
989
992
994
994
992
994
996
998
1001
1000
999
1000
1003
1006
1010
1013
1014
1016
1029
1046
1069
1093
1115
1133
1153
1171
1190
1204
1209
1204
1193
1170
1140
1103
1065
1033
1011
998
994
988
985
982
986
989
989
985
980
976
975
974
977
973
971
969
971
972
972
972
972
969
973
972
974
975
975
973
974
977
976
977
975
974
977
979
981
981
982
982
983
988
990
989
986
983
984
983
984
983
984
981
980
980
980
983
982
981
982
984
985
987
985
982
983
984
988
989
988
986
987
989
994
995
997
995
999
1001
1004
1005
1003
1003
1001
1002
1001
1000
998
995
993
994
991
988
985
980
978
978
978
979
974
972
972
973
972
971
970
968
968
969
971
970
970
969
970
971
974
974
975
974
975
976
980
981
982
980
981
985
987
988
989
988
990
991
993
994
993
989
991
991
994
992
991
990
992
993
993
993
990
989
990
989
987
984
983
981
980
978
980
978
978
974
975
975
976
975
972
972
972
972
972
970
971
967
967
968
968
968
964
963
962
965
966
965
966
964
968
971
975
975
977
976
979
979
980
979
977
977
977
982
985
988
989
988
990
992
991
991
988
986
985
985
987
986
984
983
981
982
985
984
980
979
977
979
981
981
981
981
983
987
989
992
996
997
1006
1020
1037
1055
1071
1086
1109
1132
1146
1157
1167
1169
1164
1148
1125
1093
1059
1029
1010
999
993
989
985
985
988
992
992
989
986
982
984
987
989
991
987
982
983
984
983
980
978
974
974
978
978
975
973
969
970
971
972
972
971
970
971
972
974
972
972
970
972
972
974
972
970
968
969
972
972
972
970
969
969
970
972
971
971
969
972
972
974
975
975
972
973
975
976
975
975
973
976
978
981
983
986
986
991
994
998
998
996
995
997
999
1000
1001
999
998
1000
1001
1005
1004
1002
1001
1001
1000
1001
999
995
992
991
993
993
988
985
980
982
986
982
982
979
976
977
976
979
976
975
971
972
974
975
973
972
970
970
971
973
975
974
974
974
974
979
979
981
982
982
988
989
987
984
980
980
981
985
984
980
977
979
983
985
986
984
980
982
978
980
978
978
974
975
975
978
974
972
970
969
971
971
970
968
966
967
966
968
966
961
960
961
963
964
964
963
960
962
965
967
965
964
967
967
975
979
980
980
978
980
982
985
985
982
981
981
983
984
983
982
978
980
982
986
984
984
980
981
981
982
981
982
983
988
993
997
996
1004
1018
1039
1060
1080
1101
1122
1143
1162
1177
1189
1185
1163
1125
1086
1043
1010
985
973
962
961
964
971
972
970
966
965
965
967
966
963
962
965
968
971
969
968
967
969
972
971
973
971
968
973
974
975
972
970
969
971
971
971
971
968
966
966
968
970
967
964
962
966
968
971
968
968
964
966
968
971
970
968
969
969
970
975
975
976
975
977
978
979
979
979
980
984
987
990
990
993
993
995
998
999
999
998
999
998
998
999
995
994
990
989
988
986
985
981
977
977
974
977
974
973
972
972
974
976
976
974
975
974
974
976
974
974
972
971
974
974
973
972
971
973
974
977
976
975
976
977
982
983
984
983
984
988
992
998
999
1006
1015
1038
1067
1095
1118
1134
1154
1177
1198
1211
1217
1207
1188
1160
1125
1086
1041
1007
993
992
991
989
983
980
978
978
977
974
971
967
965
962
964
963
960
959
957
957
960
960
960
957
955
956
958
958
955
956
956
960
963
964
964
963
960
960
962
964
963
963
963
964
968
968
969
969
967
969
971
973
972
971
971
972
975
978
975
974
972
971
973
977
977
975
973
974
976
977
976
975
975
977
978
980
979
978
976
980
983
982
979
980
977
978
979
979
974
971
968
971
971
971
969
966
963
966
967
968
971
970
969
970
971
969
970
972
970
971
972
974
973
973
971
971
972
973
972
970
970
970
970
969
971
968
968
968
969
971
970
967
964
963
963
965
963
961
962
959
963
966
961
960
958
960
962
962
960
958
955
956
960
960
960
958
958
959
962
963
962
962
962
964
966
965
964
962
958
960
961
963
962
960
961
962
965
966
965
965
964
965
968
969
968
967
964
965
965
964
964
961
961
963
964
967
966
966
966
968
968
971
974
975
977
981
990
1002
1020
1040
1059
1082
1106
1130
1149
1161
1171
1175
1166
1146
1116
1078
1039
1008
990
981
974
972
970
973
975
975
971
967
963
963
962
963
961
959
959
959
960
961
960
958
955
955
956
958
957
957
956
957
959
962
961
956
956
957
957
959
959
957
957
958
961
964
963
963
961
965
964
966
968
968
964
967
970
971
969
968
966
969
971
974
973
971
971
974
977
979
980
978
978
980
981
985
984
985
984
985
986
986
985
982
980
981
983
982
981
977
972
972
972
972
972
971
969
971
971
971
969
967
966
967
970
971
970
972
969
969
970
969
969
970
969
969
972
975
975
974
974
976
977
976
976
974
973
973
977
978
977
975
973
976
976
975
974
971
969
969
973
972
972
971
966
969
968
969
965
964
963
961
961
963
959
956
954
955
958
960
957
956
956
958
959
960
961
961
959
960
960
957
957
957
955
957
960
962
961
962
962
965
967
967
969
966
964
966
966
967
967
965
965
967
967
969
969
967
966
965
967
968
971
967
964
962
963
964
961
959
957
958
960
960
961
959
958
958
960
960
958
956
956
956
957
958
955
957
956
960
962
963
963
960
959
962
962
965
964
963
962
964
963
965
963
964
964
966
970
972
972
970
969
968
971
972
972
969
968
967
969
969
969
965
962
965
965
967
963
965
963
967
971
979
982
984
987
1001
1020
1044
1063
1082
1102
1125
1140
1155
1165
1162
1144
1120
1090
1057
1025
1003
992
987
984
981
978
978
979
980
979
980
977
976
975
976
975
976
974
972
970
970
971
972
970
969
967
967
967
967
965
963
965
968
968
968
967
966
965
967
970
969
968
967
967
968
969
971
970
968
968
969
971
972
973
971
968
968
966
967
966
966
965
968
970
972
971
972
972
976
975
980
983
984
985
988
989
992
992
993
992
994
996
999
999
997
994
994
994
996
992
991
990
988
989
989
986
983
979
978
978
979
977
976
971
971
971
973
972
967
965
966
968
967
969
967
967
969
971
971
975
972
970
970
972
975
973
972
973
978
979
980
978
977
975
977
977
978
977
976
974
976
978
979
978
976
973
974
976
975
975
972
971
971
970
969
967
968
966
967
967
971
969
967
962
964
967
969
971
970
971
973
975
976
974
972
968
971
972
974
974
971
967
969
970
973
970
971
968
969
971
975
973
970
971
971
974
976
976
972
971
974
976
977
976
975
972
972
973
972
972
970
970
975
978
982
983
987
989
1004
1025
1046
1068
1094
1122
1152
1175
1193
1200
1189
1161
1123
1080
1040
1005
986
972
967
971
978
983
985
977
975
974
973
971
969
967
966
968
968
967
966
966
967
969
970
970
968
967
968
967
968
969
967
963
964
964
967
965
965
963
964
964
966
967
965
963
964
968
971
972
971
971
974
978
981
980
978
978
978
980
980
981
979
979
980
978
983
982
981
981
984
988
989
988
987
988
988
991
991
988
988
985
983
984
983
979
975
972
971
972
971
970
967
962
960
962
962
962
959
957
958
959
959
958
955
955
958
960
962
963
964
964
967
969
970
967
965
963
970
973
973
971
971
973
974
977
978
978
976
975
976
977
976
977
974
974
975
973
975
973
970
968
969
969
970
969
968
967
967
968
968
965
962
961
964
965
964
962
961
959
959
958
961
961
960
957
958
959
963
962
961
962
967
968
970
971
966
966
969
970
971
972
973
972
975
976
975
974
970
970
969
970
970
968
965
965
967
967
968
966
964
964
967
969
970
970
969
973
978
982
990
1001
1019
1041
1064
1088
1113
1142
1162
1180
1193
1197
1177
1141
1102
1060
1022
1001
987
979
972
975
982
988
988
986
981
979
979
980
979
977
972
972
974
972
971
967
965
962
961
963
963
962
960
959
960
961
963
962
961
958
961
960
960
960
960
959
963
966
967
967
966
966
969
971
972
971
971
972
972
975
978
977
979
979
981
985
985
985
985
986
988
988
987
987
987
986
988
987
988
988
988
988
989
988
989
990
989
987
989
987
984
983
982
979
980
980
980
977
977
976
974
974
974
971
970
969
971
972
973
974
974
972
973
975
976
975
975
974
977
977
975
973
972
972
975
978
978
977
975
975
978
977
977
979
974
976
977
978
978
973
973
973
974
976
975
977
973
973
974
976
975
974
973
974
973
974
971
971
970
968
970
971
970
972
970
971
972
972
973
972
970
969
969
970
971
971
972
970
971
971
974
974
971
970
973
972
973
972
970
969
970
975
974
974
972
972
972
977
977
977
976
976
977
982
984
987
989
988
992
999
1015
1033
1052
1071
1095
1124
1148
1164
1176
1184
1180
1161
1131
1094
1053
1018
1001
995
987
981
979
977
979
978
977
974
972
971
973
975
975
976
974
970
972
972
973
974
972
970
970
971
971
971
969
968
971
973
973
974
971
970
971
973
974
973
971
970
970
972
975
976
975
976
975
978
979
980
980
978
979
980
979
981
981
979
981
983
986
986
985
985
987
991
990
991
990
991
993
995
996
996
993
993
994
994
994
992
991
989
990
991
992
989
987
985
983
984
981
982
980
976
977
977
977
976
975
972
975
975
971
974
975
975
974
975
973
973
971
971
973
974
974
970
971
971
971
971
972
971
969
968
971
972
972
969
971
969
971
970
969
971
972
968
970
971
972
973
971
969
972
973
975
972
972
972
973
974
974
973
971
970
973
974
975
975
971
972
973
974
974
972
971
970
971
972
971
971
970
968
966
969
970
969
968
965
966
966
966
964
962
961
963
963
964
964
959
957
960
960
960
957
957
956
961
961
963
961
962
962
965
967
968
969
969
967
968
969
972
972
971
967
972
974
974
972
971
970
973
974
975
977
972
971
973
974
974
972
970
969
970
971
975
973
974
972
972
973
975
973
971
969
970
972
969
969
968
964
963
963
964
961
959
956
958
961
965
968
971
972
975
975
978
976
976
975
975
976
978
979
978
976
978
981
979
978
978
977
978
980
981
983
981
980
980
982
986
986
989
993
998
1003
1010
1025
1041
1060
1080
1108
1130
1150
1162
1177
1186
1184
1162
1127
1088
1046
1011
992
979
969
965
967
976
984
985
986
982
978
977
978
976
971
970
968
967
968
967
966
965
967
967
970
973
973
973
973
974
975
975
975
972
972
972
974
975
974
973
972
974
975
975
975
972
971
973
975
973
975
971
971
974
974
974
975
976
974
977
979
978
980
978
981
979
985
987
988
992
993
996
998
1001
1000
998
998
1001
1001
1002
1000
999
998
1000
1004
1004
1003
1002
1001
997
999
998
994
991
990
989
989
989
986
984
984
981
980
979
978
975
974
974
976
975
975
973
971
972
970
969
967
967
967
968
970
971
971
970
971
970
969
970
969
967
967
968
968
969
968
968
967
970
970
972
973
972
972
975
975
975
974
971
970
972
974
974
974
972
973
975
977
979
977
974
974
977
977
976
975
971
967
972
974
973
967
968
966
968
969
969
968
966
967
969
969
970
966
966
966
966
967
967
964
962
962
964
964
964
960
959
959
961
963
965
965
964
962
968
966
967
965
964
964
966
968
967
964
962
960
964
966
967
962
963
959
960
960
961
960
957
954
956
957
958
959
958
959
960
965
969
971
973
973
975
976
977
977
975
975
975
974
976
976
973
971
972
973
974
974
971
971
974
975
978
976
978
977
980
980
981
981
978
978
979
980
978
978
976
977
977
980
978
977
975
975
976
975
974
971
969
967
972
972
973
971
968
968
969
970
969
967
965
966
969
975
975
978
978
983
997
1017
1037
1058
1076
1097
1121
1145
1165
1183
1196
1199
1192
1169
1135
1096
1057
1023
998
983
974
966
967
970
979
982
984
979
977
972
974
974
974
971
969
968
970
972
970
968
964
962
963
965
965
961
959
961
962
964
963
962
963
962
963
966
967
968
967
967
969
970
970
973
972
971
975
981
986
987
989
989
992
993
992
991
992
992
993
993
993
994
992
991
991
991
993
992
992
992
993
995
996
993
991
992
994
995
996
995
994
993
992
991
992
990
989
990
990
990
989
986
982
979
981
984
982
981
979
976
978
977
977
973
972
973
974
976
975
974
974
976
981
983
983
983
980
981
980
981
980
979
977
977
980
981
983
981
978
978
980
982
982
979
977
976
976
976
975
975
971
971
972
973
974
972
968
967
968
970
970
969
966
966
968
970
970
969
967
965
967
968
969
971
971
968
971
974
975
972
971
970
970
969
970
969
968
970
973
978
982
985
984
984
986
985
984
982
981
981
985
985
983
983
979
980
979
979
978
977
975
974
975
978
976
975
974
972
974
976
974
971
970
968
970
971
972
972
970
971
971
973
969
971
968
968
969
973
973
974
974
975
979
982
984
983
984
988
991
996
1003
1017
1031
1046
1065
1089
1112
1137
1158
1172
1187
1192
1184
1161
1133
1099
1063
1036
1018
1007
1001
996
994
992
993
990
987
981
978
977
976
976
973
972
972
972
970
970
968
967
967
965
966
964
965
962
963
962
964
965
964
964
965
965
965
964
966
967
969
971
973
973
971
970
974
975
974
974
972
974
976
976
978
982
983
984
989
991
992
992
994
995
996
997
997
997
996
998
1000
1000
999
1001
1002
1002
1005
1006
1004
1005
999
998
999
1000
999
997
995
990
991
989
985
981
976
978
977
978
975
973
974
973
975
973
970
969
965
962
962
964
962
960
960
959
959
960
960
959
961
962
966
969
972
972
972
974
974
976
976
976
975
975
977
978
977
975
973
971
972
975
973
972
969
967
967
967
966
965
965
963
966
970
969
968
967
967
969
967
966
967
966
967
967
969
970
969
966
967
967
968
967
966
963
962
961
965
964
963
963
964
968
971
973
972
971
972
973
975
974
972
972
971
974
974
975
973
970
967
968
970
969
970
969
968
970
972
973
969
968
967
970
972
971
971
970
971
975
978
979
981
981
985
990
995
1002
1014
1029
1048
1071
1091
1114
1136
1154
1169
1186
1189
1176
1144
1105
1064
1022
994
981
970
965
969
976
984
984
981
976
973
971
973
969
965
965
965
964
966
964
963
961
961
963
969
967
966
966
966
967
968
968
968
965
967
967
969
968
967
966
969
973
975
974
972
971
970
975
976
974
973
971
973
975
976
977
977
975
976
979
979
981
979
977
978
981
985
986
990
992
995
999
1004
1003
1004
1003
1005
1006
1005
1006
1004
1002
1002
1003
1003
1002
998
996
993
993
994
991
987
984
981
982
981
981
980
975
975
976
977
973
970
970
969
970
972
973
971
968
967
964
966
965
964
966
965
970
970
967
968
964
964
966
967
967
968
969
969
975
980
983
985
987
993
1001
1010
1026
1046
1069
1092
1118
1139
1164
1189
1208
1215
1209
1189
1159
1121
1077
1035
1010
1002
999
993
983
979
980
980
978
973
968
967
965
965
965
961
959
958
957
959
960
959
958
959
957
958
956
953
951
951
952
