973
973
970
971
971
971
974
974
972
971
971
971
974
972
972
969
968
970
972
970
969
967
966
968
969
968
969
968
967
968
970
970
968
967
965
966
968
968
967
967
966
966
971
970
970
969
968
970
971
970
970
967
969
969
970
971
971
969
968
970
971
971
972
970
971
972
973
972
971
969
971
972
974
973
973
971
973
974
976
972
973
973
973
975
974
974
973
974
972
974
975
973
973
973
973
974
978
975
975
975
974
977
977
975
975
975
975
975
978
976
976
977
975
978
978
978
978
975
975
976
979
977
976
975
976
977
978
978
977
977
974
975
980
981
979
975
978
979
980
980
978
977
978
978
982
981
979
979
977
979
983
981
980
978
977
978
980
980
979
978
979
980
981
979
980
978
978
980
980
981
981
980
980
980
983
980
981
979
979
981
982
982
981
979
980
981
985
983
983
979
980
982
984
982
982
981
981
982
984
983
983
981
981
983
985
984
985
982
983
984
984
985
984
982
983
985
986
984
984
983
984
984
986
986
986
985
983
986
988
987
986
987
985
987
991
989
988
985
986
986
989
988
987
986
987
988
988
989
985
985
984
987
991
989
989
986
987
987
990
989
988
986
988
989
992
990
989
988
988
989
991
992
991
989
989
992
995
995
996
997
1000
1002
1005
1006
1006
1007
1008
1008
1012
1009
1007
1004
1007
1013
1015
1013
1010
1008
1006
1007
1008
1006
1004
1002
1000
1000
1000
995
992
990
987
991
992
991
988
986
986
986
989
987
987
983
985
986
989
987
986
983
983
986
988
986
987
985
986
986
990
989
990
991
994
1001
1007
1011
1012
1013
1028
1048
1068
1087
1109
1130
1149
1163
1181
1198
1201
1186
1162
1132
1103
1066
1037
1015
998
989
990
994
995
994
991
989
988
986
983
980
980
981
984
981
979
977
978
979
981
979
979
979
979
980
982
980
979
976
979
981
982
983
981
980
980
980
982
981
983
982
983
985
988
986
986
987
986
988
992
993
992
991
993
997
999
1000
1002
1004
1007
1010
1015
1016
1016
1015
1016
1014
1015
1012
1009
1010
1008
1012
1018
1017
1022
1022
1024
1026
1028
1027
1028
1025
1023
1024
1027
1028
1029
1026
1024
1023
1025
1024
1020
1018
1016
1015
1018
1013
1010
1005
1005
1002
1003
1000
996
993
992
991
991
990
987
983
982
982
984
981
980
977
977
980
981
981
980
976
978
978
982
980
982
975
977
977
979
978
980
978
976
979
981
979
979
978
979
980
982
984
979
980
980
981
984
984
987
982
979
984
983
983
983
979
981
982
986
986
982
980
981
983
987
987
985
983
983
984
987
986
985
982
984
985
986
986
985
983
983
984
987
986
984
981
984
987
985
984
984
982
982
984
987
985
984
981
981
982
983
982
981
980
980
981
983
982
982
980
981
981
982
981
981
979
979
982
984
983
981
978
977
979
980
980
979
978
978
980
982
980
978
979
978
980
980
981
980
976
976
979
981
979
978
978
979
978
980
979
978
975
977
979
980
979
976
978
977
979
980
979
979
977
978
979
981
981
978
977
978
977
979
977
978
976
977
977
980
979
978
977
979
979
981
981
979
975
975
977
981
982
980
979
978
978
982
981
981
980
979
980
982
982
978
979
979
981
982
983
980
978
980
982
983
981
981
979
979
980
983
981
979
981
978
980
983
982
981
980
979
981
983
982
981
980
979
981
983
982
981
980
982
982
984
983
982
980
980
982
984
983
981
981
982
982
983
984
982
980
982
981
984
984
983
980
980
982
983
984
985
980
980
984
988
985
983
982
982
982
984
983
983
983
985
986
987
986
984
985
984
984
988
986
986
984
984
986
987
988
988
986
987
988
988
988
988
987
985
989
990
987
988
987
987
988
990
991
988
988
987
989
989
988
989
988
987
988
989
991
990
989
988
991
991
993
990
987
988
990
991
992
991
987
988
988
992
993
991
989
990
992
991
992
992
990
987
990
990
990
992
989
990
991
992
993
990
992
991
993
995
993
994
993
993
994
996
994
994
993
992
995
996
994
993
991
992
994
997
995
992
993
994
993
995
994
993
993
994
994
997
995
994
991
995
995
995
995
993
992
995
994
995
994
992
993
993
995
996
995
994
993
993
995
997
996
994
992
993
993
995
995
994
995
994
996
997
995
997
995
996
996
997
997
996
995
997
997
998
999
997
995
994
996
999
998
997
997
996
997
998
997
996
996
997
997
998
999
999
998
999
997
999
999
998
997
997
997
1001
1000
998
997
998
1000
1001
1003
999
999
1001
1002
1008
1010
1010
1010
1012
1014
1019
1019
1019
1015
1016
1020
1020
1023
1022
1020
1017
1019
1019
1016
1014
1011
1010
1011
1012
1010
1007
1003
1002
999
1000
998
996
995
995
995
995
996
994
993
991
994
995
995
994
990
990
994
995
993
992
992
988
991
994
993
993
993
994
997
1005
1008
1013
1014
1019
1029
1047
1065
1084
1103
1127
1150
1166
1178
1192
1197
1188
1162
1130
1087
1053
1029
1010
998
991
990
992
996
997
996
995
991
986
984
983
983
983
984
982
978
979
980
982
982
980
979
980
982
982
984
980
980
981
982
983
983
984
982
981
983
985
984
984
982
985
987
988
989
987
985
988
990
992
992
990
989
991
994
995
996
995
993
996
998
1000
1001
1001
1000
1002
1004
1008
1007
1009
1009
1011
1012
1015
1017
1017
1017
1019
1021
1024
1023
1024
1024
1025
1028
1030
1030
1031
1031
1031
1034
1036
1033
1033
1030
1031
1031
1031
1031
1026
1025
1023
1022
1023
1021
1018
1014
1013
1011
1009
1006
1003
1002
1000
1000
1000
1000
998
998
996
997
998
996
994
994
993
995
995
995
993
991
993
994
996
994
994
992
992
993
996
995
992
992
992
994
995
993
990
988
990
991
993
991
991
990
992
992
994
994
992
987
988
991
992
990
990
987
989
991
989
991
988
987
989
989
991
989
988
988
989
989
990
989
988
987
986
988
987
990
988
986
986
986
989
988
987
986
986
987
990
988
987
984
985
986
987
986
986
981
983
982
986
984
983
982
981
982
985
983
983
981
980
983
986
984
983
981
982
981
985
984
984
981
982
981
984
984
982
980
977
981
983
981
982
979
982
983
985
984
981
981
979
982
983
983
982
981
981
981
983
982
981
981
981
982
984
984
982
979
979
981
982
980
978
979
979
978
980
981
980
979
980
976
980
981
979
981
980
980
984
983
980
980
979
980
983
982
981
979
979
980
983
982
980
979
977
979
981
980
979
979
977
981
984
982
980
978
978
980
981
980
980
978
979
980
983
983
980
979
981
981
983
984
982
981
985
987
989
993
993
993
993
994
999
1001
1000
998
999
1001
1005
1006
1006
1004
1003
1003
1000
999
996
996
993
993
994
991
989
986
986
983
984
981
981
979
979
978
979
977
978
976
977
976
978
978
976
976
976
977
979
979
977
976
977
975
977
977
977
976
976
977
980
981
981
980
987
990
994
998
1004
1015
1036
1060
1087
1111
1134
1148
1169
1191
1213
1225
1222
1203
1171
1126
1082
1039
1010
983
962
955
960
971
978
979
977
976
975
974
973
970
969
969
967
970
967
968
968
968
970
968
969
968
968
968
971
972
971
968
970
971
973
971
972
971
972
972
974
974
973
972
974
975
976
978
978
976
976
977
978
982
981
979
980
983
984
984
986
984
986
989
991
991
991
992
994
996
998
1000
1000
1001
1004
1005
1008
1010
1011
1011
1013
1016
1020
1021
1021
1019
1020
1023
1024
1025
1024
1025
1025
1025
1027
1027
1024
1022
1020
1020
1020
1017
1016
1014
1011
1010
1012
1008
1008
1004
1001
1003
1001
997
996
993
993
994
993
993
993
989
989
990
993
992
990
989
987
989
990
992
990
988
988
989
992
991
988
987
989
989
992
993
989
985
987
989
990
991
990
988
987
989
992
991
991
988
988
988
992
989
990
989
987
990
991
990
988
985
987
988
989
991
987
986
985
987
990
990
989
986
984
987
988
988
987
987
986
987
989
988
987
984
984
985
987
989
987
983
984
984
986
986
983
983
983
982
986
985
986
982
983
984
985
987
984
984
983
982
984
983
983
982
982
984
986
986
983
981
982
984
985
982
985
982
981
982
985
985
983
983
982
984
985
986
986
981
984
986
987
986
986
984
985
987
986
988
985
983
983
984
984
987
985
984
985
986
988
988
986
986
984
985
986
988
985
986
985
987
988
988
988
986
988
989
993
997
999
1004
1011
1020
1029
1034
1041
1046
1052
1054
1050
1040
1025
1008
988
965
939
906
879
868
873
886
896
898
900
902
903
904
905
904
905
906
907
913
914
912
909
901
902
903
908
912
916
923
935
951
967
980
987
991
992
996
999
1001
1003
1003
1004
1009
1013
1017
1016
1018
1023
1025
1028
1029
1028
1029
1033
1038
1040
1040
1041
1041
1045
1049
1050
1052
1050
1046
1047
1049
1053
1052
1052
1054
1055
1057
1058
1059
1056
1057
1058
1060
1061
1062
1064
1066
1068
1070
1074
1077
1079
1078
1085
1089
1093
1096
1099
1099
1103
1105
1112
1114
1115
1118
1120
1123
1126
1127
1124
1123
1123
1123
1122
1118
1114
1110
1104
1102
1099
1091
1085
1078
1070
1065
1062
1058
1048
1042
1037
1033
1029
1024
1018
1012
1009
1005
1004
1002
996
992
991
989
989
988
986
984
984
984
985
983
981
979
981
985
986
985
982
981
982
982
983
982
982
980
981
984
982
984
980
977
982
983
984
982
984
981
981
984
982
980
982
982
982
982
984
983
981
979
981
978
981
979
979
978
980
980
981
980
979
978
978
980
980
979
978
977
978
978
978
977
978
974
977
978
978
979
978
975
975
977
978
975
976
974
975
978
978
977
977
974
975
976
977
978
976
973
974
974
975
976
975
974
975
976
978
979
978
973
974
976
978
977
976
974
976
977
979
976
975
973
975
976
978
977
976
974
976
977
977
977
977
974
976
976
978
979
976
975
975
976
979
979
976
973
972
977
977
976
975
974
971
977
977
978
976
973
973
975
977
977
974
973
974
976
978
976
975
971
972
974
978
976
977
973
975
974
975
976
975
972
973
975
976
976
974
974
975
975
979
979
976
973
975
976
976
979
977
976
975
976
977
977
977
975
977
977
979
978
977
976
974
977
979
978
978
977
978
979
980
978
978
975
976
979
979
980
977
978
977
978
980
981
977
975
980
981
982
980
979
976
977
979
982
981
978
977
975
977
979
981
981
980
979
979
982
981
981
978
979
980
982
982
983
977
978
979
981
980
980
977
979
980
982
982
982
979
980
982
983
983
981
980
981
980
980
981
981
979
981
982
984
983
982
981
982
981
984
983
981
978
982
981
984
984
984
980
982
984
985
982
982
981
981
981
984
983
982
980
983
985
984
985
980
980
983
982
984
982
984
981
983
986
984
986
982
981
984
985
987
987
987
985
986
987
990
994
993
993
994
996
999
1000
1000
1000
1004
1004
1006
1008
1008
1008
1009
1010
1006
1007
1004
1002
1002
1001
1002
1001
997
993
993
993
991
992
987
984
984
984
983
983
982
979
980
981
983
982
982
980
982
981
983
984
981
980
979
982
983
984
981
979
980
982
985
985
986
986
985
993
998
1002
1001
1002
1014
1029
1048
1072
1097
1118
1141
1162
1182
1203
1222
1226
1219
1198
1160
1112
1072
1038
1014
992
976
971
974
981
988
990
989
989
987
981
980
982
980
982
980
977
977
977
979
979
979
974
976
980
983
981
980
977
978
979
983
981
982
979
981
982
985
986
985
982
984
984
986
987
987
985
985
988
991
991
989
989
991
991
994
995
993
994
994
995
998
998
998
997
999
1001
1003
1004
1005
1003
1006
1009
1011
1011
1011
1012
1013
1016
1017
1019
1020
1017
1020
1023
1026
1025
1024
1025
1026
1028
1030
1028
1031
1028
1031
1033
1033
1035
1034
1032
1033
1033
1033
1034
1031
1029
1028
1029
1028
1025
1024
1022
1019
1017
1016
1017
1015
1011
1010
1010
1009
1009
1006
1003
1006
1005
1005
1004
1003
1004
1004
1005
1005
1004
1002
1001
1002
1003
1007
1004
1002
1001
1001
1003
1002
1001
1002
999
1003
1005
1005
1006
1004
1000
1001
1004
1004
1003
1003
1002
1001
1002
1005
1004
1002
1000
1004
1002
1003
1004
1000
998
1001
1001
1004
1003
1002
1000
1000
1002
1003
1003
999
997
1000
1000
1002
1002
999
998
998
999
1000
1000
998
996
995
999
1000
999
998
996
995
998
998
999
997
995
996
997
999
1000
997
994
995
996
999
999
996
995
995
996
998
999
994
993
995
997
998
996
994
992
992
995
996
997
994
992
995
996
996
996
994
993
995
997
998
997
996
995
995
997
998
999
995
995
995
997
997
997
995
995
995
997
997
997
995
994
995
997
996
996
994
994
995
997
998
998
997
995
994
995
996
995
995
993
994
997
997
998
1000
996
997
998
997
1000
998
995
998
996
997
999
999
996
995
995
997
998
998
995
996
997
999
999
997
996
995
996
997
997
997
995
996
995
998
999
997
995
996
998
999
998
997
995
997
998
1001
1002
1000
1000
1000
1005
1010
1011
1010
1009
1010
1013
1018
1019
1018
1015
1015
1018
1021
1022
1019
1018
1017
1017
1017
1016
1013
1008
1008
1011
1012
1011
1005
1000
1001
998
998
997
994
992
991
992
992
994
989
988
989
991
992
991
990
986
987
991
991
990
989
986
988
990
991
988
987
987
990
993
996
998
999
1004
1005
1009
1016
1031
1047
1066
1088
1113
1136
1155
1174
1193
1209
1205
1186
1155
1119
1080
1047
1021
1003
989
984
987
996
998
998
996
991
988
987
988
987
983
983
980
980
982
982
984
983
982
981
981
981
983
983
982
982
983
986
986
984
982
983
982
984
986
985
984
986
986
991
989
986
986
986
988
989
989
988
989
988
992
993
995
994
993
995
996
997
999
1000
998
998
1002
1004
1005
1005
1003
1005
1008
1011
1012
1013
1014
1016
1017
1021
1021
1022
1022
1020
1025
1024
1026
1028
1026
1027
1030
1031
1032
1030
1031
1030
1030
1030
1030
1027
1024
1023
1023
1022
1021
1017
1012
1011
1011
1011
1008
1006
1003
1002
1000
1001
1000
998
996
996
996
997
995
994
991
991
994
995
994
993
990
992
992
994
995
992
990
991
992
994
991
991
988
988
990
994
992
990
988
991
992
992
993
991
989
992
993
992
992
989
986
990
992
993
991
989
987
989
990
991
991
990
989
990
991
990
991
990
987
988
989
989
990
990
987
985
986
987
987
988
985
988
987
989
989
987
985
985
986
988
988
986
985
984
987
985
984
985
983
983
982
987
985
983
984
984
987
988
983
983
981
983
984
984
984
982
981
984
984
986
984
984
981
982
983
983
984
984
979
981
982
983
981
982
983
983
985
986
985
984
982
983
982
984
985
985
981
983
982
984
984
983
982
983
984
985
985
984
981
983
982
984
983
984
982
982
984
987
986
984
981
982
984
985
986
986
987
990
997
1003
1010
1015
1023
1032
1039
1049
1056
1054
1044
1031
1017
993
962
927
894
878
880
892
900
903
907
909
913
914
914
913
917
920
924
926
924
918
913
912
917
920
927
936
948
967
985
1000
1006
1009
1008
1008
1015
1019
1020
1023
1021
1021
1022
1024
1022
1023
1020
1022
1021
1022
1019
1020
1018
1018
1019
1018
1019
1019
1017
1018
1021
1023
1025
1025
1024
1030
1032
1032
1036
1038
1038
1042
1046
1052
1057
1057
1061
1066
1070
1075
1079
1083
1084
1089
1095
1101
1103
1107
1109
1113
1116
1122
1125
1124
1123
1123
1125
1124
1122
1118
1115
1111
1108
1104
1098
1092
1083
1079
1073
1068
1059
1052
1046
1041
1036
1032
1027
1021
1014
1010
1009
1006
1003
997
995
993
994
993
991
990
987
985
986
987
988
986
985
988
987
986
987
985
982
982
986
985
986
983
983
984
984
986
987
986
982
983
986
987
986
986
983
984
983
986
988
984
982
983
984
986
984
985
982
982
984
984
984
982
981
981
984
984
982
981
980
981
982
983
980
981
978
978
980
981
980
979
978
977
978
981
980
978
978
976
977
980
981
979
978
976
977
980
979
977
976
978
979
979
980
978
977
977
978
979
978
977
975
976
977
979
979
977
973
975
977
979
978
977
974
976
978
978
978
976
973
975
976
979
978
976
973
975
976
978
977
975
974
974
976
978
979
976
975
975
977
979
978
977
976
976
976
978
978
977
973
976
978
978
977
974
974
975
976
978
977
976
974
977
978
978
978
976
974
974
978
977
977
976
974
976
977
979
978
976
974
976
978
979
979
977
972
976
978
978
977
977
975
976
977
978
977
974
972
973
977
979
977
976
975
977
980
978
978
976
975
976
976
977
978
975
976
977
979
980
979
978
977
977
978
979
980
979
977
980
980
981
979
979
978
979
978
980
979
978
977
977
979
981
981
978
979
978
980
982
978
979
977
978
980
980
981
978
978
980
981
981
982
981
978
978
980
980
982
980
978
980
981
983
981
980
978
981
981
980
982
981
982
980
981
984
983
981
981
982
984
984
983
982
981
984
983
985
985
983
982
983
985
987
985
984
983
986
987
990
989
989
989
993
996
999
1000
999
998
1000
1003
1006
1009
1004
1002
1005
1008
1010
1009
1008
1005
1002
1003
1004
1004
1001
998
999
1000
1001
998
995
989
991
991
988
987
983
982
982
983
983
984
980
977
979
978
981
981
978
976
977
979
980
981
980
977
979
979
982
983
980
977
978
981
980
983
983
984
988
992
995
999
997
1002
1018
1034
1054
1073
1094
1112
1129
1145
1163
1184
1197
1195
1176
1145
1108
1068
1038
1013
996
981
975
976
983
986
988
988
