968
967
964
960
962
965
970
970
970
968
967
970
972
968
968
968
968
967
973
971
968
966
967
969
974
972
971
967
970
972
972
969
968
967
966
971
970
969
965
964
965
965
966
963
963
962
969
976
984
985
986
985
989
995
1002
1008
1019
1038
1062
1090
1118
1144
1171
1197
1225
1252
1279
1289
1280
1255
1222
1181
1135
1093
1055
1023
1005
992
991
991
988
984
985
978
977
975
969
964
960
961
960
958
957
951
947
949
953
953
951
948
948
950
954
953
948
949
946
948
953
952
947
946
947
953
956
956
954
954
960
960
963
963
962
962
964
965
971
971
970
971
973
973
978
976
973
970
971
973
977
977
975
972
975
979
981
979
977
976
977
980
983
985
983
979
978
981
985
984
979
978
978
979
979
977
975
974
971
971
974
973
968
965
964
966
968
966
964
964
966
966
971
971
970
969
973
976
980
980
979
977
976
978
981
981
978
976
976
976
981
979
974
970
972
973
975
976
973
967
972
974
975
975
969
966
965
970
972
967
964
962
963
968
972
970
967
966
967
970
974
972
970
968
966
967
968
969
966
963
965
969
972
972
973
969
973
977
984
985
984
984
987
984
989
989
988
984
983
986
989
990
983
980
980
982
982
983
978
975
976
978
980
978
973
970
970
970
974
974
970
966
966
972
974
973
972
972
974
979
983
988
988
991
1001
1007
1020
1036
1056
1083
1113
1147
1181
1211
1237
1265
1290
1309
1311
1289
1250
1200
1147
1099
1061
1030
1007
990
987
994
999
996
992
986
984
981
981
977
973
969
968
970
970
965
961
957
956
959
960
958
955
954
953
958
962
963
961
961
959
963
964
963
962
960
961
964
968
968
964
964
961
967
969
968
967
965
965
968
973
971
970
967
970
974
978
979
975
973
974
977
981
979
977
976
977
980
985
988
986
981
986
990
996
995
994
994
995
999
1001
1000
999
996
995
1000
1000
997
994
990
987
988
990
985
986
980
978
980
982
981
977
975
974
976
979
975
977
974
975
978
980
980
976
973
974
972
974
977
973
969
972
973
977
977
977
975
976
978
981
980
976
973
971
977
979
979
977
976
980
980
984
987
983
984
984
985
988
990
984
983
982
983
984
985
984
980
983
982
984
983
979
980
977
981
981
980
975
975
974
979
981
979
978
975
976
977
981
975
977
975
976
979
982
977
979
977
976
980
985
983
983
978
981
987
990
990
987
986
989
993
999
999
1000
1001
1007
1018
1031
1048
1070
1093
1126
1157
1195
1228
1253
1277
1305
1331
1344
1340
1311
1269
1220
1171
1123
1079
1042
1012
991
989
992
997
993
991
987
985
984
979
976
968
966
967
967
966
962
960
960
959
963
963
963
959
962
960
966
964
966
959
959
960
961
964
960
957
957
958
960
959
961
960
961
964
965
968
963
962
963
965
967
968
968
969
971
977
979
977
977
977
978
983
986
985
982
981
979
983
987
984
982
982
986
988
991
993
993
995
996
997
999
997
995
992
989
988
991
988
984
979
979
979
982
980
978
973
973
975
977
973
968
967
967
969
972
966
966
965
967
969
969
971
968
965
963
970
972
976
975
975
980
983
988
987
986
984
984
989
992
995
994
991
995
998
1003
1005
1005
1006
1012
1017
1029
1042
1064
1086
1109
1136
1164
1194
1228
1256
1281
1298
1306
1300
1275
1241
1196
1148
1107
1070
1051
1034
1019
1007
1001
997
994
987
979
977
975
973
967
962
961
959
961
959
955
950
950
951
953
952
951
946
948
952
957
958
959
958
962
963
964
964
963
961
960
963
964
962
964
962
963
967
969
970
969
966
968
971
973
975
972
973
975
979
982
981
979
981
981
983
989
987
987
985
986
990
992
992
993
989
990
993
994
992
985
986
987
988
987
984
983
979
974
978
978
975
971
967
965
967
971
971
967
964
966
970
975
976
975
974
976
977
981
980
977
975
976
975
978
980
974
973
972
974
978
976
975
972
970
974
977
978
971
971
974
975
980
976
972
969
969
974
977
977
970
968
969
971
975
976
972
972
973
974
977
979
976
973
975
975
976
974
972
969
973
977
980
981
982
982
984
995
999
1004
1004
1007
1015
1033
1058
1081
1101
1124
1154
1185
1215
1235
1254
1270
1277
1269
1249
1213
1165
1109
1070
1041
1023
1004
993
990
987
986
988
980
971
964
962
963
965
962
958
956
955
957
960
961
954
954
955
958
960
959
956
955
955
957
960
960
959
955
955
959
960
958
960
956
957
960
966
964
964
962
963
966
969
968
966
962
964
967
971
969
965
959
963
965
968
967
965
961
961
964
969
971
969
967
969
975
978
978
977
975
978
983
988
987
983
981
980
981
982
980
976
971
973
974
974
972
968
965
966
963
970
969
965
964
965
967
968
969
965
965
965
967
971
973
973
968
971
973
979
978
973
968
968
970
973
969
969
966
965
968
972
970
968
968
968
973
973
974
973
971
973
975
982
981
985
987
998
1011
1030
1049
1071
1096
1121
1148
1178
1207
1234
1253
1266
1274
1269
1243
1205
1154
1101
1053
1028
1011
996
984
975
975
974
970
963
954
951
947
950
943
937
940
944
945
947
944
944
939
942
946
949
950
946
944
947
950
953
955
952
947
949
947
951
954
953
950
949
952
958
957
953
953
953
956
958
958
954
952
957
956
963
962
963
960
955
962
964
965
962
962
961
964
968
968
966
965
964
966
971
971
972
971
971
975
979
980
975
973
976
976
979
976
974
970
971
973
974
972
969
964
964
962
965
963
961
958
959
963
965
963
962
960
960
961
964
962
963
961
962
961
965
964
963
955
958
958
962
961
958
955
958
959
962
959
959
958
956
960
962
964
959
957
958
959
962
961
959
956
959
966
970
972
969
967
969
973
973
971
970
965
967
968
973
969
966
963
962
967
971
967
968
965
963
967
967
964
964
963
963
967
971
971
968
966
966
968
969
969
964
960
960
961
967
964
963
961
959
963
969
969
966
964
966
968
973
973
971
970
969
968
971
969
968
966
965
966
969
971
971
966
967
968
965
967
965
961
964
966
967
969
973
971
971
972
972
974
970
968
970
971
975
972
971
966
968
971
975
974
968
967
970
971
972
973
973
970
970
973
976
976
977
977
979
986
989
988
986
981
982
984
987
987
984
980
982
985
983
984
982
981
981
984
985
988
984
980
982
980
984
982
978
973
977
982
984
987
985
984
987
992
996
998
1002
1000
1005
1018
1037
1064
1091
1121
1154
1186
1216
1242
1272
1298
1318
1322
1307
1267
1212
1148
1097
1058
1027
1001
983
980
983
991
994
990
982
976
972
970
971
973
967
961
960
964
964
965
963
959
960
963
965
965
960
959
958
960
963
962
959
956
960
965
968
971
969
967
968
971
973
972
968
965
968
970
973
974
972
969
966
969
972
970
967
965
965
967
971
973
972
969
969
973
974
972
973
969
973
976
984
984
984
980
983
985
993
993
992
991
994
993
999
997
993
992
992
991
996
994
991
988
987
987
989
984
988
984
986
989
990
989
986
983
984
985
987
987
981
978
980
981
984
978
977
974
973
978
980
980
980
978
977
980
978
977
977
972
974
978
978
979
977
975
975
975
979
976
976
975
974
976
980
980
978
972
974
977
983
982
982
978
976
978
980
980
974
971
971
972
976
975
975
974
975
976
981
978
978
975
978
980
983
985
982
977
979
979
978
979
976
972
973
975
974
975
973
970
972
975
976
976
974
973
975
972
974
974
974
971
976
978
978
981
978
979
979
984
984
982
977
976
976
978
982
980
978
975
976
981
985
983
979
980
983
984
989
990
995
997
1002
1008
1016
1031
1054
1080
1112
1146
1182
1216
1245
1270
1302
1319
1317
1289
1247
1193
1135
1088
1056
1027
1004
992
988
996
992
990
981
979
973
974
974
971
966
965
964
965
965
963
960
957
956
958
961
960
956
954
954
957
960
958
958
955
957
959
957
960
958
955
956
959
963
964
962
961
963
966
968
965
965
963
966
969
975
977
976
973
973
975
980
977
973
972
975
977
978
981
979
978
977
980
984
983
985
981
983
983
986
985
983
980
980
982
988
985
981
976
977
977
979
978
973
968
968
972
973
971
967
963
961
965
965
962
959
955
956
958
960
956
956
953
952
957
959
960
960
960
964
967
972
972
970
971
972
973
975
975
975
971
973
979
982
978
981
974
977
979
981
979
976
974
974
977
978
981
976
977
978
977
983
983
980
975
974
976
978
975
971
972
974
975
976
975
972
967
969
970
972
969
966
964
967
968
971
971
970
969
974
978
981
986
988
997
1008
1030
1060
1088
1118
1149
1182
1220
1252
1282
1304
1309
1294
1270
1225
1173
1116
1076
1044
1024
1008
1001
997
996
994
986
983
979
975
972
968
967
968
967
962
960
956
960
961
962
957
955
954
957
960
959
957
954
955
959
962
963
962
961
963
967
971
970
968
965
964
967
972
971
967
965
966
972
973
977
977
975
977
981
981
981
980
981
981
984
988
988
989
986
988
991
994
989
989
987
987
987
987
988
986
981
981
982
984
981
977
975
974
975
976
975
971
967
968
974
973
972
968
968
969
967
967
968
965
961
962
967
970
969
962
962
961
966
968
971
969
968
972
976
978
978
975
973
971
976
980
977
974
971
972
975
976
976
974
972
977
980
982
983
981
981
980
987
990
993
991
992
995
1001
1009
1019
1028
1041
1067
1095
1124
1149
1174
1205
1237
1262
1281
1286
1272
1242
1197
1148
1098
1053
1023
1003
991
986
986
986
983
980
978
974
975
973
966
965
964
964
967
966
966
963
961
965
967
967
964
963
961
964
967
965
964
965
965
966
970
968
966
965
963
968
971
969
968
967
967
967
974
971
970
967
966
967
973
969
968
967
967
970
973
972
974
974
977
983
991
993
995
994
997
1001
1005
1001
997
994
996
997
1000
995
990
987
988
988
989
987
981
982
981
980
981
981
979
976
976
979
981
978
974
971
972
973
974
975
973
970
972
969
973
970
967
966
967
969
972
969
964
966
962
965
968
966
964
961
969
971
977
975
976
976
980
983
982
983
985
983
989
994
1004
1009
1019
1030
1051
1078
1103
1124
1149
1171
1201
1233
1260
1277
1296
1300
1292
1266
1222
1170
1115
1067
1040
1023
1011
998
989
985
987
988
987
983
976
971
969
967
969
966
960
958
958
962
962
959
955
952
950
953
956
952
950
947
946
949
954
954
953
949
954
961
962
961
960
957
961
963
965
967
966
963
965
968
969
971
968
966
970
974
975
975
973
973
972
975
978
977
980
977
978
984
985
985
981
980
985
990
992
991
990
986
987
988
990
989
980
975
979
979
980
977
973
966
969
969
971
971
967
964
964
962
968
965
960
959
961
964
970
973
973
974
973
978
981
980
977
974
978
982
984
982
980
978
982
982
984
986
984
981
981
982
986
982
979
979
979
981
985
981
977
975
975
977
979
978
973
973
973
974
975
973
970
969
968
968
970
970
967
966
964
966
968
968
964
962
966
967
971
970
971
970
971
973
975
979
980
977
980
983
983
978
980
978
980
982
985
982
983
983
985
990
993
991
987
983
986
990
992
991
986
987
987
991
992
992
990
989
989
993
998
999
1001
1007
1013
1024
1036
1062
1084
1107
1134
1167
1202
1230
1255
1276
1298
1320
1317
1303
1265
1219
1167
1119
1083
1050
1025
1004
1001
1000
1004
1003
1000
993
990
989
986
983
978
974
975
975
977
974
968
963
962
966
965
964
961
957
956
958
961
960
954
955
956
960
963
964
963
963
962
965
970
968
968
965
965
970
972
971
970
967
967
968
970
971
971
970
971
970
971
974
971
973
973
977
980
980
979
978
978
982
986
989
991
988
988
993
1000
999
999
998
1001
1001
1003
1000
999
996
994
993
996
992
989
985
986
985
986
983
978
976
976
976
978
973
972
972
975
979
983
981
980
980
980
981
983
984
983
979
981
983
988
988
984
982
985
987
992
989
988
988
987
992
996
992
989
990
990
994
997
995
993
988
990
995
996
996
992
989
991
995
993
994
990
986
989
992
995
992
991
987
988
989
992
992
991
990
995
999
1007
1013
1019
1022
1030
1045
1068
1088
1108
1129
1156
1180
1209
1236
1251
1270
1285
1290
1282
1253
1216
1173
1127
1094
1071
1050
1032
1020
1018
1018
1019
1018
1009
1006
1000
998
995
992
989
984
984
981
979
976
975
971
971
969
973
966
963
966
964
967
969
968
964
962
966
968
969
968
967
966
966
970
973
970
972
971
972
977
984
979
979
978
983
985
987
988
986
985
984
987
990
992
991
989
993
997
1001
1001
999
999
1000
1002
1005
1005
1007
1004
1005
1007
1008
1005
1004
998
999
1003
1002
999
996
992
988
987
993
989
982
981
980
982
980
981
981
980
980
985
989
988
984
982
986
992
994
991
989
990
994
997
1002
1001
1003
1003
1007
1017
1027
1036
1045
1063
1092
1123
1157
1184
1204
1234
1268
1299
1322
1328
1322
1305
1277
1242
1195
1140
1092
1059
1047
1035
1025
1015
1007
1002
998
993
989
986
983
976
973
971
973
970
963
962
962
963
964
962
961
958
959
963
967
967
965
964
964
966
971
974
968
966
974
977
979
979
982
979
980
984
985
985
984
983
986
984
987
987
987
983
988
989
988
994
994
993
995
997
1000
997
996
997
1003
1004
1007
1006
1008
1005
1005
1009
1013
1009
1009
1003
1003
1003
1001
1001
993
993
991
994
998
993
991
994
996
994
1000
997
996
993
991
995
996
994
994
991
993
996
998
997
996
993
996
998
996
996
998
995
994
996
998
997
995
990
991
995
994
997
992
987
990
989
992
992
989
986
985
986
988
986
983
979
979
981
983
981
979
977
977
981
985
984
983
984
985
987
989
990
986
984
987
989
994
993
991
990
992
995
996
996
996
992
994
997
997
998
995
994
995
996
1000
997
992
996
995
997
1001
995
995
990
993
996
997
995
990
988
989
993
997
996
995
992
993
997
995
996
992
991
993
993
999
1001
995
995
998
1004
1010
1013
1016
1019
1026
1040
1058
1076
1095
1117
1146
1172
1205
1231
1251
1275
1295
1305
1308
1293
1261
1218
1171
1128
1093
1061
1037
1020
1013
1011
1010
1008
1001
995
989
986
984
981
977
974
973
973
973
972
967
965
963
964
967
970
963
964
964
964
965
965
965
962
962
969
970
971
968
968
972
974
976
977
973
973
977
977
981
979
978
979
981
983
983
984
984
982
982
985
989
987
986
983
987
988
992
991
990
989
992
994
996
993
993
993
994
1000
1001
1001
998
998
1000
1002
1005
1005
1003
1001
1001
1001
1003
1000
997
997
999
1001
1001
1003
1001
999
1001
1004
1005
1003
999
995
999
1003
1001
1001
1000
996
997
998
1001
1000
998
995
995
997
999
997
994
994
993
994
994
994
994
990
988
990
996
996
993
993
994
995
999
995
991
991
990
992
996
995
991
990
987
991
996
993
994
991
993
996
998
1000
997
995
996
997
999
1002
997
997
994
998
1004
1002
999
996
996
999
1002
1000
998
995
995
998
999
999
995
992
995
993
999
996
994
991
995
996
997
995
997
994
992
994
998
997
995
991
991
993
999
993
995
993
997
1001
1009
1014
1017
1019
1025
1038
1059
1085
1111
1136
1167
1203
1235
1266
1290
1316
1334
1342
1329
1294
1248
1188
1135
1094
1064
1035
1018
1009
1013
1017
1017
1016
1008
1002
998
996
996
991
986
982
983
980
982
983
982
977
978
979
980
979
974
973
975
975
976
975
973
971
971
974
974
975
973
970
972
975
979
976
975
972
975
980
981
980
980
978
985
988
993
993
994
995
996
998
997
998
996
996
996
999
1001
1001
995
994
996
998
1003
1001
998
1001
1003
1008
1011
1007
1006
1003
1005
1007
1007
1004
999
997
995
996
998
994
992
987
987
989
990
987
982
981
976
983
984
982
977
976
978
979
982
982
979
978
977
980
986
988
987
984
988
992
993
995
990
991
993
996
997
997
996
995
996
997
998
1001
999
996
998
1000
1001
1001
995
991
997
998
1001
993
992
990
995
998
999
995
995
993
994
995
996
992
991
988
992
996
996
993
989
988
990
994
996
995
991
993
996
1001
1007
1006
1001
1006
1009
1013
1023
1027
1027
1033
1046
1070
1098
1123
1148
1174
1208
1239
1274
1303
1318
1319
1306
1278
1238
1186
1129
1084
1048
1024
1007
1000
997
999
1001
1001
998
992
985
981
980
982
982
980
975
970
969
973
979
977
972
972
971
974
977
974
972
972
973
980
983
983
982
981
982
984
989
989
987
986
988
990
993
990
984
985
989
989
992
993
989
988
989
990
991
988
987
984
984
989
989
988
987
982
984
987
987
990
983
982
991
994
998
994
993
993
994
998
998
996
992
989
990
994
994
989
988
985
988
988
989
987
985
983
989
987
992
988
986
983
984
986
988
986
984
984
983
984
987
985
981
979
978
981
983
981
974
975
976
978
978
982
978
977
977
980
985
985
984
983
986
987
990
991
988
985
986
990
988
989
985
984
984
991
994
994
994
991
991
995
998
995
995
990
991
993
997
994
991
987
987
991
992
990
983
982
981
984
986
982
980
977
977
978
981
978
975
974
974
973
976
973
974
972
973
974
977
978
979
981
982
984
987
986
985
984
987
991
995
991
990
992
991
997
998
996
993
990
990
993
