1005
1002
1001
1009
1009
1008
1003
1000
999
1002
1004
1003
1000
996
1000
1005
1004
1001
995
990
990
992
994
988
984
981
982
984
985
983
980
976
978
980
981
980
975
974
973
976
977
977
974
974
976
978
978
979
978
977
979
982
984
983
982
978
979
980
985
981
980
975
977
981
982
982
979
976
977
980
986
979
976
976
978
983
985
986
981
979
981
981
986
987
984
983
984
985
985
984
978
980
981
984
986
982
979
976
977
982
982
983
981
978
976
980
982
976
976
974
977
976
980
977
974
971
972
976
979
977
974
974
972
977
974
974
972
970
971
974
977
977
976
975
980
981
982
981
983
984
983
987
990
989
989
986
986
989
992
987
987
987
985
988
990
988
986
985
983
984
987
987
985
984
985
987
990
988
986
985
988
992
993
990
991
990
991
996
1000
1003
1008
1012
1017
1032
1054
1073
1095
1119
1147
1178
1209
1232
1256
1275
1281
1263
1231
1180
1127
1083
1049
1027
1016
1010
1007
1005
1006
1006
1006
998
990
984
981
987
985
984
978
972
976
977
979
975
970
971
971
973
976
973
970
967
970
972
972
972
971
968
970
976
976
974
971
972
976
979
981
982
981
980
982
988
989
990
987
986
990
992
995
997
994
994
993
999
1006
1008
1009
1011
1013
1023
1030
1028
1029
1030
1031
1028
1032
1032
1027
1023
1024
1024
1023
1020
1012
1010
1006
1006
1010
1009
1002
998
998
1001
1003
998
992
990
988
991
993
992
988
985
986
987
990
985
983
981
982
983
987
984
980
978
979
982
983
981
975
974
977
979
982
979
979
977
979
980
986
984
983
988
989
997
998
997
993
989
991
995
995
994
991
991
998
1000
1005
1005
1003
999
999
1003
1003
1002
996
992
996
997
999
996
991
988
990
992
994
994
990
986
985
989
989
987
985
982
984
985
986
987
984
987
991
995
1002
1007
1011
1030
1055
1087
1121
1153
1185
1216
1250
1280
1306
1312
1289
1253
1206
1156
1109
1069
1034
1007
999
998
1005
1004
1002
996
995
996
995
992
987
979
983
985
986
983
978
978
975
979
978
974
969
969
966
967
971
970
968
967
966
968
970
970
969
966
969
968
973
971
972
971
973
975
980
976
974
975
977
981
981
980
976
972
976
984
989
991
991
991
995
999
1003
1004
1002
1003
1005
1007
1009
1009
1005
1004
1000
1000
1000
998
996
991
989
988
987
981
977
974
974
975
975
970
968
969
968
966
968
968
967
966
967
970
973
972
968
968
968
971
972
971
969
972
970
972
972
970
967
965
968
970
971
971
968
967
969
973
974
973
973
974
975
980
980
978
978
975
975
977
980
979
976
976
978
982
982
984
979
975
979
982
983
983
981
977
975
978
979
978
978
976
977
978
978
976
976
974
974
977
980
979
975
975
977
976
979
977
972
972
975
977
979
978
978
974
975
978
980
979
978
978
976
978
983
982
979
974
975
978
980
979
975
971
972
971
972
972
967
965
970
973
979
977
977
975
978
980
985
982
979
983
987
991
996
993
991
992
1001
1010
1013
1022
1036
1061
1084
1112
1142
1169
1195
1219
1246
1273
1287
1284
1264
1234
1193
1151
1112
1082
1055
1030
1013
1008
1004
1004
999
993
988
987
985
980
974
971
970
971
973
970
963
962
962
964
964
965
963
963
963
971
974
972
968
968
970
974
975
975
975
973
970
975
977
978
978
977
977
980
981
978
978
977
981
984
986
988
986
986
988
989
988
990
991
991
995
999
1001
999
999
998
1000
1004
1005
1005
1003
1002
1001
1000
1002
996
990
990
991
986
985
985
981
977
979
980
979
980
982
978
980
982
982
982
978
979
978
983
981
982
980
977
976
978
979
978
975
975
977
977
980
977
975
974
974
976
978
977
973
974
974
976
975
977
972
969
971
973
975
976
973
969
971
972
973
974
971
969
968
971
976
976
975
972
974
982
986
985
987
985
984
985
988
988
986
986
988
988
988
989
986
985
981
984
982
982
984
978
979
981
980
980
978
974
971
977
979
979
976
975
974
974
978
975
972
968
967
969
971
970
966
964
964
965
969
968
964
962
962
965
968
968
965
960
962
965
967
965
964
961
964
969
969
972
972
971
973
977
976
976
975
972
973
978
980
978
979
976
975
977
977
976
975
974
975
977
980
978
975
972
975
976
976
978
977
978
978
981
980
979
981
980
981
984
981
979
979
978
979
981
985
985
984
986
991
995
999
1004
1009
1014
1029
1054
1078
1099
1119
1145
1174
1202
1227
1251
1271
1281
1277
1259
1230
1190
1144
1106
1076
1052
1034
1017
1012
1009
1010
1008
1004
997
987
983
983
982
980
976
971
972
970
969
968
969
967
964
968
966
971
967
964
960
964
965
968
964
962
961
960
965
965
962
960
958
960
962
964
959
959
957
960
964
967
968
965
964
967
973
974
972
971
972
975
977
982
985
987
990
996
1002
1006
1009
1008
1005
1009
1015
1018
1015
1010
1010
1012
1016
1013
1011
1005
1001
1000
1003
1000
998
994
990
988
990
989
986
977
975
973
973
975
975
969
964
963
965
967
966
961
959
962
965
964
959
959
959
958
958
963
960
958
952
956
958
962
962
962
960
960
963
966
965
966
964
965
967
968
969
969
971
974
980
980
978
977
975
973
979
977
978
976
973
975
977
977
975
972
973
970
975
976
973
969
968
968
972
972
970
966
964
963
966
963
961
959
956
960
960
962
960
958
956
958
959
960
958
957
958
962
966
971
970
968
965
970
974
975
974
974
969
971
973
976
974
972
971
970
970
975
973
972
974
974
980
984
981
982
978
982
983
987
984
976
979
981
984
986
983
980
976
979
980
978
982
976
974
973
975
975
975
973
970
970
974
973
972
972
970
972
971
975
975
973
969
972
975
976
975
976
975
980
986
990
993
999
1003
1015
1035
1058
1081
1104
1129
1161
1191
1218
1242
1262
1278
1286
1281
1261
1230
1187
1136
1098
1068
1042
1022
1005
1002
1001
1004
1006
1002
999
994
996
997
998
995
990
984
985
983
987
981
979
976
975
976
979
974
972
969
966
967
970
966
962
960
960
963
963
963
960
960
961
963
963
961
963
959
962
965
968
969
968
965
971
975
977
978
976
978
982
986
991
991
991
992
996
1001
1002
1005
1004
1005
1009
1013
1016
1016
1014
1014
1017
1018
1020
1018
1013
1012
1015
1016
1016
1013
1012
1003
1004
1004
1003
995
990
989
986
984
982
979
976
972
972
972
974
971
967
965
965
970
969
970
964
963
966
969
973
973
971
969
970
972
974
971
972
971
971
976
980
980
979
978
978
979
982
981
977
979
980
980
984
980
975
974
975
978
982
984
982
979
981
984
987
982
981
979
979
979
980
981
973
974
974
975
977
974
971
969
970
972
977
973
969
967
966
970
974
970
968
969
966
969
973
970
968
966
968
971
975
975
974
973
975
979
981
981
981
978
978
983
983
980
978
976
977
978
979
976
975
972
972
978
977
974
973
970
974
977
979
979
978
975
977
975
977
979
974
972
973
977
979
976
975
972
971
972
976
977
970
967
973
977
978
977
976
975
976
980
983
982
979
978
980
983
987
986
984
986
988
994
996
1000
998
1002
1011
1019
1026
1041
1055
1079
1106
1136
1169
1201
1227
1252
1283
1304
1312
1299
1266
1226
1178
1131
1092
1055
1022
998
986
987
993
993
988
983
976
978
976
971
967
963
963
969
970
967
963
963
963
965
967
967
966
963
964
967
971
970
968
963
964
965
970
970
967
967
967
972
976
974
972
971
973
977
977
978
977
974
975
978
982
980
977
975
977
981
982
983
979
978
979
983
987
991
989
990
994
998
1001
1002
1000
997
1001
1005
1009
1005
1004
998
1001
1002
1004
1003
996
991
990
990
992
987
983
978
982
983
981
980
977
974
976
979
981
978
973
974
975
976
979
975
969
966
968
971
968
968
964
959
960
960
964
961
959
953
952
958
960
960
958
953
957
962
962
966
966
965
972
975
984
986
985
985
987
990
994
991
988
986
987
991
993
989
988
985
990
994
998
996
996
1000
1005
1010
1021
1030
1044
1062
1084
1108
1133
1158
1184
1208
1230
1255
1267
1266
1250
1221
1183
1139
1104
1072
1045
1025
1010
998
993
986
981
972
970
969
970
967
964
957
957
957
960
958
957
954
956
958
964
963
962
959
961
965
968
968
964
964
965
969
972
971
969
966
969
967
971
970
970
968
970
969
974
971
972
968
968
973
976
974
974
972
974
978
979
977
976
977
979
980
984
985
984
985
985
990
995
996
993
989
996
997
998
995
990
987
991
992
992
992
987
983
981
982
985
979
978
975
975
976
977
976
974
972
970
971
978
977
977
973
976
976
977
979
975
975
976
979
978
976
973
972
973
973
975
968
966
961
962
963
965
961
960
957
959
961
963
960
959
960
960
964
967
964
962
963
965
970
973
975
971
971
973
976
978
976
974
974
973
976
978
976
974
972
974
977
978
975
973
969
973
980
978
976
974
973
971
973
975
972
969
966
967
968
973
975
972
969
971
970
976
973
970
969
967
972
974
972
971
965
966
970
971
975
968
967
967
969
971
972
972
973
975
979
981
979
979
975
976
977
976
978
974
974
971
973
976
977
974
972
974
975
975
979
976
973
973
976
979
978
974
970
969
973
975
973
972
969
968
969
975
974
970
969
974
978
980
980
977
973
974
977
979
982
979
979
983
988
997
1002
1004
1012
1026
1050
1080
1106
1131
1155
1188
1219
1249
1271
1287
1289
1277
1254
1219
1166
1116
1069
1042
1019
1007
1000
993
992
990
987
983
975
971
964
965
967
965
963
962
960
959
962
958
957
954
954
957
959
963
963
961
962
966
971
971
970
970
970
970
969
975
976
975
976
977
981
988
987
984
982
989
992
992
992
989
990
995
999
999
998
997
999
1001
1002
1006
1002
1001
1000
1003
1005
1009
1006
1003
1000
1002
1003
1005
1001
993
990
987
988
984
986
979
976
975
978
982
981
979
976
974
978
980
979
977
974
977
978
981
980
973
974
974
979
981
980
978
977
978
976
979
976
972
971
975
975
981
978
975
973
974
976
978
976
972
970
972
974
975
974
971
966
970
970
971
969
965
967
970
973
972
972
969
967
969
970
972
975
972
972
976
978
984
984
981
979
978
980
986
978
976
978
975
978
981
977
977
976
975
975
977
975
975
972
971
974
973
972
969
967
967
972
971
970
965
964
966
970
972
970
966
966
965
965
967
965
963
962
961
961
967
964
962
961
964
966
969
967
965
965
963
967
970
971
970
966
969
974
978
977
978
973
976
979
980
975
976
974
971
973
974
973
971
967
970
974
974
976
972
969
971
973
973
973
969
967
969
970
973
970
968
966
968
969
971
970
966
965
964
969
972
970
967
965
967
971
972
969
967
966
970
973
978
978
974
972
973
977
978
980
976
977
980
985
987
986
982
979
981
984
986
982
978
976
977
981
980
979
978
977
978
981
981
981
978
979
977
981
985
982
980
978
980
984
988
990
995
1000
1007
1017
1037
1062
1087
1117
1148
1181
1217
1245
1272
1290
1296
1276
1243
1192
1139
1092
1055
1030
1016
1008
1007
1004
1002
1000
996
994
986
982
977
977
978
978
971
968
968
971
971
965
961
961
961
959
961
959
955
955
958
961
965
962
958
957
958
965
964
964
961
964
965
972
976
975
974
973
975
979
984
988
988
986
988
994
998
998
994
996
999
1000
1003
1001
1003
1002
1005
1005
1011
1012
1010
1011
1011
1013
1014
1013
1010
1005
1003
1002
1003
999
993
989
989
983
987
982
980
977
976
976
979
979
974
971
974
974
980
979
974
971
972
975
977
980
974
974
975
976
977
978
974
972
975
977
980
980
975
973
974
977
978
979
978
971
973
978
981
981
978
974
979
983
985
984
981
980
979
982
981
981
979
975
979
985
986
985
984
984
984
985
988
986
986
985
986
989
993
991
985
982
983
987
990
989
984
982
985
988
990
985
986
982
985
990
991
993
995
995
1000
1010
1022
1040
1061
1083
1114
1146
1182
1210
1236
1266
1289
1301
1294
1264
1225
1173
1124
1082
1048
1015
993
985
987
994
997
995
986
982
980
981
979
976
973
968
968
966
968
966
965
962
964
964
966
964
962
960
960
962
962
964
960
959
958
960
963
963
961
962
964
966
969
967
968
969
972
977
981
980
980
978
983
988
993
993
991
991
996
1000
1004
1003
1006
1008
1009
1012
1018
1021
1022
1020
1021
1021
1024
1020
1017
1014
1012
1012
1012
1008
1002
992
993
992
988
985
979
975
974
973
975
974
967
965
963
966
967
962
960
960
959
961
965
964
965
962
962
963
967
969
968
965
966
965
967
968
965
965
965
972
974
976
973
969
971
974
976
974
970
968
969
971
975
972
971
967
971
974
977
970
969
965
966
967
969
968
964
963
962
962
963
961
959
959
962
967
970
967
965
965
968
973
975
972
971
971
972
974
975
974
977
977
977
985
988
989
990
992
998
1006
1020
1039
1064
1090
1119
1153
1185
1214
1242
1267
1293
1307
1295
1265
1218
1159
1106
1064
1029
995
977
973
977
982
981
977
971
964
965
963
962
958
955
956
955
954
958
956
950
952
951
951
956
955
952
951
953
955
956
957
955
950
953
956
959
959
957
955
959
963
968
969
965
963
965
967
970
972
969
967
967
971
974
976
973
972
973
976
982
980
981
982
985
988
989
990
988
987
992
993
996
993
989
984
987
986
985
985
981
977
976
974
978
975
972
970
969
974
974
972
970
967
967
971
974
972
970
966
965
970
969
964
964
958
960
957
962
960
953
952
955
953
957
953
948
947
953
953
959
957
956
956
958
958
963
961
958
958
959
963
967
965
962
962
962
966
968
965
963
961
965
966
970
970
969
966
968
971
971
968
964
963
967
967
968
968
965
961
961
962
964
959
957
954
954
960
960
959
954
953
955
956
958
956
955
953
955
955
957
958
953
951
953
957
958
958
956
955
958
961
965
964
962
961
960
962
963
968
966
964
963
966
969
971
969
967
969
970
974
973
969
967
970
972
976
975
972
973
975
978
979
979
978
973
974
974
975
973
969
966
966
969
971
971
967
966
965
967
971
970
962
960
963
964
968
965
963
960
961
963
965
962
963
963
965
966
971
970
969
968
970
973
974
971
968
969
969
975
977
978
975
975
978
981
981
979
979
978
979
980
985
980
978
976
979
982
986
981
978
978
981
982
984
981
980
976
983
986
993
992
993
999
1007
1018
1035
1057
1079
1106
1134
1164
1196
1225
1249
1272
1298
1312
1307
1284
1245
1196
1147
1106
1076
1047
1025
1011
1010
1012
1013
1008
1002
996
992
989
991
986
979
978
978
980
981
978
971
973
972
974
979
973
969
969
969
969
971
970
969
970
971
974
975
974
971
967
968
972
974
976
969
970
969
977
980
981
980
985
990
995
997
997
998
996
997
1002
1005
1005
1003
1002
1004
1008
1009
1011
1010
1007
1011
1014
1017
1015
1016
1013
1015
1018
1021
1019
1012
1009
1009
1011
1010
1008
1004
998
1000
996
998
996
991
988
984
985
986
987
984
980
979
981
981
984
980
978
979
981
987
986
983
981
984
988
990
989
987
988
988
991
994
997
993
994
993
997
1000
996
994
992
990
993
993
995
992
988
990
992
994
994
991
990
991
989
991
990
989
985
986
987
990
988
986
982
981
983
986
985
983
982
983
985
987
985
981
981
979
982
985
982
983
979
983
984
990
993
991
992
997
999
1001
1001
1002
999
1000
1004
1008
1006
1007
1010
1014
1021
1027
1033
1044
1062
1087
1110
1136
1161
1185
1211
1234
1261
1285
1300
1301
1288
1268
1239
1198
1147
1105
1071
1047
1030
1018
1008
998
995
991
991
989
982
977
971
970
970
971
970
966
963
961
961
966
966
961
958
959
963
963
963
963
960
963
966
973
975
975
974
977
979
986
984
986
983
984
988
990
992
992
991
992
993
996
994
993
993
994
997
998
995
997
994
996
998
1002
1002
1002
1003
1003
1007
1011
1010
1008
1006
1006
1009
1012
1009
1006
1000
1003
1005
1006
1002
998
993
992
994
991
989
985
980
980
980
980
977
975
973
974
975
979
979
976
977
978
982
987
986
982
983
984
988
986
986
987
983
980
985
986
987
983
978
983
981
983
981
979
978
980
980
979
981
976
974
975
977
976
976
973
973
973
974
976
972
969
967
969
972
971
970
967
966
962
966
972
971
970
966
969
972
973
972
969
966
969
972
975
975
972
970
972
975
978
978
976
976
980
986
988
985
984
979
980
985
986
984
983
982
980
983
985
985
982
980
982
982
984
985
982
980
981
981
981
982
980
978
980
981
981
980
978
975
978
980
982
985
983
980
987
993
1001
1003
1007
1019
1039
1064
1092
1118
1143
1173
1203
1234
1262
1285
1298
1297
1277
1252
1214
1163
1113
1075
1042
1021
1007
1001
997
996
996
993
991
989
981
979
977
978
974
972
969
965
966
967
968
967
961
961
960
961
964
964
960
960
958
961
960
962
959
956
960
963
963
964
963
963
961
967
971
968
968
969
971
975
977
980
979
977
978
983
986
991
988
988
992
994
998
999
998
997
1000
1004
1004
1005
1005
1007
1007
1009
1015
1014
1013
1015
1013
1014
1013
1010
1007
1001
998
999
1000
998
994
989
987
987
987
986
981
978
978
979
981
975
975
973
974
973
976
976
971
973
976
979
980
978
974
975
976
983
986
984
