1106
1142
1179
1220
1260
1291
1310
1321
1317
1295
1252
1198
1137
1085
1055
1034
1014
992
980
977
974
969
962
956
950
949
948
949
949
943
941
940
939
940
935
928
927
930
931
930
927
923
924
921
924
927
928
927
928
932
934
938
936
936
938
938
945
947
949
949
950
953
957
962
965
962
961
965
969
970
973
969
972
974
976
981
980
977
975
978
986
986
984
982
977
975
972
973
970
965
960
959
954
955
950
945
944
943
945
945
942
939
936
940
942
944
942
943
943
946
951
952
949
947
943
947
950
949
949
948
947
948
951
951
949
946
945
946
948
950
952
949
952
955
956
960
959
954
952
954
952
952
953
952
949
953
953
955
957
952
951
951
952
956
957
953
954
956
959
962
958
960
957
957
957
960
958
956
953
954
958
959
959
955
954
955
960
962
958
955
956
952
956
955
953
948
950
953
956
957
956
950
953
956
955
958
958
954
955
956
959
962
961
957
957
958
960
966
968
968
968
969
976
982
985
985
989
1002
1020
1041
1068
1093
1120
1155
1188
1217
1244
1267
1286
1285
1276
1246
1198
1139
1088
1048
1020
999
983
976
970
972
977
973
967
961
954
953
953
952
949
948
945
946
950
948
946
945
940
943
946
945
943
939
939
939
939
939
935
931
929
931
934
934
932
930
927
929
929
935
936
931
930
931
934
935
937
934
934
936
943
944
944
947
945
947
954
957
957
958
957
960
965
969
969
970
969
972
975
981
976
976
976
977
978
977
974
970
966
964
964
962
957
955
950
949
950
954
946
947
944
945
946
947
943
940
939
942
943
949
947
944
942
946
951
951
952
949
952
953
954
955
955
952
952
955
960
959
960
958
959
963
966
967
962
961
960
963
966
964
964
959
959
961
962
960
961
958
957
960
962
962
960
957
957
957
961
961
961
957
959
958
960
962
964
958
959
960
959
961
962
957
960
963
964
963
963
962
961
964
965
968
968
965
965
966
970
971
969
966
966
969
972
975
979
983
986
995
1009
1034
1062
1088
1121
1155
1190
1222
1253
1277
1294
1295
1273
1232
1178
1117
1063
1021
993
975
965
962
964
971
973
970
966
962
959
955
957
959
957
952
952
953
955
958
956
951
948
949
950
953
952
947
947
943
949
950
951
948
948
947
952
951
949
951
947
946
952
951
951
951
949
952
955
957
958
954
957
956
958
966
961
961
962
965
968
970
971
971
973
976
980
984
986
984
986
985
990
989
988
982
979
980
979
984
979
978
974
972
976
975
972
968
964
963
966
965
962
957
956
956
956
957
953
951
947
949
954
951
951
947
944
947
952
951
951
949
950
953
956
956
956
953
956
959
963
963
963
961
961
962
965
967
969
968
965
966
968
971
969
965
966
966
968
971
972
968
966
966
967
970
969
968
965
965
965
968
970
965
965
966
969
967
968
961
963
962
962
966
964
961
959
959
961
961
958
958
960
962
962
961
960
957
958
963
965
969
968
967
968
967
972
973
971
970
971
971
976
975
974
971
970
973
975
971
972
970
967
967
970
972
971
968
968
968
970
974
966
963
965
965
970
969
969
965
963
964
967
966
967
962
963
963
966
966
965
963
962
961
965
968
965
967
964
965
970
971
967
966
967
967
973
971
971
968
967
963
970
973
971
970
966
967
971
969
970
968
970
969
972
977
975
973
972
971
973
972
967
967
970
966
970
966
967
965
965
966
964
965
964
962
961
963
966
971
967
965
964
967
971
972
972
972
971
974
977
975
976
973
974
977
977
977
978
974
972
973
978
978
973
971
970
973
975
976
975
972
972
975
977
975
973
971
971
972
972
977
973
969
971
971
974
975
972
969
968
970
972
975
973
971
972
974
981
988
993
995
1000
1008
1027
1052
1076
1097
1126
1157
1189
1219
1245
1270
1294
1310
1307
1285
1247
1194
1144
1095
1061
1027
999
979
970
974
978
979
978
972
967
965
966
963
960
958
951
952
952
953
950
947
945
944
946
946
944
941
940
940
944
946
946
944
942
941
945
944
942
942
939
941
946
951
951
949
949
952
955
955
956
950
953
954
955
956
955
951
953
957
961
959
960
955
956
954
959
960
957
955
956
957
962
964
965
963
963
965
970
971
973
970
972
974
978
974
976
970
968
971
974
975
972
970
966
967
968
968
966
962
960
963
964
965
963
960
957
957
960
962
959
958
951
952
955
957
955
952
952
955
957
958
956
955
954
957
959
958
961
959
960
960
963
967
962
958
962
964
967
968
967
965
966
965
967
968
966
963
965
966
969
967
966
963
963
963
968
968
967
967
965
971
971
975
970
968
966
967
967
971
968
964
961
963
969
963
965
962
963
966
969
972
970
967
970
970
972
976
975
975
978
985
992
999
1006
1014
1033
1053
1078
1100
1124
1147
1173
1201
1225
1244
1258
1263
1255
1237
1210
1167
1120
1075
1045
1023
1006
989
981
973
972
970
969
966
961
958
956
954
960
960
956
952
949
946
950
951
950
946
946
945
948
949
947
943
941
946
946
946
945
945
943
947
947
950
951
948
948
951
955
954
955
955
954
956
961
965
962
960
959
961
963
966
964
961
962
962
966
966
965
965
964
968
969
972
974
972
973
978
984
985
980
982
982
984
985
987
984
978
972
972
973
975
970
967
962
960
964
964
962
955
953
958
960
956
956
954
948
952
956
956
954
953
948
952
955
955
954
948
948
950
949
951
947
946
946
947
948
950
942
938
940
947
947
948
940
940
938
940
941
942
941
940
941
944
951
954
958
956
957
959
962
960
963
960
959
961
962
961
960
955
957
957
962
964
961
962
959
962
964
965
962
958
958
961
965
966
963
961
959
960
963
964
960
960
957
959
962
961
960
957
957
959
961
962
961
959
958
962
965
968
965
961
958
960
962
961
962
958
959
962
963
968
974
972
972
973
975
978
975
974
975
977
981
987
990
991
994
1002
1017
1038
1060
1084
1109
1139
1173
1201
1225
1249
1268
1286
1277
1256
1218
1168
1109
1061
1023
997
978
966
962
964
967
970
962
956
952
952
954
951
950
947
943
945
946
946
946
943
947
950
954
952
950
946
948
949
953
955
951
950
948
952
954
956
954
948
948
951
957
957
956
955
953
957
956
961
960
958
957
959
965
966
966
966
967
966
973
971
970
971
970
970
972
977
975
975
976
979
982
982
982
980
979
980
983
981
981
975
972
970
974
969
969
964
961
963
964
965
963
958
957
958
958
960
957
955
952
953
955
955
955
952
948
952
955
955
954
952
954
955
962
963
961
955
957
958
963
964
965
961
961
961
962
962
962
958
959
956
960
962
958
959
958
961
963
966
966
964
960
964
964
967
966
964
960
962
966
964
962
962
959
961
965
965
961
959
959
961
961
963
963
960
959
959
966
966
966
964
963
968
970
972
972
970
969
971
973
975
974
973
973
972
978
979
977
974
973
974
976
977
976
972
970
971
975
976
975
973
970
970
973
973
973
972
969
972
972
971
969
970
968
969
973
971
971
969
968
969
970
972
970
968
969
971
975
979
982
984
988
996
1006
1015
1029
1047
1073
1105
1134
1171
1205
1230
1258
1286
1311
1322
1310
1276
1233
1180
1126
1077
1034
1007
985
973
974
977
977
975
971
967
964
964
958
953
951
950
953
949
945
943
943
943
943
945
943
940
940
944
945
947
945
942
945
949
955
955
955
951
955
959
962
962
964
963
965
970
977
977
972
970
969
973
981
981
979
976
975
977
979
982
979
977
975
974
980
981
978
976
973
977
976
977
974
973
972
973
977
978
978
975
970
974
973
973
971
965
963
964
966
968
967
963
961
962
965
964
962
962
960
961
965
970
968
967
966
969
971
971
968
968
965
965
968
966
966
963
960
962
965
964
961
958
956
955
959
958
957
956
954
956
958
961
958
954
953
955
958
960
955
954
956
957
962
963
959
959
957
961
961
962
962
956
955
954
960
966
966
964
962
968
971
969
971
969
970
974
976
979
976
977
977
981
981
984
982
979
979
982
990
992
996
996
1002
1014
1036
1062
1086
1109
1136
1169
1202
1231
1257
1275
1287
1286
1270
1234
1187
1132
1085
1048
1019
997
979
968
969
971
972
968
962
952
949
951
953
951
948
945
947
948
948
946
948
946
943
949
951
951
949
948
948
952
954
953
953
951
949
950
954
954
955
951
949
951
953
954
953
952
953
957
957
959
958
958
961
963
968
970
965
965
966
969
973
976
975
974
974
973
979
981
980
979
978
979
982
980
977
977
973
976
977
978
974
971
970
968
972
972
967
962
963
964
965
967
963
959
960
960
960
962
957
955
952
951
955
958
956
952
951
953
956
958
956
954
954
956
959
961
957
956
955
958
959
961
960
960
961
965
967
968
967
963
963
964
970
968
967
965
963
966
970
970
969
967
964
969
970
971
970
968
966
966
963
963
962
960
959
957
961
961
962
959
958
961
963
961
958
954
955
957
962
961
959
956
955
955
960
961
960
958
960
961
967
968
967
963
963
963
967
967
966
964
961
963
969
969
964
966
966
965
973
972
974
970
971
973
979
980
979
971
973
977
981
982
980
977
980
988
994
1003
1008
1013
1024
1047
1067
1092
1114
1142
1170
1201
1227
1250
1267
1277
1266
1248
1213
1171
1114
1067
1039
1016
1002
991
984
979
974
973
972
967
962
955
953
955
955
956
954
951
951
950
956
955
954
948
946
951
952
953
949
948
947
948
951
949
947
944
944
946
951
950
952
948
944
949
950
951
950
948
949
952
955
955
954
954
956
959
963
965
965
965
967
972
974
975
977
975
978
982
986
987
986
987
986
985
987
983
981
978
976
975
976
975
973
966
963
965
965
967
965
961
959
959
960
961
956
952
953
956
958
956
957
951
952
953
956
958
958
954
953
957
957
960
958
956
955
957
960
962
960
959
955
962
965
967
962
962
961
966
965
967
967
966
963
965
970
969
966
963
962
964
964
961
962
959
959
961
962
963
962
959
958
959
963
963
960
957
959
958
961
957
957
952
952
955
958
960
959
957
958
958
964
963
962
960
958
963
962
962
963
960
959
958
963
963
963
959
956
965
968
970
967
963
963
966
967
969
966
965
964
966
970
968
972
971
974
980
989
995
1002
1014
1036
1068
1097
1126
1157
1186
1208
1235
1259
1273
1265
1240
1202
1155
1106
1060
1028
1003
983
975
976
977
974
964
960
957
957
956
954
947
946
947
947
947
945
941
939
939
946
944
942
940
937
938
941
941
938
937
935
939
942
942
940
939
939
941
945
948
945
946
947
951
954
956
956
954
953
957
957
961
960
961
961
966
966
967
972
969
971
975
975
976
974
974
972
979
982
981
981
975
975
975
975
974
971
968
964
967
967
964
957
954
952
953
954
952
949
946
944
945
945
947
946
943
944
946
949
950
949
949
948
949
951
952
950
949
949
950
955
956
956
953
954
957
961
959
958
956
953
956
957
957
959
953
955
955
956
958
957
954
951
951
957
956
958
957
958
958
958
959
957
954
954
956
960
958
960
959
956
958
961
963
959
958
956
958
960
960
959
958
960
959
962
963
962
958
962
965
968
967
968
964
964
966
969
968
968
962
962
965
967
969
969
965
965
966
967
969
969
966
962
965
967
968
966
964
963
968
969
970
970
966
961
967
971
974
970
966
965
966
970
971
970
967
966
969
971
974
971
968
967
971
971
971
971
967
968
972
977
984
984
987
993
1002
1011
1016
1026
1043
1069
1101
1132
1165
1192
1220
1249
1279
1302
1308
1288
1248
1195
1141
1088
1043
1006
976
962
961
968
974
970
964
961
962
960
958
955
951
949
953
956
957
951
948
947
949
953
954
954
952
950
955
957
957
956
952
950
956
960
963
963
963
962
965
969
973
969
970
970
974
977
977
979
975
978
980
982
984
983
978
980
980
984
983
979
979
979
981
983
984
982
979
981
982
988
988
987
985
983
982
986
986
985
980
979
980
981
979
978
971
972
970
973
972
968
965
961
963
963
964
960
958
956
960
966
967
969
966
966
969
973
975
973
970
966
969
972
971
970
968
962
963
966
967
966
962
961
963
965
966
966
964
964
967
971
975
972
970
970
972
974
978
977
974
972
977
981
980
978
974
972
972
976
972
970
968
968
968
971
976
973
967
966
970
974
976
975
976
979
978
982
982
979
976
978
979
978
978
977
973
971
971
973
972
971
969
967
967
970
972
971
970
967
969
974
975
969
969
970
971
975
973
969
968
968
968
973
975
971
970
971
974
974
974
972
970
972
972
977
973
973
968
970
971
975
976
974
971
971
973
979
980
979
979
982
985
1000
1001
1008
1017
1036
1065
1095
1122
1150
1174
1204
1231
1260
1288
1303
1300
1283
1247
1206
1159
1112
1070
1037
1012
996
990
985
983
983
983
983
979
973
966
964
961
963
963
962
955
955
955
956
958
956
951
952
951
954
951
952
951
950
952
953
953
951
945
950
947
952
949
949
948
947
950
952
952
949
947
948
952
957
960
963
964
967
975
983
984
982
983
982
986
989
990
991
989
987
988
991
993
990
988
988
988
993
992
989
987
987
989
986
988
985
978
977
978
974
973
971
969
969
968
967
969
965
959
958
959
957
957
953
952
951
952
954
956
955
955
952
957
958
960
955
953
956
955
957
958
958
955
955
954
959
962
961
959
964
967
972
969
969
965
963
968
966
971
967
967
968
967
972
974
968
970
967
969
970
972
968
965
964
965
968
967
967
965
966
968
971
972
974
971
970
976
979
982
979
976
977
984
985
987
983
981
985
989
995
999
1004
1018
1040
1064
1090
1114
1146
1175
1202
1231
1256
1269
1266
1247
1219
1177
1134
1095
1063
1035
1015
1003
998
995
993
986
978
975
976
972
969
964
964
965
965
966
964
958
959
962
963
962
959
961
958
959
963
960
960
956
953
956
958
959
955
954
952
956
957
957
955
952
953
955
960
961
958
960
959
965
971
972
971
968
970
970
974
972
973
972
976
981
985
989
991
991
993
993
993
997
997
995
992
996
995
998
994
993
987
987
989
988
984
979
975
973
974
972
969
965
963
964
964
962
962
958
957
957
961
962
957
957
958
958
961
963
959
958
954
958
961
962
960
959
957
958
961
960
959
956
954
957
961
962
964
962
962
963
969
972
968
968
966
968
970
968
967
967
968
971
969
973
973
970
969
972
975
979
979
978
984
994
1008
1029
1051
1076
1103
1129
1159
1189
1219
1246
1265
1284
1289
1274
1243
1203
1153
1106
1064
1035
1014
996
984
975
974
974
972
963
962
960
963
962
954
949
944
944
949
946
945
942
944
946
952
953
948
946
943
949
952
952
948
944
944
946
950
950
947
942
944
943
947
949
948
946
945
950
954
956
956
953
954
958
960
962
964
961
961
967
970
974
974
973
974
977
980
984
981
977
980
982
986
987
988
984
983
982
989
984
979
977
975
974
971
971
968
967
961
964
964
964
957
958
957
960
961
961
958
956
956
957
960
959
958
956
957
958
960
960
959
958
958
960
962
961
957
958
956
960
966
969
963
963
963
964
964
966
963
961
960
962
962
963
962
959
957
962
963
963
963
960
961
963
965
967
965
962
963
966
971
970
968
963
967
969
970
972
971
970
970
972
978
979
976
971
970
971
972
976
975
973
974
979
981
981
971
970
973
974
976
973
970
969
969
969
974
974
970
967
967
968
972
974
969
964
967
969
971
973
970
968
967
970
972
972
973
969
971
973
982
981
983
980
986
990
1000
1005
1011
1027
1054
1089
1120
1149
1181
1208
1234
1268
1292
1307
1303
1274
1233
1187
1134
1081
1038
1006
983
969
965
967
969
967
964
961
962
958
955
950
945
950
949
951
947
944
945
947
949
951
950
944
945
947
950
949
949
945
943
946
950
952
953
949
950
952
957
956
958
954
954
955
960
960
956
953
956
958
965
967
965
967
969
970
972
973
972
968
968
970
975
976
975
971
972
975
977
977
978
975
978
980
983
986
982
981
981
981
983
983
978
976
974
977
978
977
976
974
970
971
974
974
971
965
965
967
968
969
965
961
962
961
963
964
961
958
960
961
963
965
965
963
964
967
972
974
971
971
972
972
973
972
970
969
967
970
972
971
969
967
968
971
976
973
971
969
967
967
970
969
970
969
968
973
975
974
972
968
966
969
976
974
969
969
967
967
969
969
965
963
963
967
966
969
968
965
962
964
969
970
965
961
960
964
965
964
962
960
962
964
970
973
972
971
973
977
977
974
973
968
968
970
973
973
971
970
970
971
974
976
974
968
970
972
974
973
968
967
966
966
971
970
969
963
964
965
970
971
970
965
968
971
973
973
971
966
966
969
971
972
969
967
966
967
971
972
969
966
966
971
973
973
973
968
966
968
971
971
968
968
971
975
985
992
997
1000
1003
1018
1035
1061
1085
1109
1134
1170
1205
1236
1262
1285
1307
1321
1315
1286
1240
1188
1136
1089
1053
1022
991
974
969
974
979
981
975
969
