967
965
963
962
958
954
951
952
953
952
947
944
944
945
947
946
945
940
940
941
945
949
945
944
944
947
951
949
948
945
946
948
949
950
952
952
951
957
962
959
961
957
958
963
964
964
965
964
965
967
970
972
970
967
966
971
970
972
970
963
968
967
974
971
968
970
970
971
971
973
972
969
971
972
975
973
966
965
965
965
969
969
968
964
965
967
967
968
964
963
956
961
964
961
960
955
954
956
957
957
959
958
957
958
966
967
967
967
964
969
972
971
968
968
966
970
974
976
972
970
968
971
973
973
970
970
972
973
976
976
971
970
970
972
976
975
972
968
969
969
973
970
967
963
962
963
966
965
964
962
961
965
964
967
963
961
964
966
969
969
968
967
968
969
973
972
969
969
973
977
983
984
981
980
979
980
985
984
981
979
977
978
981
981
980
975
975
976
979
980
977
974
974
974
977
979
977
974
974
978
979
980
982
981
983
982
982
983
979
978
976
977
976
978
976
974
974
977
978
982
980
981
984
988
996
1001
1005
1016
1035
1062
1088
1116
1144
1172
1202
1233
1260
1278
1295
1298
1287
1266
1233
1184
1133
1088
1054
1039
1022
1009
997
990
989
989
988
982
977
970
967
969
969
968
962
957
958
959
959
956
951
950
952
954
957
954
952
949
950
951
954
951
949
944
944
949
951
951
949
948
947
953
955
955
954
954
957
959
967
971
972
967
971
972
978
978
977
975
971
975
981
982
979
977
980
983
986
986
987
986
985
986
989
991
985
985
983
988
992
990
987
985
983
983
985
982
979
973
972
971
971
975
973
971
967
967
968
964
959
959
957
958
956
954
951
946
946
947
951
950
950
951
951
957
958
960
958
952
952
956
962
958
959
958
960
969
975
979
989
998
1021
1051
1084
1111
1139
1167
1201
1237
1265
1279
1279
1270
1252
1223
1183
1134
1087
1044
1019
1008
998
985
976
972
969
966
967
960
955
950
947
949
950
944
940
940
937
938
940
936
933
930
927
931
933
934
931
932
934
940
940
941
938
934
935
943
944
945
946
942
937
943
946
946
943
944
943
949
951
952
953
951
953
959
965
968
965
961
965
970
968
971
971
968
973
977
981
981
977
977
976
979
982
981
975
973
973
975
978
974
970
965
962
964
965
962
959
953
953
953
959
958
957
952
953
954
956
954
953
952
951
954
954
957
955
953
954
959
962
959
956
956
955
956
958
957
955
954
956
960
961
962
958
956
957
958
959
959
954
950
954
954
955
955
948
946
947
946
949
948
946
943
944
947
948
948
943
939
941
940
941
939
939
937
938
940
946
949
949
949
950
952
956
956
955
953
952
953
955
955
950
951
951
952
956
956
952
949
949
949
957
955
955
953
952
954
956
953
951
954
952
952
954
954
952
947
947
946
953
953
951
946
948
947
950
954
950
945
947
948
950
949
950
946
945
947
950
951
949
947
948
950
952
955
954
954
958
958
964
961
960
957
960
962
967
968
962
960
956
958
961
961
957
954
954
958
960
959
955
952
953
954
957
956
956
950
952
957
960
958
958
957
956
959
961
962
956
954
955
959
965
964
962
961
962
959
966
964
962
959
957
959
961
964
962
962
966
969
974
976
979
980
983
992
999
1004
1010
1028
1055
1088
1119
1155
1188
1217
1244
1277
1304
1319
1308
1273
1218
1159
1097
1051
1009
981
960
954
961
966
968
965
962
959
959
957
952
948
944
948
950
949
944
942
945
944
947
946
943
939
937
937
938
939
937
936
937
938
943
944
939
938
936
940
942
943
941
939
940
944
947
949
947
942
947
952
955
959
960
955
957
964
966
968
969
964
964
969
970
973
967
967
966
969
974
974
973
971
975
979
979
981
981
976
977
979
983
984
977
975
973
973
974
973
969
968
970
970
974
969
967
966
966
969
971
971
965
962
962
967
971
968
968
967
968
972
976
974
975
974
972
976
979
980
975
970
973
977
979
978
973
972
970
975
978
976
974
969
969
972
975
973
974
972
972
970
975
972
971
968
970
974
975
978
978
977
981
985
986
985
988
985
985
987
992
987
987
984
978
981
985
981
979
977
976
977
978
978
976
973
975
973
975
974
976
971
969
972
974
972
971
964
965
967
967
968
966
965
962
964
969
968
967
965
963
967
969
969
969
969
967
972
979
982
982
985
984
986
991
993
994
998
1006
1018
1026
1035
1047
1073
1101
1131
1166
1197
1229
1256
1282
1312
1331
1336
1309
1264
1209
1145
1090
1045
1011
983
973
975
980
980
976
965
963
960
957
954
949
945
945
945
947
947
942
941
943
948
949
951
950
950
952
954
957
957
955
952
951
956
959
957
958
954
959
964
969
974
972
971
968
972
975
975
972
973
972
974
977
978
976
971
969
973
972
970
972
969
965
968
971
974
969
969
970
974
977
976
975
972
974
973
975
976
974
968
969
971
969
968
965
962
964
963
966
963
962
958
954
957
958
960
960
962
962
966
966
963
962
961
960
963
965
964
964
961
960
960
961
965
959
960
960
962
965
966
965
962
961
963
967
971
969
967
966
967
972
974
971
966
966
969
970
972
971
969
969
969
970
970
971
969
971
975
978
980
981
981
982
995
1009
1028
1049
1072
1097
1126
1161
1190
1213
1232
1254
1265
1264
1241
1202
1154
1104
1068
1046
1027
1006
995
988
986
986
981
975
967
964
963
963
959
955
952
954
954
958
956
951
946
945
949
951
949
947
946
947
950
953
953
947
949
948
952
951
952
951
946
948
949
952
951
949
947
947
949
951
951
951
955
959
967
970
972
972
971
972
976
979
982
982
979
981
985
990
991
991
989
986
985
988
985
986
979
976
976
974
973
969
968
964
965
965
964
958
958
952
954
955
954
953
952
947
952
953
950
949
946
947
948
949
948
947
943
941
945
947
949
949
947
948
951
956
957
956
952
952
957
957
961
959
958
957
962
963
965
963
964
961
963
966
964
966
961
960
961
963
963
962
957
959
960
961
961
957
955
954
957
959
962
958
953
951
952
956
955
954
948
946
951
955
956
953
954
956
961
968
968
966
963
966
970
977
974
968
965
966
969
972
970
968
965
962
967
969
968
965
962
959
964
966
966
962
957
960
963
965
965
957
958
956
957
960
956
953
950
950
953
956
953
951
947
948
951
953
950
947
942
944
948
955
955
956
953
957
961
965
967
970
973
975
978
983
981
975
973
973
973
977
974
975
972
975
975
978
977
975
980
977
986
993
998
1001
1004
1016
1039
1065
1089
1111
1139
1169
1197
1225
1252
1268
1276
1265
1237
1201
1148
1096
1051
1022
998
983
975
969
968
964
961
961
959
958
954
956
958
962
960
960
959
957
959
959
956
956
954
955
954
956
958
954
951
949
951
952
951
949
949
943
949
952
952
950
948
950
952
953
955
951
950
952
953
956
957
959
954
954
957
958
960
956
957
960
962
964
963
964
963
964
965
974
975
977
975
979
985
988
988
986
982
986
987
989
987
984
977
975
975
973
973
967
964
963
963
965
963
960
953
957
956
958
958
954
951
951
952
954
954
950
946
948
950
954
954
949
947
947
951
954
955
954
953
953
954
959
960
958
956
957
958
963
965
962
960
963
965
966
966
961
959
955
955
955
956
955
954
953
958
960
963
961
961
961
963
970
967
965
958
960
962
964
963
962
957
955
960
962
962
959
956
954
954
959
958
958
954
956
959
960
962
960
958
962
959
967
968
966
966
967
969
975
976
971
967
968
967
966
965
961
958
958
957
961
960
955
952
953
952
954
955
952
949
949
952
954
954
952
952
952
958
962
965
960
960
965
969
972
975
982
984
990
1003
1016
1037
1059
1083
1113
1146
1179
1205
1223
1245
1266
1282
1286
1271
1242
1200
1153
1100
1062
1027
998
980
972
975
981
983
981
977
976
974
973
972
965
961
956
954
956
954
948
944
942
943
943
942
941
942
943
944
944
943
942
941
939
943
945
944
943
941
940
942
945
949
946
944
944
949
951
952
949
950
949
952
953
957
956
958
959
961
964
967
970
969
970
975
981
984
986
983
985
990
991
995
991
988
987
986
986
983
978
972
969
968
969
966
960
956
955
958
958
958
957
953
953
954
954
955
952
950
949
952
954
953
948
943
944
948
950
949
945
945
943
946
954
952
951
950
952
955
962
963
964
962
963
966
965
968
965
959
960
966
969
969
961
962
961
964
967
967
963
962
960
960
965
962
960
954
953
957
959
959
959
957
959
959
960
959
957
953
956
957
962
959
959
955
956
956
959
959
959
957
958
961
970
966
966
962
962
965
968
967
966
967
966
968
969
971
966
963
960
962
964
961
960
957
953
956
961
960
955
953
953
958
959
957
955
952
953
954
959
957
957
951
951
950
954
955
955
953
954
957
963
965
964
963
966
969
973
981
986
988
995
1005
1021
1044
1066
1092
1119
1155
1191
1221
1250
1275
1297
1316
1322
1306
1274
1230
1178
1126
1080
1042
1012
988
972
972
977
980
975
967
964
959
961
955
951
943
943
942
941
939
937
932
930
933
934
934
931
927
929
928
928
927
927
927
927
931
935
936
935
939
944
946
952
952
950
952
954
957
964
963
961
960
962
964
968
968
964
962
963
967
973
970
971
967
967
970
972
972
967
966
966
968
969
970
969
966
964
966
971
970
967
964
960
962
962
960
957
953
949
947
953
949
946
940
939
940
944
943
940
940
940
943
950
950
950
951
950
952
960
960
959
960
957
959
961
958
958
956
955
956
958
955
952
948
950
953
956
953
952
948
949
953
953
955
952
947
948
953
954
955
950
949
947
949
952
952
949
947
946
946
953
950
946
945
944
947
948
949
944
943
944
945
949
948
948
948
949
954
962
965
967
966
966
967
972
973
970
967
967
968
970
969
967
961
959
962
964
963
959
961
957
960
962
960
956
953
952
954
955
955
952
947
948
951
953
952
949
946
946
948
952
950
949
947
945
945
949
950
947
944
944
946
948
949
946
944
945
946
952
954
953
949
949
957
960
960
958
956
959
963
968
966
969
968
967
969
973
969
967
965
961
964
968
966
963
960
958
960
960
961
956
953
954
952
958
956
955
952
951
952
954
954
952
949
950
952
952
950
950
948
949
948
953
955
953
950
950
954
959
961
959
958
957
961
965
961
959
961
962
963
967
971
969
969
967
973
974
975
970
967
964
968
971
968
968
970
971
976
979
984
988
989
993
1000
1011
1021
1037
1059
1084
1111
1138
1167
1194
1216
1240
1267
1282
1282
1259
1221
1177
1127
1086
1048
1013
985
967
958
960
962
955
954
949
949
952
949
946
941
943
946
948
948
949
946
947
949
950
949
947
943
945
948
952
951
946
946
946
948
949
947
941
941
940
943
948
950
951
950
951
951
957
955
955
955
955
958
961
959
959
957
958
962
964
965
966
966
963
965
969
971
971
967
971
973
976
976
973
973
970
975
977
980
978
975
974
977
981
976
975
971
974
975
980
976
970
967
963
962
965
965
960
961
959
961
968
966
964
958
958
960
961
959
959
956
955
958
961
959
955
955
953
953
957
955
950
948
953
953
956
953
954
949
949
951
953
956
952
950
953
953
953
951
952
949
950
952
954
954
952
948
948
950
950
951
946
946
944
947
953
949
950
949
952
958
962
963
962
959
959
960
963
966
966
966
970
975
978
980
976
972
970
971
973
973
972
966
969
971
973
974
968
969
966
971
969
972
969
967
963
967
970
971
967
964
962
963
966
967
962
963
964
963
967
965
964
963
963
966
971
967
966
963
963
964
965
967
965
961
965
967
975
978
979
985
1004
1030
1057
1088
1116
1148
1186
1219
1247
1276
1292
1292
1277
1250
1213
1162
1108
1062
1029
1010
998
994
992
992
991
987
987
981
974
969
966
966
967
963
959
956
954
957
957
956
953
951
950
952
957
958
953
950
951
953
954
954
954
951
948
949
950
951
949
946
945
946
948
949
945
944
945
945
953
953
953
953
956
961
968
970
971
965
967
974
984
985
984
985
985
991
996
997
994
991
993
994
999
998
995
996
994
993
994
989
986
980
978
978
980
978
971
968
964
966
964
962
956
953
951
952
954
951
950
946
949
950
953
953
946
944
947
947
950
949
948
952
955
959
962
965
961
961
961
964
967
967
965
963
963
966
967
967
965
965
962
967
971
967
969
969
968
970
973
977
973
969
971
973
976
975
970
968
963
964
965
967
966
961
960
963
964
964
963
961
962
964
969
967
969
968
968
971
974
976
975
973
975
978
981
982
978
976
977
978
980
979
979
977
976
975
975
972
968
963
962
965
969
968
967
966
966
969
977
976
975
971
970
972
974
972
971
967
968
970
973
971
969
965
963
967
971
967
965
966
967
973
978
977
977
976
976
980
984
982
980
974
978
980
984
986
984
982
985
985
989
988
985
982
981
985
985
984
979
976
975
975
978
977
975
971
973
976
980
982
982
980
981
984
987
986
984
982
983
985
989
990
991
992
996
1007
1016
1022
1028
1043
1067
1099
1133
1163
1197
1233
1265
1298
1327
1342
1342
1315
1271
1214
1156
1099
1059
1027
997
988
989
994
996
990
984
981
979
973
968
964
961
962
964
962
960
958
958
961
964
963
963
962
961
967
969
970
966
969
968
972
978
979
976
974
976
977
980
981
980
978
980
984
987
985
987
988
989
991
994
998
995
992
992
994
997
996
994
992
992
990
995
997
992
990
992
994
997
996
993
992
990
992
995
999
998
995
994
998
1001
999
995
992
992
992
992
990
987
982
983
981
981
979
978
978
975
977
979
981
979
973
975
976
980
976
976
973
976
977
979
979
977
975
970
974
975
974
971
968
969
973
976
976
974
970
971
973
977
976
972
973
975
979
983
983
987
986
988
992
996
995
995
995
989
991
996
997
997
995
995
995
1000
1002
997
993
990
994
996
996
994
990
990
994
996
995
996
996
999
1006
1014
1021
1035
1054
1085
1114
1148
1184
1216
1244
1273
1303
1321
1317
1290
1242
1184
1127
1081
1040
1010
988
979
984
993
993
989
979
974
973
976
971
965
964
966
967
966
963
963
961
958
961
965
963
960
958
958
961
964
962
962
958
957
961
965
964
958
955
956
960
962
964
962
963
962
968
969
972
972
969
973
978
981
982
981
977
978
983
988
992
991
995
993
1000
1005
1005
1005
1000
999
1002
1004
1003
998
993
988
990
988
984
980
976
972
974
977
973
970
966
962
966
965
963
959
956
953
954
957
954
954
951
952
957
954
957
956
954
954
959
963
961
960
957
958
960
960
963
963
960
960
965
966
965
961
958
960
963
966
966
961
959
960
961
966
969
967
968
969
975
979
977
978
976
973
977
977
974
972
966
968
970
970
969
968
965
965
968
971
969
967
966
965
965
971
973
971
977
981
987
995
1000
1008
1025
1044
1072
1099
1129
1157
1187
1215
1243
1269
1290
1292
1273
1237
1194
1144
1091
1049
1016
996
986
983
979
976
969
964
961
960
956
950
944
940
941
946
948
945
942
944
945
949
948
943
941
941
943
946
946
945
942
945
948
951
950
949
949
949
953
955
954
954
952
954
960
962
962
960
961
963
965
969
970
970
967
968
971
974
977
973
970
969
970
976
976
976
974
976
978
978
976
976
970
968
971
971
969
961
964
963
964
968
964
961
961
963
968
971
969
966
962
963
964
964
962
958
954
953
954
956
956
956
952
952
954
959
955
955
954
951
954
954
953
949
948
948
951
953
952
949
948
945
947
954
951
951
949
949
951
954
952
952
949
952
955
959
958
957
954
955
958
963
957
955
953
954
956
957
960
963
965
964
968
971
970
966
964
963
965
968
968
964
961
960
962
962
964
961
956
956
956
960
958
958
955
951
952
953
954
951
948
948
953
955
955
956
951
952
951
956
955
952
949
948
947
955
952
950
946
946
949
955
956
954
957
960
965
971
967
969
964
968
969
970
967
965
963
962
969
971
969
965
965
965
966
968
967
965
962
963
965
968
966
964
958
964
961
965
965
962
958
960
962
967
966
961
957
961
964
966
967
963
963
963
967
974
979
983
984
992
1008
1035
1059
1084
1109
1140
1178
1214
1242
1269
1290
1298
1291
1272
1234
1184
1130
1089
1057
1034
1015
998
989
985
987
988
981
971
962
960
961
960
953
951
949
947
950
950
949
941
943
942
945
948
947
943
941
938
936
945
941
938
937
938
941
946
946
945
942
944
948
951
950
951
949
949
953
961
962
963
960
965
968
972
970
971
971
972
974
980
978
978
977
976
980
983
985
984
983
983
986
988
990
988
984
983
984
987
987
984
979
975
975
978
976
972
968
966
967
968
965
960
961
956
957
959
959
957
956
956
957
958
960
959
957
954
959
961
962
959
956
956
959
961
959
955
952
953
954
958
958
955
952
953
955
957
959
956
954
957
958
961
959
960
959
956
956
961
961
960
959
957
963
966
963
961
958
956
962
963
962
961
959
