1165
1100
1051
1016
996
977
959
944
937
933
933
930
924
917
915
911
911
915
913
910
908
910
912
916
916
912
909
912
917
921
925
923
923
919
925
926
926
922
921
920
921
926
927
924
923
924
926
927
929
926
922
925
926
929
931
926
924
923
927
929
932
932
928
927
929
929
928
929
927
927
931
936
937
936
936
939
943
946
949
947
944
950
946
947
948
944
940
937
934
936
934
929
927
929
928
928
929
926
923
922
926
926
928
929
928
929
927
931
936
937
935
937
940
942
940
941
941
946
948
952
953
955
953
952
953
957
957
955
953
951
954
958
956
953
952
954
957
960
959
955
952
954
956
958
959
957
951
951
954
955
955
953
950
951
955
958
958
955
956
959
964
973
981
994
1014
1037
1067
1091
1126
1157
1187
1221
1254
1287
1298
1294
1269
1233
1179
1122
1067
1021
988
967
953
950
948
945
939
935
938
939
934
931
926
925
927
930
932
933
929
933
940
940
940
936
934
935
937
938
936
932
933
934
936
938
937
932
930
930
932
933
934
931
926
926
929
934
931
929
925
926
929
932
933
927
925
924
927
931
925
925
923
923
929
930
927
925
922
925
928
933
932
933
933
937
940
945
945
942
942
942
946
948
947
947
945
947
949
953
948
946
949
948
956
958
957
955
954
952
958
961
959
957
956
957
960
963
963
960
960
957
959
961
962
960
958
960
962
963
962
959
961
960
963
967
968
967
962
961
966
968
966
966
965
968
969
973
973
969
970
974
983
995
1008
1026
1051
1080
1109
1136
1167
1200
1236
1269
1297
1321
1328
1314
1284
1234
1175
1113
1060
1021
991
971
960
961
965
963
959
955
952
953
949
949
945
946
951
953
950
947
945
945
946
946
945
942
940
943
943
945
944
940
940
940
942
944
943
939
938
937
939
939
941
938
934
936
939
943
939
938
935
935
938
940
940
939
937
934
935
940
939
935
938
938
939
940
939
938
938
941
946
949
951
952
945
946
952
952
950
947
943
946
950
951
949
949
947
949
953
958
958
957
954
953
956
959
960
962
962
963
968
971
972
970
967
966
971
970
968
965
966
965
969
970
972
973
970
971
976
976
974
975
972
971
971
974
974
972
969
967
971
974
970
969
967
967
965
970
966
964
957
961
962
964
962
954
949
947
952
952
953
948
944
944
946
949
947
943
941
943
946
949
948
948
949
952
955
959
961
961
960
959
962
966
967
965
963
970
971
978
981
979
976
975
979
983
982
978
976
980
983
983
983
978
976
978
980
985
983
981
984
982
982
985
986
984
982
983
987
991
991
997
1000
1003
1016
1034
1057
1084
1111
1149
1190
1230
1271
1303
1330
1359
1372
1365
1336
1285
1215
1144
1093
1050
1011
983
967
962
964
966
962
955
950
946
948
947
948
943
942
943
942
947
944
942
939
940
943
951
953
949
949
949
949
953
951
949
947
950
952
956
951
949
948
948
954
955
954
953
948
950
953
953
953
953
950
951
954
954
956
953
949
951
953
955
955
958
955
957
961
964
965
963
960
965
967
969
966
964
961
961
962
963
960
955
954
952
951
956
953
954
954
957
956
961
960
960
962
963
966
970
971
972
972
974
979
984
983
981
982
984
986
988
989
987
983
983
989
992
991
990
986
986
990
995
993
989
986
988
991
994
993
991
987
987
989
994
995
991
988
991
994
999
999
999
999
1008
1021
1042
1066
1091
1119
1147
1179
1216
1253
1283
1306
1322
1322
1304
1261
1202
1133
1082
1047
1024
1002
987
977
976
975
974
966
958
952
953
953
956
955
955
956
956
957
958
955
952
951
950
953
954
953
949
950
950
952
954
952
947
947
947
950
952
954
951
947
949
951
955
955
952
949
951
953
953
952
948
950
950
951
954
956
953
951
949
953
957
957
954
953
948
957
961
961
961
957
956
956
960
957
953
953
952
956
959
958
956
956
960
963
968
968
966
960
963
970
975
976
976
977
978
982
986
985
979
975
980
982
985
980
981
979
980
983
985
981
977
975
976
978
985
984
978
978
979
980
985
983
981
981
981
982
983
981
979
977
976
977
977
978
976
978
976
980
984
986
987
997
1017
1045
1076
1101
1134
1167
1204
1242
1280
1311
1330
1328
1312
1277
1228
1160
1101
1058
1019
995
982
977
975
971
970
969
967
965
960
951
951
951
950
948
946
943
941
944
946
947
944
942
941
941
941
942
942
940
938
941
943
941
940
937
938
939
940
940
934
932
933
938
938
937
935
933
934
934
935
935
929
926
926
925
929
926
922
921
922
931
933
934
931
931
932
940
946
950
950
951
955
959
962
965
962
964
965
967
969
967
966
970
972
978
980
979
980
977
979
980
980
981
977
977
978
980
984
983
981
979
977
979
982
979
978
973
977
979
981
981
978
974
975
978
980
979
976
971
972
974
973
974
972
968
970
970
973
971
968
961
959
957
959
955
952
950
948
946
949
947
946
944
947
950
954
952
949
951
952
954
958
959
960
958
958
961
965
964
962
966
972
975
979
977
976
972
975
976
979
976
979
974
975
977
979
980
975
974
975
976
977
979
975
974
970
973
977
977
979
976
977
976
979
980
976
971
973
973
976
976
976
976
974
975
978
976
974
974
978
985
993
999
1011
1033
1065
1099
1139
1176
1213
1251
1286
1323
1351
1357
1342
1310
1262
1201
1143
1092
1051
1019
1000
995
997
998
994
991
993
991
990
985
979
974
974
978
978
973
971
971
971
971
973
972
970
963
965
966
967
966
964
960
963
964
965
962
960
955
956
958
963
962
959
957
958
955
956
953
955
952
952
951
952
951
947
944
945
943
946
944
942
939
942
948
950
952
947
947
952
959
967
973
973
974
979
981
984
983
982
980
984
985
989
990
987
985
986
986
986
987
980
978
980
984
986
982
976
977
978
979
981
978
976
975
976
977
982
980
977
975
976
978
980
978
974
970
977
976
981
981
978
976
974
975
980
977
972
969
969
970
972
971
967
966
965
966
965
962
958
959
959
960
962
961
959
957
957
959
967
966
964
967
969
974
980
979
984
981
989
998
1010
1019
1029
1052
1084
1119
1154
1185
1216
1245
1280
1320
1352
1376
1386
1375
1342
1298
1238
1165
1107
1061
1034
1018
1006
1000
997
1000
998
997
996
988
981
976
973
977
979
975
971
966
966
967
969
965
962
959
957
959
962
961
960
954
955
955
959
955
953
946
947
949
952
952
946
946
944
947
949
949
949
945
945
949
956
954
955
953
956
958
964
964
966
966
967
972
976
975
974
975
977
984
992
993
996
995
1000
1004
1006
1006
1006
1004
1003
1005
1005
1002
998
995
993
995
996
991
990
984
984
982
982
981
978
975
977
975
978
976
972
970
970
973
973
971
971
970
971
975
975
973
970
969
969
970
970
967
963
961
960
960
960
958
958
956
960
964
966
965
966
962
963
966
970
971
970
970
972
973
976
977
974
974
974
976
980
981
980
981
982
988
990
990
990
985
988
988
990
991
985
986
986
988
989
989
985
984
987
988
991
990
988
984
984
987
989
986
989
985
985
988
990
991
985
985
986
991
993
993
992
992
991
994
1005
1007
1013
1028
1056
1092
1126
1162
1201
1240
1282
1317
1356
1379
1388
1373
1345
1298
1231
1157
1091
1044
1009
985
979
980
977
981
978
976
976
970
964
961
961
963
965
965
964
964
963
968
969
967
964
962
962
964
966
963
963
958
961
961
961
963
958
959
956
960
962
960
959
956
960
959
964
960
959
957
958
961
960
959
958
954
954
956
959
957
952
951
951
953
954
951
952
947
946
952
952
952
951
952
952
956
960
958
958
955
959
961
964
963
962
959
964
966
970
970
968
967
970
973
976
976
973
971
972
980
985
988
988
986
988
992
993
991
987
985
987
990
993
993
989
987
988
992
996
995
992
989
989
993
993
995
992
989
987
992
994
993
989
985
985
991
992
992
989
986
988
990
992
991
988
985
983
985
983
983
979
972
970
969
972
970
964
963
962
964
966
964
962
960
962
965
967
966
966
965
969
971
973
974
973
971
971
974
977
979
979
980
987
992
993
994
991
988
989
991
993
989
988
986
989
990
993
990
988
985
986
986
990
989
986
983
984
988
990
989
985
984
986
987
990
991
986
983
986
989
992
990
987
983
985
988
991
991
987
987
991
995
1001
1004
1007
1016
1031
1062
1092
1123
1151
1183
1223
1265
1302
1333
1356
1366
1360
1341
1306
1253
1185
1126
1080
1047
1022
1003
994
990
992
992
991
987
979
976
977
977
983
981
980
978
977
978
980
977
974
972
972
973
973
971
970
969
967
971
973
974
970
966
966
968
969
968
966
964
967
968
968
967
965
963
964
966
970
967
962
960
962
964
964
961
957
954
957
957
959
956
951
950
953
954
957
954
951
956
961
964
970
971
972
973
978
982
988
988
984
979
978
982
983
984
982
979
982
983
991
988
985
984
982
980
985
980
980
979
980
981
983
981
976
975
979
980
980
980
980
978
980
980
982
983
977
976
977
977
979
977
977
974
976
977
977
976
974
973
974
973
975
973
971
970
969
969
971
964
964
959
956
959
962
963
963
962
960
966
969
970
971
979
988
999
1020
1045
1078
1112
1148
1181
1216
1258
1301
1327
1357
1372
1371
1345
1300
1242
1172
1115
1074
1047
1023
1005
1002
1003
1007
1002
996
987
987
984
984
979
976
971
973
974
973
972
968
966
968
967
969
970
965
963
964
965
966
966
965
963
964
965
967
962
962
961
963
964
962
959
957
954
955
956
958
959
955
954
956
958
958
959
958
958
960
964
968
972
971
970
972
978
982
986
987
985
989
993
995
998
996
996
997
998
1002
1001
996
996
994
992
992
989
984
982
982
981
982
978
975
976
977
977
976
975
976
970
971
974
976
971
970
969
972
974
974
974
971
970
971
973
975
975
971
969
969
970
970
969
965
963
961
966
966
963
959
957
960
961
964
960
958
952
956
956
962
962
957
959
961
967
971
973
971
972
977
981
988
988
990
993
1004
1015
1032
1051
1073
1100
1133
1167
1205
1245
1282
1311
1342
1367
1381
1373
1349
1311
1258
1201
1146
1101
1062
1035
1015
1004
1001
999
997
993
990
987
984
979
973
969
966
968
966
962
958
958
956
956
957
953
951
949
948
952
949
949
945
941
939
940
938
940
936
934
934
937
938
933
931
928
929
931
935
935
936
935
938
943
947
946
947
948
950
954
956
954
958
959
961
967
971
974
976
974
980
985
990
992
991
993
995
998
1002
999
998
996
998
995
994
995
991
988
987
986
988
986
980
978
978
984
979
978
974
972
972
975
975
973
970
968
970
971
970
967
967
962
960
969
968
960
960
958
959
960
960
958
955
954
953
955
954
955
952
950
953
959
961
960
962
961
964
969
973
975
972
972
975
979
982
984
985
986
991
995
996
997
993
990
992
994
995
990
988
993
994
997
998
996
991
991
993
994
998
995
992
992
993
993
994
994
992
991
991
993
994
991
989
985
985
986
988
988
985
981
982
983
984
979
977
975
977
977
974
974
968
968
967
971
969
966
963
960
961
966
970
969
969
967
972
975
975
978
974
976
980
981
986
982
983
981
987
992
993
997
997
993
995
997
997
997
993
993
994
996
998
997
993
991
995
997
998
997
994
993
992
994
998
995
994
991
993
997
996
994
992
990
993
999
999
996
994
991
994
999
999
999
997
996
1004
1009
1015
1023
1037
1064
1095
1134
1173
1211
1245
1285
1320
1354
1381
1392
1379
1348
1304
1239
1178
1122
1072
1030
1003
995
997
1000
1001
997
993
995
994
993
989
989
989
991
995
991
985
985
984
987
985
982
982
980
979
981
982
982
979
977
978
980
983
982
978
975
976
979
978
978
976
974
975
977
981
980
978
976
977
977
977
980
978
972
972
974
976
975
972
967
967
968
968
967
963
956
954
962
966
962
961
959
959
959
965
967
968
969
973
979
982
981
980
979
981
987
987
989
986
987
989
993
994
995
996
993
993
995
994
994
994
992
992
994
993
994
991
989
989
990
990
994
994
991
990
992
994
995
991
991
989
993
995
993
993
992
993
993
998
995
994
992
992
996
995
993
994
992
993
996
995
995
993
992
990
997
1004
1013
1018
1036
1063
1102
1140
1173
1204
1239
1283
1322
1350
1368
1365
1340
1303
1250
1182
1118
1072
1044
1026
1014
1010
1008
1009
1007
1003
1001
996
990
985
980
978
980
983
980
977
972
974
975
978
974
971
967
970
968
970
968
967
960
963
965
966
967
962
960
959
962
967
966
964
962
966
969
970
965
964
962
964
968
969
968
963
962
957
961
965
962
961
958
963
965
966
966
964
966
975
978
983
984
983
984
984
986
988
986
981
978
981
984
987
986
986
984
985
988
989
987
985
984
982
985
986
983
981
980
981
981
984
983
983
980
980
982
985
983
978
980
979
982
981
982
976
977
976
979
981
980
976
976
975
978
980
977
976
971
973
975
972
970
970
968
971
973
980
987
991
1001
1022
1054
1087
1122
1159
1193
1238
1282
1320
1347
1362
1358
1335
1300
1243
1179
1118
1072
1040
1021
1011
1007
1002
999
995
988
988
983
975
970
971
968
971
970
966
963
962
965
968
963
958
956
960
960
962
959
955
951
954
955
959
957
954
948
948
951
954
950
947
947
947
946
949
948
944
942
940
939
938
932
928
928
928
932
933
932
927
927
929
929
934
935
936
939
947
953
960
960
960
961
965
972
976
976
975
976
980
984
985
987
983
981
982
980
982
979
979
976
979
980
984
979
976
977
982
983
984
981
980
976
979
980
980
980
978
976
981
982
982
981
980
975
977
980
980
979
976
976
975
978
980
978
972
974
975
978
980
980
982
988
1000
1016
1038
1064
1093
1121
1154
1189
1228
1264
1296
1324
1338
1336
1321
1280
1224
1155
1100
1063
1039
1020
1005
993
997
1001
998
994
986
978
978
976
974
973
967
964
961
965
962
963
961
956
954
959
961
958
955
953
954
954
958
956
954
954
954
955
955
955
953
948
950
951
954
955
954
949
952
955
958
954
952
948
948
949
950
947
943
938
938
943
945
946
943
941
944
948
955
960
962
963
965
970
977
977
975
975
973
977
980
978
976
977
979
983
987
984
982
981
981
981
986
984
981
975
979
979
983
982
980
980
980
982
982
984
982
979
981
984
984
983
982
980
982
984
986
986
983
979
980
982
983
982
980
976
979
981
982
979
979
976
977
979
985
988
994
1005
1025
1055
1085
1111
1138
1172
1214
1257
1292
1319
1337
1342
1330
1302
1257
1193
1129
1076
1038
1010
994
988
989
992
992
991
988
982
976
973
969
967
968
966
962
960
961
963
966
961
958
959
959
960
962
963
960
956
954
958
961
960
956
955
955
958
961
958
955
952
953
953
954
953
950
949
946
950
948
948
942
937
941
939
942
937
938
937
940
943
946
947
945
944
949
956
961
967
964
968
969
975
979
978
979
977
976
982
984
983
978
979
980
987
992
989
986
986
984
987
989
988
984
984
987
990
991
990
989
988
990
990
992
992
989
985
989
989
993
991
989
986
986
989
994
990
988
986
985
992
991
990
987
984
984
988
988
989
986
985
990
995
1003
1009
1028
1052
1081
1114
1143
1170
1205
1241
1282
1320
1351
1365
1363
1337
1298
1242
1179
1115
1067
1031
1009
1000
995
1000
999
999
995
992
989
984
977
973
973
975
972
969
969
965
964
967
969
966
962
961
964
963
964
964
961
959
958
960
964
960
956
955
958
961
962
959
959
958
958
960
961
959
955
952
951
953
953
952
949
948
946
946
943
939
942
935
937
944
947
946
947
945
947
954
959
962
963
965
969
973
977
977
976
976
978
981
983
983
981
980
982
987
990
991
990
989
988
991
991
992
988
989
989
990
990
989
991
989
992
992
996
993
992
989
989
992
994
995
991
991
990
994
995
992
989
991
991
990
996
995
990
991
992
995
996
998
1000
1000
1003
1012
1025
1041
1065
1094
1123
1152
1186
1224
1262
1292
1319
1342
1349
1330
1291
1234
1165
1116
1078
1046
1019
998
989
991
991
984
979
974
972
973
975
975
969
965
964
966
969
969
964
960
959
960
963
964
960
957
959
960
964
964
960
959
958
959
961
960
955
954
954
955
957
958
953
951
952
954
955
953
949
948
948
951
953
952
948
945
944
946
947
946
942
939
940
946
950
952
952
952
953
954
958
957
955
953
960
964
967
969
965
963
970
973
977
976
974
973
974
979
982
986
985
986
986
991
991
989
986
987
988
992
993
991
990
989
991
993
992
992
990
987
992
993
995
996
995
994
992
992
997
996
995
993
993
995
996
996
993
989
990
990
994
994
994
997
1002
1008
1022
1039
1062
1092
1121
1156
1195
1233
1266
1293
1322
1332
1336
1315
1276
1221
1159
1118
1084
1054
1025
1002
995
992
992
986
982
977
975
979
981
974
971
969
967
971
972
970
965
962
964
967
968
967
965
958
960
958
966
960
955
955
958
957
959
956
954
952
954
957
960
956
955
950
951
957
959
953
949
948
951
952
953
948
946
943
946
945
946
942
941
938
941
945
946
950
949
948
950
952
954
954
953
953
956
959
960
