936
939
942
944
943
940
940
941
941
943
945
945
944
942
947
950
950
949
945
947
950
951
950
947
945
948
949
951
945
945
942
945
948
948
945
944
943
947
950
953
952
949
944
947
950
953
948
941
944
944
948
952
951
948
946
947
954
959
957
956
952
950
955
961
956
953
949
951
954
956
960
956
954
957
958
961
960
954
955
959
961
965
967
963
959
960
963
963
963
959
955
957
959
960
962
959
955
955
958
959
956
953
950
950
952
956
951
950
947
947
947
948
951
947
946
944
947
950
948
951
950
955
959
962
965
967
969
973
978
986
988
987
992
1006
1029
1054
1083
1107
1133
1167
1197
1228
1253
1276
1293
1292
1277
1248
1205
1151
1100
1060
1031
1011
990
976
968
970
972
973
965
956
950
945
946
946
941
938
936
935
937
941
939
936
935
937
937
940
939
935
935
937
940
940
940
937
936
937
937
939
940
938
938
941
944
948
950
952
952
955
961
964
963
963
965
966
971
973
970
970
971
972
975
975
976
972
974
977
981
984
979
978
976
980
982
981
984
980
979
980
985
987
986
984
985
986
987
988
988
984
979
979
980
982
978
976
972
971
973
974
972
970
970
968
971
972
967
964
962
962
963
967
966
963
960
959
962
963
963
961
962
965
967
970
970
969
967
966
967
965
966
965
964
966
967
966
968
966
963
963
966
969
965
962
962
965
968
967
966
962
961
965
967
971
970
968
968
967
969
973
973
968
966
968
968
968
968
966
967
968
970
970
973
971
975
978
986
993
995
1000
1010
1030
1054
1086
1115
1139
1169
1197
1227
1256
1280
1287
1281
1260
1224
1173
1118
1069
1032
998
977
964
959
961
967
972
973
969
965
961
959
963
961
964
959
957
951
955
955
959
956
953
953
953
956
955
953
951
950
951
954
958
954
953
951
956
957
955
957
956
953
955
960
962
964
965
964
970
976
978
980
978
976
980
984
985
989
986
986
987
995
997
995
995
995
997
1001
1004
1003
1002
1002
1004
1007
1006
1005
1000
998
997
996
990
992
986
981
979
979
979
975
969
965
961
962
961
961
958
957
957
959
961
956
955
953
954
955
959
957
955
953
957
957
957
958
957
959
960
965
967
965
965
962
963
965
969
967
966
964
963
963
965
964
962
961
962
961
965
965
963
962
964
963
968
967
963
961
962
968
964
960
959
960
962
964
966
965
964
963
961
963
965
964
960
959
959
961
962
961
959
958
959
962
962
961
959
958
959
962
965
965
965
962
964
963
967
963
962
959
958
961
964
961
956
957
957
958
958
956
954
954
953
956
958
957
954
952
953
954
956
957
956
954
956
961
959
960
956
954
952
956
959
957
956
955
955
955
959
956
952
951
951
954
957
956
956
952
955
957
961
961
958
956
956
960
964
965
959
960
964
969
972
973
969
966
967
970
974
972
969
966
968
971
971
967
965
963
966
968
968
968
964
965
969
972
973
971
967
969
974
980
986
991
994
1005
1026
1056
1086
1118
1151
1181
1217
1250
1283
1306
1312
1300
1263
1215
1152
1093
1043
1002
969
959
956
963
968
964
966
965
965
964
960
956
957
958
961
958
953
949
948
949
951
950
944
944
944
946
946
940
938
933
938
940
943
940
937
937
933
939
943
940
936
935
938
940
945
941
941
942
943
949
950
949
949
947
949
953
954
953
953
950
950
957
960
958
959
958
963
966
973
973
973
974
977
980
978
976
973
969
971
976
977
976
972
970
967
970
970
968
963
959
959
958
960
954
951
947
950
950
951
949
945
945
947
951
952
953
949
947
947
949
954
954
952
951
952
955
956
958
956
957
958
961
964
963
958
957
957
962
965
963
961
960
962
967
973
973
970
967
966
970
970
967
967
964
961
967
970
969
963
965
962
966
965
964
962
961
958
960
962
956
952
951
950
954
954
951
952
950
953
957
959
956
951
954
960
962
963
961
958
957
958
954
959
957
956
955
955
959
961
960
955
953
956
954
954
952
948
947
952
952
955
957
959
962
962
963
966
962
961
960
959
960
960
961
957
958
958
959
961
960
963
968
973
982
987
998
1016
1043
1073
1102
1136
1169
1200
1230
1253
1282
1301
1301
1281
1251
1206
1151
1100
1057
1031
1009
993
984
984
978
977
968
961
959
959
956
952
947
948
948
949
946
943
940
939
944
945
948
944
941
943
945
946
946
942
939
940
944
947
948
942
943
950
952
958
956
951
949
951
960
962
961
961
957
960
964
967
963
961
959
963
966
968
967
961
963
964
969
969
971
964
965
970
975
974
972
974
969
972
974
973
971
966
964
961
962
964
960
957
953
952
955
955
954
950
949
948
957
960
960
959
956
957
960
959
961
959
961
958
961
960
960
956
955
955
955
956
955
953
950
951
951
951
949
947
946
943
950
954
953
948
945
943
946
949
947
946
942
944
947
949
945
946
945
944
950
950
949
948
948
949
954
958
958
956
952
956
960
962
960
960
958
962
963
964
961
960
959
961
966
969
970
968
964
963
965
970
963
961
960
962
964
965
961
961
958
958
961
963
962
957
954
955
958
959
959
959
955
957
960
963
961
960
959
962
965
970
973
976
978
980
991
997
1008
1027
1051
1078
1113
1148
1182
1210
1236
1262
1287
1299
1288
1257
1213
1160
1108
1062
1028
1005
987
975
974
976
975
972
968
966
967
968
960
959
955
953
953
954
955
950
948
949
950
953
952
950
947
947
951
949
949
947
948
947
951
955
951
951
949
950
954
956
956
952
953
956
961
964
963
958
959
958
962
965
965
962
961
962
965
968
969
969
966
969
972
975
975
974
974
975
979
983
984
981
981
985
991
995
993
993
991
990
990
989
983
975
974
972
973
972
969
967
965
965
966
968
964
962
959
957
961
959
957
954
952
952
957
955
955
954
950
950
953
955
953
945
942
948
948
949
951
945
944
945
943
949
947
944
941
941
944
945
943
941
938
939
942
945
943
940
938
939
945
947
949
949
951
956
961
969
969
968
966
966
966
969
968
967
966
968
968
973
970
969
964
966
967
968
966
963
962
964
966
968
963
961
957
957
962
963
964
960
955
957
958
959
959
957
954
956
960
958
956
953
951
951
951
952
953
950
948
952
955
955
953
950
949
954
955
956
954
952
950
952
957
960
955
953
956
957
962
968
967
966
968
973
976
977
972
971
964
968
970
968
967
969
965
966
968
969
968
965
965
964
965
966
965
963
960
962
963
966
964
960
960
961
962
965
965
962
957
960
962
965
962
957
954
958
959
957
955
956
956
954
959
961
965
961
960
964
966
968
972
971
972
979
985
995
1002
1013
1032
1065
1101
1139
1178
1210
1241
1278
1318
1341
1344
1321
1278
1221
1157
1099
1047
1009
979
964
963
971
979
981
980
979
977
977
975
964
962
962
964
968
966
960
957
958
962
962
960
954
953
954
958
958
956
955
953
954
956
958
957
953
949
953
959
959
958
955
954
955
958
960
962
961
957
960
967
969
970
970
973
974
982
986
986
982
984
988
989
995
995
994
991
992
998
999
1000
998
999
1001
1004
1008
1006
1000
1000
999
1000
1000
998
992
988
986
987
987
981
976
970
971
970
970
965
959
957
959
960
961
959
954
955
952
955
953
955
951
952
952
957
960
955
952
952
953
957
961
961
959
959
964
968
971
974
972
973
976
977
985
984
979
981
981
985
991
989
987
984
984
989
990
984
985
981
980
984
985
985
982
980
980
980
985
983
979
976
976
975
978
976
973
969
965
972
973
975
971
969
971
970
971
969
967
968
968
970
971
972
969
969
972
972
975
975
973
975
981
989
995
997
1000
1016
1040
1070
1101
1135
1168
1204
1237
1273
1306
1328
1332
1318
1288
1246
1194
1131
1079
1037
1004
981
967
963
964
967
970
970
967
963
956
951
946
948
948
943
942
937
942
942
944
943
941
942
942
943
945
943
941
940
941
945
944
944
942
941
944
947
950
951
948
947
949
952
954
955
955
950
956
957
963
962
960
959
960
964
965
966
964
963
963
966
969
967
969
966
970
973
979
979
979
979
980
985
984
986
986
983
984
989
991
989
985
979
981
983
981
979
977
970
973
973
972
971
967
965
963
966
965
961
961
957
960
960
958
954
951
951
950
954
957
953
952
951
949
950
952
950
946
946
949
947
952
949
942
941
942
943
947
945
945
943
943
945
946
943
941
942
944
946
950
946
944
945
946
955
953
953
948
947
948
948
953
951
948
946
944
948
946
942
936
939
939
942
942
935
933
931
930
933
933
928
930
929
930
935
941
943
944
952
970
996
1019
1043
1067
1097
1132
1163
1195
1220
1237
1241
1234
1212
1176
1122
1069
1023
993
973
954
935
917
907
906
906
908
905
901
899
899
900
902
904
898
896
898
901
903
901
896
895
898
899
900
901
898
896
900
903
905
904
902
905
903
908
911
909
907
907
908
913
914
915
913
914
917
920
920
922
921
922
924
927
930
932
932
929
931
935
938
940
940
943
942
950
952
951
951
951
953
957
964
963
960
959
961
966
968
969
967
965
968
970
969
968
962
962
962
966
965
964
961
959
954
957
959
956
953
948
949
954
952
951
947
944
941
946
948
946
944
942
942
945
948
948
944
944
945
950
952
946
950
947
949
947
950
952
950
949
952
955
954
954
949
946
948
951
951
948
944
945
945
951
953
948
946
948
949
952
956
956
955
954
957
959
961
960
957
958
962
965
968
965
964
964
964
966
966
966
960
959
962
961
964
966
961
959
960
965
965
964
959
958
957
959
962
962
959
958
960
966
968
969
963
961
962
966
965
962
958
956
958
963
964
962
956
955
957
958
964
961
958
955
955
958
959
959
956
952
956
959
962
958
955
957
960
966
969
968
967
967
972
974
975
975
973
968
971
971
971
973
971
969
969
971
971
974
967
967
969
972
977
975
972
971
971
971
974
972
970
966
969
971
970
969
967
964
965
968
970
971
970
967
966
968
971
970
969
968
967
970
973
973
970
970
973
975
978
978
980
981
985
992
998
1001
1006
1015
1034
1063
1093
1120
1150
1183
1214
1246
1277
1306
1325
1325
1312
1284
1239
1179
1124
1080
1044
1020
1003
994
992
995
993
994
992
983
977
974
972
973
974
971
965
964
961
965
966
962
960
955
957
959
961
959
955
953
955
957
957
954
953
954
955
953
956
957
952
952
957
957
960
960
958
955
957
959
960
962
962
963
967
975
976
976
975
975
976
985
984
985
983
985
986
991
996
995
993
993
999
1005
1010
1013
1015
1014
1017
1018
1020
1018
1019
1011
1013
1011
1013
1012
1007
1003
999
1004
1003
998
995
994
994
992
991
987
981
980
981
980
981
980
975
974
975
978
975
975
967
965
970
968
969
969
966
966
966
970
974
969
969
970
971
970
975
975
973
971
971
977
979
978
977
979
981
985
988
991
987
989
988
992
993
994
990
988
989
989
991
987
984
984
984
988
991
990
988
984
987
990
990
986
982
981
980
983
982
978
976
973
973
975
975
972
970
969
972
971
973
972
971
973
973
977
978
978
974
973
976
979
979
979
975
974
979
984
986
986
986
984
983
988
988
986
984
984
983
988
987
987
985
985
985
989
990
989
988
985
986
988
990
986
984
983
979
982
986
984
979
979
979
981
983
980
978
978
981
980
984
983
981
982
986
991
995
997
998
1005
1013
1026
1050
1076
1098
1123
1153
1187
1219
1242
1262
1286
1303
1300
1280
1248
1199
1142
1101
1072
1049
1027
1010
1002
1002
1005
1002
995
987
983
980
977
978
973
971
967
969
967
967
965
962
959
960
962
966
964
961
957
958
962
964
963
959
956
963
969
970
967
962
963
966
970
971
970
968
965
966
972
974
974
972
973
976
979
984
984
983
982
985
990
994
993
993
991
999
1001
1005
1004
1000
1000
1003
1008
1011
1009
1008
1008
1006
1012
1014
1014
1011
1007
1008
1008
1010
1006
1003
999
999
1001
1001
996
991
986
986
984
986
984
982
977
978
978
979
978
973
974
975
976
978
978
974
972
974
975
977
975
973
967
972
972
973
970
967
966
966
970
973
975
973
971
974
978
979
974
972
970
972
976
979
978
977
974
977
977
976
978
975
973
974
977
980
979
976
976
978
980
981
980
979
978
977
983
983
982
981
983
983
985
985
983
979
978
977
978
978
977
972
974
976
976
980
975
973
969
970
977
977
976
972
973
973
974
979
977
976
973
979
983
988
986
986
988
986
988
990
988
982
981
983
986
986
987
983
980
978
981
988
987
985
982
983
988
991
990
987
986
985
988
993
990
987
983
983
986
986
987
983
979
982
985
988
984
982
979
977
980
981
982
975
975
973
977
980
977
974
972
970
973
976
976
976
971
974
980
980
982
980
981
980
989
997
1005
1012
1020
1036
1061
1090
1126
1158
1194
1231
1266
1299
1331
1352
1362
1358
1334
1290
1229
1162
1105
1061
1030
1012
996
989
992
999
1002
1000
993
987
981
982
982
982
977
973
970
969
972
974
972
967
965
967
967
967
966
961
960
961
965
966
966
962
961
964
966
969
966
963
965
967
969
972
968
969
969
971
972
977
976
972
975
981
984
985
983
984
983
982
988
989
989
988
988
989
993
996
992
993
993
994
998
1001
1001
996
997
998
998
998
996
993
990
987
988
990
988
985
979
981
982
983
984
978
978
977
978
975
976
972
971
972
973
973
974
970
967
967
970
972
973
970
969
972
977
981
983
977
977
976
980
980
981
978
978
979
983
985
985
979
977
981
982
980
982
977
976
979
983
984
984
981
980
982
984
988
983
982
980
982
986
982
983
978
976
977
977
981
979
974
971
971
972
975
973
969
970
970
970
970
969
965
965
965
969
970
970
972
970
973
976
975
973
970
973
974
974
976
976
973
973
973
975
976
975
967
965
969
974
975
971
973
972
973
976
977
977
974
977
979
987
995
998
1003
1017
1039
1069
1099
1129
1163
1197
1234
1264
1293
1314
1317
1304
1274
1236
1183
1120
1069
1030
1003
985
976
976
972
969
967
966
963
960
957
952
956
955
956
955
952
951
947
951
952
953
948
947
944
948
953
953
952
946
948
949
949
948
946
944
944
946
949
946
944
941
944
950
948
947
947
946
948
951
954
953
952
950
955
959
959
961
960
959
959
966
968
968
967
966
968
974
977
973
972
974
977
981
984
984
978
981
981
982
981
976
970
969
969
964
966
961
956
952
954
954
954
951
946
945
942
944
945
943
940
939
940
944
945
945
939
939
940
943
944
943
940
938
940
941
943
942
937
935
938
940
941
939
939
936
935
936
941
940
939
938
937
940
944
944
943
945
946
947
952
952
953
952
954
957
959
957
955
953
953
955
956
953
950
948
947
949
949
947
944
941
944
945
946
943
940
941
938
944
944
943
943
938
939
941
944
942
942
939
939
940
944
943
939
938
938
939
939
941
939
936
936
937
941
942
939
939
941
945
944
946
945
947
949
950
950
948
944
940
942
945
947
948
945
944
944
947
951
949
946
943
943
944
944
944
940
939
942
944
943
943
940
937
936
945
945
944
940
941
941
944
945
942
941
938
940
941
946
945
942
941
942
945
951
948
946
945
945
953
955
954
949
951
951
954
958
957
953
953
953
956
963
963
966
968
972
981
987
990
994
999
1016
1042
1069
1091
1114
1144
1179
1213
1241
1264
1284
1295
1291
1270
1239
1188
1134
1091
1062
1038
1017
998
985
979
980
978
978
967
955
950
950
953
952
950
946
943
943
943
945
941
937
934
933
938
941
938
934
931
931
931
936
935
933
935
940
943
944
947
943
941
943
945
948
947
945
946
946
951
951
952
953
952
953
960
963
964
963
960
961
970
973
973
971
973
973
979
981
982
980
983
987
992
995
994
993
992
992
993
996
992
988
984
985
985
986
984
981
978
977
977
978
972
968
965
964
965
963
961
958
957
958
961
965
965
961
964
964
970
968
970
966
964
964
967
969
966
963
965
966
969
972
970
966
963
964
968
972
968
966
963
967
970
969
968
964
961
962
966
967
963
960
959
958
965
964
963
959
961
964
969
970
970
969
966
973
973
977
973
971
970
969
973
973
972
968
965
966
970
975
977
975
970
974
977
979
979
975
974
976
975
975
972
970
971
972
978
981
978
975
970
971
971
973
969
968
964
966
967
964
963
958
959
957
960
965
964
963
961
969
972
974
974
974
972
976
979
978
981
977
979
982
988
1000
1006
1014
1032
1060
1092
1124
1162
1196
1232
1265
1292
1316
1338
1351
1347
1328
1292
1240
1174
1109
1061
1028
1009
997
992
992
989
989
981
976
972
968
965
963
962
964
963
959
957
955
956
956
955
953
951
951
955
954
952
949
950
950
952
954
955
952
953
951
956
957
958
954
956
959
960
964
968
967
965
969
971
973
973
971
969
972
977
979
979
977
974
979
986
993
996
993
990
994
997
999
997
994
995
994
996
1000
1001
994
995
998
996
995
996
992
987
990
990
988
987
980
977
977
975
975
971
967
965
967
967
966
963
957
