1020
1002
988
978
975
973
970
968
965
957
954
947
946
947
946
943
936
935
936
938
941
937
931
931
930
930
932
928
926
922
924
924
927
925
921
916
925
927
925
926
919
921
924
925
924
925
923
922
927
930
932
929
930
931
935
939
945
945
941
944
946
951
951
948
948
949
949
953
952
957
953
954
956
961
963
964
963
964
966
963
970
966
964
961
960
962
961
962
954
954
952
952
952
950
946
945
945
946
948
945
940
938
938
938
937
939
933
936
937
938
938
934
934
933
936
940
938
935
935
936
939
944
944
944
941
939
942
945
947
945
944
944
944
950
951
950
949
951
953
957
957
955
953
951
953
957
954
956
951
952
951
953
956
954
950
951
953
955
954
952
950
950
952
954
954
953
948
951
950
953
952
951
950
947
949
950
948
946
946
947
952
955
961
964
968
982
1006
1033
1062
1093
1122
1153
1182
1214
1237
1255
1248
1224
1188
1142
1092
1047
1010
983
967
961
961
963
960
959
954
951
950
945
940
935
934
937
934
934
930
925
926
927
928
925
925
921
924
925
929
926
924
923
923
927
924
923
921
923
924
926
928
930
928
928
934
936
935
934
933
933
935
939
940
941
939
942
943
949
950
953
953
956
960
963
963
962
961
963
966
968
971
967
968
967
969
971
969
968
964
963
963
966
965
962
957
954
955
955
950
948
945
945
946
947
946
943
940
940
942
947
945
946
944
944
944
948
945
943
942
941
943
946
946
947
942
944
943
947
948
948
942
942
944
946
943
944
939
939
940
942
943
941
937
938
940
942
937
938
936
938
940
945
945
944
940
939
943
946
945
943
940
940
941
945
941
942
937
937
941
944
944
939
937
939
941
943
943
941
938
939
943
945
945
944
941
941
945
948
947
947
943
946
950
954
952
951
949
951
950
953
954
948
946
947
949
955
954
952
952
956
960
968
974
983
996
1020
1048
1078
1106
1134
1161
1193
1224
1254
1269
1267
1249
1213
1170
1124
1074
1029
999
974
962
964
965
962
957
952
953
951
948
942
937
935
937
937
935
935
933
932
934
937
939
933
932
931
934
935
935
933
931
929
932
933
934
932
928
925
926
930
929
926
924
922
926
928
928
924
922
923
928
927
926
925
922
926
929
933
936
933
934
936
939
940
939
941
940
942
943
950
951
948
947
948
953
954
954
954
951
948
948
950
948
944
943
943
944
945
946
940
938
936
938
938
933
933
932
927
930
931
931
928
927
926
928
926
928
926
925
925
927
929
927
926
925
923
928
930
931
930
931
931
938
942
944
945
942
943
947
948
952
950
947
949
952
954
955
953
951
948
953
955
952
950
947
946
947
948
948
947
943
943
945
945
945
944
942
939
942
943
944
941
937
939
940
943
940
936
934
937
939
942
942
939
934
935
939
940
944
942
941
942
945
946
946
944
940
939
940
941
942
944
945
945
949
951
956
954
954
959
966
974
980
996
1015
1042
1069
1098
1123
1153
1174
1197
1217
1231
1226
1204
1169
1125
1082
1048
1022
997
976
965
959
959
955
948
939
940
935
934
934
932
928
926
928
926
927
922
921
923
923
928
932
932
930
930
932
938
941
939
936
937
937
940
941
940
937
937
940
944
945
942
937
937
938
942
942
939
936
936
939
942
940
937
935
935
937
940
941
938
936
940
942
945
945
944
943
944
948
954
953
954
950
950
953
957
958
955
950
950
950
953
953
949
944
944
945
944
946
944
943
941
945
946
949
946
942
941
944
945
944
943
940
937
940
938
939
933
929
932
935
939
936
931
931
932
933
934
937
936
932
934
939
940
940
937
936
935
938
943
946
944
944
947
950
955
956
957
956
960
968
977
981
991
1004
1029
1056
1081
1104
1128
1154
1181
1206
1229
1239
1225
1204
1170
1128
1088
1046
1018
996
982
973
972
970
964
959
952
948
947
942
940
933
932
933
934
933
929
928
930
930
932
931
930
928
929
928
931
932
929
927
927
929
932
931
929
927
927
929
930
928
928
926
926
929
932
934
932
929
931
936
939
942
942
938
939
945
952
955
955
955
954
957
962
959
958
959
958
963
963
963
960
958
954
956
958
956
954
948
950
949
949
948
945
945
944
947
950
950
946
944
940
940
946
945
944
937
937
938
941
941
938
934
932
934
937
936
936
933
933
935
937
938
937
935
936
940
943
946
950
945
946
950
951
952
949
947
946
949
948
951
950
945
947
951
952
952
951
948
947
948
949
950
950
950
948
952
956
955
955
953
951
952
954
953
952
948
948
947
950
947
946
940
936
941
942
945
939
940
938
943
947
944
948
947
948
949
952
948
949
950
950
953
951
956
957
954
957
964
967
975
979
985
997
1021
1046
1070
1092
1119
1147
1174
1203
1228
1243
1241
1221
1189
1148
1102
1056
1019
995
979
971
966
967
962
960
956
953
955
950
943
938
939
939
940
933
929
930
930
934
931
926
923
924
927
930
931
931
929
930
935
935
936
936
933
934
935
936
941
938
935
936
940
943
943
940
940
938
942
944
945
941
939
938
939
941
938
940
937
942
947
951
954
953
954
955
962
967
968
969
967
967
969
972
968
968
962
962
963
964
961
956
948
947
946
948
944
942
936
937
937
939
938
935
933
933
936
941
943
941
939
936
942
943
939
941
936
935
938
938
938
935
933
933
934
937
939
936
934
930
937
941
941
942
940
936
940
946
947
943
942
941
942
946
945
944
938
940
941
942
943
941
938
940
942
944
941
940
940
942
942
945
945
942
937
938
940
942
940
942
935
937
945
945
948
946
941
943
944
941
943
942
940
939
942
944
943
943
939
939
942
947
948
946
949
950
958
965
971
975
982
991
1011
1039
1064
1091
1120
1154
1193
1226
1260
1282
1294
1292
1271
1236
1184
1124
1070
1027
997
979
966
962
963
964
962
962
960
953
946
942
939
942
939
936
932
929
929
929
929
926
922
924
923
927
929
927
927
927
929
931
931
929
927
927
928
933
933
931
929
933
935
939
936
935
936
937
939
946
945
945
943
944
948
948
950
947
944
945
947
951
951
948
947
946
949
952
953
954
952
953
953
955
958
957
949
952
952
952
950
946
942
943
942
944
945
943
936
933
936
943
945
942
944
944
947
949
950
946
944
942
944
946
947
944
944
946
948
954
952
950
947
947
948
950
949
948
944
944
946
948
948
947
942
940
947
951
949
948
943
945
949
954
952
955
953
959
962
974
984
999
1017
1041
1070
1100
1130
1161
1193
1223
1250
1270
1274
1251
1216
1171
1119
1073
1040
1016
1000
985
978
976
973
966
959
953
949
952
949
937
935
935
935
934
933
927
924
922
921
926
923
920
918
917
918
920
920
917
914
915
918
923
918
917
916
919
922
926
925
921
919
919
924
926
930
929
927
929
934
937
936
935
934
935
938
941
944
943
942
945
950
957
958
960
959
957
964
966
966
966
961
959
964
966
966
960
958
956
960
962
958
954
951
948
948
949
948
945
942
942
943
946
943
943
936
937
937
941
939
938
937
937
943
944
944
943
942
942
943
946
943
941
939
943
945
946
946
943
941
938
944
945
946
946
944
942
946
947
949
947
943
943
945
947
942
940
941
940
941
944
941
936
933
932
936
935
935
935
934
937
939
944
944
936
936
934
937
941
940
938
934
936
937
940
939
939
935
937
939
943
941
938
934
935
940
943
942
940
936
938
938
943
944
941
938
937
938
940
942
942
938
938
940
946
946
940
943
940
941
944
946
945
943
944
947
949
947
944
946
945
947
950
951
948
948
943
948
950
949
950
949
952
953
960
959
958
955
957
959
962
961
960
954
957
959
964
965
962
962
968
975
981
985
993
1006
1028
1052
1084
1106
1136
1160
1190
1216
1241
1262
1269
1262
1241
1213
1179
1134
1090
1052
1025
1002
989
977
967
963
958
958
956
949
943
935
934
933
935
931
924
922
921
923
925
921
918
915
910
916
915
917
916
914
913
917
924
929
928
927
927
932
937
936
937
934
930
934
938
937
939
935
937
939
943
946
942
938
938
943
948
949
943
942
940
947
951
949
949
947
950
953
957
960
957
958
959
964
961
966
962
961
960
965
965
969
965
962
960
961
965
964
959
957
950
953
958
955
952
949
946
948
950
947
944
942
942
943
948
951
948
949
950
956
958
960
956
955
956
956
959
959
953
953
951
950
956
953
955
952
951
954
957
956
954
951
949
953
958
958
954
951
953
961
963
963
963
964
965
970
977
984
989
1003
1020
1045
1077
1108
1134
1157
1188
1217
1243
1259
1265
1257
1234
1202
1159
1105
1055
1022
1003
992
983
976
970
963
962
960
958
954
950
947
943
947
949
946
945
943
941
941
942
939
938
935
937
938
940
936
933
934
930
934
937
936
934
931
931
935
936
937
936
937
938
938
943
942
943
938
942
942
949
948
948
950
951
953
959
959
958
953
954
957
961
960
962
959
962
965
968
970
968
969
969
971
975
975
971
968
967
969
970
967
963
959
956
955
959
960
957
956
956
958
964
960
959
958
956
959
963
962
958
956
959
963
964
965
965
962
961
964
966
966
965
960
961
965
967
965
961
960
960
963
967
964
963
961
961
963
966
964
961
958
959
961
961
957
955
953
952
953
958
957
953
951
951
951
953
954
949
947
949
951
954
953
950
950
951
952
952
954
951
947
951
956
960
961
956
959
959
964
967
966
965
965
966
968
973
968
967
964
964
965
968
966
962
961
960
963
966
963
961
961
963
966
965
963
960
957
961
958
965
964
961
958
958
960
962
960
959
956
955
959
962
962
958
958
960
964
968
968
965
966
969
974
983
988
992
999
1015
1035
1065
1091
1117
1144
1174
1209
1236
1262
1285
1299
1295
1281
1249
1204
1150
1100
1062
1033
1012
996
984
980
983
983
984
980
975
967
963
965
969
965
961
957
957
958
959
957
953
951
950
951
951
952
948
945
943
947
948
945
946
944
946
948
950
950
948
946
947
949
952
953
950
947
947
948
952
953
950
949
950
949
950
954
952
949
949
952
954
952
951
947
946
952
951
951
952
951
955
961
964
964
963
959
963
963
968
968
966
962
967
967
970
971
968
965
966
965
971
969
967
964
964
967
968
969
963
960
963
966
965
962
959
957
958
961
960
957
955
953
955
956
962
960
954
949
951
956
959
957
955
951
950
953
955
955
954
951
955
958
963
965
964
964
964
968
968
969
967
966
963
970
971
971
967
966
964
967
968
970
968
967
969
971
974
972
973
969
970
970
972
969
967
965
963
967
969
969
967
966
965
966
966
968
967
965
961
963
964
963
961
958
960
962
964
963
960
956
958
959
958
960
958
958
958
961
965
965
965
962
963
965
968
968
963
962
961
960
964
965
962
960
960
965
967
967
968
965
964
966
967
967
963
963
961
960
965
966
964
962
966
967
970
970
972
976
982
989
1002
1012
1028
1047
1073
1099
1131
1160
1189
1211
1234
1262
1281
1290
1279
1252
1217
1176
1128
1086
1049
1023
1002
994
989
984
982
978
976
975
976
974
972
964
964
964
963
962
959
956
957
958
958
956
953
949
949
948
954
952
949
945
943
948
948
945
941
939
939
941
944
943
941
937
944
945
948
948
950
947
945
947
952
955
953
950
949
951
960
955
952
953
954
959
966
965
962
963
965
969
973
972
969
970
971
975
979
985
985
985
982
987
989
987
984
978
978
975
977
976
968
965
965
961
963
958
956
949
950
948
952
949
942
944
942
943
945
945
945
940
940
945
945
948
944
943
943
943
948
950
949
948
949
952
955
956
955
952
949
954
960
960
956
957
960
961
966
964
961
959
959
960
961
958
955
954
955
960
965
967
963
961
964
966
968
964
965
961
960
965
965
961
960
955
956
960
961
959
956
956
957
962
961
962
957
955
957
959
959
961
959
959
957
959
964
962
961
958
959
960
963
963
960
955
961
961
961
960
957
951
955
956
959
957
954
950
952
951
954
953
952
950
953
957
961
964
962
957
957
961
964
964
961
957
960
958
964
963
961
957
959
961
962
962
959
957
956
959
962
963
962
958
958
959
964
964
961
957
959
960
965
962
958
956
957
961
963
963
958
956
956
962
967
964
959
960
960
961
967
967
964
959
960
963
967
968
968
968
974
979
986
988
990
990
994
1004
1010
1014
1017
1035
1061
1088
1114
1146
1173
1202
1231
1260
1284
1296
1291
1271
1239
1198
1147
1099
1063
1035
1013
1001
998
994
989
983
982
978
976
972
965
961
959
959
960
957
955
950
950
953
956
958
952
955
956
959
958
957
955
954
954
955
954
951
949
950
950
955
956
956
953
954
956
961
965
963
966
964
964
967
971
971
969
969
969
975
975
975
975
974
974
977
981
980
977
979
983
981
985
984
982
986
983
990
993
992
991
990
992
992
992
988
984
983
979
982
982
977
974
968
965
966
967
965
963
960
962
962
968
967
966
963
966
968
971
971
968
964
964
965
970
970
968
964
965
969
971
972
965
965
964
964
969
971
967
967
967
969
970
970
969
966
967
971
974
972
967
967
967
969
969
965
964
956
956
957
958
957
959
959
959
960
963
963
962
959
961
966
971
967
965
960
964
966
969
967
967
963
967
966
968
963
965
963
965
965
969
963
963
960
962
965
965
966
964
961
963
963
968
965
967
964
963
965
966
963
963
962
960
960
960
960
957
952
954
955
959
959
956
954
954
959
964
963
960
959
959
962
963
962
960
958
961
961
967
963
962
962
961
962
962
962
961
959
959
961
965
962
961
961
956
961
965
965
965
961
965
969
971
970
968
965
960
963
964
964
960
958
958
961
966
964
963
965
966
973
977
978
978
983
990
1002
1011
1026
1044
1070
1103
1140
1176
1206
1229
1259
1289
1314
1324
1316
1284
1234
1179
1124
1079
1040
1005
980
968
973
979
984
977
974
970
968
966
965
961
957
957
960
962
961
956
955
956
956
958
955
952
950
950
953
957
954
951
950
952
956
959
958
957
954
959
962
966
963
962
959
960
964
965
966
963
963
964
968
970
971
968
965
968
975
976
975
973
970
970
974
978
976
976
975
977
979
982
981
979
979
984
982
987
985
980
978
979
979
979
975
972
968
969
969
970
965
965
961
959
962
962
962
959
958
959
964
963
964
959
958
958
957
964
964
961
958
959
959
964
962
957
958
958
961
964
962
963
958
962
961
962
963
963
960
957
965
964
966
960
958
960
963
965
965
963
961
963
965
968
966
963
958
958
958
963
961
961
957
957
961
965
964
961
963
965
967
969
969
967
963
965
966
971
969
966
965
968
968
971
972
968
967
967
967
971
970
966
966
969
968
970
970
963
964
963
965
968
964
963
961
960
963
967
964
962
960
959
962
963
965
964
960
965
968
971
973
969
968
968
971
974
974
971
970
973
977
983
986
988
990
998
1019
1044
1071
1098
1127
1159
1199
1231
1261
1285
1300
1298
1278
1247
1191
1133
1081
1043
1016
998
982
979
977
975
977
974
971
965
958
956
958
960
954
948
947
946
947
947
949
944
943
949
951
957
957
958
954
957
953
953
955
950
948
950
949
953
954
951
950
951
954
958
959
960
960
963
965
969
968
966
966
967
970
972
974
970
970
974
976
979
980
979
979
979
982
984
983
980
981
985
988
990
988
984
982
983
981
983
979
973
968
967
968
971
968
963
957
959
960
961
957
955
950
948
953
953
954
948
952
954
957
959
960
957
953
953
955
957
955
952
951
952
958
959
960
957
952
955
960
961
957
957
956
953
960
961
961
960
961
962
967
969
965
965
964
962
965
966
964
963
959
962
962
963
961
959
956
956
958
956
960
954
958
961
965
967
967
962
964
963
968
966
967
966
963
965
967
968
966
966
966
959
963
964
965
965
960
966
965
969
966
965
963
964
968
968
967
962
962
961
964
968
966
964
961
962
965
965
966
965
960
961
962
965
964
964
963
963
967
968
966
965
963
963
965
967
966
964
963
965
968
971
972
975
967
969
973
978
979
978
978
977
981
981
982
979
976
978
978
983
980
979
977
978
982
983
982
981
982
983
987
990
992
995
996
1002
1019
1043
1064
1086
1112
1146
1180
1213
1245
1268
1281
1282
1268
1238
1191
1139
1094
1061
1038
1024
1009
1001
997
1000
1000
999
994
988
982
978
980
981
976
973
971
973
972
974
974
970
966
964
967
970
965
962
959
960
963
964
959
957
957
960
961
960
959
954
956
954
957
954
954
953
953
956
956
961
963
965
967
972
976
982
983
985
984
988
991
994
994
993
989
994
999
1004
1003
1000
996
1000
1003
1005
1007
1001
996
997
1000
997
995
990
981
981
980
980
979
973
967
969
967
967
967
961
956
957
959
958
955
951
950
950
953
953
958
954
954
956
961
968
969
969
970
973
979
980
979
978
971
975
978
980
978
976
974
975
974
976
974
973
969
974
974
977
975
970
968
967
972
973
969
967
965
965
969
970
969
964
961
961
