970
968
969
974
974
972
970
971
975
980
981
977
975
976
977
979
979
978
976
976
977
977
980
976
973
973
975
976
973
975
972
972
977
975
978
975
973
972
972
976
976
974
972
975
975
979
978
974
973
969
968
973
971
971
970
967
970
977
977
980
977
976
974
979
980
980
975
977
983
986
986
983
978
980
982
984
984
980
977
975
977
979
980
978
974
972
975
978
978
977
973
975
974
975
978
977
972
975
978
979
977
974
972
972
975
975
976
976
975
975
977
985
993
993
999
1005
1014
1038
1064
1091
1116
1150
1187
1223
1257
1286
1309
1319
1313
1286
1245
1189
1135
1088
1056
1033
1018
1007
1003
1001
1000
1001
996
991
986
982
979
978
979
975
973
972
973
975
976
973
972
969
971
973
972
970
966
963
963
968
966
964
960
960
963
966
965
965
958
961
965
967
970
969
968
970
975
979
983
983
978
979
980
988
988
987
988
988
990
993
996
998
1000
1003
1010
1015
1018
1017
1015
1018
1022
1023
1021
1017
1013
1013
1013
1010
1008
1003
998
994
994
992
988
984
980
975
975
974
976
973
968
967
966
967
968
966
965
963
964
968
968
967
963
965
968
966
968
968
967
964
967
968
969
970
964
967
966
970
969
970
966
969
971
972
978
979
978
979
982
984
986
984
983
983
983
985
983
983
979
981
982
983
981
981
978
980
979
986
985
984
979
982
984
984
984
981
976
976
977
979
980
975
973
970
971
978
977
976
975
973
972
975
975
973
970
967
968
970
969
967
964
963
965
966
967
967
966
967
970
975
975
969
968
968
968
967
970
966
961
965
970
972
972
971
968
970
970
971
973
975
971
971
973
976
977
977
973
974
974
979
978
977
975
973
975
977
981
978
975
973
972
974
974
974
970
968
973
974
974
974
971
969
974
975
975
975
974
972
976
984
993
996
1001
1009
1027
1049
1072
1101
1128
1160
1196
1230
1256
1283
1301
1306
1297
1267
1220
1165
1107
1065
1037
1017
1004
994
992
993
991
989
981
978
972
970
968
972
972
968
963
960
960
962
966
960
957
955
958
960
959
956
955
955
955
957
958
954
950
950
956
960
958
959
957
955
966
973
975
975
976
979
982
987
989
988
990
988
990
997
999
997
995
996
999
1003
1005
1005
1004
1003
1004
1009
1010
1012
1012
1013
1016
1019
1019
1014
1007
1006
1006
1005
1003
998
990
987
984
984
983
977
973
970
969
971
969
964
961
961
964
965
966
964
965
965
966
967
968
966
962
964
967
971
968
969
964
963
963
970
972
968
968
968
971
972
974
973
971
973
975
976
977
974
968
971
971
971
970
967
963
962
964
968
971
968
966
965
967
968
968
966
966
964
967
970
971
971
969
971
974
974
974
975
971
972
973
976
977
974
971
970
972
973
975
973
969
968
968
972
976
976
974
977
984
988
993
991
991
994
999
1003
1007
1007
1010
1016
1028
1054
1081
1105
1132
1164
1198
1233
1264
1290
1313
1319
1308
1272
1214
1151
1095
1052
1020
996
977
977
979
985
988
987
984
977
971
970
968
970
966
964
962
962
962
963
961
960
956
952
955
956
958
958
954
954
955
961
963
965
965
961
965
968
968
967
963
963
964
969
969
969
965
964
966
971
970
969
969
967
969
974
976
979
979
980
984
989
992
990
992
995
997
1000
1006
1004
1000
1000
1003
1008
1007
1004
1001
1001
997
999
996
992
989
985
982
984
979
978
972
973
972
974
975
970
966
966
970
971
970
969
966
963
963
963
961
963
959
956
954
960
956
957
955
956
959
961
962
960
957
958
958
964
964
964
963
965
970
970
969
972
967
963
967
970
970
968
964
965
965
969
968
962
956
960
965
968
970
968
964
963
965
965
965
961
956
956
959
959
958
959
958
960
963
965
963
960
954
953
957
956
955
957
954
953
954
957
959
958
955
956
958
962
960
961
960
962
966
969
967
964
958
958
959
963
965
961
960
957
960
961
965
962
959
959
963
969
969
970
966
965
966
970
968
963
962
960
963
963
961
959
956
958
960
959
958
957
956
953
956
956
959
955
955
951
957
962
964
966
962
961
964
969
969
965
967
969
972
979
978
978
970
969
970
971
971
970
966
966
968
967
966
968
968
966
965
968
967
969
964
964
965
966
967
967
965
960
962
963
961
964
959
957
961
961
959
961
957
957
962
959
964
959
958
957
956
962
966
964
964
964
970
975
980
988
990
999
1014
1040
1069
1098
1128
1164
1199
1234
1269
1301
1320
1325
1306
1273
1226
1174
1122
1081
1047
1026
1006
996
990
988
992
992
988
979
971
968
965
967
966
961
957
956
956
956
957
954
951
948
949
951
954
951
945
945
946
949
947
947
945
941
945
947
949
947
946
948
951
952
956
957
956
960
964
969
972
973
970
967
973
974
978
973
977
976
980
989
991
992
995
995
997
1002
1001
1002
1003
1001
1004
1009
1009
1007
1004
1002
1005
1006
1007
1003
997
994
992
996
992
988
982
978
977
979
977
973
969
963
964
967
968
966
964
960
961
965
966
964
962
961
963
967
969
966
961
963
963
968
968
967
964
962
962
966
968
965
963
961
965
970
970
970
968
968
974
975
975
974
971
969
970
973
975
971
968
966
966
969
967
969
963
963
963
966
966
963
959
956
962
959
959
960
960
958
962
965
968
965
965
965
968
972
973
967
969
967
970
973
975
974
971
977
986
992
996
999
1008
1024
1049
1072
1095
1116
1143
1170
1204
1232
1256
1273
1274
1265
1244
1212
1161
1108
1068
1039
1020
1006
996
988
982
981
980
978
972
963
958
955
956
955
951
947
945
943
945
946
944
943
939
939
939
943
942
939
940
938
940
942
945
944
941
939
941
945
946
944
940
939
944
948
947
945
943
946
952
957
958
956
957
958
962
966
965
966
965
964
969
971
973
973
973
974
975
978
979
979
978
979
982
987
986
989
986
983
986
983
985
982
979
974
974
972
972
968
963
962
963
963
962
960
959
956
956
959
957
953
951
949
949
951
947
947
946
945
945
948
948
947
946
947
953
956
957
955
952
951
953
958
959
951
950
947
951
955
955
952
950
949
950
954
956
956
951
950
949
952
952
950
947
947
950
953
953
951
949
950
954
955
954
952
950
955
960
961
960
958
953
955
956
958
957
955
952
950
952
958
960
957
955
956
960
962
963
961
957
956
958
959
959
956
954
953
955
960
960
958
954
953
957
960
959
956
955
953
955
959
960
957
955
958
961
964
965
962
963
966
966
975
978
980
984
1000
1025
1054
1083
1111
1142
1172
1205
1240
1270
1293
1302
1292
1267
1234
1179
1117
1066
1026
997
980
967
968
968
968
967
967
962
956
950
949
949
951
948
946
943
942
942
947
946
943
940
941
943
947
949
946
942
941
944
946
948
949
946
947
950
953
952
951
950
950
952
953
956
957
955
957
960
958
960
958
955
954
958
960
960
960
954
958
961
966
969
965
963
964
967
973
977
976
973
975
980
985
984
989
989
994
995
996
996
993
987
988
989
990
988
986
982
981
980
978
976
974
970
971
970
969
966
965
961
961
964
966
966
964
963
962
964
963
962
957
957
957
956
958
955
955
953
952
954
956
957
954
951
951
956
956
958
955
951
952
954
959
959
959
957
960
964
974
976
977
982
989
1002
1014
1029
1047
1070
1098
1130
1159
1190
1217
1244
1271
1291
1306
1304
1285
1250
1210
1163
1117
1075
1041
1019
1003
990
986
982
979
974
967
963
961
956
954
948
943
943
942
942
938
931
932
931
934
935
930
926
925
926
931
932
929
925
924
927
934
934
934
933
935
936
940
938
937
936
936
939
944
945
944
945
947
951
953
957
957
954
956
957
962
959
960
962
963
966
969
967
964
966
967
970
974
971
971
969
971
972
973
975
972
971
970
970
970
970
965
963
960
961
961
959
956
952
950
952
954
952
949
947
948
948
950
951
949
947
951
953
957
960
958
958
957
959
962
962
959
959
957
961
964
966
960
961
957
960
964
962
963
959
955
959
960
961
959
954
957
955
960
960
953
951
952
955
958
958
955
950
951
951
952
955
953
950
951
950
953
954
951
947
944
946
950
955
951
953
951
953
956
957
955
951
951
953
956
954
952
952
955
960
963
963
960
957
956
955
957
958
956
952
952
954
954
955
952
947
949
948
954
955
951
949
950
952
954
955
952
952
951
954
957
957
955
951
951
953
957
957
957
953
950
956
957
962
961
962
964
968
973
977
979
982
990
1009
1034
1058
1083
1107
1140
1174
1205
1235
1260
1278
1284
1275
1254
1223
1172
1116
1067
1036
1012
992
981
974
975
976
974
970
964
955
948
949
949
947
941
939
937
939
941
942
942
939
941
941
944
944
940
938
937
940
942
942
942
943
943
946
951
950
950
945
946
948
949
948
948
945
945
947
950
948
945
945
946
946
949
953
948
949
947
948
955
956
954
953
954
959
964
965
963
960
962
969
972
973
972
973
973
977
979
981
976
972
972
976
975
974
968
964
963
964
966
962
959
957
956
956
960
959
957
955
957
955
957
956
953
950
949
950
950
953
948
943
944
948
951
950
947
945
943
946
948
950
947
941
943
948
954
955
954
952
956
958
962
962
959
956
961
963
966
964
963
961
959
968
970
968
966
964
959
964
966
967
965
963
963
965
969
971
969
969
974
978
985
991
995
1004
1020
1039
1063
1084
1103
1121
1149
1182
1210
1232
1245
1249
1239
1217
1181
1134
1083
1043
1017
1003
993
983
972
969
965
964
962
956
948
942
940
942
940
938
931
931
930
930
935
933
929
927
929
929
929
928
930
928
928
933
936
939
938
934
935
936
936
937
933
934
936
939
943
943
943
938
940
941
947
945
945
940
942
947
951
953
949
949
949
953
958
958
957
954
959
963
968
975
976
977
975
975
976
976
974
970
964
964
968
967
961
959
957
959
958
956
952
949
948
949
953
952
948
946
946
945
950
949
948
945
942
944
948
948
944
942
942
942
946
945
945
943
942
943
943
944
944
941
940
938
940
941
939
936
938
940
950
952
950
947
945
948
950
950
947
947
943
947
948
950
946
946
944
948
951
948
948
946
946
950
951
950
950
945
942
946
948
948
944
942
942
943
946
947
946
942
942
943
947
945
943
937
943
941
948
946
945
941
940
941
948
952
953
956
963
966
972
972
970
973
975
984
990
996
1002
1019
1043
1071
1102
1134
1165
1193
1222
1254
1277
1286
1270
1237
1191
1140
1087
1045
1013
986
973
969
974
973
964
960
950
946
947
943
937
933
931
932
930
928
925
920
921
924
927
926
927
927
927
934
941
942
943
940
939
942
948
948
948
944
945
948
950
952
950
949
951
952
954
954
954
953
953
957
962
964
961
961
959
963
968
966
967
965
965
969
970
970
969
968
967
969
972
974
973
969
970
972
972
973
973
969
967
972
970
973
967
965
962
966
969
967
963
962
962
961
964
964
961
956
958
957
959
958
958
956
954
953
956
956
951
949
948
948
950
950
945
939
939
942
943
944
941
938
937
940
940
941
938
936
938
939
943
943
940
940
940
939
943
947
949
945
953
954
958
960
956
956
957
961
965
968
964
957
958
961
961
963
961
958
958
959
961
960
959
956
954
957
960
959
954
952
953
956
960
959
956
952
952
955
962
958
955
953
953
954
958
958
953
953
955
961
967
973
973
976
983
995
1017
1044
1072
1105
1139
1178
1215
1250
1281
1302
1303
1290
1252
1203
1140
1081
1032
1001
979
967
964
964
969
969
969
961
955
954
945
949
949
948
942
944
940
943
946
947
943
939
940
942
947
945
944
943
939
943
946
945
942
940
943
942
945
945
942
941
943
944
950
947
947
947
948
950
954
951
952
950
952
956
960
960
960
959
962
964
967
967
969
968
970
972
975
976
975
974
975
973
978
977
973
972
972
972
972
971
968
962
957
960
963
958
959
954
952
953
953
953
951
948
948
950
955
953
951
948
943
946
949
951
949
945
948
950
952
951
950
950
950
954
953
956
955
953
952
958
961
961
958
953
954
957
961
960
957
955
957
957
958
961
960
958
960
961
959
959
959
955
955
955
958
958
957
954
952
952
954
955
952
949
949
954
956
954
953
955
953
956
958
954
953
951
950
951
954
951
949
946
946
948
950
952
949
946
946
946
950
950
946
944
945
946
952
953
953
952
951
951
957
958
951
951
949
952
956
953
952
947
947
946
951
949
946
943
945
946
951
949
949
946
949
951
955
953
951
947
950
950
955
954
953
950
951
953
955
955
952
951
952
954
958
959
959
956
958
965
970
970
975
980
989
1001
1021
1045
1070
1097
1131
1169
1205
1233
1262
1284
1300
1295
1278
1240
1185
1131
1084
1047
1018
991
975
972
973
977
975
969
962
957
953
952
952
948
945
943
941
942
943
941
938
937
935
937
939
939
940
936
935
939
940
937
938
937
937
941
946
945
946
943
943
945
950
951
951
951
952
956
958
961
958
958
955
960
964
965
964
961
961
964
969
968
969
968
967
973
976
977
979
975
974
982
983
983
981
981
980
981
986
982
979
976
973
974
978
975
971
966
961
961
966
965
961
957
954
959
960
962
958
956
957
960
962
962
958
955
953
956
957
958
955
954
956
955
959
958
955
952
952
956
960
958
956
955
954
957
962
961
961
956
956
956
962
962
959
956
958
962
969
967
963
962
960
959
965
964
963
961
964
968
971
969
968
965
964
966
971
972
968
963
963
967
966
967
964
961
957
963
963
963
958
958
958
960
962
962
962
958
957
959
964
962
958
952
954
956
960
958
957
955
955
958
961
962
962
963
965
969
976
981
981
987
1000
1022
1053
1084
1112
1139
1173
1207
1239
1266
1285
1299
1295
1275
1246
1200
1145
1091
1052
1022
1006
992
983
979
979
976
975
967
961
952
953
955
957
953
950
947
943
946
949
946
942
941
938
940
942
941
936
935
933
937
941
940
939
935
936
938
944
943
943
944
947
949
958
956
956
956
955
956
960
960
961
960
962
967
969
968
966
963
964
967
972
969
970
973
972
977
978
978
979
977
978
983
984
980
980
976
974
975
976
974
968
965
962
963
965
960
954
953
951
952
954
949
947
943
945
946
953
951
951
946
951
953
956
957
952
951
952
954
956
954
953
947
951
954
956
956
951
949
952
954
955
952
948
946
944
947
950
949
944
949
946
950
950
947
950
949
947
951
955
954
949
947
945
945
952
947
944
941
942
946
948
947
945
944
946
949
954
953
952
952
955
960
966
964
960
959
958
965
966
963
962
959
958
959
962
962
955
953
954
955
958
956
953
952
954
955
955
954
953
951
948
952
952
951
948
946
947
950
954
950
947
944
942
945
945
943
940
940
939
945
948
945
943
940
943
947
954
957
954
953
957
960
963
963
962
960
962
963
963
961
959
958
959
962
966
963
959
955
956
963
963
962
960
958
959
960
963
960
960
956
955
956
957
958
956
952
955
956
958
957
954
949
953
950
954
954
950
950
950
955
960
961
959
957
958
963
964
965
962
960
962
966
967
966
964
960
960
961
966
965
960
963
963
966
969
968
965
964
963
968
973
974
970
969
972
978
985
990
990
993
1002
1020
1045
1068
1095
1123
1153
1188
1221
1246
1274
1290
1302
1299
1279
1240
1188
1134
1089
1054
1024
998
981
971
971
979
983
981
974
967
964
967
967
963
961
957
957
958
957
956
956
950
953
954
955
954
951
949
947
948
953
953
950
947
945
950
950
949
949
948
945
951
955
954
952
956
955
959
967
970
967
969
970
974
978
976
976
973
973
977
982
981
981
980
978
981
985
984
985
983
986
988
992
991
990
992
993
998
1003
1002
998
997
997
997
999
998
994
989
989
986
988
986
978
974
973
975
974
969
969
966
964
966
966
962
958
957
958
960
964
965
965
964
963
965
968
966
966
962
962
964
972
970
970
964
966
967
971
969
966
962
965
967
969
969
965
963
963
967
969
968
965
963
964
967
969
968
968
964
963
965
969
971
967
965
965
971
974
972
971
969
968
970
972
974
973
971
972
974
978
977
978
978
979
982
983
984
981
975
977
977
978
976
973
972
973
976
976
977
975
972
971
972
974
975
974
970
970
971
972
971
968
965
962
964
965
962
961
957
956
958
959
960
955
951
952
954
958
957
954
954
953
957
957
958
955
955
957
961
963
964
964
962
968
971
974
974
969
970
967
971
974
975
975
971
973
976
973
975
975
968
969
970
974
972
969
966
969
969
972
967
967
965
964
966
967
964
963
960
959
963
967
965
959
960
961
962
966
964
957
954
953
956
960
958
955
956
958
961
965
966
967
963
967
970
973
974
972
971
971
976
981
981
978
973
973
975
978
978
976
972
969
972
977
979
973
969
969
971
971
971
967
966
967
968
971
969
966
962
965
966
969
964
967
964
968
968
973
969
968
963
962
964
963
965
963
961
960
964
966
967
965
964
967
971
974
978
974
973
974
977
976
974
976
973
974
979
978
981
977
973
975
978
978
975
974
