993
993
990
987
988
988
992
990
987
982
983
988
989
989
987
985
978
983
987
980
981
979
981
983
987
985
983
979
980
981
986
986
983
981
983
989
999
1003
1009
1014
1029
1054
1080
1109
1135
1168
1204
1239
1270
1298
1316
1321
1308
1280
1238
1186
1133
1094
1066
1044
1027
1017
1014
1015
1012
1011
1006
1001
996
991
988
990
987
981
979
973
976
976
974
971
968
967
965
965
968
965
961
959
961
963
967
965
964
965
963
966
968
971
972
975
978
983
985
986
983
983
984
985
990
986
984
984
989
993
995
994
991
989
989
994
997
1000
994
995
992
998
1001
1003
1001
1000
1001
1005
1006
1009
1006
1000
1002
1003
1003
1001
1001
996
995
998
998
995
992
988
987
988
993
989
988
986
986
990
990
990
985
983
985
991
995
990
989
988
989
991
993
991
987
988
994
993
998
995
992
989
989
994
993
994
993
994
996
1004
1012
1014
1022
1031
1056
1089
1123
1154
1180
1207
1237
1272
1292
1301
1289
1259
1220
1171
1123
1073
1038
1023
1013
1005
1004
1002
1001
994
989
987
985
986
982
978
980
983
979
978
974
971
973
973
972
972
970
968
970
970
972
973
966
967
969
968
970
967
969
966
966
968
970
970
968
966
965
970
971
972
973
972
975
974
979
979
976
980
981
983
987
988
989
987
990
995
999
1005
1002
1004
1007
1013
1018
1020
1017
1015
1014
1018
1020
1020
1014
1010
1010
1010
1012
1007
999
996
995
999
1000
998
995
991
990
987
985
989
985
980
980
984
988
986
982
982
984
980
986
985
983
985
987
990
994
992
991
988
989
989
990
989
988
986
986
987
990
987
983
982
984
987
988
983
984
982
985
989
993
992
992
992
991
989
995
995
991
989
988
994
997
994
990
993
994
1002
1008
1012
1017
1033
1055
1083
1112
1140
1169
1201
1230
1259
1286
1301
1294
1264
1219
1170
1117
1070
1036
1011
998
992
1000
1006
999
992
987
987
986
982
978
978
976
974
977
975
971
966
968
973
978
977
975
974
974
975
971
972
967
965
967
971
973
970
967
967
969
969
974
972
971
968
970
977
979
980
976
976
976
978
987
986
983
984
986
990
991
990
990
992
991
996
1000
1000
1000
999
1001
1002
1003
1002
1004
1002
1002
1002
1005
1003
1000
996
994
994
995
990
987
983
985
987
987
985
980
978
979
978
980
981
976
975
977
979
980
981
977
973
977
982
983
984
981
980
977
983
984
984
982
983
984
988
991
992
990
986
987
992
993
993
992
990
992
996
996
996
993
990
990
994
992
992
994
991
992
992
995
993
986
983
983
987
986
984
985
984
982
988
990
988
987
986
988
989
993
991
991
986
988
993
990
988
985
983
987
987
991
988
986
984
986
987
990
989
986
987
991
992
996
996
993
990
992
993
995
995
992
990
992
992
991
993
990
986
986
989
994
993
991
987
987
989
995
991
992
991
990
995
999
997
994
996
997
1001
1006
1007
1000
1001
1006
1007
1008
1009
1009
1010
1013
1019
1030
1035
1039
1051
1070
1099
1130
1161
1192
1225
1257
1289
1318
1335
1337
1310
1273
1226
1169
1113
1071
1040
1019
1007
1006
1009
1007
1004
1001
998
996
993
987
980
983
984
985
984
980
977
981
983
984
984
980
983
979
981
985
982
978
978
978
978
981
978
978
975
980
980
983
981
977
977
980
981
982
983
980
978
979
979
983
981
980
978
977
978
982
982
980
982
982
986
987
988
985
987
991
992
995
994
990
994
996
999
1004
1007
1004
1002
1007
1010
1013
1011
1009
1005
1002
1004
1006
1002
998
995
994
993
992
991
988
987
987
990
991
991
986
986
985
988
990
986
986
984
985
985
989
988
986
986
988
991
994
993
989
991
992
994
998
999
998
995
994
1001
1003
1000
997
994
999
999
1003
1004
1002
1004
1005
1009
1015
1011
1007
1004
1008
1008
1009
1006
1002
1002
1002
1006
1002
1002
998
999
999
1003
1005
1000
998
997
999
999
997
997
992
993
992
995
998
997
992
992
993
994
996
995
990
989
990
995
996
995
992
989
990
995
996
997
994
992
990
993
995
993
994
989
988
990
994
991
993
991
991
997
1001
997
995
996
996
998
999
995
995
994
993
996
998
1000
995
992
993
995
995
995
992
990
985
986
991
993
992
991
992
995
995
995
994
993
992
990
997
997
996
994
992
993
996
997
991
995
993
997
999
999
994
994
996
1000
1000
1006
1002
1005
1006
1010
1009
1010
1007
1010
1012
1012
1015
1015
1011
1009
1010
1015
1015
1017
1015
1016
1019
1022
1025
1027
1028
1029
1035
1043
1058
1073
1098
1119
1145
1174
1205
1233
1257
1279
1302
1322
1330
1320
1293
1254
1209
1162
1123
1087
1057
1035
1021
1018
1020
1020
1016
1012
1011
1012
1011
1008
1004
1000
1001
1001
1002
1001
999
996
998
998
1002
999
996
996
996
999
1002
1001
997
995
998
999
1001
1001
999
992
994
998
999
999
996
994
998
999
1003
999
999
996
998
1000
1002
1000
1001
998
999
1003
1006
1003
1002
1002
1002
1005
1011
1009
1009
1006
1010
1010
1013
1015
1010
1007
1005
1012
1019
1015
1018
1014
1016
1019
1020
1022
1019
1019
1018
1021
1020
1020
1019
1016
1016
1015
1014
1012
1010
1007
1005
1006
1006
1004
1000
998
998
1003
1003
1002
996
997
997
1000
1003
998
996
992
992
998
996
994
990
990
992
996
998
999
996
997
995
998
1004
1003
998
998
998
1002
1005
1003
999
1001
1001
1002
1004
1001
997
998
1000
1002
1007
1004
998
996
997
998
1003
1003
999
997
999
1004
1005
1007
1000
999
999
1002
1006
1005
1001
1000
1000
1001
1003
1003
995
997
998
1002
1004
1005
999
996
998
997
1001
1002
1000
999
999
1004
1004
1004
1003
1001
1000
1003
1005
1003
1000
1001
1001
1008
1008
1009
1004
1003
1004
1005
1006
1006
1003
1001
1001
1004
1006
1005
1001
1000
1003
1006
1011
1010
1004
1002
1005
1008
1011
1010
1007
1011
1011
1013
1014
1011
1009
1009
1010
1013
1014
1017
1013
1012
1018
1024
1031
1033
1034
1039
1051
1076
1102
1126
1149
1173
1203
1236
1266
1286
1301
1313
1324
1318
1297
1260
1211
1158
1118
1091
1070
1052
1037
1029
1027
1029
1027
1020
1011
1005
999
999
1003
998
996
994
995
999
1000
998
995
995
994
997
999
999
995
993
993
997
993
996
992
992
995
996
997
995
994
993
994
995
997
995
994
990
994
992
999
998
996
997
999
1000
1001
1001
1001
1002
1006
1009
1012
1011
1008
1007
1007
1012
1014
1015
1012
1014
1015
1019
1022
1019
1018
1017
1022
1027
1028
1027
1024
1021
1023
1026
1029
1025
1019
1015
1014
1017
1016
1013
1008
1005
1005
1006
1006
1004
1000
999
996
1002
1004
1002
995
991
995
997
1003
999
999
997
997
999
1003
997
995
995
995
996
1000
997
993
991
991
995
999
995
992
990
987
993
993
996
993
992
992
995
997
999
997
994
995
1002
1004
1002
1000
998
1000
1003
1003
1001
1002
1000
999
1004
1004
1003
999
998
999
1001
1004
1003
1000
997
998
1005
1005
1004
1003
1004
1002
1007
1009
1007
1006
1003
1006
1010
1013
1011
1009
1004
1004
1007
1009
1007
1003
998
998
1004
1004
1003
1002
1002
1003
1005
1009
1009
1008
1007
1010
1014
1015
1014
1010
1009
1008
1009
1009
1010
1006
1006
1006
1009
1011
1009
1005
1003
1005
1006
1012
1010
1008
1006
1008
1008
1010
1009
1006
1004
1006
1007
1010
1007
1008
1006
1007
1008
1009
1008
1004
1000
999
1005
1003
1004
1000
999
1001
1004
1004
1001
1001
1002
1004
1010
1014
1011
1013
1010
1014
1020
1024
1026
1026
1031
1039
1050
1061
1078
1099
1129
1158
1193
1226
1254
1279
1303
1330
1353
1358
1345
1316
1274
1223
1167
1124
1087
1055
1030
1024
1025
1028
1031
1029
1022
1017
1015
1011
1008
1001
997
997
997
999
998
994
991
992
992
998
994
993
990
994
996
997
997
997
996
999
1003
1005
1006
1005
1004
1004
1007
1011
1012
1009
1011
1012
1015
1017
1017
1014
1011
1016
1015
1020
1019
1013
1011
1014
1017
1020
1018
1017
1015
1018
1019
1025
1022
1019
1014
1015
1020
1021
1023
1018
1020
1020
1022
1023
1024
1020
1018
1021
1022
1024
1022
1017
1016
1016
1016
1020
1016
1014
1012
1010
1013
1017
1016
1015
1014
1009
1011
1011
1008
1004
1006
1005
1011
1011
1010
1007
1004
1005
1005
1006
1007
1002
998
1001
1000
1001
999
995
992
990
997
997
995
994
991
990
997
999
999
992
993
997
1002
1005
1002
1002
999
1003
1008
1009
1011
1006
1008
1009
1009
1012
1009
1010
1007
1010
1013
1018
1015
1013
1010
1011
1013
1018
1016
1011
1010
1009
1010
1011
1011
1008
1005
1004
1006
1009
1008
1004
1003
1005
1007
1008
1006
1001
1003
1004
1007
1006
1003
997
998
1000
1006
1005
1006
1007
1008
1014
1022
1032
1041
1058
1081
1113
1144
1177
1210
1241
1274
1307
1338
1357
1359
1341
1306
1263
1205
1155
1105
1062
1033
1016
1018
1020
1022
1015
1013
1011
1011
1005
1001
999
995
993
994
997
994
988
990
993
993
994
989
987
987
986
990
990
989
989
987
988
992
991
991
992
990
991
995
998
996
995
993
995
997
998
1001
997
997
1003
1005
1007
1009
1006
1005
1005
1007
1008
1007
1007
1006
1005
1009
1012
1011
1010
1009
1013
1015
1017
1016
1016
1013
1011
1014
1016
1014
1010
1006
1006
1006
1004
1000
997
994
995
996
995
993
988
985
983
986
986
983
980
984
984
985
986
984
984
981
984
983
987
987
987
984
985
985
985
984
982
980
978
981
985
980
977
975
977
979
981
980
979
977
979
982
984
984
985
985
985
990
991
992
988
988
988
990
993
990
988
989
988
993
992
990
985
987
989
991
994
993
988
989
991
992
991
992
990
988
990
992
993
992
985
985
984
985
987
986
986
984
985
986
989
989
986
981
987
990
990
988
984
983
983
984
988
985
984
984
989
994
997
998
992
991
992
992
993
994
992
988
989
992
994
995
991
987
988
991
994
987
987
988
988
992
993
989
990
986
984
983
986
987
984
983
982
983
988
988
981
979
981
984
986
987
985
982
983
986
989
989
985
983
984
987
992
992
987
984
984
987
990
993
989
988
990
997
1000
999
996
997
997
1000
1004
1004
1003
1002
999
1002
1001
998
996
994
993
1000
1001
998
992
994
997
1000
1002
1003
998
1002
1006
1017
1022
1025
1034
1048
1075
1105
1137
1167
1199
1227
1257
1289
1316
1325
1316
1290
1250
1205
1149
1101
1063
1036
1019
1015
1015
1014
1011
1006
1002
996
996
993
992
991
991
992
995
993
990
989
988
987
989
986
985
980
981
982
983
981
974
975
976
976
978
980
975
972
975
975
975
975
976
975
976
978
977
979
979
976
977
981
982
982
982
980
981
987
989
989
986
987
990
996
999
1002
1000
999
1000
1002
1010
1007
1010
1009
1013
1016
1020
1021
1017
1017
1017
1016
1020
1018
1011
1008
1008
1005
1004
1001
997
993
990
994
994
991
991
986
989
990
992
991
988
984
984
986
988
989
985
981
980
984
986
985
983
981
980
983
986
983
980
979
981
983
985
983
980
980
981
983
985
985
985
985
990
996
999
998
995
992
997
995
1003
1002
1000
999
1004
1007
1012
1014
1012
1022
1028
1046
1067
1088
1110
1134
1160
1192
1225
1251
1268
1281
1289
1284
1263
1222
1173
1117
1075
1051
1040
1027
1011
999
993
995
992
988
978
975
972
973
973
973
969
969
970
972
973
975
973
971
971
974
975
970
968
965
971
973
975
973
970
969
970
975
977
975
975
973
978
979
986
982
978
981
984
987
989
987
987
986
987
994
994
995
995
995
998
1002
1003
1002
1002
1002
1004
1004
1006
1006
1003
1004
1007
1010
1013
1009
1006
1009
1010
1007
1011
1008
1006
998
998
995
995
992
985
983
982
984
984
981
979
975
977
976
980
980
973
973
975
976
976
978
976
972
973
974
975
973
972
970
970
971
972
971
970
969
969
971
972
971
969
969
970
973
976
972
973
972
976
980
983
981
980
978
977
982
983
981
980
979
980
984
988
987
986
986
987
990
992
989
985
986
987
989
990
986
984
984
982
987
989
986
985
983
987
990
990
990
984
981
981
983
984
981
981
980
983
985
987
986
982
981
982
984
986
986
984
982
983
989
995
997
999
1003
1012
1021
1028
1039
1059
1085
1116
1148
1187
1221
1256
1289
1321
1348
1358
1342
1302
1251
1189
1132
1083
1041
1013
993
991
994
1000
997
990
983
984
982
982
975
973
971
970
974
974
970
966
964
964
966
967
962
957
958
955
958
957
957
955
953
954
957
958
956
956
952
959
963
963
967
965
968
972
978
978
977
973
976
980
981
983
984
982
982
986
985
989
987
986
988
990
995
994
999
996
995
994
1000
1001
1002
1000
999
1000
1002
1002
999
994
989
988
990
993
990
985
983
982
982
982
980
977
974
971
972
974
975
972
972
971
976
976
976
973
969
972
975
978
978
977
977
979
980
984
983
978
976
978
980
982
981
980
979
980
982
984
982
979
978
979
981
984
981
979
975
979
982
985
980
978
975
976
980
982
980
979
974
976
982
984
982
980
979
978
978
983
979
978
974
973
977
977
977
973
972
977
979
979
979
977
978
982
984
988
986
986
984
986
993
993
990
986
981
984
986
987
984
979
981
982
985
982
982
976
974
977
979
980
978
976
972
974
978
981
979
975
973
974
975
978
974
970
969
972
976
981
977
974
971
972
974
976
976
974
974
975
980
983
981
980
980
979
978
984
981
980
982
984
987
992
993
995
997
1006
1014
1020
1022
1028
1043
1068
1100
1129
1161
1189
1219
1250
1283
1309
1329
1322
1298
1261
1216
1161
1109
1064
1028
1007
995
992
994
993
992
986
983
981
978
975
972
972
972
974
969
967
965
967
970
970
969
967
965
966
966
968
967
967
967
971
973
973
971
974
973
976
980
980
981
977
975
972
977
979
979
978
976
975
979
981
982
981
979
976
983
985
984
982
981
980
983
983
985
988
986
986
988
994
993
990
992
989
991
997
994
990
988
989
993
991
989
988
984
982
987
988
985
979
977
977
981
982
981
981
976
976
979
979
981
976
974
972
973
974
974
971
967
970
972
972
972
971
970
970
972
977
977
974
972
973
974
978
977
972
970
972
976
977
978
975
973
974
976
978
980
978
978
979
980
980
978
974
973
971
974
975
973
970
967
972
974
976
975
973
973
975
981
987
985
982
983
983
982
983
980
976
976
974
975
978
979
974
973
974
980
981
978
976
972
976
976
977
975
974
972
974
978
978
975
973
974
973
977
980
980
981
980
981
981
984
980
979
976
975
979
976
976
976
972
976
978
979
978
975
972
973
974
976
973
972
968
970
972
974
969
967
963
963
967
970
970
970
967
969
978
980
976
976
977
978
981
983
981
980
976
978
981
982
982
977
976
976
979
980
979
975
975
978
981
979
982
979
978
979
984
985
980
978
978
978
983
985
983
980
976
980
983
983
982
979
978
979
979
981
980
977
976
979
976
982
981
979
978
979
979
982
980
976
974
976
976
978
978
978
971
974
975
978
975
976
977
979
982
986
988
988
984
986
988
986
987
984
988
991
993
994
995
992
991
992
995
998
997
994
991
992
992
997
995
992
992
995
995
996
993
993
991
994
997
998
994
993
993
993
996
998
996
994
992
994
995
997
998
997
997
998
1006
1010
1015
1016
1019
1029
1048
1071
1094
1113
1140
1170
1201
1229
1255
1278
1300
1313
1311
1292
1263
1221
1175
1131
1097
1069
1041
1020
1006
1005
1008
1009
1004
1002
998
996
995
993
988
984
983
982
981
981
978
975
972
971
973
974
973
972
966
969
969
970
968
963
962
965
966
970
966
966
965
967
971
971
973
968
966
970
972
974
974
973
972
977
980
979
979
978
977
981
984
988
988
986
986
993
997
1000
1002
1004
1006
1009
1014
1019
1016
1016
1013
1016
1020
1023
1023
1019
1019
1023
1025
1024
1022
1021
1017
1017
1016
1015
1013
1009
1007
1006
1006
1005
1000
996
994
994
995
992
991
985
983
982
986
984
982
981
979
980
985
987
985
983
985
988
989
994
992
990
988
989
990
992
988
984
982
983
983
987
988
987
985
989
993
993
989
989
988
990
995
995
994
990
988
991
992
992
991
987
987
989
987
992
990
990
987
986
989
989
991
987
986
987
988
987
985
985
983
986
989
991
990
986
982
986
986
989
988
984
985
988
991
989
987
985
985
986
986
986
984
983
977
981
985
984
988
986
985
987
988
992
988
986
985
985
988
992
992
989
984
986
989
991
989
985
978
979
983
986
985
984
984
984
985
989
988
987
985
987
991
991
992
988
991
991
995
998
997
993
992
993
996
995
994
993
991
989
992
996
994
988
991
989
993
995
995
991
990
991
992
995
994
989
988
988
988
990
985
982
983
982
988
990
988
988
987
990
989
989
988
990
990
989
994
996
995
998
998
1003
1008
1012
1014
1016
1024
1030
1043
1053
1074
1098
1126
1158
1194
1227
1254
1284
1313
1341
1368
1374
1357
1326
1281
1229
1182
1135
1091
1054
1028
1013
1008
1011
1012
1009
1004
1002
1001
1000
997
989
986
984
986
988
986
982
979
980
982
982
981
978
975
978
984
985
988
985
984
987
989
992
992
991
988
989
989
993
993
989
987
990
992
993
992
987
988
987
993
992
994
994
993
995
998
1003
1001
999
998
1000
1000
1005
1005
1000
998
1000
1003
1004
1005
1002
1001
1004
1004
1005
1007
1005
1002
1005
1007
1006
1004
1001
999
999
1001
1004
1002
999
995
995
997
998
999
995
992
996
998
999
997
993
992
990
992
991
991
987
985
984
988
989
986
982
984
982
983
985
985
981
980
980
980
982
980
979
978
979
980
981
978
974
974
978
977
978
980
977
976
978
982
983
984
983
984
984
988
992
991
991
990
993
994
996
992
990
990
991
990
991
992
991
991
993
996
1000
1000
995
997
997
1000
1003
1001
994
992
992
998
997
995
991
988
987
992
992
991
989
985
989
994
1000
1002
1005
1008
1017
1036
1061
1085
1110
1139
1176
1215
