1021
1008
1003
1004
1010
1006
999
994
987
986
985
985
979
977
976
977
978
976
975
971
969
973
973
972
970
970
969
967
975
974
971
969
969
970
973
973
972
972
969
975
977
977
976
973
976
978
981
981
980
978
975
982
985
984
982
980
982
987
988
992
993
992
995
998
1001
1002
1004
1000
1005
1007
1013
1014
1014
1014
1015
1017
1022
1025
1026
1026
1028
1032
1032
1037
1038
1035
1038
1043
1049
1045
1048
1046
1044
1046
1047
1045
1041
1036
1034
1033
1030
1027
1018
1014
1008
1007
1005
1004
995
993
990
988
988
984
980
975
972
972
973
972
968
966
966
967
970
970
970
966
965
967
965
968
964
964
963
964
967
968
966
966
962
964
967
967
964
962
962
962
966
968
966
963
965
965
972
969
969
967
968
968
971
972
971
966
966
970
973
972
970
968
968
971
976
975
971
971
971
973
973
976
975
971
972
973
973
977
974
968
968
971
974
974
972
969
970
972
972
971
970
968
969
971
973
972
969
965
967
968
970
969
968
967
967
968
970
970
967
967
965
966
967
968
967
966
964
967
968
969
966
964
964
966
969
967
965
963
966
966
968
970
966
966
964
966
971
972
971
967
967
970
972
973
972
968
968
970
975
974
973
970
970
972
973
972
971
969
970
972
974
975
974
972
973
975
975
977
975
973
973
975
976
977
977
972
972
975
977
977
975
975
972
975
979
979
978
974
974
975
976
979
974
972
975
973
976
978
976
971
974
973
976
975
974
973
973
974
978
975
972
973
972
973
975
977
973
973
971
974
977
977
975
974
973
974
975
978
974
972
974
977
979
979
975
972
970
973
974
976
978
977
980
985
989
991
986
986
986
990
991
991
988
985
982
983
984
984
980
977
977
978
980
983
978
976
976
982
983
985
979
980
979
984
988
988
986
985
984
989
992
995
998
997
1004
1012
1016
1022
1032
1044
1065
1086
1113
1135
1157
1178
1194
1216
1240
1255
1258
1240
1217
1189
1160
1124
1091
1064
1036
1021
1013
1012
1007
1001
999
996
997
993
987
979
981
979
978
977
976
972
967
968
972
974
968
966
962
970
972
972
970
967
968
969
970
970
969
966
967
968
970
971
970
969
969
970
974
971
973
970
970
975
977
978
975
971
976
978
982
985
982
979
980
984
987
985
984
987
988
990
995
997
997
997
999
1002
1008
1010
1011
1010
1012
1016
1020
1023
1022
1021
1022
1029
1034
1035
1035
1035
1036
1039
1043
1046
1044
1042
1041
1042
1041
1041
1040
1036
1030
1031
1031
1026
1020
1013
1009
1009
1008
1001
998
993
989
986
986
984
981
976
973
975
974
973
968
966
967
966
969
969
967
967
967
967
967
964
965
963
964
967
969
969
966
963
963
963
967
967
964
961
963
965
966
968
963
963
962
964
967
967
963
964
962
966
970
969
965
963
963
966
969
967
965
960
961
963
965
967
965
962
963
961
966
964
960
962
961
963
965
963
961
961
962
963
964
966
965
962
963
962
962
967
962
960
958
963
966
966
965
962
961
965
965
965
964
961
960
964
965
966
964
961
962
961
966
967
965
960
960
963
966
967
963
964
959
962
965
967
963
960
958
961
966
966
967
963
959
961
964
967
963
963
963
965
966
966
965
962
961
962
966
966
965
962
959
962
964
966
962
964
963
965
968
967
964
965
964
964
967
967
967
964
964
965
968
970
967
964
965
966
970
970
967
965
964
966
970
973
969
967
967
967
971
972
970
968
967
970
971
971
971
965
968
968
971
969
967
966
967
968
974
973
971
967
968
969
972
967
966
965
966
969
973
973
971
968
967
967
970
970
971
966
969
969
970
971
972
969
969
972
974
977
975
973
971
970
976
976
975
967
967
972
974
974
978
977
980
982
986
989
988
985
984
986
987
985
982
985
981
984
985
985
980
974
972
978
981
979
975
975
973
978
979
979
977
975
975
979
983
982
980
980
981
982
984
989
988
989
990
996
1004
1007
1013
1016
1027
1047
1070
1092
1117
1141
1167
1195
1218
1241
1262
1277
1282
1275
1257
1226
1188
1148
1112
1081
1052
1028
1010
1000
1000
1004
1007
1004
996
991
987
988
986
982
977
976
975
977
980
977
976
972
973
974
977
975
975
969
973
974
975
979
977
974
975
974
978
977
976
974
974
976
981
981
981
977
977
980
985
984
984
980
982
986
990
991
988
985
986
989
992
995
992
993
994
996
1001
1003
1002
1005
1004
1008
1011
1014
1012
1014
1017
1022
1027
1027
1027
1028
1030
1033
1039
1040
1039
1041
1041
1045
1050
1048
1049
1048
1047
1049
1052
1053
1050
1046
1042
1043
1041
1036
1033
1024
1021
1017
1017
1014
1008
1004
999
997
997
994
987
984
982
981
982
982
980
977
976
977
980
978
978
974
973
973
977
975
971
968
968
974
975
976
975
971
972
974
973
977
973
973
973
976
980
980
978
977
972
977
976
979
974
971
970
973
979
979
979
975
978
978
981
981
978
977
974
973
979
978
978
973
974
976
978
980
974
975
974
977
979
980
979
975
973
974
977
979
976
974
973
973
976
974
974
972
970
972
969
973
974
969
971
971
976
974
970
969
973
970
973
973
972
969
967
972
972
974
973
967
971
974
975
979
976
972
970
971
974
976
972
970
971
975
976
976
975
973
971
972
977
975
975
974
972
974
978
975
973
974
974
977
976
977
978
974
972
975
979
979
975
975
974
976
981
979
979
974
975
976
978
979
978
972
973
978
980
979
979
978
978
977
981
982
981
974
976
979
984
982
981
977
977
980
983
981
982
982
979
980
984
987
984
979
980
985
982
987
985
984
978
984
985
985
985
981
982
981
986
987
984
983
983
984
985
985
986
984
984
984
985
986
985
982
984
985
988
988
986
982
983
983
986
985
982
977
981
987
991
995
995
993
993
995
1001
1001
998
997
993
996
996
994
992
988
985
988
990
986
985
983
983
982
987
990
987
986
984
986
989
992
989
986
987
991
995
993
995
992
993
1000
1008
1011
1013
1017
1027
1038
1067
1086
1110
1130
1156
1183
1209
1232
1255
1267
1264
1250
1223
1186
1142
1104
1075
1049
1033
1018
1012
1007
1008
1008
1004
999
994
988
983
985
986
985
981
978
976
978
983
982
978
976
975
976
981
979
977
976
976
979
982
980
977
974
975
980
981
980
981
977
978
980
984
984
982
981
981
985
987
989
985
984
982
983
988
992
992
990
990
994
1000
997
998
997
997
1002
1009
1011
1012
1012
1011
1016
1022
1025
1025
1025
1025
1028
1035
1037
1039
1037
1038
1039
1042
1047
1046
1045
1045
1048
1053
1050
1047
1040
1038
1036
1035
1029
1023
1017
1013
1009
1009
1005
1000
993
990
991
987
988
985
979
978
979
978
981
974
971
971
974
975
974
976
970
970
975
976
975
974
973
972
974
977
977
972
970
971
971
973
972
971
968
968
971
974
974
972
964
968
969
972
972
969
966
966
968
972
971
969
966
966
969
974
974
973
971
968
973
976
974
975
974
975
976
976
977
974
974
973
975
976
975
976
970
973
973
977
974
975
972
970
975
977
973
976
974
973
975
978
978
974
971
973
974
975
977
973
972
971
974
978
979
975
970
968
969
974
976
971
972
970
974
976
973
974
973
973
975
979
978
975
973
974
976
975
977
976
973
973
976
979
978
978
974
974
976
978
978
977
974
975
977
980
981
978
978
978
980
982
982
980
979
977
978
982
982
982
978
978
980
982
983
981
979
980
982
983
980
977
975
979
979
984
985
982
979
978
984
986
988
983
980
980
984
982
985
984
981
980
980
982
983
984
978
982
983
986
988
985
981
983
987
985
986
985
983
983
987
987
989
987
986
988
990
992
992
988
984
982
981
990
989
989
987
994
998
1000
1001
998
998
999
996
1003
1002
995
994
991
993
994
993
990
985
984
986
991
990
990
987
985
987
992
994
990
986
987
992
994
994
992
992
996
999
1004
1010
1014
1017
1023
1037
1057
1078
1105
1130
1159
1188
1213
1240
1262
1275
1271
1252
1221
1181
1138
1099
1065
1038
1023
1017
1016
1012
1012
1007
1008
1005
998
993
990
991
991
991
987
984
983
985
987
986
984
980
980
983
986
985
982
979
979
981
985
986
984
981
978
982
988
983
982
982
981
985
989
990
987
987
986
991
994
995
996
992
990
996
1001
1004
1001
999
1000
1006
1008
1009
1006
1008
1009
1012
1017
1018
1020
1020
1022
1024
1032
1034
1034
1031
1036
1040
1047
1046
1048
1046
1050
1054
1057
1057
1058
1056
1058
1057
1061
1060
1055
1050
1046
1043
1044
1038
1030
1023
1019
1019
1019
1012
1008
1001
998
995
998
994
990
985
987
988
989
987
983
980
979
978
978
980
978
973
975
976
978
980
980
976
975
973
981
980
981
977
976
979
981
982
981
980
980
982
984
984
983
982
981
983
985
984
984
982
985
983
987
986
983
979
983
983
989
987
986
984
980
984
988
988
985
983
981
982
985
982
983
979
981
980
985
984
984
980
982
981
983
984
981
979
980
981
983
981
981
977
980
983
985
984
982
978
979
982
984
985
982
979
980
981
984
983
982
983
981
979
986
986
982
981
980
982
986
987
986
982
979
981
983
982
981
975
978
978
983
984
981
979
977
979
983
984
979
977
977
978
980
981
981
978
976
981
983
979
978
976
973
976
979
977
978
975
975
978
979
981
980
978
975
978
982
982
980
978
978
979
981
983
981
975
976
978
982
980
980
976
976
979
982
983
981
976
980
981
984
985
984
980
981
983
985
987
982
980
980
982
984
986
983
983
982
982
986
985
986
982
983
987
986
988
983
982
983
984
987
988
985
983
983
984
987
986
985
980
979
978
984
984
986
986
990
996
998
997
995
995
995
997
999
995
991
990
985
986
990
987
986
983
984
984
989
987
988
983
984
987
989
989
988
989
988
989
995
996
994
991
995
1000
1004
1009
1013
1012
1020
1028
1043
1060
1078
1097
1122
1151
1180
1206
1227
1246
1270
1282
1272
1243
1207
1165
1125
1097
1068
1048
1027
1019
1018
1021
1020
1016
1008
1001
998
998
996
994
989
987
985
986
989
991
987
985
985
984
985
985
986
983
979
981
985
987
984
981
980
982
981
983
982
981
980
984
987
984
985
982
984
986
988
989
990
987
987
990
993
992
991
989
992
995
998
1000
1001
998
997
1000
1006
1009
1010
1011
1013
1017
1019
1026
1026
1023
1025
1029
1035
1039
1040
1038
1042
1046
1050
1050
1052
1054
1053
1058
1061
1062
1059
1055
1052
1056
1056
1053
1048
1041
1036
1032
1031
1027
1019
1012
1010
1008
1008
1004
999
995
992
991
989
989
984
979
978
980
981
981
976
972
974
976
979
979
971
971
971
973
975
975
971
970
968
971
972
973
971
970
971
971
972
976
973
970
971
974
975
973
973
970
972
972
975
976
973
969
971
973
975
974
974
970
973
974
979
979
977
973
971
976
979
977
977
971
972
975
977
980
977
971
973
975
978
979
975
973
971
976
979
978
977
974
976
977
979
978
976
972
975
977
979
978
978
975
974
976
979
979
976
972
973
975
979
979
975
975
974
976
978
980
979
975
975
975
980
981
977
970
969
974
978
978
976
973
971
973
977
978
975
971
971
973
977
977
976
972
971
975
976
977
973
973
971
973
975
976
976
971
973
974
977
977
973
972
971
975
978
977
976
973
974
975
977
979
976
977
977
978
978
982
978
976
977
980
979
983
979
979
979
980
984
983
982
981
979
977
983
984
980
976
978
981
985
984
983
979
977
982
982
982
982
979
980
983
982
983
979
976
974
978
981
982
982
979
978
977
982
982
981
979
981
982
985
984
982
982
981
983
988
987
983
981
978
983
986
990
991
988
988
992
995
997
994
993
991
994
998
997
992
989
989
990
992
990
987
980
982
984
989
989
988
985
984
983
988
993
988
987
986
988
989
989
990
987
988
993
995
997
997
999
1001
1014
1020
1024
1027
1038
1055
1080
1107
1133
1161
1183
1208
1231
1259
1282
1295
1286
1261
1233
1197
1158
1122
1082
1052
1029
1015
1011
1006
1007
1008
1005
1006
1001
994
988
987
987
988
982
981
979
976
980
980
980
976
974
972
976
975
977
976
973
972
976
977
977
978
976
976
978
977
981
977
976
980
980
984
983
982
978
980
985
988
988
985
984
988
991
994
995
994
992
995
997
1000
1000
999
1000
1001
1007
1010
1009
1009
1007
1010
1012
1019
1020
1019
1021
1022
1027
1029
1032
1030
1032
1032
1034
1040
1042
1043
1039
1042
1046
1050
1053
1049
1047
1048
1050
1052
1052
1046
1043
1038
1038
1036
1031
1026
1018
1013
1012
1011
1009
1005
1000
996
995
995
994
989
982
983
984
984
984
982
979
977
978
981
978
976
974
975
979
979
979
978
974
975
979
980
980
978
976
978
978
981
982
980
976
977
979
983
984
982
981
980
982
984
984
982
979
980
981
986
984
981
980
980
981
984
981
985
982
981
982
985
986
983
979
979
979
984
984
980
974
978
980
981
980
976
975
974
977
984
981
979
976
974
977
978
980
977
974
975
974
978
977
976
971
973
977
978
979
978
975
972
979
981
981
979
974
973
976
977
981
978
975
975
979
982
979
977
976
978
976
982
982
980
978
979
979
985
983
980
976
979
979
981
981
984
980
978
981
983
984
980
980
977
982
984
983
982
977
978
981
981
987
979
977
980
983
982
984
979
978
979
981
985
983
981
979
981
978
984
986
982
978
978
981
980
984
983
981
980
983
985
982
982
977
979
980
984
983
983
980
979
979
983
985
981
977
978
979
982
985
982
980
978
983
984
984
982
981
980
984
988
990
988
985
985
989
988
990
988
986
982
988
990
991
990
987
986
990
991
992
987
987
986
990
993
994
992
989
987
992
994
991
991
985
986
988
992
998
999
998
999
1002
1005
1007
1004
1004
1004
1005
1007
1004
1000
996
997
998
998
998
995
991
992
994
996
996
994
991
991
996
997
997
995
995
994
995
1001
998
996
997
995
998
1001
1003
1005
1005
1012
1021
1028
1035
1040
1053
1074
1098
1123
1147
1173
1196
1218
1239
1263
1282
1282
1266
1242
1209
1175
1138
1099
1074
1050
1034
1027
1025
1023
1022
1014
1011
1012
1007
1003
996
997
997
998
995
992
990
990
990
993
993
990
987
987
990
991
991
990
986
987
988
992
992
989
988
986
989
992
991
990
988
989
990
994
994
993
990
991
993
997
996
995
994
993
998
998
1001
1000
996
999
998
1005
1006
1006
1007
1008
1010
1015
1016
1016
1012
1014
1019
1026
1028
1026
1023
1028
1031
1036
1037
1033
1039
1040
1047
1050
1049
1049
1050
1054
1058
1063
1064
1060
1059
1057
1059
1059
1055
1051
1046
1045
1041
1040
1035
1030
1024
1022
1020
1018
1013
1008
1003
1000
999
997
994
992
991
987
988
989
990
985
983
981
979
985
983
979
977
977
978
979
984
980
976
978
980
982
982
980
975
977
980
981
980
977
977
977
979
981
980
977
974
972
976
979
981
979
975
976
978
981
984
976
977
978
979
981
983
981
979
979
980
984
981
979
975
975
976
980
979
976
974
975
975
981
979
977
974
977
977
979
979
978
973
976
974
978
980
977
974
974
977
978
978
975
973
973
977
979
978
975
974
976
979
982
986
989
989
995
1005
1016
1024
1030
1037
1044
1050
1052
1044
1032
1014
986
960
927
898
883
884
890
896
899
898
897
890
892
895
896
895
896
893
894
896
896
894
889
885
888
894
905
915
925
939
953
966
975
984
985
985
990
994
998
1000
1001
997
1001
1005
1010
1011
1009
1008
1011
1012
1016
1018
1018
1017
1019
1023
1026
1028
1029
1028
1029
1034
1035
1038
1038
1041
1041
1044
1051
1053
1054
1053
1058
1063
1070
1074
1075
1075
1078
1083
1092
1096
1098
1099
1102
1106
1110
1111
1114
1113
1116
1120
1126
1127
1125
1123
1127
1128
1133
1135
1134
1129
1124
1127
1127
1123
1119
1110
1110
1107
1105
1098
1092
1082
1074
1068
1064
1053
1046
1036
1034
1030
1028
1023
1013
1008
1005
1003
1002
998
993
987
985
984
985
985
978
979
975
977
978
977
974
972
971
972
975
975
974
969
966
970
972
970
973
970
969
970
973
969
969
968
966
966
971
969
967
964
966
965
967
965
966
962
962
964
966
969
964
960
961
963
965
968
964
962
960
962
965
963
962
960
959
960
965
964
960
959
961
961
964
966
962
958
958
963
965
965
963
959
960
963
964
965
963
960
958
960
964
966
963
958
960
961
961
963
962
959
957
961
963
964
962
959
956
960
964
962
961
960
958
961
959
960
959
954
955
958
963
965
960
956
955
960
962
961
958
956
955
958
959
961
957
957
956
958
961
962
959
957
955
958
960
960
959
954
952
954
962
962
958
958
958
960
963
962
960
958
957
962
960
965
961
960
957
957
960
962
957
957
956
961
964
961
963
958
959
960
961
963
961
959
957
962
963
964
961
958
959
960
964
963
962
959
958
960
962
963
961
959
958
961
962
965
962
959
959
960
962
963
963
958
956
960
963
962
961
960
956
959
962
963
963
959
956
957
962
964
961
959
955
959
962
964
962
961
961
961
964
962
964
960
960
963
965
964
963
958
961
959
964
967
965
963
963
965
967
966
964
961
960
965
966
966
966
961
962
966
968
968
964
965
967
968
970
969
966
967
965
965
970
970
965
962
963
966
967
968
966
964
961
962
966
968
968
964
965
964
966
964
967
962
963
964
967
969
968
964
964
964
966
964
965
963
962
963
967
969
