974
974
971
971
975
979
977
978
972
975
974
979
979
975
973
972
972
974
977
972
968
970
972
974
975
969
967
967
968
969
971
968
967
971
976
978
979
978
981
983
988
1001
1018
1040
1067
1098
1134
1173
1207
1234
1258
1284
1305
1311
1292
1258
1214
1159
1107
1067
1033
1010
991
986
991
993
990
982
974
972
969
970
967
960
959
959
959
960
957
953
950
952
953
955
953
951
947
950
952
957
954
951
951
952
954
958
956
955
952
954
954
959
959
958
956
958
962
962
960
960
958
958
968
972
975
975
973
973
980
978
979
976
978
978
983
986
987
987
986
986
988
993
992
987
989
986
991
992
988
984
983
979
980
979
974
970
965
961
961
963
961
961
958
961
961
960
961
958
955
956
955
954
954
952
950
952
954
955
957
954
951
951
955
957
955
956
954
957
965
971
974
972
973
975
984
995
1008
1026
1051
1082
1119
1152
1186
1221
1253
1279
1289
1289
1266
1224
1176
1121
1071
1037
1017
1003
985
979
977
979
974
967
958
955
954
954
952
946
941
941
939
943
939
935
933
933
932
934
933
930
926
927
928
931
927
927
925
928
929
932
932
931
932
938
944
948
946
945
942
943
945
946
951
951
947
950
951
955
960
956
960
960
966
972
972
974
975
976
981
985
986
983
982
984
988
988
984
983
981
982
979
980
978
973
969
967
965
968
965
963
958
958
959
963
960
952
952
951
954
954
955
953
951
953
958
963
963
962
960
962
963
966
968
964
962
963
965
970
968
963
966
965
970
969
967
964
961
960
964
961
961
955
955
954
957
957
954
952
949
952
953
955
955
952
952
951
954
955
953
949
947
948
951
948
948
946
942
945
949
950
948
947
947
950
954
955
957
960
961
961
965
964
967
967
964
965
966
969
968
965
965
964
965
966
967
964
962
963
962
967
963
962
960
960
960
963
963
961
960
957
960
962
961
960
954
954
955
957
958
954
948
950
950
954
954
952
948
952
953
956
957
952
950
954
959
961
963
960
960
961
964
969
968
965
963
960
966
965
967
963
960
961
964
964
964
961
961
961
961
962
964
960
959
960
963
967
966
966
965
965
965
968
966
963
959
958
960
965
965
961
958
959
960
964
965
960
958
957
960
960
962
960
958
961
965
968
970
968
967
968
971
979
984
986
992
1004
1028
1060
1093
1127
1158
1194
1228
1263
1290
1315
1320
1304
1267
1209
1141
1086
1042
1011
986
972
972
977
977
978
974
975
973
966
961
960
961
963
959
955
952
957
954
960
958
954
950
951
955
955
954
951
950
952
954
955
951
946
943
945
949
950
949
946
944
943
947
947
948
948
946
945
950
953
956
953
954
955
958
961
960
957
952
955
959
962
962
961
956
956
960
960
959
958
954
955
962
966
966
965
964
968
974
977
980
977
977
980
982
986
986
984
980
980
980
980
977
971
967
966
970
969
967
962
958
958
963
963
964
963
958
961
962
965
961
957
957
955
959
962
962
961
957
959
961
965
966
959
958
961
962
966
966
964
963
965
967
970
966
966
966
966
971
975
975
969
966
971
972
977
974
971
969
967
970
970
968
968
964
963
967
970
967
965
961
962
964
967
965
964
961
961
962
964
963
962
961
958
963
969
967
966
965
964
967
967
969
964
962
966
967
967
964
964
964
962
965
969
968
968
965
965
967
967
967
963
960
961
964
966
969
963
961
965
968
972
966
967
962
962
963
966
964
961
956
955
958
961
961
957
955
952
958
962
963
959
956
960
960
965
964
962
960
958
961
964
963
963
963
961
961
968
967
963
963
963
968
970
970
971
970
973
976
978
981
986
990
997
1009
1028
1047
1072
1096
1128
1160
1192
1222
1250
1274
1301
1316
1308
1278
1238
1182
1128
1082
1044
1014
993
979
979
983
986
984
977
972
970
967
965
963
960
955
954
953
954
953
948
946
947
949
952
952
946
944
944
944
948
949
945
944
947
950
953
951
950
950
951
955
957
956
952
950
949
950
959
957
955
956
956
957
960
961
959
956
960
963
965
964
963
962
963
968
971
970
966
965
966
967
970
970
967
965
964
971
973
973
974
971
971
973
971
972
970
965
964
971
973
971
968
964
965
967
970
965
963
962
961
965
960
958
958
955
955
957
957
957
954
949
953
954
957
953
949
950
951
954
958
955
953
951
953
958
962
962
957
956
956
958
962
962
961
959
960
962
967
963
961
960
958
961
965
963
962
959
963
964
967
964
961
960
960
961
967
968
967
965
969
968
973
971
967
961
962
966
968
967
962
961
961
962
964
963
960
956
955
956
960
959
959
954
959
961
962
961
961
958
961
964
966
968
964
961
960
965
967
967
966
965
966
964
971
967
967
965
961
964
968
967
965
964
966
968
974
977
976
974
972
974
977
975
971
966
969
972
973
973
968
964
966
968
972
969
968
962
965
965
968
967
967
964
964
965
969
967
966
964
965
968
973
972
966
965
966
969
971
971
967
969
967
969
973
972
969
966
964
967
969
970
969
970
971
971
977
975
973
973
974
973
975
973
972
966
964
967
970
969
969
967
967
973
978
977
975
972
970
973
973
971
968
967
967
969
972
971
969
966
967
973
975
974
971
971
972
976
978
977
979
978
984
990
999
1000
1008
1011
1026
1047
1076
1105
1133
1162
1194
1225
1253
1277
1302
1315
1318
1300
1267
1220
1166
1114
1072
1042
1019
999
990
993
996
1001
1003
995
987
981
979
979
974
969
968
962
965
965
967
966
963
959
962
964
966
965
961
962
962
967
967
966
963
961
961
965
969
967
963
962
963
969
972
971
970
966
968
972
970
972
972
970
972
976
976
981
978
979
978
981
983
982
977
976
977
982
983
985
984
983
986
990
996
996
994
990
992
993
999
996
1000
997
998
1000
1001
1001
996
994
989
991
996
993
989
988
987
988
987
984
978
977
976
982
985
979
979
975
977
976
973
974
971
970
971
974
971
972
970
969
970
970
971
972
969
968
968
969
969
969
967
965
969
968
974
973
973
972
975
978
981
983
979
976
974
977
982
981
979
974
975
976
979
975
971
971
970
979
980
979
977
977
976
982
986
984
981
980
981
984
985
985
980
978
981
982
984
984
982
979
982
981
983
982
978
976
976
979
977
976
973
970
972
976
981
978
977
976
979
982
983
982
982
979
981
982
982
982
978
977
978
986
992
995
998
1000
1007
1023
1049
1077
1102
1131
1169
1207
1239
1268
1295
1318
1330
1323
1293
1241
1175
1114
1063
1028
1000
984
974
976
981
985
984
979
975
968
966
967
970
967
964
960
959
964
964
964
958
957
958
964
966
965
962
963
963
967
970
971
967
966
966
970
970
973
970
970
968
973
975
973
971
969
971
977
978
980
976
975
979
982
988
985
984
981
987
989
991
990
993
989
992
994
1001
1001
999
998
996
1001
1004
999
999
998
997
998
1000
1000
996
992
991
990
995
991
987
983
981
981
981
979
973
970
969
969
970
970
965
962
964
965
969
968
965
960
960
961
964
965
961
960
961
961
965
965
964
960
960
961
964
963
960
958
959
961
964
964
960
959
959
962
965
965
961
959
961
963
966
964
965
962
963
965
970
970
970
970
972
975
978
978
974
978
975
977
978
977
974
972
970
972
972
972
970
968
970
975
972
973
969
966
968
970
972
972
969
967
968
967
970
968
965
964
964
968
970
968
966
966
965
973
973
969
972
973
973
974
974
970
969
966
965
968
970
967
963
963
965
965
969
966
962
961
960
962
964
963
963
963
967
972
978
978
978
975
977
977
979
980
977
974
976
979
980
976
974
973
973
972
975
974
971
969
972
971
973
973
970
970
968
972
976
974
972
970
974
976
981
979
977
972
971
974
979
975
972
970
971
975
976
976
972
971
972
976
977
979
979
978
983
991
999
1000
1005
1011
1029
1054
1082
1110
1137
1164
1201
1233
1267
1299
1321
1333
1326
1301
1262
1208
1151
1101
1060
1027
1008
990
986
986
991
995
996
992
984
977
976
972
973
971
969
964
962
964
964
962
957
957
953
953
955
953
949
950
949
953
953
952
951
949
951
954
957
958
957
956
958
964
967
968
967
967
969
969
971
975
975
973
974
980
984
980
979
979
982
984
986
983
985
984
981
985
987
989
987
989
989
992
991
988
987
988
989
992
995
992
987
984
986
988
987
987
982
979
979
980
980
978
977
974
974
977
975
976
975
975
971
977
979
975
973
971
973
972
976
975
973
971
975
976
976
975
975
972
974
979
976
973
972
968
968
969
968
966
967
965
965
969
972
972
969
965
966
969
971
970
963
966
967
969
974
973
970
969
970
972
976
976
977
975
976
979
983
982
981
974
977
978
979
975
973
975
973
976
977
977
972
971
973
974
975
974
972
970
968
971
971
971
968
965
967
970
971
969
968
967
969
973
975
973
969
968
969
973
973
972
969
967
966
968
974
973
969
970
971
971
973
974
971
970
970
970
973
974
971
970
973
975
978
975
972
971
972
974
975
973
972
968
970
970
973
974
973
973
973
974
976
976
972
972
970
974
981
980
980
980
980
983
987
995
997
998
1008
1017
1032
1052
1076
1102
1133
1164
1206
1236
1260
1281
1304
1319
1319
1297
1260
1213
1164
1114
1081
1052
1024
1008
998
998
998
997
990
982
975
972
974
970
966
961
960
964
963
963
959
955
954
956
960
958
954
953
953
960
960
960
957
959
961
964
967
967
966
965
966
973
974
977
977
972
975
978
981
980
978
976
977
980
986
984
983
984
984
988
992
994
988
988
988
993
996
992
990
987
987
990
995
991
988
985
983
987
990
986
984
981
981
982
986
980
978
973
975
973
975
973
973
973
972
977
979
977
974
972
971
975
976
974
971
969
970
975
975
973
970
964
966
970
974
971
970
969
971
975
976
972
969
965
966
966
970
966
963
960
961
964
967
962
958
955
958
960
963
962
958
953
956
962
964
964
962
960
962
967
969
965
966
967
969
972
977
975
973
970
971
973
974
974
970
968
969
973
972
972
966
968
971
969
971
972
970
966
966
967
971
971
967
966
966
967
969
968
964
960
960
960
962
960
958
958
959
960
963
962
961
957
958
959
963
963
961
960
961
967
968
968
965
962
964
967
973
971
966
965
965
968
971
968
966
966
966
969
971
970
967
962
964
968
968
965
964
962
965
970
972
969
967
968
970
974
975
972
971
972
971
972
976
974
970
968
966
969
975
972
972
970
975
980
982
982
976
979
984
991
995
1001
1006
1021
1046
1074
1105
1138
1170
1203
1237
1268
1299
1316
1313
1289
1255
1205
1152
1095
1050
1015
993
986
984
986
986
980
980
978
975
971
967
963
962
962
966
961
959
955
954
957
959
955
949
950
949
952
951
952
948
949
953
960
965
968
963
963
963
968
969
971
967
969
969
971
977
976
976
974
978
981
984
982
979
981
984
987
989
991
992
991
995
996
999
998
994
995
1000
1005
1006
1003
1002
1002
1004
1005
1002
998
995
995
993
994
994
988
981
975
979
979
980
978
977
976
977
980
979
978
971
971
972
974
975
975
972
967
968
973
972
971
967
968
969
969
971
968
967
967
970
971
971
972
969
965
967
970
974
972
969
966
967
968
970
969
965
963
965
966
965
965
960
960
964
969
972
976
972
970
975
979
984
987
982
982
983
986
990
989
989
986
989
991
993
994
992
994
1002
1010
1015
1023
1036
1058
1087
1114
1142
1172
1203
1230
1255
1283
1299
1308
1289
1250
1198
1148
1095
1051
1016
987
970
966
971
971
970
968
963
959
960
955
953
950
951
954
955
956
951
954
962
964
969
966
965
962
962
966
968
964
961
963
960
965
969
969
967
963
965
966
968
966
965
963
965
968
969
969
968
968
966
974
977
975
972
973
974
979
980
979
976
976
980
985
989
987
987
987
993
996
1001
1000
998
995
992
995
1001
998
993
990
988
990
990
983
980
977
975
975
974
970
966
964
962
963
963
961
961
955
955
957
959
957
956
954
954
959
959
957
955
953
953
956
957
955
951
948
949
948
951
951
950
950
952
959
961
963
960
959
961
962
964
967
962
963
960
964
966
964
960
956
957
959
962
960
959
955
959
961
961
957
958
955
958
960
958
954
951
949
951
950
956
952
950
947
949
952
953
952
951
947
947
954
952
951
951
952
954
959
965
963
962
961
966
967
971
967
967
965
966
965
970
964
963
960
963
964
963
964
961
960
961
960
965
961
959
958
959
960
961
960
954
954
958
960
959
957
957
953
954
954
955
955
952
948
950
952
956
954
951
952
953
956
957
959
958
957
959
961
968
970
970
971
975
976
976
974
972
968
969
970
972
971
966
965
966
969
970
966
964
961
961
965
967
966
961
961
959
961
965
963
961
955
957
959
964
961
958
960
960
964
963
964
960
958
962
965
965
967
967
964
964
970
971
970
970
967
970
970
971
967
970
967
968
974
973
973
974
973
975
977
974
972
973
969
967
972
974
970
967
966
967
970
970
968
967
964
965
966
968
969
964
963
970
972
974
974
971
967
969
972
976
978
978
981
985
994
1000
1007
1014
1027
1055
1086
1114
1145
1175
1206
1234
1266
1295
1314
1315
1293
1258
1213
1165
1113
1070
1039
1016
1002
997
995
993
991
983
981
980
974
969
965
961
963
965
964
962
957
961
961
961
964
961
960
962
963
965
965
965
961
965
970
972
971
966
965
965
966
969
966
964
964
966
968
971
970
966
966
969
972
975
971
970
970
972
978
980
982
981
980
979
983
982
984
980
978
984
985
988
989
986
987
990
995
997
995
992
992
1000
1002
1001
1000
997
998
998
999
999
998
992
986
983
988
986
980
977
973
973
977
980
974
973
970
972
974
973
970
968
965
965
967
971
967
965
957
965
968
969
968
965
961
961
963
964
960
957
956
957
961
963
963
962
959
962
966
971
970
968
967
972
973
975
971
970
969
969
971
972
972
967
963
964
968
968
967
965
962
964
967
968
964
958
958
961
964
968
966
965
964
966
968
970
968
964
964
968
970
972
970
966
966
967
968
971
968
963
962
966
971
973
971
969
966
967
973
977
974
970
965
968
973
975
974
968
968
972
973
973
971
969
968
967
972
974
973
972
970
977
982
984
990
994
1006
1027
1057
1088
1114
1142
1174
1208
1238
1267
1290
1300
1299
1286
1263
1223
1168
1113
1068
1039
1016
1001
992
984
981
979
982
979
972
965
960
958
960
959
958
953
950
952
957
956
956
950
950
950
951
953
953
949
946
946
950
951
948
946
944
947
948
950
951
949
947
946
952
953
954
951
952
950
956
957
957
953
950
952
956
960
964
962
969
974
978
982
983
982
980
984
987
989
987
984
984
990
993
995
994
990
993
995
996
997
996
989
986
986
989
985
983
978
975
973
976
974
969
964
961
958
961
960
958
952
951
950
951
954
951
947
945
945
942
946
942
942
940
940
941
943
945
942
942
944
945
946
949
947
949
951
953
953
952
950
952
953
953
959
960
959
955
958
963
965
964
960
958
956
960
964
964
962
960
962
965
966
964
959
959
962
963
961
959
958
955
957
962
960
960
956
956
956
957
957
957
952
954
955
960
960
956
955
954
955
958
955
956
956
953
956
960
965
963
960
961
960
961
961
957
954
951
954
959
958
955
956
955
955
962
966
965
963
963
965
971
971
970
965
966
970
970
975
978
975
978
983
989
997
996
1000
1006
1018
1039
1066
1089
1117
1148
1180
1211
1242
1267
1294
1313
1322
1312
1280
1237
1182
1124
1077
1038
1007
987
971
968
975
982
981
977
969
965
963
964
959
955
950
948
950
950
954
951
948
945
949
952
955
953
948
948
950
954
953
954
952
952
954
957
958
957
955
953
956
957
960
960
958
958
963
965
967
967
966
965
968
969
971
971
971
971
974
974
975
975
974
976
980
982
985
983
982
985
986
989
990
989
989
986
989
992
990
992
988
990
994
997
997
994
992
989
991
990
989
985
984
981
980
980
981
976
972
970
969
969
969
965
962
960
961
964
965
963
957
957
958
957
961
957
954
949
954
956
955
957
951
949
950
956
958
957
956
953
955
955
960
958
953
953
952
956
957
956
954
952
954
957
961
961
959
957
959
965
965
971
966
968
969
974
978
980
977
978
980
988
995
1004
1010
1021
1044
1075
1104
1130
1154
1184
1224
1259
1288
1306
1321
1325
1311
1284
1235
1175
1109
1056
1026
1008
995
984
970
971
972
970
967
963
956
951
948
947
944
943
939
935
936
939
940
939
937
937
937
942
942
937
936
937
939
940
941
940
937
937
941
941
944
943
941
939
939
940
942
940
942
939
942
946
950
949
946
947
952
956
957
956
955
954
957
960
962
962
961
963
962
968
969
970
968
971
975
976
982
979
977
973
973
978
976
973
968
970
969
969
967
968
961
959
960
960
962
960
954
949
954
952
954
952
948
944
946
949
944
950
948
944
946
947
949
949
945
944
946
948
948
944
943
944
945
947
948
