960
961
963
963
964
960
960
962
966
962
964
963
963
961
965
964
964
964
964
968
972
969
968
968
966
968
971
972
968
966
967
967
968
967
965
960
959
962
962
964
962
955
955
959
962
965
965
962
961
964
968
968
965
958
963
962
964
964
958
956
955
959
961
958
956
955
954
955
959
957
956
954
956
957
960
961
960
958
961
963
964
965
964
960
958
962
965
966
964
962
963
965
967
967
966
963
966
966
968
968
966
964
964
965
970
967
965
963
963
967
970
972
969
966
967
969
971
970
968
964
966
966
970
971
967
967
970
971
974
973
971
972
972
981
987
992
992
991
999
1016
1036
1061
1086
1112
1142
1175
1212
1240
1267
1289
1307
1315
1309
1278
1228
1172
1114
1072
1038
1007
978
963
961
964
972
973
971
963
956
955
958
957
954
952
951
953
952
957
952
952
953
955
956
957
954
950
949
949
954
952
950
951
950
953
956
954
953
951
950
952
953
951
951
950
950
954
958
956
953
953
955
955
965
966
967
965
967
968
974
973
973
971
975
978
982
980
979
978
977
983
985
986
981
980
985
985
989
989
988
985
985
986
987
984
982
977
971
974
977
974
969
966
964
966
964
965
962
958
956
957
960
956
953
950
950
951
952
953
950
946
948
950
954
952
952
950
951
957
960
961
956
956
954
958
964
962
961
960
960
964
966
968
967
964
967
972
974
973
971
971
969
972
973
976
974
970
969
970
972
970
964
961
960
965
968
968
962
961
960
963
966
963
963
959
957
959
964
963
961
959
958
963
963
963
962
959
957
961
963
962
961
958
954
955
960
959
958
956
954
961
960
961
961
961
959
963
963
964
962
961
963
962
967
961
962
960
957
959
962
959
954
951
954
953
958
957
952
954
951
952
956
957
954
952
955
954
959
958
956
954
956
954
961
959
957
956
958
957
957
958
955
953
951
956
960
956
956
955
955
957
962
962
960
957
956
958
958
960
955
952
952
955
959
957
952
955
954
958
961
959
955
954
956
958
960
957
957
953
954
957
962
962
959
959
963
964
967
965
965
962
966
966
968
966
966
966
964
969
970
972
972
973
973
978
986
990
993
997
1002
1013
1029
1050
1074
1093
1122
1153
1186
1214
1234
1256
1283
1304
1310
1305
1279
1247
1203
1157
1114
1069
1032
1001
979
966
962
965
964
964
963
961
960
961
956
954
952
955
957
956
952
948
946
947
949
948
945
944
943
946
949
950
947
944
946
947
950
951
948
947
945
950
953
950
950
946
946
948
952
951
946
948
947
951
955
957
949
949
950
952
958
961
958
958
959
962
967
966
967
963
967
971
976
975
975
975
974
976
981
981
982
980
982
987
985
989
986
980
979
980
980
978
974
969
966
968
966
965
959
956
954
956
958
954
954
952
949
953
954
956
954
949
949
949
953
950
948
945
947
945
948
948
948
947
949
952
955
954
953
951
951
956
959
957
955
957
959
964
968
968
969
966
965
970
972
971
964
962
961
964
968
967
963
963
962
965
967
966
964
959
959
960
964
961
960
957
957
961
963
961
959
957
959
962
964
965
966
960
961
964
966
961
963
962
961
961
965
965
963
962
962
962
967
967
965
965
966
972
975
974
971
970
970
973
975
970
968
964
962
968
970
967
968
963
967
969
971
971
968
965
969
972
977
975
972
969
971
972
977
978
975
973
975
981
984
986
989
991
994
1003
1018
1032
1053
1079
1103
1135
1168
1201
1226
1248
1272
1289
1297
1279
1252
1213
1166
1120
1085
1054
1028
1011
996
987
989
987
980
972
967
964
966
961
955
951
952
951
955
952
949
945
944
947
951
947
945
943
944
945
951
948
947
945
946
949
953
950
952
950
953
955
960
961
959
955
959
964
967
969
971
971
974
978
985
988
989
986
986
986
990
990
990
986
988
994
997
996
995
992
994
997
1000
997
998
995
993
995
997
996
992
989
984
986
984
980
978
975
968
969
971
968
966
961
961
962
965
965
964
963
960
964
967
965
963
960
961
966
969
969
965
968
968
969
973
970
967
964
963
965
964
963
961
959
958
962
966
962
960
958
960
960
964
966
964
957
955
959
961
961
959
954
953
956
960
959
957
955
956
959
960
959
958
953
954
959
963
963
963
963
964
964
966
970
967
968
969
973
978
977
973
974
973
973
979
977
974
973
973
976
976
978
977
973
975
975
977
976
974
971
972
969
976
974
973
971
969
971
974
974
972
967
967
968
971
971
969
968
965
971
972
972
972
972
973
975
979
979
979
978
981
985
990
994
996
998
1005
1009
1018
1026
1037
1058
1080
1107
1139
1169
1201
1227
1256
1284
1308
1318
1308
1278
1235
1187
1136
1087
1048
1019
999
989
987
987
987
984
981
979
977
971
966
961
958
959
958
957
952
950
946
949
950
948
946
946
943
955
957
958
960
960
962
966
966
968
970
968
967
971
975
975
975
973
975
977
980
981
979
980
981
982
984
986
987
988
989
994
997
1001
998
1001
1001
1003
1008
1007
1007
1002
1004
1007
1008
1010
1009
1005
1005
1006
1008
1007
1002
1000
999
994
999
997
994
992
991
993
990
989
987
985
985
985
989
987
984
978
978
980
982
981
981
977
975
976
982
981
979
976
976
978
982
982
981
981
979
985
990
993
993
993
1003
1015
1039
1064
1094
1123
1148
1177
1211
1244
1274
1293
1298
1293
1278
1248
1211
1161
1108
1067
1048
1030
1016
998
992
992
994
986
980
973
971
970
971
970
966
962
959
960
963
960
959
956
953
958
958
959
956
953
954
955
960
958
955
953
954
958
961
957
957
952
953
961
965
966
965
962
962
963
970
970
968
965
968
973
978
981
980
980
981
985
989
989
988
988
991
993
999
1001
1001
998
1002
1006
1010
1009
1009
1007
1007
1009
1010
1007
1003
1001
999
999
999
999
993
988
988
987
989
989
983
982
981
981
985
983
981
976
978
979
977
979
979
974
973
973
979
982
980
978
982
984
986
987
983
982
982
984
987
985
983
982
981
983
988
991
988
986
986
987
992
990
986
986
983
983
988
989
985
985
984
984
988
985
984
981
982
982
984
983
982
977
977
980
981
981
977
970
971
976
979
977
971
970
969
975
977
976
976
975
973
979
983
981
976
974
973
979
980
979
977
972
973
974
978
978
974
971
971
969
977
978
978
974
972
976
980
978
977
972
973
975
980
980
978
975
975
978
980
979
974
971
969
975
978
977
974
971
969
973
974
972
968
966
967
972
974
970
971
967
970
972
980
977
975
975
977
980
983
982
982
984
984
990
996
997
1000
1008
1014
1024
1037
1062
1088
1120
1155
1192
1232
1265
1296
1319
1334
1331
1300
1244
1183
1123
1073
1035
1008
988
978
973
979
982
980
974
967
965
961
960
961
955
954
951
952
954
957
958
955
952
948
953
956
956
953
948
950
952
955
952
950
949
950
954
959
959
959
957
960
964
966
966
964
965
963
969
970
970
968
963
967
968
971
968
967
966
966
970
971
970
973
969
970
973
973
974
973
973
973
976
980
979
975
974
976
975
977
977
973
966
966
967
966
966
962
958
957
960
963
961
959
957
955
960
961
963
961
958
959
962
967
965
966
964
963
968
971
973
971
970
971
972
977
974
972
972
975
974
977
975
975
973
972
974
976
977
976
973
972
977
976
976
975
972
972
976
979
975
975
971
971
973
977
974
973
971
973
974
977
976
972
971
971
973
980
978
977
975
979
984
990
993
996
998
1004
1019
1042
1063
1088
1113
1144
1180
1210
1235
1254
1266
1268
1257
1228
1183
1135
1092
1062
1039
1022
1002
988
979
976
970
969
963
957
952
949
948
949
949
946
944
945
948
949
950
947
944
943
946
947
944
944
941
943
947
951
947
948
944
946
950
956
955
954
955
957
961
966
966
966
967
968
970
974
970
974
970
968
974
979
978
976
976
977
979
983
984
981
981
983
985
988
987
986
985
983
984
985
984
979
974
973
972
974
970
967
962
960
961
963
963
961
961
960
964
965
965
967
968
967
970
974
971
969
965
967
966
969
971
964
963
963
966
969
968
965
963
967
965
968
970
966
963
963
964
968
967
964
961
961
963
967
965
962
958
962
963
967
966
965
963
961
962
966
966
964
960
962
963
967
969
968
968
969
972
973
974
972
971
970
973
974
973
967
967
963
965
969
966
965
963
963
967
970
969
967
964
966
966
969
965
962
962
962
968
970
971
970
970
970
971
973
974
974
973
975
980
986
990
993
998
1008
1029
1056
1082
1110
1138
1172
1209
1240
1265
1286
1295
1291
1267
1233
1180
1120
1075
1036
1014
999
989
983
981
976
976
974
969
965
960
957
955
956
953
951
947
946
949
950
948
947
944
946
948
952
950
947
945
947
951
956
955
956
957
955
961
965
965
963
962
962
967
968
966
964
962
964
967
971
972
970
970
971
974
977
974
973
973
972
977
979
978
977
973
977
980
986
985
983
983
982
986
986
989
985
979
974
980
981
981
976
973
970
971
976
972
969
969
968
968
972
970
968
965
963
968
970
967
965
963
963
966
970
969
965
963
962
964
967
967
965
963
961
964
967
967
965
961
960
966
970
969
966
963
963
966
971
971
968
967
968
970
975
976
972
971
971
972
974
974
971
970
972
972
975
975
972
971
970
971
978
975
974
971
972
978
978
977
972
966
966
969
971
970
968
964
964
968
971
971
970
965
968
970
972
970
967
965
965
968
971
970
970
967
966
973
977
972
970
968
966
968
972
967
966
962
966
970
974
973
974
970
972
975
979
979
977
976
973
978
981
978
975
974
973
975
979
978
975
972
971
975
977
977
972
970
969
972
976
976
974
971
971
973
978
975
972
970
970
974
978
976
975
971
971
974
978
978
976
975
975
975
977
979
976
977
977
978
985
986
981
980
981
985
988
988
987
988
989
991
997
999
997
999
1005
1013
1021
1028
1043
1063
1091
1123
1159
1190
1222
1249
1276
1304
1323
1329
1316
1281
1231
1179
1127
1078
1038
1007
984
972
976
977
980
978
977
974
973
972
969
965
965
966
970
965
963
956
956
959
959
956
954
953
955
957
959
958
957
955
957
961
965
965
965
963
964
966
968
970
966
963
965
966
967
968
971
966
971
973
975
975
974
970
971
972
976
974
975
973
972
975
980
977
977
974
975
977
982
981
983
979
982
985
988
987
986
984
984
985
989
988
984
982
981
983
986
986
982
978
978
978
981
982
976
975
973
975
977
975
974
972
973
975
975
975
969
970
971
971
972
968
970
967
965
968
968
968
968
968
965
965
972
972
968
967
969
971
973
977
976
974
972
975
977
975
975
974
975
975
978
979
977
977
978
979
984
986
986
986
987
987
989
990
985
982
983
985
988
987
983
985
984
988
988
986
983
979
980
985
986
985
979
979
981
981
985
981
979
977
974
976
979
979
977
975
974
978
981
978
974
976
976
979
981
980
981
978
978
981
985
988
988
992
999
1008
1016
1030
1048
1069
1100
1132
1163
1196
1223
1251
1279
1301
1321
1315
1295
1258
1210
1155
1106
1059
1021
995
980
978
984
986
984
982
974
974
976
968
965
959
958
960
961
961
958
955
953
956
959
957
955
952
953
954
955
953
951
948
949
949
956
954
953
949
953
954
959
954
954
951
951
955
958
959
954
951
953
954
959
962
960
959
960
966
968
972
973
970
970
975
980
981
978
980
977
983
986
988
988
986
984
986
990
992
989
986
986
984
986
981
981
972
975
975
976
974
971
968
967
970
970
967
967
964
959
963
963
961
958
956
954
958
959
957
953
951
952
951
953
954
953
952
956
954
958
957
958
959
960
963
964
964
961
961
958
960
965
965
963
961
962
965
968
969
964
962
961
965
970
968
963
962
964
968
970
969
966
964
964
966
970
968
965
960
962
964
966
966
964
962
963
966
969
965
965
962
963
963
967
966
963
958
964
967
973
973
973
969
967
969
971
972
967
967
966
969
972
969
967
965
964
963
969
967
965
960
960
964
967
964
964
961
960
962
967
963
963
961
958
963
964
963
959
959
960
962
963
967
967
964
964
967
972
968
969
968
968
971
971
967
966
966
972
975
977
977
978
977
973
973
974
977
974
970
973
977
981
983
986
988
991
998
1011
1027
1051
1075
1101
1132
1169
1202
1229
1255
1278
1300
1302
1288
1260
1223
1169
1119
1078
1050
1021
1001
989
987
986
983
979
973
970
968
970
967
963
959
959
960
966
965
959
958
957
956
960
958
954
951
951
955
956
954
953
953
951
954
957
959
957
956
956
959
961
961
957
953
957
957
960
962
956
956
957
961
965
963
960
961
962
964
971
974
974
972
972
975
982
980
978
977
978
981
986
985
986
985
986
987
992
993
994
991
991
991
992
991
988
984
982
982
982
983
981
972
972
974
975
977
970
968
969
968
971
970
966
965
959
963
964
962
961
960
958
962
967
965
963
962
960
962
968
966
964
964
965
966
968
966
965
963
958
960
965
966
965
961
962
964
967
967
965
964
967
969
975
977
976
976
978
984
989
992
993
994
998
1008
1018
1026
1037
1061
1086
1114
1142
1170
1198
1228
1255
1279
1294
1292
1273
1245
1198
1148
1105
1063
1028
1011
997
989
984
984
981
977
975
972
972
969
964
959
955
956
960
956
954
952
946
951
953
949
948
947
947
947
947
945
946
943
944
949
953
955
956
957
955
958
965
964
964
962
964
968
974
975
976
975
975
982
984
985
984
983
985
985
991
990
993
993
991
994
1000
1004
1002
999
999
1005
1008
1007
1003
1003
1001
1002
1005
1001
997
993
991
990
991
987
983
979
977
979
980
979
976
972
968
970
974
974
972
971
970
973
978
979
979
976
976
977
981
978
978
978
978
982
981
981
980
980
978
978
985
982
981
980
982
986
989
988
988
985
989
994
999
1002
1005
1011
1022
1044
1070
1096
1118
1138
1166
1199
1234
1259
1276
1287
1285
1272
1246
1198
1154
1099
1055
1027
1010
995
985
981
982
984
986
981
977
971
968
968
969
967
961
956
956
956
955
954
953
950
947
953
955
954
950
948
946
947
948
952
948
946
945
947
950
950
948
944
946
947
950
949
948
947
946
954
957
960
959
959
960
962
966
966
966
967
969
975
981
981
980
982
983
988
994
994
993
991
992
999
1002
1001
1004
998
999
1001
1004
1000
1001
995
990
990
994
991
989
984
980
982
982
981
981
976
973
976
976
978
975
971
970
971
974
977
973
973
969
974
977
977
977
979
977
980
986
992
996
1002
1005
1020
1042
1068
1098
1125
1153
1186
1216
1251
1275
1297
1308
1308
1298
1276
1242
1196
1146
1101
1071
1048
1028
1009
1000
999
999
992
984
977
971
973
975
969
964
961
959
958
958
956
954
951
949
951
955
950
949
948
945
947
951
950
944
943
946
947
951
950
948
946
946
949
953
952
951
954
954
961
964
965
963
959
959
963
967
967
965
965
966
969
971
970
973
971
975
978
984
984
984
982
983
989
992
989
984
984
984
989
992
992
987
986
982
986
984
983
980
975
975
979
981
980
974
972
973
975
978
977
973
968
971
971
978
977
975
972
974
978
983
984
984
979
981
981
985
984
983
982
980
982
986
984
984
979
980
983
985
982
981
978
976
978
983
982
980
975
977
979
981
981
980
980
979
985
990
992
996
997
1004
1013
1027
1043
1059
1079
1101
1129
1158
1183
1207
1228
1249
1271
1287
1283
1259
1225
1178
1125
1086
1051
1021
998
981
979
982
982
978
971
966
965
963
964
958
957
955
954
957
959
955
953
949
953
955
953
949
947
943
945
947
946
943
939
941
944
945
947
944
944
942
946
949
949
948
945
943
948
951
952
952
948
948
952
952
954
953
952
952
954
958
958
954
955
953
954
959
957
956
955
957
961
966
968
970
971
970
973
977
976
975
975
974
977
976
977
974
971
970
970
973
973
968
968
966
967
968
968
964
965
966
969
970
970
969
964
963
967
971
971
970
969
968
970
973
974
971
969
966
973
975
975
972
971
970
970
971
973
970
967
968
967
971
970
969
970
968
971
974
975
973
971
971
976
979
978
978
976
973
975
979
977
978
974
974
974
978
977
976
975
976
976
973
977
976
972
974
976
977
977
975
973
971
974
976
977
976
969
972
974
977
977
973
971
971
971
975
973
972
969
970
972
972
976
972
972
975
976
988
990
990
992
994
1001
1010
1020
1032
1051
1075
1102
1128
1156
1185
1212
1240
1265
1287
1288
1269
1237
1195
1143
1100
1063
1032
1008
992
985
988
986
981
970
965
967
968
963
961
954
954
954
958
956
950
949
946
948
951
950
948
943
944
945
948
947
944
942
943
947
950
949
949
949
952
959
963
963
963
960
962
967
973
968
967
965
964
967
971
970
966
964
964
965
968
968
967
967
967
970
976
977
974
974
972
976
982
982
981
979
978
978
979
977
976
971
969
969
972
974
969
967
964
966
967
968
968
964
966
968
975
973
970
968
967
968
974
973
971
971
972
973
974
979
975
970
969
971
972
975
970
967
965
966
972
968
966
965
966
968
970
968
966
964
964
967
969
971
970
966
