989
986
982
984
987
986
983
980
978
979
978
978
975
972
973
974
979
977
978
976
975
977
978
982
980
980
981
982
985
986
985
983
983
988
987
987
984
980
977
983
986
988
985
980
981
983
985
981
982
978
980
982
984
981
978
976
974
977
977
978
973
969
971
975
977
974
972
969
969
974
975
975
974
973
973
976
980
977
975
971
973
976
979
979
980
977
980
981
986
983
982
980
981
988
990
992
994
994
994
997
1000
1001
1000
998
998
999
1003
1007
1006
1005
1008
1015
1035
1052
1079
1102
1132
1170
1209
1248
1283
1310
1343
1368
1380
1380
1355
1321
1264
1204
1155
1109
1065
1026
1002
993
995
993
988
981
974
972
971
966
963
957
956
957
958
954
954
951
952
956
957
959
958
955
955
956
958
957
957
956
953
959
957
958
957
957
957
960
968
968
969
966
963
968
969
967
969
969
968
971
973
973
972
965
968
972
976
977
977
974
974
979
984
984
981
983
988
991
997
997
997
992
990
992
994
997
993
986
985
985
988
989
985
980
981
980
982
979
978
972
972
974
978
975
972
968
970
973
976
979
975
971
967
971
972
974
972
968
970
976
979
978
979
972
972
974
974
975
974
972
970
971
977
974
972
969
970
971
973
974
971
970
967
973
975
978
975
972
973
976
979
978
978
977
981
980
986
987
985
980
981
983
987
983
982
981
985
987
991
993
990
982
984
986
989
984
985
981
980
981
981
981
977
976
972
975
980
981
976
972
971
974
974
975
971
964
967
966
972
971
968
965
965
967
971
972
973
970
966
971
972
973
975
970
970
970
976
978
979
976
974
978
982
984
980
980
977
980
984
983
982
979
978
981
985
986
984
980
978
980
986
987
985
981
979
980
982
979
982
977
977
984
987
987
989
988
987
989
992
989
987
986
982
986
986
988
989
988
985
987
994
991
990
989
988
990
995
993
996
996
1004
1015
1026
1037
1058
1081
1108
1136
1167
1205
1239
1274
1306
1337
1365
1381
1374
1354
1321
1274
1215
1165
1120
1083
1050
1030
1017
1008
1003
998
991
989
982
977
971
970
970
971
976
974
972
967
966
965
968
967
964
961
962
960
963
962
959
955
957
959
962
962
959
956
955
959
962
965
965
961
964
967
971
969
972
968
967
967
971
973
972
971
969
975
980
980
980
978
978
982
982
986
986
984
984
989
992
996
996
996
998
1002
1002
1005
1008
1009
1010
1014
1016
1015
1011
1010
1008
1008
1006
1005
1002
997
994
988
991
986
985
982
982
984
984
982
979
976
978
980
984
985
984
980
985
986
985
985
982
979
980
982
984
984
983
982
979
983
983
983
982
979
978
982
984
982
980
977
977
979
980
980
980
978
981
985
990
991
991
989
989
992
994
993
992
989
991
994
1002
1006
1013
1018
1035
1059
1093
1124
1151
1177
1209
1248
1288
1320
1344
1357
1360
1350
1324
1276
1211
1142
1092
1058
1033
1017
999
990
991
994
991
983
973
967
967
965
966
965
962
959
956
958
959
958
954
949
950
953
954
955
953
953
951
954
959
961
956
955
956
959
962
959
957
955
953
958
960
961
959
956
957
962
965
965
966
964
964
969
971
977
973
973
976
982
986
988
988
987
988
994
997
997
995
993
992
996
996
995
993
984
984
984
986
986
980
974
969
968
971
971
967
966
964
968
968
967
961
961
959
959
960
963
959
954
952
959
960
958
954
954
954
955
958
957
955
952
950
955
959
958
956
956
957
958
965
962
960
958
958
965
969
971
970
967
971
975
977
977
978
982
988
1000
1016
1040
1068
1097
1130
1162
1196
1240
1279
1316
1346
1372
1378
1371
1341
1297
1236
1168
1116
1070
1036
1013
996
992
992
989
983
971
967
963
965
960
957
952
948
948
950
946
942
940
935
938
939
938
935
931
928
932
933
936
934
930
929
934
937
938
937
935
934
937
941
938
939
937
936
937
941
943
942
942
943
949
952
953
954
955
955
957
959
963
963
961
964
967
970
974
973
972
976
979
984
989
987
984
982
988
990
990
986
985
983
979
981
979
976
970
971
970
971
970
964
962
961
963
964
962
958
959
957
959
966
963
960
955
952
957
961
958
956
954
954
958
961
961
960
957
960
965
969
970
967
966
963
965
971
971
968
964
965
966
973
972
966
962
966
969
970
969
969
965
966
968
971
969
965
962
963
964
968
969
967
964
965
964
969
966
959
958
959
960
963
961
960
958
957
958
961
960
958
955
952
955
960
959
958
957
954
955
963
963
963
960
963
965
968
968
968
966
965
965
969
966
967
963
961
964
968
965
967
964
964
966
968
967
965
963
964
966
971
969
966
964
965
967
967
967
964
962
963
966
969
965
961
960
960
958
964
962
965
962
962
962
964
966
962
959
958
963
963
967
965
962
963
964
970
969
969
968
968
971
973
972
971
970
969
969
974
973
972
970
969
972
975
974
972
970
971
971
978
977
976
975
973
977
980
981
980
978
982
985
990
987
989
989
995
1004
1010
1024
1040
1065
1098
1132
1172
1213
1251
1285
1320
1354
1376
1376
1356
1317
1259
1197
1143
1088
1044
1002
981
973
976
982
981
976
975
973
971
967
962
956
954
952
957
956
953
948
944
948
953
952
951
949
947
952
953
952
949
947
949
951
953
956
953
949
949
950
954
955
955
947
951
952
956
953
953
951
951
954
953
955
955
955
954
959
961
961
961
957
956
960
963
963
964
963
964
966
971
972
971
971
973
975
980
981
981
982
983
986
988
987
986
983
983
983
984
981
979
977
974
977
977
974
973
970
969
969
975
974
971
967
969
970
972
971
967
968
968
970
973
971
969
968
969
974
975
976
975
974
973
978
978
979
979
976
978
981
980
981
978
977
975
977
976
976
973
972
971
973
977
976
974
969
969
973
977
976
972
971
970
972
975
975
973
970
971
972
975
977
972
971
970
971
972
974
972
971
970
971
973
971
970
965
969
973
977
976
975
971
977
978
981
981
978
973
972
976
975
970
966
963
966
963
965
966
963
960
961
965
966
961
959
958
958
962
963
961
956
955
957
959
962
960
961
958
962
963
965
968
966
963
964
965
969
967
965
965
964
965
966
965
964
964
963
969
971
974
972
967
969
974
976
975
973
970
973
972
974
976
973
966
970
967
969
970
971
964
968
969
972
967
967
966
965
966
969
967
968
965
962
968
969
970
968
966
963
969
975
976
974
975
975
981
982
983
983
981
987
993
1001
1008
1012
1023
1046
1076
1112
1146
1184
1222
1260
1298
1337
1367
1382
1381
1357
1320
1261
1193
1132
1080
1039
1011
994
991
990
987
986
983
980
975
968
961
959
959
959
958
957
952
949
952
953
953
948
947
947
946
951
954
950
947
948
950
955
956
956
953
953
960
961
963
957
955
958
958
966
969
968
965
966
969
973
976
972
971
971
974
975
976
974
972
972
972
977
974
974
974
973
975
980
983
982
979
980
984
986
984
980
980
981
983
983
982
978
979
977
978
982
977
976
971
973
972
977
977
974
969
969
975
976
976
975
973
973
977
981
977
975
973
973
976
979
979
980
982
980
982
984
987
983
978
977
979
982
982
979
973
974
975
980
975
977
973
974
978
979
979
979
978
978
983
984
979
975
973
973
981
984
984
980
981
985
988
993
994
994
998
1007
1018
1041
1067
1099
1129
1164
1208
1250
1289
1321
1351
1371
1377
1359
1312
1249
1178
1114
1060
1027
998
984
983
982
988
984
978
972
967
961
962
961
955
953
948
947
949
953
953
951
948
946
949
950
951
951
944
945
947
951
947
948
946
948
953
954
954
954
951
955
955
960
960
959
960
958
962
965
968
967
967
969
973
977
979
974
979
981
983
988
987
985
983
984
989
991
988
987
984
986
984
985
982
978
973
971
975
976
969
963
961
961
963
964
961
960
956
952
951
953
955
950
950
951
952
957
952
951
950
947
950
958
957
956
955
955
959
961
960
959
958
958
961
965
966
964
966
964
965
967
967
961
960
960
964
961
963
960
959
963
965
969
964
966
959
960
963
968
968
966
961
965
965
967
963
962
957
961
958
960
961
958
956
958
957
960
956
954
953
951
953
955
954
949
948
950
952
956
952
951
949
948
953
954
956
955
955
954
958
957
961
959
958
957
956
958
962
959
959
955
957
958
954
958
957
955
959
962
958
961
956
956
960
961
957
956
954
955
956
959
959
958
955
955
953
959
958
956
954
955
956
959
957
957
954
954
957
959
956
954
949
946
949
954
955
952
951
951
954
955
957
955
951
951
954
959
958
960
956
955
961
960
964
963
962
965
968
967
969
972
968
969
971
977
979
980
981
991
1003
1023
1049
1080
1111
1151
1192
1237
1276
1307
1336
1363
1378
1376
1345
1295
1227
1164
1111
1069
1033
1006
994
991
990
988
979
971
959
959
957
958
953
949
943
945
941
947
947
945
941
939
941
943
941
940
933
934
937
939
941
939
937
939
944
947
946
948
943
945
947
952
950
949
945
945
945
951
953
953
948
953
954
959
959
957
958
958
963
968
963
963
961
959
966
969
964
966
965
968
973
977
979
979
973
971
977
978
976
975
969
965
966
969
963
962
956
953
959
961
959
956
953
953
958
962
962
963
962
963
968
969
967
966
964
965
966
972
966
966
965
967
968
973
972
971
970
968
974
974
970
966
962
962
965
965
964
964
962
963
966
970
966
962
963
963
967
969
966
963
961
962
963
965
963
962
962
961
962
964
963
961
958
958
965
966
968
969
970
973
973
977
975
976
972
968
968
971
974
973
970
968
968
972
968
965
964
964
964
967
968
963
958
955
959
965
965
962
961
961
964
969
967
966
962
961
965
968
967
966
958
962
963
963
961
958
954
955
957
959
958
955
954
953
960
961
961
959
960
962
964
968
971
972
971
971
973
975
976
974
970
970
972
977
975
971
969
968
971
973
972
967
964
963
967
970
969
969
970
974
982
990
998
1001
1013
1033
1068
1103
1141
1179
1219
1260
1298
1336
1362
1371
1363
1332
1290
1232
1168
1105
1056
1016
993
985
980
978
972
969
968
966
965
961
957
958
961
960
961
955
954
954
951
954
951
946
944
942
943
945
943
941
937
937
937
939
939
940
941
941
943
946
947
943
941
943
945
951
949
946
945
949
952
956
953
952
951
953
953
960
956
958
959
959
965
967
971
968
966
968
968
974
976
977
976
979
985
990
992
991
990
989
990
991
988
981
976
974
975
975
970
969
964
960
962
964
961
961
957
956
957
958
955
956
952
953
956
961
960
958
957
955
953
959
958
956
956
956
956
959
958
956
956
954
954
959
959
959
957
956
959
964
962
964
966
964
972
972
973
973
971
972
976
978
974
969
971
972
976
978
977
974
971
970
972
978
976
972
971
967
969
969
965
968
965
965
969
972
971
968
966
965
970
974
971
971
969
974
979
989
993
1000
1008
1025
1054
1087
1123
1159
1197
1236
1274
1308
1342
1361
1367
1361
1340
1295
1235
1169
1113
1064
1027
995
975
967
967
970
975
974
968
965
959
955
954
955
956
953
948
947
949
948
948
943
940
938
938
942
936
935
935
936
935
940
936
935
932
931
936
941
942
940
934
934
940
945
946
945
944
944
948
953
951
948
947
948
957
959
960
960
958
958
960
963
961
960
956
960
965
969
970
968
963
963
969
968
971
972
967
965
964
966
964
963
951
954
956
962
961
958
955
953
954
955
956
952
950
947
949
954
953
949
947
943
945
950
948
946
947
949
952
954
955
954
950
953
955
958
959
956
952
952
953
957
958
953
953
953
957
961
963
957
956
961
963
971
972
970
969
970
976
980
983
987
991
1001
1023
1055
1089
1123
1155
1191
1235
1278
1315
1341
1353
1359
1362
1348
1313
1266
1205
1144
1091
1059
1033
1009
989
978
973
976
973
964
956
951
953
953
947
944
940
937
940
943
944
941
936
938
938
940
939
931
927
929
927
932
935
932
931
934
936
938
939
937
933
933
938
937
936
932
928
929
935
939
939
939
936
938
936
939
942
941
938
936
942
946
945
943
945
946
952
954
957
959
960
964
969
971
977
975
970
970
976
983
977
977
970
972
974
976
973
968
964
960
962
963
959
956
954
954
958
962
960
957
952
952
955
957
956
952
946
948
950
953
948
948
946
944
950
949
947
944
940
943
946
951
953
951
947
948
951
955
955
954
953
952
954
958
956
956
955
955
958
963
961
958
961
963
966
969
968
964
961
962
962
963
961
960
955
957
961
962
965
962
958
957
962
966
964
960
956
956
958
961
959
957
956
954
957
959
959
952
951
952
956
957
956
956
951
948
951
951
949
948
948
944
946
948
945
946
945
945
947
949
948
947
943
946
945
948
948
946
946
946
950
950
950
946
944
945
946
953
953
953
951
952
955
956
958
956
953
956
959
959
960
956
957
957
962
960
956
955
956
956
959
961
959
955
953
951
948
954
955
954
953
949
951
952
954
953
950
948
951
952
952
950
950
950
951
951
951
952
951
949
951
953
952
951
951
950
955
955
955
954
950
953
954
960
960
958
954
956
957
961
961
956
956
956
958
959
962
964
961
960
965
968
971
965
963
963
967
973
974
973
975
981
993
1007
1024
1046
1071
1102
1134
1167
1198
1229
1255
1281
1304
1315
1306
1275
1242
1193
1149
1106
1065
1032
1002
982
975
973
970
970
963
962
960
957
954
944
946
945
951
951
950
949
948
945
947
951
949
942
940
942
944
945
945
940
937
938
941
942
942
944
943
939
943
945
945
941
940
940
945
946
946
943
941
942
945
948
948
945
945
944
945
953
952
949
948
950
951
957
958
955
950
956
959
965
964
964
963
964
965
973
972
973
969
969
970
973
977
975
973
971
972
971
973
971
968
965
966
964
965
961
957
953
954
958
957
954
949
950
952
956
957
954
951
951
951
957
956
950
948
946
949
952
953
951
951
950
952
957
955
954
951
951
956
959
962
960
958
959
961
967
968
963
963
964
964
969
970
971
971
973
975
978
977
978
976
976
978
981
981
979
977
978
977
980
980
975
973
969
973
977
972
970
969
968
967
971
969
968
964
963
965
967
967
964
961
961
961
960
958
956
955
957
959
963
962
960
957
953
956
957
960
957
954
952
956
960
958
954
951
954
963
968
966
965
965
966
968
966
966
963
962
961
960
962
960
959
959
959
961
964
967
967
967
965
975
978
979
973
969
975
982
988
989
989
993
998
1011
1032
1051
1074
1102
1131
1165
1200
1231
1256
1277
1300
1314
1313
1293
1254
1204
1143
1095
1060
1034
1009
991
982
979
978
978
973
967
965
966
965
966
962
960
959
960
964
962
959
955
957
958
961
961
958
952
953
954
958
958
957
953
954
957
960
960
959
958
960
965
966
967
967
966
966
969
975
972
971
970
970
976
976
977
973
970
969
972
977
977
977
975
973
978
979
982
977
978
978
985
989
991
988
986
986
990
994
992
988
986
983
984
987
984
981
976
978
976
978
974
970
966
965
963
968
966
962
963
961
963
964
963
961
959
959
964
966
966
963
963
966
971
975
972
968
968
969
969
973
971
968
969
968
974
975
975
971
971
971
976
977
975
975
978
979
981
984
983
984
984
991
1000
1009
1012
1018
1033
1055
1087
1121
1151
1179
1212
1248
1289
1325
1348
1358
1353
1327
1286
1229
1156
1091
1045
1018
1004
996
992
988
984
981
978
977
971
968
964
963
964
968
963
962
953
956
957
959
957
956
953
954
956
959
959
957
954
956
958
959
961
960
959
959
961
967
968
969
967
968
970
973
975
974
972
974
976
981
979
978
974
979
981
986
988
986
988
986
991
995
998
997
993
996
999
1003
999
997
992
992
991
994
993
991
983
982
981
984
981
977
974
973
975
979
975
971
971
969
973
975
975
971
972
972
974
975
975
969
970
972
975
977
976
976
972
974
975
980
980
975
974
973
979
980
981
978
975
976
979
982
980
979
974
976
980
984
982
979
978
981
985
989
991
985
988
992
999
1008
1019
1030
1048
1073
1102
1132
1160
1186
1216
1250
1286
1314
1331
1337
1329
1305
1268
1224
1164
1106
1069
1043
1025
1012
999
992
989
984
987
985
978
969
966
962
962
962
961
959
955
955
956
957
955
952
951
949
951
955
951
948
948
947
950
951
949
946
942
943
950
952
949
946
947
951
952
954
951
948
947
948
952
956
957
955
956
955
959
963
961
957
959
960
966
969
972
972
970
972
976
982
979
983
982
980
982
983
979
978
979
978
975
975
974
971
970
969
971
974
972
969
963
964
966
968
965
960
962
962
964
969
966
965
965
966
969
974
972
972
968
971
977
981
981
981
979
977
981
986
989
995
994
1001
1010
1028
1053
1085
1116
1147
1186
1224
1262
1300
1328
1347
1355
1344
1312
1259
1194
1120
1066
1035
1013
994
983
983
985
984
979
971
961
961
960
964
954
948
945
943
945
948
947
941
939
938
941
940
940
940
941
941
945
948
945
942
943
946
950
953
950
947
946
948
950
955
956
955
954
956
960
960
958
958
956
959
962
967
968
