972
969
972
973
975
975
974
971
973
974
979
977
977
974
975
976
980
978
974
975
976
979
979
979
980
981
982
981
982
983
978
978
981
983
984
984
979
977
975
974
977
977
975
972
974
975
975
974
970
970
968
971
974
973
968
966
970
975
979
978
978
977
975
982
983
984
984
982
986
989
993
992
993
994
999
1004
1014
1028
1051
1078
1108
1140
1178
1210
1234
1260
1293
1317
1331
1320
1292
1249
1196
1138
1092
1052
1022
1001
990
989
993
990
986
977
971
969
966
964
959
956
955
955
956
953
951
948
951
953
955
954
954
956
957
959
965
964
963
961
961
964
971
971
970
968
970
972
974
976
973
974
978
983
985
983
981
980
981
984
986
990
988
986
985
990
991
991
989
989
989
993
997
996
990
992
992
993
999
997
993
992
989
990
992
991
984
982
983
980
983
980
979
975
980
982
980
980
976
972
974
975
977
978
977
975
977
980
986
983
983
980
979
984
987
983
983
979
979
979
978
980
976
973
976
977
976
976
972
969
971
970
972
970
967
965
963
967
970
967
968
963
962
967
968
967
963
962
963
965
967
964
963
963
963
968
970
970
967
968
972
973
971
975
974
973
971
979
982
983
976
975
980
980
981
982
977
977
978
977
979
979
977
973
972
973
976
978
974
975
974
978
977
977
975
973
973
975
977
978
974
973
971
975
977
974
974
969
968
973
974
974
970
970
969
973
978
979
977
981
981
987
990
991
991
995
1003
1007
1015
1026
1039
1058
1089
1118
1149
1184
1218
1244
1271
1300
1319
1321
1305
1276
1234
1188
1140
1093
1061
1037
1016
1004
999
998
995
987
983
983
981
978
969
966
963
963
964
962
960
955
956
958
958
955
952
947
949
948
952
952
951
949
952
958
961
961
964
963
966
970
973
973
972
972
974
978
983
982
980
980
982
986
988
989
989
985
990
995
999
998
995
992
997
1002
1004
1004
998
1000
1001
1008
1008
1007
1008
1007
1006
1010
1013
1010
1008
1005
1006
1009
1007
1001
999
995
996
994
992
987
982
978
980
980
983
978
974
970
969
975
977
976
971
973
974
980
982
979
979
978
980
981
984
981
980
978
978
983
983
981
978
973
973
977
979
979
977
975
975
978
981
980
978
975
976
979
982
978
979
977
978
979
984
983
980
980
979
982
985
987
986
983
983
988
989
987
983
977
978
977
981
980
979
979
984
988
991
991
987
985
987
989
994
994
990
989
991
992
993
993
989
987
988
987
989
986
984
982
982
987
988
985
980
978
980
980
980
979
976
975
974
978
981
980
979
977
977
980
980
980
978
976
978
983
986
986
982
980
983
981
987
986
983
981
982
979
983
985
981
981
980
979
983
982
979
980
980
985
989
989
986
985
987
991
992
997
998
1003
1004
1010
1016
1020
1029
1047
1073
1100
1127
1155
1184
1213
1241
1271
1296
1317
1322
1309
1280
1245
1198
1141
1095
1056
1029
1018
1009
1004
1001
1002
1002
1002
999
992
985
982
982
984
984
983
979
975
975
980
981
978
976
974
976
978
982
983
980
976
975
976
981
979
976
975
977
981
985
987
983
982
981
983
986
986
983
979
982
981
984
983
978
979
979
983
988
988
988
984
984
989
992
991
990
990
993
999
1004
1001
1003
1006
1008
1007
1011
1014
1012
1009
1010
1013
1013
1010
1008
1005
1003
1004
1006
1002
996
992
995
996
994
992
987
984
983
983
984
984
980
979
978
981
984
979
977
976
978
981
981
979
977
974
975
978
979
973
972
966
967
971
972
971
968
963
964
967
969
969
968
969
969
975
975
973
970
970
974
977
977
980
978
976
980
984
985
985
978
978
980
981
989
987
982
982
982
986
985
987
985
984
986
990
993
990
990
984
990
992
994
993
992
990
991
991
994
993
990
987
985
987
989
986
981
984
983
988
992
991
993
991
996
1007
1022
1045
1066
1089
1115
1145
1177
1205
1225
1246
1272
1284
1279
1257
1224
1179
1128
1087
1051
1028
1008
995
991
993
995
990
984
978
976
975
974
971
971
968
970
973
977
974
971
968
970
972
977
976
972
970
969
972
971
968
967
964
966
966
969
965
964
962
962
968
971
969
968
968
970
971
974
978
978
977
978
983
986
988
986
986
989
993
997
996
994
991
994
996
999
1000
1000
1000
1002
1007
1008
1007
1009
1007
1009
1014
1014
1013
1009
1005
1002
1000
1002
997
994
989
988
986
988
983
981
978
976
976
979
976
972
970
970
972
974
972
971
970
969
975
974
975
970
969
969
970
973
971
969
967
968
967
970
967
965
965
962
964
968
969
966
963
964
967
971
969
971
970
972
972
977
977
973
970
971
972
974
974
967
969
974
975
982
983
979
980
983
985
987
985
981
981
982
984
985
985
979
976
978
979
981
979
976
972
973
974
974
974
972
973
974
976
981
984
983
987
998
1009
1031
1051
1076
1097
1130
1164
1195
1225
1253
1280
1297
1298
1280
1244
1192
1133
1083
1043
1013
991
981
976
982
984
984
979
973
970
969
968
968
962
961
958
956
959
963
960
956
955
956
957
959
959
962
960
962
964
967
966
965
962
964
970
968
968
968
966
967
969
971
972
970
967
972
972
977
977
977
979
981
985
986
984
985
985
991
993
998
998
996
996
1002
1003
1004
1003
998
1002
1002
1008
1008
1006
1004
1003
1004
1007
1006
1001
998
995
994
994
993
989
987
984
984
985
987
986
979
977
979
979
980
977
971
971
974
975
977
974
971
969
970
974
974
969
966
967
969
972
975
976
974
973
974
974
978
976
971
967
969
972
975
970
968
966
970
972
970
971
969
969
968
972
976
972
970
971
970
977
983
984
989
1004
1023
1050
1084
1115
1142
1171
1208
1247
1278
1303
1318
1327
1321
1296
1251
1198
1136
1083
1047
1031
1016
1004
998
991
989
988
982
979
971
965
964
962
964
959
955
951
951
954
954
951
950
946
945
948
949
950
947
946
945
946
950
947
944
944
944
945
949
949
948
948
952
954
960
963
966
965
970
976
979
982
980
981
984
988
991
989
987
986
988
988
989
990
986
987
988
988
992
992
990
987
982
986
988
985
979
975
976
976
974
971
967
964
961
967
965
965
959
954
953
957
954
955
952
949
953
957
960
962
960
962
963
964
967
965
963
961
962
967
967
966
967
968
969
974
975
970
967
968
970
972
970
969
970
966
970
971
972
972
967
967
967
968
970
969
965
961
963
965
966
964
963
958
960
960
963
964
961
961
963
966
970
970
973
971
972
976
974
972
970
968
968
972
977
976
976
976
977
978
979
978
973
972
973
975
977
975
972
968
972
972
976
974
972
968
971
973
972
971
971
968
970
971
975
971
971
968
968
970
973
970
968
971
974
976
980
983
989
998
1007
1028
1052
1079
1105
1132
1166
1206
1240
1269
1292
1311
1317
1297
1261
1206
1148
1094
1054
1024
1005
993
984
982
982
979
977
969
962
959
958
955
957
957
955
955
957
959
957
959
956
951
953
956
954
956
951
949
950
951
952
952
951
950
950
956
958
963
962
960
960
965
970
968
969
970
973
977
979
979
975
972
974
974
978
972
975
973
976
976
980
980
977
974
975
981
984
982
982
975
979
982
984
982
981
979
978
979
982
980
981
977
978
978
980
977
977
973
970
973
972
970
971
967
968
972
973
974
968
969
974
976
980
978
977
974
973
972
977
974
972
968
967
971
972
973
968
965
963
967
972
969
964
962
962
965
965
963
963
961
961
967
967
965
963
961
960
965
967
967
964
964
968
972
975
977
973
973
977
981
984
981
978
980
982
984
985
986
982
978
978
980
980
978
974
972
971
968
969
970
966
967
965
966
965
965
962
960
964
962
962
961
960
957
956
958
961
959
956
956
958
958
960
961
954
953
956
960
962
960
958
956
961
966
972
976
975
975
977
979
984
983
980
980
979
982
984
982
977
976
976
976
979
978
973
971
969
971
974
969
966
964
965
969
966
970
966
968
969
971
971
972
970
970
979
985
993
1001
1014
1037
1065
1094
1127
1155
1186
1214
1241
1269
1286
1282
1255
1216
1159
1107
1070
1037
1014
998
990
992
995
991
985
977
977
977
975
975
974
972
975
974
973
971
967
962
960
959
961
960
955
952
952
956
956
956
956
952
954
955
957
957
954
952
954
955
956
955
954
953
955
961
963
961
958
957
958
960
963
962
961
960
958
966
970
972
970
968
973
977
980
982
979
982
986
993
998
997
994
992
993
993
997
995
990
987
986
986
987
982
978
975
977
981
982
980
979
975
971
973
970
973
969
968
967
968
971
968
966
966
966
968
966
965
966
962
960
963
961
964
959
960
960
963
965
964
961
962
962
967
968
968
968
967
969
971
969
971
968
968
967
970
971
970
967
964
964
967
967
965
963
962
963
967
969
971
968
970
971
973
973
974
967
964
965
968
971
967
965
965
966
967
971
969
966
963
965
967
964
963
960
958
958
958
964
963
965
960
964
968
969
968
968
968
969
974
977
976
973
974
975
974
978
976
972
967
968
968
971
966
961
960
960
962
964
962
961
963
969
973
972
974
972
968
970
972
977
975
971
970
970
973
974
972
967
967
967
973
971
971
967
963
964
963
967
965
962
959
963
966
967
966
964
963
969
975
982
982
981
979
982
985
986
987
986
985
987
988
989
986
982
975
976
980
980
980
976
974
979
980
983
984
981
979
978
980
982
977
972
974
975
977
978
976
972
970
973
975
972
973
972
968
969
971
973
971
969
966
967
971
972
969
969
970
973
977
982
982
980
980
979
980
986
986
986
982
985
983
985
984
981
977
979
981
982
982
980
979
983
986
988
989
982
981
985
987
988
989
984
981
982
987
988
986
982
981
982
983
985
984
981
977
979
985
982
982
981
980
980
984
986
985
980
984
988
993
998
993
993
994
995
1000
1003
1001
999
992
995
997
997
993
993
991
992
996
996
996
995
996
997
996
1000
999
997
994
1000
1009
1013
1016
1017
1026
1043
1068
1092
1124
1151
1180
1210
1241
1270
1294
1305
1297
1269
1231
1174
1120
1076
1042
1016
998
995
996
1001
1004
1002
1004
1001
997
992
991
992
991
990
986
984
980
979
980
979
977
972
970
971
974
977
974
972
974
977
977
982
981
979
978
979
981
980
981
981
979
981
984
989
987
986
985
986
992
994
992
989
991
993
993
995
994
994
998
1002
1005
1009
1011
1010
1011
1017
1025
1026
1030
1027
1022
1027
1032
1036
1033
1031
1029
1030
1030
1027
1025
1021
1015
1015
1016
1014
1012
1007
1006
1007
1009
1008
1005
1000
997
995
998
998
995
989
989
986
991
989
988
982
979
982
984
985
982
979
978
982
984
983
979
979
978
979
982
986
986
985
984
986
990
990
989
987
987
992
996
999
997
998
998
998
1001
1002
1001
997
996
995
1000
1001
1001
999
997
998
1001
1002
1002
1000
999
1004
1005
1004
1004
1000
998
996
999
1000
997
995
992
991
994
996
994
992
987
986
988
987
989
984
985
986
993
994
995
988
986
992
991
992
993
991
989
992
994
998
995
990
992
992
992
994
995
991
992
995
997
1000
997
992
993
993
996
997
995
993
990
988
991
991
988
984
984
985
985
986
986
983
985
987
991
995
991
988
987
989
990
994
991
986
990
993
995
999
998
995
996
1003
1007
1015
1017
1020
1036
1062
1091
1122
1150
1181
1213
1245
1278
1307
1331
1339
1334
1310
1272
1221
1164
1112
1070
1038
1016
1000
996
992
995
1000
998
997
991
987
980
980
978
980
978
973
973
972
975
979
975
973
973
974
977
980
980
977
976
978
980
982
981
980
977
979
982
986
984
983
979
983
986
988
985
988
984
984
988
990
992
988
988
987
989
990
992
989
989
992
996
999
998
996
992
995
1000
1005
1004
1001
1002
1003
1006
1007
1009
1010
1006
1007
1010
1008
1008
1008
1004
1005
1007
1006
1002
997
993
995
994
998
993
991
991
994
992
994
991
989
987
988
989
989
984
983
981
983
987
986
987
982
977
980
981
984
978
979
975
976
978
979
976
970
969
970
972
974
971
968
969
971
973
975
973
968
970
967
974
978
976
972
972
979
983
986
985
983
980
982
987
987
988
984
981
985
988
988
988
985
984
987
988
990
988
984
983
981
985
984
983
979
978
979
981
980
979
977
977
973
977
979
976
973
975
973
976
976
971
968
970
969
970
971
970
965
967
969
968
973
972
974
972
973
978
981
980
976
977
978
981
984
984
981
981
981
984
985
985
980
981
981
981
985
980
976
976
979
986
985
984
980
980
983
986
986
983
982
982
981
984
986
984
979
980
980
985
987
986
985
982
984
985
987
984
982
978
979
983
983
981
977
978
979
982
981
982
979
982
984
989
994
997
993
1001
1003
1010
1016
1020
1025
1033
1051
1073
1095
1121
1145
1170
1205
1236
1263
1285
1304
1322
1327
1315
1290
1249
1198
1148
1106
1073
1048
1032
1013
1006
1006
1006
1007
1005
997
989
990
990
987
985
976
976
978
977
977
974
970
968
968
969
968
965
960
961
961
964
964
964
960
961
963
965
968
970
968
968
970
975
975
977
975
973
976
982
982
980
981
980
984
987
991
991
991
992
993
995
996
998
996
998
999
1002
1006
1006
1004
1005
1008
1011
1012
1011
1009
1010
1012
1012
1015
1015
1013
1010
1011
1013
1010
1004
1000
1000
997
996
994
990
983
982
981
981
980
982
980
979
980
983
984
979
975
970
974
977
974
974
974
976
974
977
977
974
973
973
973
976
977
973
974
975
975
978
980
980
977
976
978
979
981
979
979
978
979
980
983
979
975
976
977
979
977
976
973
970
975
975
976
974
970
967
969
974
975
975
972
975
976
980
985
984
982
978
984
986
986
983
980
981
981
982
986
983
981
981
980
985
986
986
980
980
982
985
986
983
978
978
978
982
978
980
975
975
976
978
980
979
976
975
974
979
978
973
969
970
968
971
970
963
965
963
968
969
970
968
968
967
968
969
973
970
968
970
974
977
978
981
978
978
980
985
987
986
983
983
985
990
992
991
987
987
991
995
998
998
1001
1004
1010
1018
1024
1027
1038
1058
1082
1112
1144
1170
1200
1230
1262
1292
1318
1328
1322
1297
1263
1222
1168
1113
1073
1045
1024
1011
1004
999
995
994
991
993
990
985
981
976
979
981
982
978
975
974
973
976
978
972
974
973
975
975
977
973
972
969
970
975
974
974
970
968
969
972
971
970
969
967
970
971
974
971
970
969
966
971
973
975
973
980
981
989
993
992
989
990
992
996
1002
1003
1002
1003
1004
1009
1010
1010
1008
1012
1014
1018
1023
1022
1020
1019
1019
1020
1020
1020
1015
1011
1013
1012
1011
1005
1003
998
995
996
996
991
987
985
984
983
981
979
977
972
975
971
975
974
972
970
972
972
974
971
969
968
969
972
977
978
976
977
981
983
984
982
979
978
979
979
983
983
980
979
982
985
984
983
985
986
988
991
987
987
985
984
985
987
987
985
982
981
985
986
984
984
983
982
981
985
984
984
980
978
979
984
982
980
976
977
978
980
983
981
981
979
977
979
979
979
975
974
972
975
974
971
964
964
969
975
976
976
977
978
978
982
980
981
979
982
982
987
989
987
985
987
988
989
990
985
982
981
986
988
987
984
981
980
982
981
983
979
980
978
981
982
984
983
979
979
982
986
987
988
985
987
990
995
1001
1003
1002
1010
1021
1040
1063
1086
1113
1146
1181
1216
1252
1282
1312
1336
1343
1329
1289
1236
1174
1112
1067
1034
1010
994
989
995
1006
1011
1006
1001
994
987
988
990
989
986
982
979
979
982
980
976
973
971
974
978
980
976
971
969
969
972
971
970
969
968
969
972
972
972
971
974
975
976
979
976
975
975
977
980
984
984
979
983
987
992
991
993
992
994
998
1001
1002
1001
1002
1002
1005
1011
1012
1013
1013
1016
1021
1022
1020
1020
1019
1014
1014
1014
1010
1006
1002
1000
998
997
993
989
985
983
982
980
984
978
976
972
971
976
975
975
974
972
973
975
976
975
972
970
976
975
975
976
972
972
975
978
981
981
978
979
977
978
979
978
977
977
975
974
977
978
976
975
977
983
986
986
982
981
980
984
983
983
980
979
980
982
981
984
980
978
979
982
977
982
980
977
978
983
984
984
982
980
980
983
984
984
983
982
984
988
989
989
985
983
989
991
992
990
986
983
984
987
984
981
977
978
976
980
980
978
975
973
974
975
975
975
973
973
977
983
984
983
981
981
981
987
988
988
987
991
999
1007
1014
1024
1046
1074
1103
1138
1175
1208
1241
1271
1304
1330
1336
1315
1278
1225
1167
1119
1080
1042
1018
1005
1004
1008
1009
1002
995
995
989
990
983
979
974
966
971
971
969
966
964
963
962
960
962
963
956
956
954
957
954
955
951
952
955
956
955
958
958
957
960
965
967
969
971
971
974
977
979
979
977
979
982
988
990
994
991
992
996
998
1004
1005
1005
1002
1007
1012
1016
1013
1014
1012
1016
1016
1017
1016
1011
1006
1006
1004
1005
1002
998
995
992
990
989
985
979
975
973
974
974
968
964
961
961
962
965
963
962
966
969
970
972
967
966
964
965
970
969
972
970
970
972
976
978
973
972
970
974
976
976
978
976
975
975
977
979
977
971
971
973
975
977
976
970
971
975
976
972
973
971
973
971
971
973
968
962
966
967
970
971
968
967
967
969
969
973
972
