1250
1276
1301
1318
1325
1317
1288
1244
1192
1138
1096
1065
1040
1019
1005
1001
1003
1003
1000
995
986
984
979
980
979
978
976
971
974
977
975
974
971
973
973
974
974
973
971
969
970
970
972
969
967
966
964
966
970
969
967
967
969
973
976
978
979
982
982
986
985
985
982
978
986
989
988
991
990
988
993
997
1000
1000
999
999
1004
1008
1010
1010
1010
1009
1014
1017
1018
1019
1013
1011
1012
1014
1016
1012
1006
1001
999
998
999
997
991
989
988
992
989
990
985
977
977
980
979
979
972
972
973
978
979
978
971
971
973
975
973
974
971
970
969
973
972
971
970
967
966
973
975
972
971
969
971
976
978
978
974
973
976
979
980
979
974
974
976
981
982
981
978
976
976
978
981
982
980
976
978
982
984
983
980
979
982
984
987
986
983
981
982
986
987
986
981
980
981
982
984
979
978
972
975
978
979
974
970
970
971
972
973
972
968
969
969
970
973
972
967
965
967
968
972
972
969
966
967
972
972
968
966
967
970
971
974
975
972
973
974
978
981
979
972
970
971
975
979
978
979
978
981
986
990
987
987
984
985
986
987
987
983
984
985
989
992
990
986
983
985
990
990
989
988
986
987
993
993
993
991
987
993
999
1004
1007
1012
1019
1032
1055
1081
1104
1129
1154
1184
1218
1248
1272
1294
1308
1308
1291
1262
1222
1169
1122
1090
1064
1043
1024
1010
1000
1000
999
1000
992
987
983
984
986
988
986
982
982
978
983
986
983
980
975
975
980
982
978
975
972
972
976
974
975
974
972
973
975
980
979
979
978
976
977
978
983
981
979
978
982
984
984
982
980
981
984
984
987
983
984
985
988
992
994
993
993
995
1000
1004
1005
1003
1005
1009
1011
1017
1018
1018
1019
1022
1026
1027
1024
1019
1013
1014
1014
1013
1011
1004
1002
997
999
998
993
990
986
985
986
988
985
982
979
981
980
983
979
978
976
974
976
975
974
971
968
968
971
970
969
965
962
964
964
967
966
965
964
967
969
971
972
969
968
970
970
974
970
971
967
970
971
974
980
982
980
985
988
989
987
986
984
989
991
994
992
988
988
988
988
992
991
986
984
987
989
990
985
984
984
984
986
986
985
984
981
982
983
988
986
983
980
981
984
986
985
985
984
991
997
1005
1010
1022
1046
1070
1096
1124
1149
1180
1208
1238
1266
1295
1306
1301
1280
1247
1200
1150
1104
1064
1032
1014
1005
1002
1003
1001
1000
997
994
992
986
979
976
971
970
974
970
966
964
963
965
968
966
962
960
960
961
963
960
958
956
957
960
960
958
956
957
958
959
960
960
961
959
962
967
966
970
972
972
976
979
986
987
985
990
992
998
1001
1000
1000
999
999
1004
1006
1006
1004
1007
1009
1009
1016
1014
1015
1013
1015
1015
1017
1013
1010
1005
1002
1001
999
994
990
988
984
984
984
980
975
970
971
972
971
968
969
969
968
968
971
971
971
970
968
972
973
969
970
969
969
973
973
973
971
969
973
975
977
975
972
967
971
974
976
976
972
969
974
977
978
977
973
973
971
977
979
976
971
972
972
973
977
976
972
974
974
979
979
977
977
974
975
977
980
979
978
977
980
982
982
980
978
973
975
977
978
976
973
971
972
976
980
976
975
973
973
979
979
977
972
971
971
971
974
975
973
972
973
975
979
979
975
975
974
979
979
977
972
971
975
978
983
983
980
979
981
983
984
984
980
976
978
979
981
978
975
975
974
980
982
983
981
979
981
981
985
983
978
979
979
980
984
983
978
975
975
976
978
975
971
969
972
977
979
975
973
971
974
978
980
977
975
974
976
978
978
981
978
978
979
982
987
982
983
983
984
985
985
983
982
983
984
987
988
986
987
987
991
998
1001
1005
1010
1014
1021
1031
1044
1064
1094
1122
1159
1198
1236
1264
1293
1323
1347
1357
1338
1298
1244
1180
1123
1082
1045
1010
994
990
993
1000
1000
992
986
980
979
977
974
971
967
965
967
971
973
970
967
963
965
966
969
969
967
968
967
969
975
976
975
974
975
978
981
979
978
979
975
981
985
985
983
981
982
985
987
985
983
981
982
985
988
990
986
986
987
987
991
986
985
984
987
987
988
987
989
988
989
992
997
995
992
991
993
992
995
990
990
986
987
990
992
985
987
987
986
991
988
987
984
984
983
988
990
988
984
982
984
984
985
983
979
980
981
982
983
983
981
978
978
979
979
979
973
974
975
975
976
976
971
969
971
971
975
973
971
970
972
974
978
977
975
974
978
978
983
982
981
976
978
980
985
983
981
977
980
981
984
980
976
977
978
980
980
985
983
985
988
993
992
991
988
983
987
988
989
990
984
980
982
983
987
981
977
975
977
978
976
971
969
969
970
973
974
971
966
965
967
970
967
967
967
967
969
973
977
977
977
979
981
987
992
995
1000
1008
1016
1035
1058
1081
1107
1136
1168
1203
1234
1259
1280
1299
1311
1301
1276
1238
1181
1125
1084
1057
1035
1015
1002
1001
1002
1002
998
990
985
978
976
976
975
970
965
964
962
963
968
967
963
962
963
965
965
964
960
960
964
967
967
966
964
968
965
966
972
973
971
969
971
975
978
976
974
974
976
981
981
978
976
981
983
985
988
987
984
989
989
993
996
998
995
995
999
1003
1006
1009
1006
1004
1003
1005
1008
1005
1003
999
1000
999
1000
996
993
990
989
993
993
993
989
985
986
985
987
984
978
976
978
979
981
976
970
971
974
977
978
975
973
972
974
978
977
973
972
971
973
977
979
978
977
977
980
983
986
987
992
999
1005
1017
1030
1052
1076
1104
1132
1163
1196
1228
1257
1278
1295
1300
1292
1262
1214
1163
1105
1070
1047
1031
1011
998
998
999
994
986
980
974
974
970
973
967
962
962
961
963
962
958
957
954
956
955
956
954
951
952
952
955
955
952
950
950
949
953
954
954
952
950
954
960
963
962
961
959
962
964
966
963
962
964
968
972
976
977
979
982
985
988
995
995
998
999
1004
1008
1008
1008
1009
1009
1013
1013
1015
1012
1008
1004
1000
1002
1002
999
993
987
987
987
985
981
977
973
971
971
970
969
964
962
962
962
965
960
958
955
954
959
962
961
960
962
968
973
979
977
975
974
979
984
988
987
985
982
988
992
994
993
989
991
991
993
993
991
992
989
992
994
996
990
988
985
993
999
1004
1006
1013
1023
1041
1067
1098
1123
1150
1180
1213
1240
1263
1282
1290
1281
1255
1216
1164
1106
1056
1025
1004
993
984
981
979
977
974
974
970
966
962
960
957
960
956
955
951
950
954
957
954
957
953
952
952
953
954
953
951
952
953
958
957
956
955
953
954
959
959
963
961
960
961
964
963
962
964
963
960
964
966
967
964
961
962
967
970
964
963
968
973
975
978
978
976
976
976
982
982
982
979
975
980
985
986
984
981
978
978
978
978
975
973
972
970
973
975
972
967
966
966
968
969
964
963
960
964
966
965
964
956
958
960
961
965
962
961
959
960
964
966
964
964
963
961
966
968
969
968
968
969
972
973
973
973
968
969
973
977
973
969
966
969
972
976
979
975
973
973
977
980
979
976
973
975
977
979
978
974
973
975
975
974
971
965
967
965
967
968
965
966
965
969
971
972
970
970
964
966
970
972
972
971
968
973
971
971
968
968
968
971
973
977
977
978
977
978
980
980
977
976
974
973
977
978
977
974
974
976
976
978
977
975
976
977
981
981
981
979
981
985
992
997
1000
1004
1008
1018
1028
1041
1062
1080
1101
1127
1159
1192
1221
1245
1272
1295
1314
1309
1292
1252
1209
1158
1111
1073
1039
1009
993
988
987
987
981
973
970
967
970
963
959
957
951
951
959
962
960
954
955
962
964
968
965
962
960
962
965
964
964
960
960
963
967
970
965
965
964
964
968
966
964
961
962
962
966
967
966
963
962
962
969
967
966
961
963
965
967
972
970
968
968
971
970
970
970
968
971
972
975
981
980
974
977
980
981
983
983
983
980
983
985
984
983
979
976
981
982
985
983
982
980
982
981
981
978
975
973
974
975
974
972
969
969
968
970
972
970
966
964
966
966
966
965
963
962
963
965
965
963
961
958
961
965
965
964
962
962
963
967
967
966
964
964
967
969
972
972
970
968
971
977
975
974
970
970
972
974
977
975
974
973
974
975
979
978
978
980
985
991
995
998
1002
1001
1011
1021
1034
1052
1068
1086
1112
1138
1162
1187
1208
1229
1250
1266
1267
1253
1226
1187
1146
1110
1079
1053
1030
1010
1001
996
991
986
980
971
968
966
964
958
954
950
950
952
951
950
950
946
948
951
954
953
947
948
947
951
951
952
946
944
944
945
946
944
943
940
943
944
948
948
948
949
952
957
958
957
955
955
957
961
962
962
960
959
960
966
966
966
964
961
960
964
966
965
963
962
966
967
967
969
968
970
971
974
972
974
971
969
972
974
976
974
967
964
965
968
967
963
959
956
955
956
959
955
952
952
954
955
955
953
950
950
952
956
956
954
952
949
952
954
958
957
955
954
954
958
961
960
957
959
960
964
964
966
965
962
964
969
970
968
964
964
964
967
967
967
963
964
966
966
970
970
967
968
969
969
969
968
964
963
964
966
967
964
960
959
963
964
965
964
964
963
967
970
971
970
967
966
966
971
973
971
969
968
966
969
971
972
967
965
967
971
972
971
968
964
968
968
970
969
965
966
963
963
966
965
961
965
965
971
975
977
973
974
977
980
980
979
975
974
970
972
972
972
968
968
967
968
968
967
965
964
965
967
967
966
966
965
966
970
972
970
966
964
967
967
972
970
970
969
972
975
975
974
975
976
976
980
983
983
983
984
989
993
1001
1006
1011
1021
1041
1067
1087
1110
1134
1159
1190
1216
1239
1257
1271
1268
1260
1237
1203
1162
1118
1084
1058
1038
1023
1011
1006
1003
1003
1002
998
990
985
979
978
979
978
973
970
969
965
970
972
966
966
963
965
968
968
966
961
960
965
968
969
969
966
964
965
968
971
969
968
966
968
973
974
973
971
971
972
974
979
975
972
971
975
978
981
978
980
980
980
984
981
979
982
982
985
989
991
993
990
993
997
1001
1001
999
1001
1001
1004
1008
1009
1007
1005
1002
1002
1002
1000
997
994
991
986
988
988
981
979
976
977
979
977
975
974
972
977
978
979
976
973
975
974
978
978
974
971
974
975
977
979
979
975
972
976
975
974
976
972
971
974
979
980
977
977
979
984
986
986
986
985
987
986
991
993
990
985
988
990
996
998
996
994
996
1001
1004
1010
1009
1012
1015
1027
1042
1060
1077
1096
1119
1142
1167
1194
1220
1238
1258
1270
1279
1272
1250
1217
1176
1134
1092
1064
1044
1026
1012
1003
1000
999
997
991
983
982
979
978
972
968
962
965
964
964
963
961
957
957
960
957
960
957
956
958
962
963
963
960
959
962
966
970
969
968
967
967
970
972
971
968
966
969
971
973
974
971
971
973
976
977
978
973
972
975
977
978
976
974
973
978
982
983
982
982
984
987
989
991
991
988
991
992
996
998
996
995
997
994
997
997
994
991
989
990
986
987
986
979
979
983
985
980
981
978
978
979
980
976
976
974
975
974
975
977
977
974
973
977
979
982
981
979
976
981
981
983
981
977
977
978
980
980
977
975
976
976
979
980
976
975
972
974
978
981
979
977
977
976
981
983
982
977
977
978
983
982
982
979
979
980
985
986
983
977
977
981
985
986
985
983
982
981
988
987
984
979
982
984
987
984
984
982
982
983
986
992
988
987
985
983
986
987
985
981
978
979
981
979
979
975
975
977
981
980
978
977
974
975
978
978
978
977
973
978
981
980
978
977
977
979
984
988
984
982
981
982
988
992
990
992
996
1005
1012
1017
1028
1038
1057
1083
1112
1141
1165
1193
1221
1248
1275
1297
1310
1303
1281
1252
1212
1166
1119
1081
1052
1028
1015
1012
1010
1007
1006
1002
1002
998
991
985
980
980
983
982
980
974
974
973
976
980
974
969
970
970
972
975
971
966
964
965
968
970
966
963
960
962
964
967
963
959
956
960
964
964
963
962
960
960
965
964
963
960
959
961
965
964
965
963
962
965
968
972
971
968
967
972
976
979
978
977
980
983
987
990
989
985
984
985
992
991
991
987
986
988
991
989
984
977
976
977
976
975
973
972
966
969
969
971
969
965
963
963
967
967
964
959
957
958
965
965
964
959
959
962
965
967
967
962
963
966
969
969
967
966
961
966
971
973
972
969
972
973
981
982
985
980
978
981
984
982
980
975
977
980
982
983
979
975
975
976
980
982
980
975
973
976
977
977
977
974
972
976
977
978
974
972
970
971
973
974
970
967
969
969
971
971
968
966
965
969
972
972
970
967
967
968
972
972
972
969
969
970
978
980
980
977
974
976
981
982
978
974
973
975
978
979
978
975
978
979
981
981
980
977
976
977
978
978
976
974
973
972
975
977
974
970
968
970
971
973
968
969
966
966
969
968
965
963
961
960
961
962
963
959
956
961
964
966
963
963
963
966
966
967
970
966
966
968
973
975
974
971
970
975
975
977
976
974
973
973
976
975
973
972
971
969
974
973
970
971
969
971
972
975
973
966
963
965
964
971
969
967
966
968
971
974
978
977
980
987
993
1002
1007
1018
1037
1065
1092
1117
1143
1170
1197
1222
1251
1272
1274
1255
1229
1195
1152
1107
1072
1044
1023
1012
1008
1004
1002
995
985
980
980
981
971
967
964
963
964
962
960
955
953
952
956
957
956
952
951
952
958
956
955
952
952
957
960
958
957
953
955
956
959
959
957
955
954
957
959
961
960
959
959
959
963
962
960
958
961
963
968
969
970
969
970
970
975
973
971
970
972
973
974
980
982
976
981
983
985
987
984
982
980
979
981
981
979
977
977
978
979
979
977
972
971
969
971
971
968
966
966
965
967
968
968
963
961
965
969
967
966
964
965
966
966
969
967
966
964
965
967
968
965
961
962
958
965
965
963
961
961
962
961
962
963
960
961
965
971
972
973
973
976
980
980
985
984
981
982
984
985
985
987
984
984
984
985
987
984
979
981
982
985
986
983
982
980
983
985
986
984
981
978
978
982
983
980
978
976
975
978
978
976
972
972
974
977
976
975
969
968
970
972
972
968
967
964
963
968
970
969
968
966
974
978
982
982
979
980
981
981
984
984
983
982
983
986
987
987
983
984
984
987
987
986
984
980
985
988
987
986
986
983
983
988
985
980
980
979
980
981
984
980
977
975
978
979
976
975
975
973
975
977
977
973
972
968
967
970
970
968
961
964
966
975
977
979
980
982
983
986
988
986
986
986
988
989
989
987
985
983
986
990
990
987
986
986
989
991
992
987
985
986
991
992
991
989
983
984
987
987
988
988
984
985
988
991
993
992
992
995
999
1005
1010
1018
1023
1034
1062
1090
1117
1150
1180
1211
1242
1273
1301
1318
1318
1294
1261
1212
1164
1115
1071
1042
1024
1013
1008
1008
1009
1006
1004
998
999
993
986
985
986
986
984
980
977
976
977
977
977
973
968
968
969
974
974
974
971
970
970
976
976
972
969
970
973
975
976
974
974
975
976
979
981
980
978
975
980
984
984
981
978
981
982
984
987
982
981
983
986
990
990
988
988
990
995
999
1001
998
996
997
997
1000
1001
999
999
999
1000
1002
1004
1000
996
995
997
998
998
995
993
990
995
996
994
992
985
988
990
993
992
988
987
988
989
992
990
990
989
986
987
989
989
988
986
986
986
990
989
985
978
979
980
980
983
980
977
975
977
982
982
985
985
983
983
988
987
989
986
988
987
989
993
991
988
989
991
996
997
997
994
992
996
1000
997
999
994
996
996
1002
1003
1002
998
1001
1007
1007
1016
1016
1021
1027
1040
1059
1082
1105
1125
1152
1185
1217
1241
1261
1282
1294
1291
1266
1228
1175
1123
1082
1052
1030
1014
1004
1003
1001
997
997
994
985
981
979
978
979
980
975
971
972
972
973
973
974
969
967
971
973
971
972
971
970
972
975
972
974
970
969
972
976
977
974
974
974
977
981
981
981
979
979
982
985
986
987
985
986
988
988
992
992
990
991
995
997
1002
1003
1001
1004
1008
1015
1017
1019
1014
1013
1011
1014
1014
1009
1005
1004
1003
1003
999
993
989
984
985
984
982
975
974
971
973
973
970
970
965
963
967
968
967
964
962
960
964
966
965
963
959
961
963
968
966
962
959
961
967
970
971
970
969
972
975
980
980
980
976
975
977
984
984
985
986
989
996
1000
1007
1008
1017
1024
1040
1061
1086
1114
1137
1165
1198
1230
1262
1283
1293
1294
1288
1268
1236
1190
1139
1096
1074
1053
1035
1013
1001
995
992
986
981
976
969
962
964
964
961
959
957
952
951
956
953
951
948
950
952
953
954
957
954
954
956
958
958
956
954
953
956
960
963
961
962
964
967
972
972
972
969
969
970
974
975
976
974
973
975
978
979
978
974
973
978
984
982
982
981
979
981
987
988
988
984
985
986
990
993
991
986
982
984
985
985
983
976
974
976
976
977
975
970
968
970
970
969
968
964
964
963
966
965
964
959
963
964
966
966
966
960
960
961
964
967
963
960
963
964
968
968
970
967
967
969
968
970
967
961
964
966
965
970
967
967
964
965
970
970
969
968
965
969
973
972
974
973
970
975
975
