905
903
904
902
901
904
907
906
903
901
904
905
907
905
902
899
905
907
911
910
907
906
910
909
915
912
908
908
909
911
913
915
916
916
918
922
925
923
920
919
922
922
927
929
926
925
928
933
934
934
940
937
940
945
949
950
946
945
948
953
954
954
952
951
951
949
947
944
937
935
930
927
925
922
915
911
907
910
910
904
901
894
894
895
895
892
891
887
884
886
889
883
882
881
880
885
887
883
880
879
878
877
883
881
880
878
881
883
886
883
881
880
883
883
887
888
886
883
886
890
891
896
894
891
889
893
897
898
895
893
891
891
896
897
897
894
895
897
898
899
899
894
896
895
900
901
898
894
897
897
900
895
894
887
890
890
890
893
891
886
888
890
893
893
890
886
887
889
892
890
886
883
883
885
885
883
881
879
881
881
883
885
879
877
876
879
885
880
881
878
879
882
888
887
883
880
878
882
882
887
884
884
880
885
884
885
885
881
880
881
888
887
882
883
884
885
889
888
883
882
882
883
888
886
883
883
886
888
892
893
888
887
888
890
896
891
890
890
892
892
892
898
897
895
898
902
907
905
904
905
906
909
910
911
906
900
900
902
902
901
895
892
889
896
897
897
893
893
892
897
899
901
894
891
895
898
901
898
892
896
898
903
908
913
913
919
927
934
947
960
979
1002
1029
1053
1083
1106
1124
1144
1170
1183
1175
1145
1102
1052
1008
973
951
930
914
908
908
910
913
908
902
900
897
895
900
898
893
891
892
894
895
896
895
893
893
896
898
898
896
896
895
899
901
900
898
895
895
898
901
900
902
898
902
896
900
902
899
898
900
902
903
904
904
902
902
906
913
912
907
908
912
916
920
920
922
919
920
927
933
934
935
935
938
940
947
949
952
953
958
962
965
967
967
966
969
974
978
978
978
977
978
980
982
980
978
974
973
972
973
963
957
951
948
945
945
942
938
931
931
930
933
931
926
924
923
925
926
925
923
923
923
923
927
924
924
921
922
923
927
925
921
918
917
921
925
924
923
922
923
924
927
925
925
923
923
926
928
925
925
927
926
927
929
932
931
928
927
930
933
932
930
927
927
931
933
933
929
928
929
934
936
931
927
923
928
930
932
932
931
929
925
931
933
930
930
926
927
928
932
931
929
928
929
931
935
932
931
927
927
928
930
931
929
928
929
931
934
934
930
929
929
931
937
935
931
929
929
934
937
939
934
933
932
932
938
935
932
931
933
936
935
937
932
934
931
936
940
938
934
931
932
935
939
939
937
934
934
936
942
941
936
932
936
936
939
942
941
937
939
944
949
945
946
947
953
956
960
961
959
959
957
964
968
967
964
961
959
962
962
961
962
959
958
958
959
956
956
952
952
951
957
952
950
946
947
947
955
954
953
949
949
953
954
956
950
949
953
957
961
961
959
958
960
970
977
980
983
989
1006
1027
1053
1079
1104
1127
1155
1184
1210
1237
1262
1272
1260
1239
1208
1162
1109
1064
1028
1004
989
975
968
967
966
971
971
967
962
958
956
957
960
957
953
949
949
950
953
954
944
942
944
949
953
953
952
947
944
948
950
952
951
949
950
953
956
952
951
951
947
953
956
953
953
951
949
952
957
957
957
954
955
959
960
960
961
959
959
964
969
971
971
972
973
977
984
986
988
985
992
994
999
1001
1000
1001
1005
1009
1015
1015
1017
1015
1020
1024
1028
1027
1027
1024
1028
1032
1033
1029
1025
1019
1018
1016
1016
1014
1013
1008
1003
997
996
995
991
988
987
986
988
983
977
975
973
976
979
976
973
968
968
967
972
971
971
969
973
972
975
977
974
972
971
975
977
979
975
975
976
980
980
981
978
976
975
978
980
979
978
980
982
984
987
987
987
984
985
985
989
986
988
986
987
986
991
990
987
986
984
984
986
985
983
982
983
987
989
986
983
983
984
986
990
984
985
982
982
985
991
989
981
983
982
984
986
986
983
980
982
986
989
990
987
983
981
986
989
988
983
983
982
985
989
986
984
982
982
985
991
990
986
986
985
986
989
988
987
985
986
990
993
995
990
987
987
992
994
995
992
989
990
991
994
995
990
987
992
994
997
996
994
989
991
998
1001
999
998
995
997
1001
1006
1005
1009
1003
1005
1010
1014
1016
1014
1010
1009
1011
1017
1013
1011
1008
1007
1007
1011
1009
1007
1001
998
1003
1007
1005
1000
998
995
998
998
997
997
991
991
992
995
992
988
988
986
989
995
993
991
989
988
992
991
992
989
988
987
993
994
991
992
990
990
995
998
1003
1007
1010
1014
1025
1035
1052
1064
1083
1103
1129
1152
1176
1192
1204
1224
1250
1273
1272
1256
1224
1186
1145
1109
1069
1040
1014
997
990
989
990
988
986
986
984
986
985
981
973
971
971
975
974
971
962
963
964
972
970
967
963
959
962
965
968
968
960
961
966
969
965
963
962
965
967
969
965
965
967
965
969
970
967
969
967
970
972
975
975
975
974
976
979
984
983
981
978
978
982
985
987
987
985
983
989
996
995
993
991
994
1000
1005
1004
1004
1004
1009
1015
1018
1019
1014
1013
1016
1021
1027
1027
1029
1028
1031
1031
1036
1035
1034
1031
1033
1031
1034
1031
1025
1018
1017
1015
1014
1009
1001
997
996
996
996
991
986
980
977
979
977
975
970
964
966
968
972
967
963
960
960
965
967
967
965
963
960
965
966
964
963
958
960
960
966
962
963
961
963
964
968
967
965
962
965
967
970
969
966
966
965
968
972
971
969
966
966
969
971
968
969
968
966
969
973
971
967
966
967
967
971
970
967
963
964
968
972
971
970
966
964
970
974
970
968
967
968
967
971
969
969
968
969
968
972
969
966
967
967
969
972
970
966
967
967
965
970
971
969
967
968
970
971
972
971
969
966
968
974
973
971
968
966
969
972
972
970
968
968
972
974
975
972
971
970
972
975
975
973
968
973
974
978
976
972
973
975
982
985
985
985
986
985
986
990
993
988
990
991
992
993
995
992
988
988
992
994
992
986
984
982
981
985
984
982
977
975
975
978
975
974
972
971
973
975
977
972
973
973
974
979
978
973
970
972
975
979
978
977
975
974
978
980
983
982
985
991
1003
1010
1022
1035
1050
1079
1107
1139
1168
1186
1205
1227
1258
1277
1282
1262
1221
1178
1134
1089
1053
1024
998
984
977
981
981
981
976
977
976
976
973
968
964
967
967
971
969
964
965
965
967
970
967
963
962
964
967
970
970
969
966
967
966
973
973
970
967
965
971
975
973
971
970
971
973
978
980
976
971
975
980
982
983
981
979
980
985
984
986
987
984
990
993
995
998
999
999
1000
1006
1008
1006
1010
1010
1011
1012
1018
1019
1021
1019
1022
1027
1029
1030
1030
1031
1033
1038
1041
1040
1037
1035
1038
1041
1044
1042
1038
1035
1035
1035
1035
1031
1025
1017
1014
1009
1015
1012
1006
1000
997
996
996
992
987
988
984
986
987
984
981
979
977
981
983
982
981
976
976
977
978
979
977
977
975
979
982
980
976
974
975
977
979
979
980
976
979
982
984
983
981
980
981
983
985
981
982
976
975
979
982
982
979
977
978
978
982
981
978
978
978
977
981
982
979
975
977
976
978
979
974
969
970
975
975
977
972
973
973
974
976
974
973
971
972
971
976
977
971
966
969
975
977
977
974
971
971
972
974
973
972
970
971
971
973
974
970
969
969
971
973
975
972
966
967
974
974
974
972
970
969
971
974
974
970
969
969
972
975
974
972
969
969
973
977
976
975
972
973
977
983
987
986
984
982
988
992
994
993
990
990
992
996
999
996
992
990
989
996
992
987
983
985
986
988
988
981
979
974
975
976
975
970
971
968
969
971
971
967
964
967
968
972
971
967
964
967
971
974
971
969
968
970
974
981
981
980
980
981
987
993
1000
1003
1007
1017
1037
1063
1087
1106
1128
1154
1179
1201
1221
1242
1256
1253
1235
1206
1165
1117
1079
1049
1027
1011
998
988
986
986
987
987
983
976
974
974
976
973
977
973
970
970
969
972
969
968
966
967
969
973
974
970
967
968
971
972
971
967
967
967
969
971
971
970
966
970
972
975
975
972
969
972
975
976
980
978
974
975
980
982
983
981
980
979
986
988
989
989
991
992
993
994
995
997
996
998
999
1005
1006
1007
1006
1006
1009
1015
1015
1018
1018
1021
1024
1027
1031
1029
1027
1029
1031
1036
1031
1031
1030
1029
1025
1026
1024
1020
1016
1007
1008
1007
1003
996
991
985
983
983
977
969
965
959
960
964
965
965
960
955
952
949
949
948
943
946
947
953
953
950
948
948
950
954
956
955
953
954
958
960
962
961
961
960
963
967
966
961
960
962
966
966
967
961
959
955
958
958
962
962
959
959
962
965
963
962
963
963
967
971
972
972
972
969
969
971
972
971
970
969
972
975
978
976
976
979
980
983
981
979
973
972
969
970
972
969
966
969
971
975
975
976
976
975
977
977
974
969
964
966
970
975
974
974
973
969
969
971
967
967
967
965
967
965
966
966
967
967
975
980
977
976
971
971
975
983
984
982
977
980
981
985
984
985
984
989
995
1005
1006
1006
1000
1003
1007
1009
1007
1004
999
998
1002
1000
1000
998
995
1002
1005
1009
1006
1001
997
993
997
996
995
989
989
986
984
985
986
982
976
974
975
976
977
972
970
966
968
971
968
967
967
972
978
985
987
987
979
980
980
984
992
998
1003
1008
1020
1029
1037
1055
1078
1109
1143
1173
1201
1223
1242
1267
1297
1316
1306
1273
1227
1176
1124
1086
1053
1027
1010
1007
1011
1015
1019
1015
1013
1009
1011
1010
1009
1003
1001
1005
1000
994
996
997
998
997
995
999
1002
1000
998
998
1001
1009
1009
1001
994
991
995
1002
1005
1005
1003
1004
1008
1009
1004
994
989
990
996
1002
1004
1002
999
1005
1009
1017
1012
1006
1002
1003
1009
1018
1019
1016
1017
1018
1025
1031
1033
1033
1034
1037
1038
1043
1048
1048
1048
1050
1057
1059
1063
1061
1059
1060
1065
1067
1067
1070
1068
1066
1067
1070
1070
1067
1064
1060
1060
1060
1060
1058
1049
1044
1041
1036
1028
1018
1015
1014
1018
1019
1019
1014
1011
1006
1010
1014
1014
1007
1004
1005
1005
1009
1010
1004
1002
1003
1008
1009
1010
1008
1001
1003
1009
1012
1009
1007
1004
1001
1010
1015
1013
1009
1012
1010
1013
1016
1019
1012
1010
1013
1014
1021
1019
1019
1017
1018
1018
1020
1022
1017
1012
1013
1012
1017
1017
1017
1016
1015
1018
1020
1018
1014
1015
1011
1012
1014
1012
1009
1002
1004
1010
1014
1014
1011
1008
1008
1008
1010
1009
1008
1005
1005
1009
1012
1011
1009
1004
1005
1009
1012
1012
1008
1005
999
1002
1005
1007
1007
1005
1007
1010
1014
1010
1002
999
999
1001
1007
1011
1007
1005
1005
1008
1007
1006
1003
1004
1003
1007
1005
1005
1004
1000
1001
1004
1009
1007
1005
1003
1004
1006
1007
1009
1006
1004
1008
1015
1019
1019
1020
1018
1017
1020
1024
1030
1030
1026
1024
1024
1025
1024
1025
1022
1021
1021
1025
1027
1026
1018
1017
1020
1017
1016
1012
1008
1010
1011
1013
1010
1010
1010
1011
1017
1018
1019
1018
1014
1013
1016
1018
1019
1020
1017
1017
1022
1027
1031
1031
1024
1025
1023
1026
1028
1030
1035
1046
1058
1072
1091
1107
1124
1147
1177
1204
1233
1256
1278
1305
1315
1303
1271
1224
1168
1113
1076
1049
1033
1019
1012
1013
1014
1015
1014
1007
998
996
999
997
998
997
991
988
990
997
998
992
987
983
984
992
995
993
988
986
986
987
985
986
982
980
981
985
984
985
982
984
986
987
987
988
986
988
990
993
993
992
990
994
998
1000
1002
1003
1004
1005
1010
1015
1018
1017
1020
1025
1028
1026
1020
1014
1015
1022
1029
1031
1027
1027
1027
1029
1031
1035
1037
1039
1036
1037
1042
1050
1049
1048
1044
1047
1048
1045
1040
1032
1024
1022
1023
1017
1020
1016
1013
1011
1006
1001
995
990
989
989
990
988
986
985
980
973
980
983
984
982
979
979
979
980
980
980
981
986
995
1003
1002
994
983
972
969
973
976
977
976
976
978
982
983
983
981
981
983
986
988
985
986
992
998
1003
1003
1001
995
992
996
998
1001
997
990
981
979
981
984
982
982
986
989
991
988
984
985
990
994
996
994
994
996
1001
1001
999
994
989
991
991
995
996
994
989
988
991
997
1001
999
995
989
989
992
993
994
993
990
988
983
986
988
994
998
999
1001
1007
1005
1003
1002
1004
1002
999
996
994
996
1002
1012
1018
1017
1023
1033
1042
1048
1053
1060
1070
1075
1079
1082
1073
1051
1025
998
977
967
969
976
977
978
979
981
978
972
960
953
945
944
944
941
938
932
924
925
926
927
929
928
930
935
949
963
978
985
988
988
990
994
991
989
995
997
1004
1000
1002
1000
999
1004
1011
1016
1015
1015
1020
1026
1033
1033
1041
1045
1042
1030
1020
1015
1020
1022
1031
1039
1042
1050
1056
1060
1061
1066
1068
1073
1073
1076
1078
1082
1089
1094
1094
1097
1099
1109
1117
1123
1126
1128
1135
1143
1148
1149
1153
1156
1159
1164
1166
1164
1158
1155
1153
1147
1143
1138
1131
1122
1118
1111
1108
1101
1091
1081
1072
1064
1061
1055
1051
1040
1037
1034
1030
1025
1021
1016
1015
1016
1015
1013
1008
1002
998
995
995
995
992
988
985
986
990
988
988
986
984
985
988
985
983
982
978
980
984
982
977
973
974
975
979
975
970
969
970
975
978
977
971
965
969
968
974
975
973
969
968
970
970
971
969
967
965
966
967
966
965
958
958
959
963
964
961
958
958
960
963
962
963
962
960
962
964
964
962
958
958
960
961
960
958
958
959
959
963
963
960
958
957
956
958
957
956
955
957
958
964
963
955
955
955
955
960
960
958
956
953
960
961
960
960
955
956
957
954
954
953
953
955
954
957
952
954
949
946
951
955
954
953
949
949
950
956
956
957
952
949
949
951
952
951
950
951
952
950
950
949
948
950
952
950
953
947
947
946
948
950
949
947
944
943
943
950
948
948
941
943
945
950
953
951
946
946
947
947
947
947
944
946
949
951
949
947
944
942
945
952
951
947
944
946
947
950
954
956
957
954
959
961
962
962
962
960
963
968
967
969
968
967
970
972
971
964
962
961
963
962
959
957
952
950
950
951
949
944
939
939
940
940
940
937
935
936
936
939
936
941
938
940
943
941
943
941
939
940
942
947
948
948
948
949
955
962
967
973
975
982
994
1017
1042
1065
1087
1112
1136
1159
1179
1200
1220
1231
1218
1197
1162
1118
1076
1037
1008
991
976
965
966
972
975
976
971
967
960
959
959
958
956
952
948
946
946
950
946
942
935
934
936
937
935
933
930
927
928
931
932
930
929
928
925
929
930
928
927
926
928
930
932
931
929
929
931
932
933
933
931
933
937
939
941
939
937
939
942
942
945
947
946
943
946
950
952
949
948
952
957
960
961
958
960
961
966
971
971
972
969
969
973
977
978
979
979
981
986
993
991
992
992
991
992
996
994
993
986
983
981
980
976
971
969
968
964
962
958
955
950
946
946
948
945
943
935
936
936
936
938
937
937
935
938
938
937
935
935
934
941
942
944
942
939
939
939
942
943
944
941
943
943
946
946
947
947
941
949
948
950
946
946
943
946
952
948
946
942
947
949
948
950
949
947
948
950
955
952
952
951
950
952
952
953
954
954
951
956
962
964
964
962
959
960
960
960
958
957
956
960
963
965
962
960
960
962
964
963
960
959
957
958
964
963
962
962
960
959
962
963
962
955
957
960
963
961
961
959
962
966
966
964
963
959
961
961
963
964
961
961
960
962
962
963
961
962
961
962
964
962
964
961
961
962
965
967
963
960
962
967
971
975
976
974
976
977
979
982
983
980
981
983
986
986
983
980
985
985
984
984
982
979
977
981
984
982
977
973
969
970
969
969
965
961
960
963
960
962
961
956
958
961
961
963
962
960
959
961
967
966
964
962
960
963
969
968
968
964
969
970
974
978
984
988
995
1003
1018
1034
1054
1078
1107
1139
1171
1198
1223
1251
1274
1289
1281
1247
1197
1140
1088
1048
1018
994
975
967
965
967
973
967
964
958
960
958
960
960
957
955
955
956
959
959
955
954
950
953
956
958
956
956
954
958
962
963
961
959
957
961
962
960
958
957
955
958
962
961
959
959
961
964
967
967
965
965
962
963
966
969
968
965
965
968
971
975
974
969
967
972
976
976
972
970
968
971
975
976
977
975
975
978
979
976
976
973
973
971
975
977
978
974
975
976
979
979
983
984
988
992
996
997
993
989
988
993
994
991
985
981
978
975
977
974
971
966
962
964
962
956
953
951
949
951
954
951
948
946
942
944
943
944
941
936
934
931
929
929
930
926
926
932
935
934
932
930
927
928
933
933
933
929
930
933
937
937
937
936
934
935
944
945
946
944
947
954
954
957
953
947
944
940
944
942
939
939
937
938
942
943
940
937
938
940
943
942
939
942
942
948
951
950
951
946
945
949
950
949
949
944
943
943
946
945
943
942
939
942
945
945
942
939
938
937
943
941
941
940
941
938
938
941
940
938
939
941
943
943
942
940
938
943
944
944
942
941
943
944
946
945
943
940
939
944
947
949
945
943
944
945
945
947
943
940
938
943
947
948
948
950
951
955
959
963
959
957
959
961
963
963
963
959
959
960
965
959
958
958
957
960
958
961
957
951
947
946
948
952
944
937
939
941
943
942
939
938
939
940
942
942
941
936
935
937
939
940
940
938
938
942
944
941
940
941
939
942
947
951
950
947
952
964
970
978
986
997
1016
1042
