976
972
972
974
977
980
981
981
979
985
990
990
985
984
982
983
986
988
985
984
982
984
986
988
987
983
983
984
986
987
986
983
982
984
987
989
984
985
982
985
988
990
989
990
990
994
997
1003
1007
1007
1013
1025
1047
1072
1099
1128
1162
1198
1237
1269
1299
1325
1350
1369
1372
1354
1314
1257
1194
1132
1083
1040
1003
976
965
966
974
973
972
968
965
965
967
969
965
963
960
960
959
963
964
962
963
964
968
968
969
965
963
965
967
965
968
963
965
965
967
969
968
964
963
963
965
967
964
964
965
964
966
968
968
961
960
962
963
964
964
962
961
963
966
968
966
963
962
963
965
965
964
963
960
963
967
969
966
962
961
961
966
968
969
967
965
967
969
970
969
965
963
967
966
972
972
967
969
971
975
979
981
977
974
978
981
983
984
983
985
984
990
990
994
990
988
988
989
990
988
989
985
987
990
990
988
987
984
987
991
995
992
989
988
989
989
994
995
988
989
994
994
995
995
992
990
989
994
996
996
993
993
996
1000
1003
1007
1009
1015
1031
1057
1090
1123
1151
1180
1217
1256
1296
1324
1342
1349
1344
1325
1288
1234
1167
1111
1072
1049
1028
1008
992
985
986
988
987
979
974
971
969
972
976
976
973
970
970
970
968
967
964
961
964
963
965
962
959
957
958
963
963
962
958
956
958
958
962
961
957
954
954
958
962
960
956
954
958
959
963
961
962
961
961
965
970
968
965
964
966
971
972
972
971
968
970
972
974
974
972
971
972
977
978
974
971
967
967
970
972
971
970
966
970
969
974
975
973
973
974
974
977
977
975
975
978
980
984
984
983
980
982
983
983
983
980
978
979
977
980
979
979
979
980
979
981
982
978
975
976
976
982
981
977
978
979
983
979
979
978
978
979
978
982
982
980
980
983
986
991
995
1000
1005
1019
1040
1069
1092
1112
1136
1168
1204
1237
1261
1284
1304
1314
1317
1306
1278
1235
1184
1134
1094
1062
1031
1002
988
983
983
983
980
973
970
968
971
971
969
965
965
965
965
965
962
959
957
958
957
957
957
955
954
954
955
958
955
950
952
951
954
954
949
948
944
946
949
952
951
949
944
945
951
953
948
945
946
947
949
951
949
944
945
944
949
948
948
946
942
943
946
948
951
948
948
950
952
954
955
954
952
953
954
954
956
956
952
957
962
964
962
958
958
962
964
970
968
967
965
969
973
976
977
975
974
978
980
981
981
979
976
977
982
984
980
978
974
977
979
983
983
980
977
980
982
984
984
981
979
978
982
985
983
980
979
977
979
981
982
981
977
979
981
986
986
985
982
985
992
998
1001
1008
1019
1040
1067
1092
1116
1141
1172
1206
1244
1276
1300
1314
1316
1305
1284
1253
1203
1147
1097
1059
1035
1016
1000
985
978
980
978
981
976
971
968
969
971
972
966
963
959
954
964
960
960
958
957
955
954
958
958
953
950
953
954
955
954
951
949
950
950
953
949
948
947
948
947
952
950
947
947
949
950
951
951
948
948
949
951
953
953
951
950
951
952
955
949
949
949
952
953
958
957
954
952
954
956
956
958
952
951
952
956
959
957
954
954
955
959
963
964
961
960
962
967
970
969
969
968
967
974
973
973
971
972
973
975
978
974
971
967
972
974
978
977
974
973
972
975
977
978
976
973
974
975
978
979
978
974
975
978
982
981
979
980
984
988
995
1000
1005
1018
1041
1071
1099
1120
1140
1164
1195
1229
1259
1280
1295
1298
1297
1277
1240
1189
1129
1078
1047
1024
1001
984
975
970
968
967
963
957
954
952
949
950
954
955
952
949
946
949
951
947
945
944
945
946
946
943
944
940
942
944
947
946
942
941
942
943
943
942
942
939
938
940
945
944
940
939
937
942
944
944
940
939
940
944
944
944
942
939
942
945
942
946
945
942
944
948
952
951
948
947
948
950
952
951
949
945
947
951
952
952
950
950
951
955
960
960
958
957
958
965
966
969
968
968
970
973
975
973
968
971
969
973
974
971
970
970
972
974
977
975
972
971
970
975
978
975
973
973
974
978
980
977
976
975
976
976
978
977
977
977
978
982
987
987
990
994
1000
1016
1032
1059
1080
1101
1124
1153
1185
1214
1239
1258
1280
1293
1294
1278
1248
1208
1161
1115
1081
1053
1026
1001
989
981
978
975
969
965
963
962
962
962
955
956
955
956
959
957
954
952
954
954
957
951
950
947
947
950
953
952
948
946
948
949
949
949
947
947
945
947
949
947
943
942
947
948
949
948
947
946
947
946
945
945
946
943
945
948
950
949
949
950
950
951
954
952
950
949
951
953
958
959
957
951
954
959
959
959
957
955
957
962
965
965
962
960
962
969
973
973
969
969
970
974
978
981
978
978
976
982
984
985
985
979
982
983
986
986
982
980
981
985
986
986
985
983
983
986
989
987
985
983
984
987
988
989
988
986
988
989
993
994
995
996
1001
1010
1024
1037
1055
1083
1109
1138
1167
1193
1225
1255
1281
1303
1320
1318
1303
1266
1220
1167
1111
1065
1033
1010
995
988
986
985
978
975
972
971
970
967
964
962
962
966
969
968
963
964
961
966
966
964
961
956
959
960
962
964
959
958
960
960
964
962
959
956
957
959
958
961
957
954
955
958
961
961
956
955
958
959
962
962
959
957
958
962
963
964
962
960
962
966
969
970
967
961
966
969
969
969
970
964
963
966
965
964
963
957
959
962
968
962
965
966
967
972
975
974
972
971
975
982
987
990
987
987
989
994
995
993
991
988
989
992
994
993
989
988
993
990
993
993
989
986
989
993
996
993
991
989
991
992
992
990
990
990
989
993
998
996
995
996
999
1004
1013
1019
1026
1040
1061
1087
1111
1136
1161
1189
1223
1255
1282
1304
1316
1312
1296
1268
1222
1169
1117
1074
1042
1016
1001
994
988
984
984
983
980
975
967
965
965
968
970
969
969
965
965
964
965
964
963
958
961
961
963
963
959
958
958
957
960
957
952
952
956
956
955
955
950
949
948
954
955
953
951
948
949
950
952
951
946
945
943
947
948
943
940
939
947
951
952
952
947
949
951
952
951
953
952
952
951
955
952
953
950
948
953
952
955
957
952
952
954
958
961
959
958
960
963
964
968
970
971
969
976
977
978
978
979
978
978
979
981
982
983
980
981
983
985
985
983
980
981
982
987
984
983
983
982
984
987
984
984
984
988
989
993
993
990
990
995
1004
1006
1013
1026
1043
1070
1099
1128
1154
1183
1213
1247
1275
1300
1310
1304
1283
1247
1200
1150
1103
1070
1041
1018
998
991
982
977
970
967
964
963
961
954
952
953
955
960
961
957
956
956
956
959
957
953
951
952
954
955
952
952
950
951
952
950
953
952
949
950
952
954
953
949
942
945
948
951
951
949
946
949
952
955
954
952
951
953
955
961
960
959
958
961
965
967
965
961
959
960
961
961
961
956
955
954
956
957
950
949
950
950
957
961
960
955
952
959
963
964
963
964
967
969
974
976
973
975
977
977
983
983
982
979
978
977
981
984
982
982
980
980
982
982
980
980
979
978
983
985
983
981
980
982
982
986
985
985
984
988
994
1001
1003
1010
1022
1041
1067
1095
1114
1142
1166
1199
1237
1264
1285
1294
1290
1273
1244
1198
1144
1097
1063
1035
1013
995
984
977
972
967
966
966
960
956
953
955
955
956
957
955
954
955
958
960
956
956
952
952
953
954
953
949
947
949
951
951
950
947
945
946
947
947
947
944
942
943
944
944
945
944
943
944
948
949
946
943
942
943
947
951
951
948
949
949
952
956
955
952
951
953
955
955
951
951
949
947
947
948
948
945
948
948
950
956
958
955
953
955
959
966
965
963
961
967
971
974
974
976
975
976
979
982
981
979
977
976
978
981
982
980
976
978
979
981
981
980
978
979
983
985
986
980
979
981
984
987
989
987
986
989
995
1002
1007
1010
1022
1041
1067
1094
1116
1138
1164
1197
1229
1255
1272
1283
1278
1264
1236
1194
1138
1088
1055
1029
1011
994
980
976
971
972
969
966
963
956
954
955
955
954
956
954
951
957
959
962
959
955
952
956
959
961
956
954
950
954
958
959
955
952
953
951
955
955
956
952
951
951
957
959
953
951
951
952
954
957
955
953
953
954
957
959
959
957
956
956
961
966
964
965
966
965
966
965
964
958
959
960
960
964
958
954
951
951
958
960
960
956
955
960
961
962
964
962
963
965
974
974
976
975
976
980
983
985
986
985
980
983
984
986
985
982
981
984
988
989
986
985
983
986
987
990
989
985
984
984
985
989
990
989
987
990
990
993
992
992
996
1000
1006
1014
1023
1031
1050
1075
1103
1129
1151
1173
1204
1235
1261
1282
1296
1295
1272
1243
1195
1142
1092
1057
1031
1011
997
992
987
982
975
973
970
971
969
963
960
961
965
967
966
962
963
965
964
966
964
963
959
960
965
966
963
962
960
959
961
964
961
960
957
956
958
962
960
955
955
952
954
958
958
954
951
949
951
954
953
951
949
950
956
956
954
953
952
956
959
964
966
959
959
963
968
966
968
965
962
966
969
971
969
969
972
973
977
979
980
973
974
978
980
985
985
980
984
983
990
992
989
988
987
990
992
992
989
988
991
989
992
995
994
992
991
988
992
995
994
990
991
992
994
997
998
996
996
999
1001
1006
1007
1010
1012
1020
1028
1045
1066
1088
1108
1133
1163
1193
1224
1252
1277
1300
1319
1324
1314
1284
1244
1196
1143
1098
1061
1032
1007
992
987
982
979
974
969
964
966
965
962
959
952
955
956
958
960
957
956
956
960
960
960
952
952
955
956
958
957
953
951
953
957
958
955
956
952
949
953
956
952
955
951
949
952
953
951
952
949
951
954
957
952
949
950
952
952
955
955
953
952
957
963
967
966
963
963
964
967
969
968
965
963
964
965
966
963
958
955
956
958
961
963
958
960
963
966
967
965
965
966
970
972
974
976
973
973
978
984
985
987
985
982
985
986
988
987
984
981
983
985
985
986
984
982
985
986
986
985
980
979
983
986
986
986
984
983
985
986
986
986
982
978
979
982
983
983
978
979
979
979
982
980
977
973
972
975
975
973
969
970
973
976
981
982
984
993
1012
1041
1070
1098
1123
1155
1193
1231
1266
1298
1320
1328
1327
1312
1281
1236
1183
1132
1097
1068
1045
1025
1012
1007
1005
1000
998
987
984
975
975
976
972
968
964
961
959
962
964
960
954
952
953
953
954
952
947
946
947
947
949
948
945
942
941
945
949
943
940
939
940
943
943
940
934
934
934
936
935
933
928
928
927
925
926
924
920
920
921
921
925
922
920
920
924
927
930
935
937
939
945
949
956
957
957
958
961
963
965
966
965
969
973
976
978
978
972
970
974
976
974
974
971
970
974
974
977
975
972
971
972
973
977
976
973
972
973
977
979
977
975
973
973
972
976
972
972
971
971
974
977
975
967
971
972
973
976
976
973
974
970
976
976
978
977
977
985
995
1008
1022
1043
1066
1095
1123
1151
1184
1216
1250
1276
1297
1305
1296
1273
1238
1188
1137
1097
1070
1048
1025
1010
1009
1006
999
991
986
984
980
979
974
966
963
964
963
960
957
954
950
951
951
955
953
949
948
947
948
951
948
944
945
945
949
948
947
946
945
944
948
951
949
946
945
944
947
948
948
943
944
946
949
951
948
944
941
942
946
946
946
945
945
946
950
953
954
953
954
957
962
965
966
963
966
967
968
969
968
967
965
964
970
972
971
970
971
973
973
976
976
971
969
972
975
976
974
969
969
973
972
975
976
971
972
972
976
975
975
973
972
972
973
977
974
971
970
974
973
974
973
970
967
969
970
973
971
967
966
968
970
973
970
966
966
966
966
967
966
965
964
967
976
979
981
985
995
1011
1039
1066
1090
1113
1137
1170
1205
1239
1264
1282
1289
1295
1287
1262
1225
1177
1129
1095
1067
1046
1024
1009
1002
998
998
995
989
980
974
972
971
968
965
959
958
956
956
958
953
949
945
945
948
947
946
944
941
940
944
945
943
941
937
936
942
944
940
939
935
937
938
940
939
934
934
933
936
938
935
929
927
927
928
928
927
925
924
923
925
927
929
924
925
930
933
938
940
942
946
950
954
960
962
960
961
964
967
968
968
970
970
972
977
979
972
970
972
971
973
977
976
972
971
970
973
975
976
971
972
970
972
978
973
972
971
971
974
975
973
971
971
971
977
978
977
973
970
973
978
979
978
976
977
977
980
982
987
988
987
996
1005
1017
1030
1056
1084
1112
1140
1168
1197
1224
1253
1278
1297
1304
1293
1269
1231
1187
1135
1091
1063
1041
1024
1006
997
989
988
983
977
977
975
974
974
965
958
963
963
965
959
953
953
953
953
953
954
949
946
948
948
949
948
944
939
940
947
946
945
943
937
940
944
945
946
942
940
942
944
948
946
943
939
940
945
945
944
943
940
938
943
946
946
944
941
941
944
947
949
948
948
950
953
954
956
954
951
955
957
958
960
957
955
958
959
961
961
961
960
960
963
964
967
968
966
970
973
975
976
974
973
973
975
976
977
974
971
974
975
978
976
974
972
974
977
978
976
973
970
973
978
978
978
975
972
976
976
980
979
976
974
975
979
983
980
977
974
977
979
986
987
990
993
1005
1023
1046
1065
1087
1108
1134
1165
1197
1223
1244
1264
1275
1273
1257
1222
1171
1118
1077
1051
1025
1007
988
982
982
981
980
975
969
967
967
966
964
959
958
956
953
955
958
954
952
948
950
951
950
949
947
944
945
946
949
947
946
943
944
945
948
944
941
938
939
942
943
940
940
938
937
937
941
940
934
933
935
938
938
940
936
934
936
937
939
937
932
934
939
944
947
946
944
943
944
947
946
951
948
950
952
951
955
956
954
953
958
961
962
960
961
961
963
971
974
975
972
970
971
975
977
974
972
971
971
973
976
975
970
973
973
976
978
974
972
970
973
975
978
976
973
972
973
976
978
975
975
973
975
981
983
984
981
985
989
997
1006
1017
1032
1052
1082
1103
1128
1151
1180
1209
1240
1263
1280
1287
1283
1259
1231
1189
1139
1085
1054
1029
1008
993
981
973
967
961
960
958
956
953
950
945
944
947
947
949
948
946
946
951
948
946
946
945
945
948
948
947
944
943
944
946
945
941
940
942
942
942
945
946
942
940
943
944
946
945
941
940
942
947
948
947
943
943
947
947
950
951
949
946
948
952
958
957
956
951
954
958
959
959
956
953
952
956
958
955
950
947
947
948
951
951
947
947
948
952
955
954
953
952
957
960
963
963
961
961
964
966
971
975
973
969
973
976
980
979
974
971
975
978
979
979
976
975
974
977
978
976
979
973
972
974
979
980
977
975
976
980
981
980
977
974
977
979
982
979
981
980
984
987
994
999
1002
1011
1028
1052
1077
1104
1126
1156
1186
1222
1254
1279
1293
1300
1294
1269
1229
1173
1118
1071
1030
1004
984
967
965
962
966
964
966
960
956
951
947
953
952
951
947
950
953
955
957
954
949
952
951
953
955
951
948
947
947
949
952
951
947
946
945
948
949
948
947
944
944
947
946
945
943
941
942
945
946
944
940
942
941
942
943
942
941
937
940
944
944
946
944
945
948
948
951
949
948
948
952
954
957
955
954
952
949
952
950
949
946
946
948
951
953
951
951
950
950
953
959
959
957
956
960
961
964
965
963
965
970
975
978
976
975
972
972
976
979
978
975
974
976
978
977
978
976
974
975
979
983
982
979
977
977
979
982
981
977
978
981
980
984
987
984
984
988
992
999
1004
1005
1019
1042
1068
1095
1116
1137
1165
1198
1228
1252
1274
1287
1290
1281
1264
1227
1172
1119
1078
1047
1025
1003
985
973
966
964
962
957
954
948
944
945
946
949
943
943
940
943
948
952
952
949
945
946
953
954
952
946
943
948
948
946
948
946
944
943
946
948
946
941
937
942
946
947
945
938
937
938
942
947
944
941
941
940
947
946
946
943
944
946
948
955
953
952
952
954
956
960
958
953
950
953
956
953
953
950
947
952
954
957
952
951
951
950
952
961
961
959
957
961
965
969
970
968
970
971
977
979
977
975
974
978
979
979
978
978
976
978
979
983
981
979
976
978
983
983
981
983
978
980
983
986
986
983
978
980
985
986
986
986
985
990
997
1005
1009
1017
1032
1055
1082
1106
1127
1146
1173
1205
1237
1261
1280
1287
1287
1278
1254
1214
1164
1113
1072
1046
1026
1005
983
970
964
960
959
959
955
950
945
943
945
948
945
941
938
941
942
948
945
947
945
947
950
949
950
945
943
943
946
946
947
945
943
943
948
948
947
942
940
940
944
947
947
944
943
942
945
947
947
945
941
942
949
948
948
948
948
947
953
955
959
956
955
958
965
969
967
964
963
962
960
962
961
960
957
958
960
960
956
955
953
951
953
955
955
956
956
954
962
964
966
965
965
966
971
974
975
976
976
977
985
988
987
983
983
984
984
988
986
984
980
981
984
988
985
978
980
981
984
986
985
981
979
982
987
987
986
982
982
983
983
986
987
988
988
995
1000
1009
1019
1033
1056
1079
1104
1132
1160
1191
1221
1248
1277
1287
1283
1255
1208
1155
1102
1065
1034
1008
990
982
981
979
977
972
966
965
967
968
968
964
963
962
966
967
966
962
962
959
961
962
958
956
956
955
958
958
