1068
1097
1121
1145
1168
1194
1219
1245
1250
1244
1220
1187
1149
1100
1055
1014
982
962
951
949
947
949
950
947
949
951
947
941
937
935
937
938
936
935
930
931
935
934
933
930
927
929
930
930
928
926
927
926
925
927
927
928
925
928
931
932
928
927
932
934
939
940
941
938
939
941
946
947
946
945
944
946
948
952
953
952
952
955
961
963
963
957
957
962
971
972
974
973
973
975
979
982
986
984
987
989
991
995
995
996
994
998
1003
1005
1004
1002
1007
1009
1012
1014
1009
1008
1012
1017
1014
1014
1009
1004
1000
997
995
992
987
981
979
977
978
973
968
962
963
963
961
960
958
953
953
952
955
955
955
953
952
953
954
955
956
952
953
953
955
957
954
956
954
957
957
959
959
955
954
957
956
959
960
958
956
956
957
958
956
953
954
954
954
955
953
950
952
952
955
956
956
950
949
953
955
957
956
952
949
952
954
953
952
950
948
950
954
956
957
955
952
951
957
958
957
955
954
955
958
959
957
955
957
957
962
961
961
957
958
961
963
963
963
960
958
958
962
964
962
960
962
966
963
966
960
960
960
962
964
964
962
955
957
958
958
958
958
957
956
957
963
963
964
960
961
963
966
968
968
965
964
968
971
975
973
972
974
982
983
985
989
989
992
999
1005
1016
1018
1030
1044
1059
1061
1042
1015
998
986
983
983
979
978
974
972
975
974
972
966
965
963
965
962
958
958
954
953
952
956
955
952
949
951
953
958
956
956
949
951
954
954
954
952
947
950
950
953
954
954
952
956
960
967
970
975
979
984
999
1019
1040
1067
1092
1122
1150
1176
1201
1225
1248
1254
1248
1222
1188
1141
1095
1051
1016
994
975
966
962
964
970
973
969
966
962
958
956
957
953
947
943
940
942
945
946
946
944
941
949
954
955
953
953
950
956
955
957
960
957
958
962
963
965
967
968
963
969
971
968
966
960
960
958
960
964
962
963
961
963
966
968
967
966
965
968
975
977
978
978
978
984
993
995
993
992
995
999
1004
1008
1010
1009
1008
1010
1011
1014
1015
1018
1021
1024
1033
1037
1038
1038
1036
1040
1035
1033
1031
1027
1022
1020
1016
1016
1011
1001
993
989
988
984
980
977
974
973
972
967
966
963
961
960
961
961
960
956
955
955
959
956
956
952
951
955
958
962
963
960
959
961
964
968
967
964
961
961
966
967
966
959
959
960
966
966
961
960
961
964
967
969
968
962
964
964
967
969
967
964
963
968
969
969
968
963
963
963
968
966
966
963
962
965
969
969
966
964
965
967
970
971
970
965
965
966
971
973
970
968
965
966
968
970
971
968
967
968
970
973
973
971
968
969
970
971
971
967
968
969
970
972
969
966
963
966
970
970
969
965
965
965
968
970
967
963
964
966
969
970
967
965
964
966
968
970
970
967
968
972
978
980
979
981
983
987
993
997
997
991
986
988
991
995
991
992
988
989
992
992
991
983
985
984
987
986
984
980
975
976
978
979
977
972
971
973
976
975
976
973
975
977
980
980
979
977
977
977
981
985
982
982
981
982
989
989
992
993
998
1006
1017
1024
1032
1045
1068
1096
1125
1158
1183
1204
1228
1251
1279
1295
1290
1262
1226
1182
1138
1095
1057
1026
1007
999
1004
1005
1003
1000
995
992
993
991
986
984
981
980
982
983
979
978
972
975
978
979
974
970
971
974
977
979
978
975
974
978
980
980
981
977
978
979
984
984
981
977
976
983
987
988
989
988
988
990
992
993
988
986
990
994
996
996
997
995
996
999
1007
1008
1006
1004
1006
1009
1015
1018
1020
1018
1021
1025
1029
1033
1030
1034
1036
1040
1044
1045
1045
1040
1042
1043
1049
1047
1048
1041
1039
1038
1036
1033
1028
1022
1018
1018
1018
1015
1013
1008
1003
1004
1003
1005
999
994
993
993
996
999
998
994
995
995
999
1000
998
994
993
998
999
1002
999
998
1000
1003
1002
1005
1003
1000
1000
1003
1003
1004
1000
1000
1000
998
1002
1003
998
996
992
994
995
993
990
990
990
992
992
995
991
987
986
987
989
993
986
985
988
986
987
990
987
983
979
979
981
984
983
980
981
981
982
983
982
978
976
978
979
981
983
982
979
980
983
984
982
976
974
978
979
977
974
968
969
973
975
981
980
982
985
988
989
990
991
985
984
986
987
991
987
985
984
980
984
985
985
983
985
985
992
993
995
996
999
1004
1009
1011
1010
1012
1014
1018
1025
1028
1026
1023
1022
1023
1026
1028
1027
1020
1021
1026
1028
1028
1026
1024
1024
1026
1025
1030
1028
1026
1025
1026
1026
1029
1027
1026
1025
1026
1029
1032
1026
1019
1013
1012
1014
1013
1011
1013
1009
1010
1013
1015
1013
1011
1011
1014
1018
1020
1025
1026
1030
1036
1047
1068
1087
1110
1129
1161
1185
1207
1229
1246
1256
1246
1222
1188
1144
1098
1061
1042
1022
1017
1010
1007
1003
1001
998
997
988
981
976
980
982
982
983
984
985
990
990
993
991
996
997
1005
1011
1010
1010
1009
1011
1015
1018
1020
1021
1023
1027
1030
1035
1040
1040
1041
1044
1045
1046
1042
1037
1035
1029
1028
1030
1030
1029
1025
1025
1025
1028
1029
1022
1020
1020
1023
1025
1025
1025
1023
1023
1023
1029
1031
1031
1031
1032
1036
1042
1044
1044
1043
1044
1048
1054
1058
1054
1051
1053
1059
1061
1063
1060
1055
1052
1050
1051
1049
1043
1040
1037
1033
1031
1027
1023
1017
1012
1011
1016
1013
1009
999
994
992
994
992
991
988
987
988
990
992
991
989
985
991
992
992
990
987
985
989
991
990
986
986
986
990
995
996
998
993
993
996
997
1000
1002
997
997
1002
1007
1006
1006
1005
1003
1003
1005
1006
1004
1000
998
996
998
999
999
998
994
997
1003
1001
999
998
1000
1000
1005
1005
1003
1000
997
998
1003
1004
1003
1003
1004
1005
1008
1008
1004
1002
1003
1006
1008
1007
1006
1002
1002
1000
1000
1000
996
994
990
995
994
995
996
988
985
994
998
999
998
993
993
995
997
998
997
994
994
997
1000
1000
1001
998
1000
1000
1005
1006
1010
1007
1010
1012
1013
1013
1008
1003
995
995
997
998
993
991
991
994
1000
1004
1004
1000
1000
1003
1012
1011
1011
1009
1006
1007
1009
1010
1008
1005
1001
998
1001
998
997
994
989
990
990
988
986
982
976
980
982
987
985
980
978
981
983
984
984
979
979
983
985
986
986
986
983
987
987
992
992
991
996
1003
1012
1019
1025
1031
1045
1073
1098
1126
1151
1174
1194
1217
1245
1260
1260
1238
1206
1170
1130
1090
1056
1022
1005
995
993
996
996
992
987
985
987
981
976
973
970
972
970
972
974
970
965
969
971
976
977
976
976
975
977
982
981
980
979
982
985
986
986
982
977
981
984
987
984
983
980
982
987
990
991
986
985
984
986
991
991
989
988
994
996
998
998
996
998
1001
1005
1010
1006
1004
1004
1010
1015
1016
1018
1019
1020
1021
1023
1027
1032
1033
1030
1035
1038
1041
1042
1040
1038
1043
1045
1046
1045
1039
1036
1039
1039
1037
1030
1024
1020
1019
1016
1015
1011
1005
1002
997
994
993
991
983
980
981
983
986
983
977
976
974
976
976
974
970
970
971
970
974
975
969
970
967
970
971
970
970
967
969
973
974
972
969
967
966
969
970
975
971
971
971
972
975
972
971
966
966
969
972
972
967
967
965
968
971
973
970
967
968
969
971
972
969
966
968
970
973
972
969
965
966
968
970
969
966
966
967
970
968
968
965
963
965
964
963
960
961
961
967
968
969
965
962
961
962
965
967
963
959
959
961
963
964
958
956
958
958
963
964
960
958
957
958
962
964
960
960
959
963
965
963
963
961
961
959
963
965
964
961
958
960
959
962
959
957
957
958
960
963
962
959
956
959
962
963
965
965
965
966
972
975
973
969
971
972
972
972
972
970
972
969
969
972
978
975
966
962
963
969
972
967
961
960
962
962
958
956
952
951
952
953
950
949
949
951
954
954
952
949
949
949
951
953
957
957
958
960
959
960
962
960
963
963
970
972
978
981
985
995
1011
1030
1054
1076
1103
1138
1167
1191
1211
1232
1259
1264
1251
1218
1174
1128
1084
1047
1012
994
982
975
970
968
966
965
964
957
951
947
947
945
943
941
937
937
942
943
941
936
933
934
938
940
938
931
932
935
937
938
935
935
937
934
937
935
937
937
936
940
939
940
937
932
934
937
942
945
942
942
943
948
954
955
950
947
948
954
959
963
965
966
962
966
970
976
980
979
982
981
985
988
992
995
995
999
1002
1005
1007
1005
1006
1006
1014
1017
1020
1018
1015
1018
1020
1023
1018
1017
1017
1016
1014
1010
1009
1003
998
997
994
992
986
978
973
974
974
974
971
969
965
964
965
966
969
965
961
964
961
964
962
961
958
957
962
964
958
956
954
956
957
958
959
958
957
958
962
965
964
962
958
957
961
966
962
961
961
962
964
966
965
960
959
960
963
965
963
962
957
958
961
962
961
959
959
957
959
963
964
962
959
955
963
966
965
959
959
962
966
967
966
961
960
963
966
966
965
962
960
964
965
967
967
965
965
961
965
969
968
961
961
962
965
965
963
962
962
960
963
964
964
961
958
961
961
962
963
958
955
955
960
965
963
959
958
956
960
964
960
961
957
958
963
963
964
959
961
960
962
965
964
965
962
962
963
966
964
962
959
959
963
966
966
965
965
965
968
974
976
973
970
972
976
978
975
973
977
979
981
985
983
977
974
975
975
973
972
968
966
965
965
967
963
957
953
955
954
957
953
950
947
949
950
950
951
951
948
949
950
950
949
949
949
949
951
955
955
951
953
952
955
959
959
959
959
964
970
977
983
993
1006
1030
1054
1078
1104
1129
1150
1167
1192
1217
1232
1227
1205
1174
1144
1103
1066
1032
1004
981
968
966
966
962
959
956
958
955
949
945
944
943
944
945
939
939
938
938
942
942
943
939
937
939
941
942
938
933
935
937
940
941
943
939
938
935
940
943
943
939
933
935
939
943
943
942
941
946
948
948
949
947
947
947
948
953
953
952
950
955
959
961
961
957
959
962
964
967
969
970
968
970
979
986
989
986
986
990
994
998
999
996
997
1001
1006
1011
1011
1008
1007
1007
1010
1011
1012
1005
999
994
997
994
990
982
976
974
971
969
965
958
956
954
955
956
954
949
945
944
948
952
950
946
942
946
949
951
946
941
940
941
945
943
944
943
938
938
941
946
946
942
943
943
944
950
949
947
946
947
949
951
952
947
948
950
951
955
955
954
954
957
957
962
961
958
956
959
962
965
963
962
961
963
965
966
966
964
958
961
965
966
963
958
957
958
958
958
955
954
950
951
953
957
959
955
954
956
961
961
958
959
960
963
966
968
964
957
954
956
957
958
956
955
958
961
962
962
959
956
953
956
961
965
963
960
961
962
965
966
970
964
959
961
959
961
963
961
957
960
964
965
963
962
962
965
973
973
972
969
968
971
975
978
977
974
971
971
974
980
978
978
978
979
980
985
985
982
981
985
985
987
983
981
982
984
988
988
984
978
974
978
975
972
971
970
968
968
969
968
964
959
955
953
956
958
954
951
947
950
952
953
950
952
951
950
951
957
953
948
949
952
955
957
950
953
955
956
963
970
971
971
979
993
1005
1016
1021
1027
1036
1052
1076
1095
1114
1131
1146
1166
1185
1206
1229
1239
1230
1204
1169
1129
1084
1043
1007
981
965
957
951
948
945
946
948
949
942
939
933
934
934
938
938
937
935
935
936
935
934
932
929
928
932
933
933
931
931
933
934
939
937
934
935
937
941
946
940
941
942
943
949
951
954
950
951
954
956
957
958
955
954
957
961
964
963
963
961
964
968
971
968
967
969
968
973
979
976
976
974
978
985
988
988
989
992
994
999
999
1001
997
999
1003
1007
1010
1010
1008
1009
1009
1015
1018
1013
1011
1004
1004
1003
1000
993
986
978
975
975
973
968
965
962
960
959
957
952
948
946
946
949
950
950
946
942
942
945
946
947
944
939
941
944
947
945
940
938
939
943
947
946
940
944
944
950
952
952
951
951
953
958
960
962
959
960
961
966
970
970
970
967
970
976
979
978
975
977
978
981
985
982
979
977
977
981
980
977
976
972
968
971
973
966
960
960
961
963
965
961
963
959
958
963
964
963
961
960
959
965
967
966
964
962
967
969
970
970
967
965
968
967
971
967
966
962
962
967
972
971
969
967
971
973
975
975
972
970
974
976
977
977
973
969
974
978
978
975
974
970
971
977
977
980
980
976
978
981
986
987
989
989
992
994
996
998
996
999
999
1003
1005
1004
1003
1003
1004
1006
1008
1006
1002
997
996
996
996
992
987
984
987
985
985
983
978
974
975
979
979
978
977
977
976
981
981
983
981
977
979
982
984
981
979
977
979
982
983
982
983
980
984
985
990
991
997
1000
1008
1018
1030
1047
1063
1085
1109
1136
1163
1187
1204
1224
1251
1269
1268
1247
1212
1175
1134
1097
1066
1034
1012
999
999
1003
1004
998
995
991
990
987
989
987
982
980
978
984
982
980
980
980
979
979
983
983
981
977
976
978
979
980
973
969
972
977
982
982
978
974
975
979
980
982
979
980
981
984
989
987
986
984
986
991
995
994
996
994
998
1000
1002
1002
998
1001
1003
1006
1013
1013
1012
1011
1012
1015
1023
1023
1023
1022
1025
1030
1036
1034
1034
1034
1034
1039
1042
1041
1038
1036
1039
1039
1041
1037
1031
1026
1024
1024
1022
1019
1013
1006
1003
1002
1004
996
989
986
986
982
983
979
976
974
970
971
973
972
970
968
966
969
971
969
967
966
964
962
967
967
965
966
966
971
971
974
974
969
973
976
980
983
982
978
978
982
985
985
982
978
980
984
987
984
980
979
978
981
979
978
973
970
973
977
979
977
972
968
970
971
974
973
966
965
969
969
970
968
965
963
963
967
969
969
965
964
964
965
968
964
961
957
963
966
965
963
962
962
962
963
967
964
962
962
965
969
969
968
968
966
969
972
975
975
978
983
989
1001
1011
1016
1021
1029
1039
1048
1047
1043
1039
1027
1010
993
969
946
938
939
946
949
950
948
944
943
942
942
942
941
937
937
937
936
938
936
932
929
931
936
943
946
959
966
977
987
996
997
996
992
996
998
998
997
996
994
998
1000
1000
1001
1002
1001
1001
1000
1004
1006
1005
1006
1007
1011
1015
1015
1008
1013
1014
1020
1025
1024
1024
1023
1029
1035
1037
1039
1039
1044
1049
1058
1063
1071
1074
1081
1087
1096
1103
1105
1110
1116
1123
1130
1138
1138
1143
1145
1146
1146
1143
1138
1134
1130
1125
1126
1121
1113
1104
1097
1093
1085
1079
1067
1057
1048
1040
1042
1039
1032
1023
1015
1015
1014
1013
1010
1007
1001
999
998
998
996
991
984
983
982
980
981
977
974
973
974
975
974
970
968
965
969
971
970
962
962
963
967
972
968
966
962
964
968
971
967
968
966
966
969
971
973
970
968
966
967
968
964
966
965
966
966
972
970
965
963
965
969
973
971
971
965
968
971
972
971
964
964
964
967
966
965
962
960
959
963
963
963
959
955
958
961
964
961
958
957
959
961
962
961
959
957
957
961
964
965
961
958
959
961
963
963
961
961
960
963
966
964
963
960
963
964
967
968
964
960
963
966
969
967
961
959
960
966
970
967
962
962
964
965
969
966
966
963
964
965
969
968
964
960
963
965
969
969
965
961
960
966
963
965
963
960
962
965
968
966
964
963
963
967
969
965
965
966
966
966
970
967
963
963
966
968
970
969
967
963
966
970
973
972
968
965
969
971
973
973
975
974
976
980
979
977
973
970
971
974
975
975
971
971
973
975
979
980
976
978
974
976
985
985
980
983
984
989
992
991
992
989
990
992
994
994
990
987
988
994
997
997
993
990
991
993
994
991
992
989
987
988
988
987
981
977
974
978
981
977
974
972
970
972
974
971
969
969
968
973
973
973
969
968
969
975
977
973
970
971
972
973
978
978
979
983
989
996
1006
1017
1032
1052
1078
1107
1140
1163
1183
1201
1228
1255
1262
1244
1205
1162
1114
1075
1038
1010
983
969
963
964
969
965
964
960
958
957
955
951
947
944
943
944
945
944
941
938
944
945
943
946
942
939
946
949
950
949
948
948
946
951
953
950
950
945
950
953
956
956
952
952
956
956
959
961
957
956
958
959
965
968
966
963
963
969
974
974
974
970
975
981
985
985
985
985
989
991
997
997
997
999
1002
1004
1008
1007
1009
1006
1010
1018
1021
1019
1018
1018
1018
1022
1025
1026
1022
1020
1019
1020
1022
1020
1015
1010
1005
1005
1004
999
994
991
989
988
988
985
978
972
973
974
975
972
967
968
968
972
974
974
968
969
968
972
973
972
969
966
966
971
973
976
973
971
971
975
978
978
974
972
975
980
984
979
977
975
979
985
989
988
987
982
987
987
989
988
986
984
987
987
988
986
986
983
982
985
986
980
975
976
975
977
978
982
974
970
969
973
975
976
971
971
970
975
975
976
973
970
970
976
977
974
971
972
969
973
976
975
971
968
970
974
978
975
974
973
973
975
974
975
972
969
967
969
974
972
967
963
964
970
970
970
970
967
968
973
974
973
970
968
968
972
974
975
973
968
970
969
971
972
968
966
965
968
968
966
962
960
963
966
969
966
962
967
969
973
977
979
979
978
980
985
992
990
986
986
985
992
999
1001
998
998
996
994
1000
999
994
989
990
993
996
990
985
980
983
984
984
979
977
972
972
975
975
972
968
966
965
968
970
969
968
966
967
968
971
971
971
970
972
975
977
975
974
974
976
980
983
987
993
998
1005
