981
979
978
977
979
985
986
989
989
995
1000
1011
1024
1046
1067
1089
1113
1139
1167
1194
1215
1235
1256
1267
1261
1243
1208
1168
1125
1088
1056
1027
1006
992
985
985
982
977
973
969
967
970
965
965
958
956
955
959
959
958
953
955
957
959
959
956
954
952
953
955
956
956
954
952
954
958
959
957
956
955
957
960
961
958
956
955
958
960
958
958
956
956
958
960
962
962
958
959
961
965
964
961
956
956
962
966
967
967
964
963
966
967
972
970
970
969
974
978
980
978
978
979
985
987
987
987
983
981
982
983
981
979
974
972
973
973
975
972
969
963
967
970
972
969
967
966
966
970
970
966
964
961
964
967
965
965
959
961
962
964
965
963
958
958
960
961
961
964
960
962
963
964
965
962
961
960
963
966
968
967
964
960
964
967
967
964
960
960
962
964
968
966
964
966
968
976
978
976
973
973
975
980
980
981
977
977
981
981
983
977
975
973
975
975
976
971
970
968
970
974
976
972
970
970
971
973
974
970
968
967
969
973
974
973
970
968
966
972
971
971
969
969
971
973
973
974
971
971
973
975
974
970
968
969
968
974
976
973
969
971
972
973
973
971
969
972
977
980
982
986
983
984
986
986
985
983
980
979
980
985
983
982
979
977
981
983
986
984
981
980
981
986
982
985
982
978
984
987
988
987
986
984
985
988
989
984
983
984
986
988
989
990
985
986
989
992
992
991
986
987
989
993
993
994
992
988
995
999
1001
1004
1007
1010
1018
1029
1046
1065
1085
1112
1139
1167
1193
1217
1237
1261
1288
1311
1317
1302
1278
1240
1196
1153
1110
1074
1041
1016
1001
997
999
1002
1000
999
999
999
993
989
984
982
979
979
979
975
972
969
969
969
968
966
963
961
960
961
963
962
954
954
955
960
963
962
958
956
958
960
958
958
958
958
962
965
967
965
963
961
966
970
976
973
974
974
976
979
979
977
976
972
976
978
977
980
979
978
983
986
986
988
988
989
992
994
996
996
992
993
996
999
1000
998
997
998
999
1001
1005
1003
1002
1000
1004
1002
1002
1003
998
997
998
997
997
994
992
991
995
992
989
986
983
982
987
990
990
987
986
986
990
994
994
991
987
987
986
990
990
988
984
984
985
989
986
984
979
979
984
986
987
987
982
982
985
989
989
992
991
992
991
1000
998
998
995
994
995
997
998
996
994
994
996
998
994
995
992
987
992
992
994
990
988
986
991
992
991
990
988
990
991
994
993
988
987
988
987
988
986
988
985
985
982
989
987
984
982
984
984
984
983
983
978
980
981
984
984
975
975
977
979
982
982
984
980
982
989
995
995
993
988
989
991
993
994
994
993
995
1003
1010
1013
1018
1023
1042
1068
1099
1128
1158
1190
1218
1253
1281
1306
1322
1330
1322
1298
1265
1215
1158
1105
1063
1031
1015
1005
998
998
998
995
995
986
983
975
969
970
971
970
968
962
957
964
965
964
963
958
959
960
967
964
961
962
961
963
966
966
964
961
963
968
973
975
976
972
970
972
976
978
978
974
971
976
980
980
979
974
974
978
980
979
979
977
977
978
984
984
983
982
979
982
986
984
981
981
979
983
984
988
985
985
982
982
986
988
984
979
978
975
979
981
978
977
975
974
979
978
977
974
975
973
977
976
974
967
966
971
976
976
980
975
975
975
980
981
979
976
973
973
975
979
977
975
972
973
979
979
978
975
976
978
981
980
979
975
975
977
978
976
974
969
971
971
970
973
972
968
971
975
975
975
975
974
975
976
982
979
980
980
980
984
986
987
985
980
982
984
986
984
984
981
979
982
985
983
980
978
978
985
989
991
991
989
989
990
993
995
993
990
987
988
991
990
993
989
986
990
996
998
996
997
997
1003
1011
1024
1041
1062
1084
1114
1146
1176
1208
1233
1254
1280
1300
1301
1288
1263
1226
1183
1138
1100
1070
1043
1023
1013
1010
1010
1003
997
990
988
987
983
980
974
971
972
973
973
971
968
968
968
970
967
971
970
968
967
971
972
969
966
968
969
971
971
972
964
964
964
966
966
964
961
959
961
963
964
965
961
963
965
972
974
971
969
972
972
978
981
983
983
978
983
987
987
987
986
987
989
993
993
991
988
990
994
995
998
996
990
991
994
995
994
993
989
986
983
983
983
979
973
972
971
973
971
969
964
965
967
970
971
967
964
970
972
975
976
975
974
975
979
980
980
975
972
977
980
980
980
984
982
982
983
987
987
988
985
983
985
990
987
987
985
983
986
988
987
986
983
982
987
984
987
982
979
978
979
978
978
979
976
975
975
976
977
975
975
974
974
976
977
976
972
977
978
983
983
983
981
980
981
986
984
984
986
993
998
1004
1011
1020
1035
1057
1079
1102
1129
1156
1183
1207
1236
1259
1274
1269
1247
1215
1173
1126
1083
1049
1026
1011
1004
1003
1002
998
990
982
981
979
979
973
966
967
966
965
962
963
958
956
953
956
957
955
952
952
953
954
956
955
952
949
954
958
960
965
963
965
969
975
973
973
971
972
974
977
978
979
976
976
979
983
985
984
981
981
983
988
991
987
984
987
986
990
994
994
992
992
993
996
997
995
989
991
993
994
994
989
985
984
984
984
986
982
977
978
979
980
982
979
977
976
981
985
986
983
978
977
980
983
985
980
980
976
979
982
984
980
978
976
974
978
982
977
971
971
975
978
979
975
976
973
976
981
982
976
975
974
974
976
977
971
970
971
971
973
972
970
967
969
970
975
976
975
972
972
974
978
979
975
973
974
973
979
979
977
974
975
975
979
978
978
973
975
973
977
975
974
969
968
972
973
975
972
969
970
972
976
977
979
977
975
979
980
984
982
979
979
980
984
983
982
979
977
979
984
982
983
979
984
984
987
988
989
988
985
991
992
994
991
987
984
987
992
991
991
984
985
988
990
988
986
984
981
984
987
988
984
980
977
983
986
985
981
981
978
980
984
987
985
982
979
984
988
988
989
986
990
995
1001
1003
1008
1011
1017
1034
1058
1084
1116
1142
1180
1214
1244
1272
1296
1310
1304
1281
1243
1189
1129
1082
1049
1022
1007
1000
998
997
1000
998
995
991
984
978
972
972
974
972
967
964
965
964
964
965
964
962
961
962
967
966
965
963
963
967
971
971
971
967
965
966
971
970
966
965
963
967
970
969
966
966
963
968
971
970
968
966
966
970
973
977
980
977
983
984
987
988
989
985
985
990
992
996
994
989
994
995
1001
999
1000
994
994
998
1003
1003
997
995
993
996
996
995
990
985
985
984
986
984
980
978
977
977
979
977
975
970
970
973
975
971
972
969
967
971
973
973
967
970
971
971
978
978
976
975
976
977
979
981
978
977
979
979
984
985
984
980
981
981
984
986
985
982
981
985
983
983
981
979
975
978
980
983
980
976
975
975
975
976
974
972
971
973
977
976
971
971
968
971
973
973
969
969
965
966
971
973
969
967
968
968
972
971
969
966
967
975
979
978
979
973
974
973
977
979
976
972
975
976
978
978
974
973
971
973
978
975
976
969
968
971
972
975
970
965
966
966
971
970
967
967
967
965
970
972
969
966
969
971
970
973
973
969
971
974
976
977
977
978
979
984
991
994
998
998
1007
1017
1036
1058
1085
1107
1140
1176
1204
1234
1260
1278
1293
1294
1276
1241
1191
1134
1086
1046
1022
1004
992
987
989
994
991
983
977
971
966
969
966
964
961
957
957
955
960
960
958
957
958
957
964
963
963
961
959
962
961
961
960
958
959
962
961
963
959
958
956
959
957
959
958
955
957
958
962
962
961
960
957
960
965
963
966
964
965
969
972
973
971
967
967
969
973
971
971
970
971
976
981
981
980
979
980
981
985
987
985
980
980
979
981
981
977
972
969
969
969
969
964
963
961
964
963
961
960
956
955
957
961
958
957
953
953
957
960
962
958
955
953
960
958
959
957
952
953
954
960
964
959
961
967
972
976
976
975
972
974
980
981
981
980
979
980
981
986
987
988
991
996
1006
1020
1040
1064
1089
1115
1144
1180
1215
1245
1261
1271
1268
1246
1207
1157
1099
1056
1034
1017
1005
992
981
978
977
975
971
962
960
957
958
956
958
956
948
946
949
951
949
952
951
953
954
955
956
953
951
951
954
955
956
953
948
950
950
956
957
953
948
951
952
957
956
951
952
950
951
953
954
955
952
954
960
965
964
965
961
962
966
971
972
970
976
978
979
983
986
985
982
981
984
986
983
981
974
973
972
972
971
969
967
965
967
967
969
969
970
966
968
967
971
966
964
962
963
965
964
963
961
959
958
963
961
961
958
958
959
960
960
958
957
957
957
963
961
959
955
959
961
967
968
965
961
962
965
971
971
970
964
966
965
970
970
969
964
962
963
965
964
962
960
956
958
960
960
961
956
960
962
966
965
962
958
959
963
966
964
961
954
955
959
960
960
957
957
956
960
963
964
964
962
961
964
970
969
967
971
971
977
980
979
978
979
982
990
995
1001
1008
1023
1048
1072
1104
1133
1161
1187
1213
1240
1270
1287
1282
1263
1232
1192
1146
1095
1055
1023
999
990
992
990
989
986
979
979
977
973
967
961
960
961
961
960
954
953
953
955
958
955
951
951
950
952
954
956
953
951
956
957
960
956
952
952
950
955
958
956
955
956
956
956
959
958
956
954
954
956
957
958
954
955
953
959
958
962
963
960
961
967
972
974
972
968
970
973
977
980
976
975
976
979
984
984
981
977
976
978
979
979
977
973
973
974
971
973
968
965
966
967
969
967
965
961
959
962
963
962
958
956
953
955
959
961
958
955
954
957
963
961
958
957
960
960
965
963
963
960
959
960
969
971
966
964
965
966
970
969
966
963
965
965
968
964
964
960
963
964
969
968
969
965
964
970
969
969
968
962
966
967
966
971
970
966
970
971
974
974
977
978
985
990
998
1007
1018
1035
1058
1084
1107
1138
1165
1188
1211
1233
1252
1255
1237
1207
1161
1110
1065
1030
1002
983
973
971
975
977
974
970
965
963
962
960
955
951
948
949
952
952
951
949
947
947
949
949
946
945
946
945
950
951
951
949
949
951
953
949
948
949
950
956
958
961
957
957
958
961
963
964
959
961
961
962
967
970
966
965
966
966
972
973
969
968
967
970
975
973
971
968
971
974
977
978
976
977
976
979
980
981
979
975
976
975
976
976
968
967
968
970
972
968
964
959
961
962
965
964
962
960
958
959
957
960
955
954
954
957
960
961
959
957
957
958
961
962
959
955
956
956
960
961
954
951
953
956
959
963
959
958
957
961
964
963
962
958
957
961
962
962
960
956
956
959
962
963
960
958
960
963
966
965
964
962
958
965
965
965
965
962
961
965
969
968
967
965
965
965
969
968
961
959
960
964
966
966
965
963
963
963
966
964
965
961
960
961
964
963
961
960
962
960
964
962
963
960
957
960
965
962
960
956
956
959
962
962
960
961
960
965
969
969
965
958
964
965
970
972
968
968
969
971
973
975
973
971
971
976
980
982
986
990
994
1000
1014
1030
1053
1076
1103
1131
1166
1194
1221
1240
1264
1291
1307
1306
1293
1264
1225
1178
1135
1089
1051
1019
997
985
981
983
983
979
975
975
974
971
966
962
959
959
963
963
961
959
959
959
958
957
959
952
955
956
958
956
950
947
946
949
955
953
951
948
949
952
953
953
950
947
948
949
954
954
950
950
950
950
953
952
952
944
946
950
951
954
953
952
950
954
957
955
954
949
952
954
960
961
961
956
958
964
966
967
966
965
967
972
976
974
974
972
970
974
978
979
974
973
971
978
982
980
977
973
971
971
972
969
967
961
960
962
962
963
961
958
957
960
961
958
955
952
949
951
956
956
951
951
951
952
956
955
954
952
952
955
958
960
958
957
958
963
965
968
967
967
966
969
974
974
974
970
971
974
974
972
972
969
972
971
975
979
978
975
975
976
979
974
971
971
971
970
970
971
966
964
962
962
963
962
958
955
956
958
959
959
956
953
952
955
955
953
951
951
956
959
960
961
961
961
962
962
963
962
960
960
963
963
966
967
966
963
961
967
971
972
968
968
969
971
976
977
972
974
977
984
988
989
993
997
1003
1017
1037
1062
1089
1115
1146
1183
1213
1239
1260
1277
1285
1282
1260
1218
1171
1115
1069
1040
1017
998
987
980
979
980
979
975
967
962
960
957
957
953
948
946
948
951
953
951
951
945
948
950
953
952
948
946
946
947
949
949
946
948
945
949
952
950
949
945
947
948
950
955
951
952
954
954
958
958
957
956
957
958
966
967
967
965
966
967
972
971
970
966
967
965
969
971
967
965
960
965
969
964
963
962
962
965
968
969
966
965
965
966
968
967
965
960
959
958
962
959
955
953
953
954
956
955
953
948
948
952
956
951
950
947
950
951
952
956
953
952
953
953
959
959
957
954
954
956
960
960
961
959
960
964
966
964
962
958
958
960
959
960
957
955
955
956
960
957
956
953
951
956
955
956
954
953
948
954
957
957
952
951
952
953
958
957
952
951
951
955
959
961
959
957
956
961
965
964
961
958
959
960
964
959
955
951
951
957
961
963
962
957
961
963
969
968
967
967
969
971
976
975
972
970
968
971
972
972
969
966
965
966
969
964
958
956
954
954
959
956
953
952
948
955
960
960
956
954
951
953
955
956
957
953
952
955
958
958
953
951
952
957
958
960
956
952
954
954
956
956
956
952
953
956
961
963
960
958
957
961
964
965
962
958
962
963
965
965
960
958
960
964
965
966
965
965
968
970
973
975
971
972
973
982
988
993
995
1006
1028
1053
1080
1107
1133
1161
1192
1223
1251
1275
1288
1288
1269
1236
1195
1138
1088
1048
1021
1002
989
985
984
984
983
981
979
972
968
964
958
961
962
958
955
952
950
955
957
955
952
949
949
951
953
952
949
947
943
948
952
951
950
944
947
946
949
947
945
944
947
949
951
953
952
950
949
954
956
957
956
955
958
959
963
964
961
961
961
965
968
967
966
966
967
972
974
973
972
972
972
976
979
980
982
981
983
985
987
987
982
979
977
978
979
975
973
970
969
970
973
972
969
966
964
965
966
966
965
960
960
961
964
964
962
956
958
961
962
966
964
962
964
966
970
970
969
965
965
968
969
969
964
964
964
968
967
967
969
965
965
966
969
969
964
963
965
967
970
965
964
961
960
966
970
970
967
966
966
969
974
973
970
971
968
970
971
971
969
968
972
973
975
973
973
974
972
977
979
979
974
969
968
970
974
975
971
970
968
966
970
968
966
964
964
966
969
968
968
964
964
968
968
966
965
965
966
967
969
968
965
963
961
964
967
967
966
963
963
965
967
966
966
963
961
968
971
973
974
972
972
976
978
973
973
973
971
974
976
974
972
968
969
969
971
970
970
967
966
969
970
969
967
965
964
966
968
970
967
965
963
966
967
967
966
963
963
966
970
968
966
964
966
969
974
974
974
972
973
974
976
976
974
971
971
974
974
977
973
974
979
982
989
997
1001
1006
1013
1030
1057
1082
1109
1139
1173
1205
1234
1264
1288
1307
1305
1284
1245
1188
1126
1077
1039
1008
986
972
974
975
981
980
981
976
972
967
967
967
966
969
965
962
962
963
963
960
960
960
959
962
961
960
958
959
958
961
962
961
960
957
957
958
966
968
965
962
962
962
964
969
966
964
966
966
968
970
970
966
969
971
975
975
973
971
972
973
974
975
973
968
971
974
978
981
977
978
977
981
984
982
981
981
980
984
985
986
984
981
980
981
982
980
978
975
976
976
979
974
972
968
971
972
973
972
968
965
964
965
967
965
961
960
959
962
966
967
964
962
960
964
966
963
963
961
960
961
965
965
963
961
964
966
967
968
969
965
967
970
973
972
970
966
971
970
978
979
972
971
972
975
977
973
972
970
969
971
972
970
968
964
964
968
970
972
973
969
970
974
978
974
968
967
967
971
972
973
973
970
969
970
973
972
971
970
968
971
973
973
971
966
965
970
972
972
973
969
970
971
974
973
970
967
967
970
970
969
967
966
965
965
970
968
966
963
963
963
966
967
965
962
959
963
965
968
966
966
967
970
974
974
974
969
972
976
980
983
984
989
998
1006
1016
1028
1044
1066
1093
1126
1160
1195
1229
1257
1282
1308
1323
1313
1284
1237
1180
1125
1084
1047
1017
995
986
991
995
998
993
984
980
979
982
978
973
969
965
968
970
970
966
963
964
965
963
965
963
960
956
958
958
961
958
953
951
953
954
956
952
947
949
951
953
952
951
950
952
954
958
959
958
956
956
961
969
969
974
974
979
983
986
987
986
984
986
992
994
994
990
990
994
996
1000
1000
995
992
994
998
1000
999
996
992
990
991
991
988
982
980
978
976
979
976
973
966
966
964
969
968
964
962
957
960
961
960
958
953
954
959
961
959
956
956
957
959
964
964
958
960
959
961
964
962
960
961
961
964
969
970
973
974
976
978
982
982
980
975
978
978
978
978
977
975
973
976
981
979
977
975
973
975
980
