945
944
945
943
942
940
941
939
939
940
940
943
943
944
945
945
942
937
936
934
936
939
940
943
944
946
946
943
941
941
940
939
942
945
946
949
950
952
954
954
956
952
954
955
957
962
963
964
959
955
952
950
949
947
949
947
946
945
946
946
947
945
943
939
938
934
931
932
932
932
934
935
936
936
936
936
934
933
933
933
934
934
932
929
924
921
924
935
950
969
999
1033
1073
1112
1146
1168
1165
1138
1092
1038
988
953
936
932
939
949
955
960
960
959
956
952
945
941
937
937
939
938
941
943
944
943
941
939
941
940
940
938
939
940
940
941
941
941
942
942
943
941
940
939
938
939
940
945
945
945
947
947
944
941
940
940
942
944
946
946
946
946
945
945
944
942
941
941
941
942
945
947
948
947
947
945
942
940
939
940
940
940
942
942
945
945
946
945
944
941
942
942
941
945
948
952
954
956
956
957
956
957
957
960
961
963
965
968
968
968
968
966
962
959
961
959
958
958
955
957
956
955
957
954
952
950
948
948
945
948
946
946
947
947
946
945
943
942
941
940
939
940
939
942
944
943
941
939
936
933
933
933
936
938
939
942
941
936
934
933
933
931
931
931
930
933
935
937
938
938
938
935
934
931
930
930
928
928
930
932
935
938
938
939
941
938
938
938
939
940
941
942
944
946
947
946
946
942
938
937
934
936
938
937
937
936
933
929
927
924
923
921
918
918
920
922
924
923
924
923
922
923
922
919
918
920
918
920
920
919
917
912
904
903
906
921
944
977
1020
1075
1126
1163
1173
1149
1097
1032
974
931
911
913
923
933
940
941
941
935
930
924
920
919
915
916
912
911
912
912
913
912
911
907
904
902
900
904
904
908
908
906
907
904
906
907
906
907
904
903
904
903
902
906
912
913
917
914
911
908
903
901
905
909
910
912
912
911
909
905
903
905
905
907
909
908
911
911
910
910
908
908
906
906
906
904
904
904
907
906
907
907
907
906
907
909
910
912
914
918
919
921
924
925
922
922
920
921
920
922
922
921
923
921
919
917
915
914
914
913
912
913
913
915
913
914
911
908
906
904
904
904
905
906
907
910
909
908
909
906
905
902
904
902
900
900
905
908
914
918
924
923
922
919
917
916
916
917
919
920
922
922
924
923
920
917
913
911
909
914
918
921
921
919
917
917
918
919
920
921
921
925
924
924
928
929
929
926
925
929
932
933
933
933
931
927
925
924
927
924
922
919
920
919
922
924
925
922
919
917
911
908
910
914
917
916
915
912
910
909
912
911
912
914
914
913
911
908
902
898
899
899
911
928
949
974
1009
1049
1094
1136
1159
1164
1142
1095
1042
986
946
921
910
910
918
922
927
929
931
930
931
929
928
926
924
921
919
916
915
918
919
923
926
926
925
925
921
917
918
918
918
922
923
924
926
927
927
926
926
925
923
921
922
923
927
931
931
932
932
930
927
927
925
925
924
927
929
930
931
933
932
932
930
929
930
930
928
930
933
932
932
933
934
933
931
930
929
929
926
928
930
932
934
933
933
934
931
935
936
937
938
940
941
944
945
950
951
948
948
950
949
949
950
952
950
949
949
947
947
944
944
943
939
939
940
942
941
943
943
942
940
937
933
933
933
934
937
939
940
940
938
938
939
937
938
935
939
937
936
934
936
936
938
938
937
935
933
933
931
932
934
934
935
935
936
938
938
938
937
936
935
934
931
932
934
935
940
944
946
949
946
946
946
945
945
945
949
953
956
956
956
953
951
946
943
943
944
943
945
944
945
944
943
942
941
938
934
933
932
932
934
933
935
938
937
938
936
934
936
934
935
937
936
938
938
934
932
929
934
945
964
992
1025
1066
1111
1145
1171
1172
1146
1098
1039
988
952
940
941
952
963
970
976
975
972
967
960
954
951
950
949
953
955
955
955
955
956
954
953
953
952
952
952
951
953
954
954
956
955
956
956
951
951
951
952
954
956
959
959
960
963
961
962
959
958
958
957
958
961
960
962
961
961
961
959
959
958
958
960
962
965
965
964
965
962
962
961
960
959
960
959
962
961
963
963
964
965
966
965
964
964
965
965
968
971
973
976
977
978
980
981
980
978
978
978
978
981
980
983
981
982
981
978
976
975
971
971
970
972
972
969
971
972
974
971
969
968
968
967
968
968
968
968
971
970
971
970
969
967
965
963
968
970
969
971
970
971
971
969
968
967
967
968
968
970
969
974
974
973
972
970
968
967
968
967
966
967
970
971
972
974
974
970
970
968
971
973
978
980
981
984
985
986
988
987
989
989
990
991
992
992
989
990
986
985
982
982
982
978
978
977
977
977
975
977
975
973
971
971
970
968
968
968
969
970
971
972
973
974
973
974
974
973
972
969
966
963
962
961
968
983
1008
1036
1071
1107
1146
1180
1204
1205
1177
1130
1074
1023
989
976
978
988
998
1004
1004
1003
1003
999
993
992
988
986
985
985
984
983
983
984
984
985
986
986
986
986
986
985
983
982
982
985
988
991
991
994
995
993
987
985
988
988
990
993
994
995
994
993
996
993
992
993
992
990
991
992
994
995
997
997
997
998
997
994
995
993
993
996
997
997
997
996
998
996
996
995
996
995
994
994
994
994
995
997
997
997
997
995
992
993
994
997
1000
1004
1005
1011
1011
1010
1009
1009
1010
1010
1009
1009
1009
1010
1012
1011
1013
1011
1009
1005
1005
1003
1005
1003
1004
1004
1003
1003
1002
1000
999
999
996
994
994
994
996
996
999
1000
999
995
993
990
988
990
991
993
996
995
997
997
996
995
992
991
990
989
991
992
996
996
997
997
993
991
990
987
988
988
989
990
990
992
992
993
992
992
988
987
986
986
987
989
991
991
992
994
994
993
995
994
996
995
998
1000
1002
1003
1005
1005
1009
1010
1010
1008
1005
1001
999
997
999
1000
998
1001
999
996
993
992
991
988
987
987
986
986
986
987
989
988
987
987
984
985
984
985
986
985
987
988
989
986
982
979
974
969
971
978
993
1012
1042
1075
1114
1156
1192
1215
1215
1190
1143
1086
1035
1000
984
985
995
1004
1010
1013
1014
1009
1005
1001
999
998
999
999
1000
998
996
993
992
990
990
992
995
997
997
997
994
995
993
993
992
993
995
995
995
997
997
995
996
997
996
997
997
993
993
996
996
997
998
1000
999
1000
999
997
997
995
995
998
999
1000
999
1000
1000
999
997
999
997
998
997
999
1001
1002
1003
1003
1003
999
998
996
995
997
996
997
998
1000
1002
1004
1004
1004
1006
1005
1005
1007
1009
1013
1015
1018
1019
1020
1020
1019
1018
1014
1013
1014
1011
1013
1012
1011
1013
1010
1010
1009
1006
1006
1006
1004
1004
1005
1004
1005
1006
1006
1004
1002
1002
997
998
997
996
997
999
1000
1001
1002
1004
1000
999
998
996
996
996
997
998
1000
1001
1001
1002
1000
999
996
994
994
994
994
994
995
998
997
1001
999
996
994
991
993
993
995
997
997
999
1000
1001
1001
1001
1000
1003
1004
1005
1006
1008
1006
1011
1011
1013
1014
1015
1017
1016
1013
1011
1009
1009
1007
1007
1008
1007
1007
1005
1004
1002
1003
1002
1000
998
999
996
995
997
997
997
996
992
992
993
995
998
999
1000
1000
998
996
994
992
989
984
982
980
987
1002
1020
1048
1077
1115
1155
1192
1223
1236
1223
1190
1139
1090
1047
1017
1006
1005
1011
1016
1020
1020
1019
1019
1016
1017
1014
1011
1010
1009
1007
1005
1003
1002
1001
1002
1003
1004
1004
1005
1005
1004
1003
1002
1002
1003
1003
1003
1007
1009
1010
1011
1008
1007
1004
1001
1002
1002
1004
1009
1009
1012
1011
1013
1012
1010
1007
1008
1005
1005
1005
1007
1008
1010
1013
1014
1013
1012
1009
1008
1006
1007
1007
1009
1009
1010
1012
1011
1012
1009
1012
1008
1010
1006
1007
1006
1007
1011
1012
1013
1013
1014
1015
1015
1014
1013
1014
1018
1018
1020
1023
1024
1023
1024
1025
1025
1026
1023
1024
1025
1025
1026
1028
1027
1028
1023
1021
1019
1018
1015
1013
1013
1011
1012
1013
1014
1014
1015
1014
1011
1009
1006
1005
1006
1005
1006
1007
1004
1004
1003
1001
1001
1001
998
1001
1002
1004
1005
1007
1007
1006
1004
1002
998
998
998
998
999
1000
1000
999
995
997
999
1000
1000
999
997
995
993
992
996
998
1002
1003
1003
1004
1003
1002
1002
999
1001
1001
1002
1005
1008
1013
1016
1015
1014
1009
1005
1003
1005
1006
1006
1005
1007
1005
1000
999
995
995
993
992
991
993
993
991
992
991
990
990
989
991
990
989
991
992
994
995
999
998
1002
1003
1011
1024
1047
1077
1110
1147
1189
1225
1257
1274
1273
1251
1209
1159
1112
1076
1057
1048
1044
1040
1032
1023
1014
1006
1000
997
993
992
991
989
990
989
989
990
989
988
986
987
986
985
988
989
990
991
990
990
991
988
987
985
984
984
986
987
988
989
988
986
988
986
983
985
986
986
989
989
990
989
989
985
987
984
984
981
978
979
979
980
979
979
976
977
974
972
971
970
967
967
968
968
970
970
970
970
966
965
964
965
964
965
968
970
973
977
980
982
981
984
984
986
988
987
990
991
997
999
1000
1000
998
998
994
994
995
995
996
998
998
998
998
997
998
995
994
996
994
993
991
994
995
995
997
998
998
998
995
994
994
994
995
996
995
994
993
992
995
994
992
995
994
995
995
995
997
998
997
995
995
994
994
991
990
988
988
989
991
993
995
996
996
995
993
992
990
992
992
997
997
1000
1002
1005
1003
1003
1002
1002
1001
1000
1003
1005
1007
1012
1011
1011
1010
1007
1003
1001
996
995
994
993
996
1000
1001
997
995
992
988
986
982
983
986
990
993
994
993
991
990
987
987
989
990
987
990
987
989
986
982
976
975
979
987
1005
1031
1061
1100
1138
1177
1207
1218
1203
1165
1111
1054
1010
982
976
982
998
1008
1015
1017
1014
1010
1004
999
998
994
992
994
995
997
997
995
994
992
991
992
993
993
995
999
999
998
998
997
997
995
993
993
993
994
995
1001
1003
1001
1001
1002
1000
999
999
998
1000
999
997
1000
1000
1002
1002
1003
1002
1004
1003
1003
1001
999
998
1000
1002
1001
1006
1007
1008
1007
1006
1004
1001
999
998
1000
1001
1005
1008
1008
1010
1010
1009
1009
1007
1005
1003
1006
1006
1007
1009
1011
1011
1011
1011
1012
1011
1011
1015
1015
1016
1015
1019
1018
1019
1020
1018
1017
1014
1013
1010
1011
1011
1011
1012
1012
1013
1014
1011
1008
1005
1001
1002
1000
1003
1003
1007
1007
1009
1007
1003
1001
1000
997
993
993
993
995
996
997
1000
1002
1002
1001
999
999
996
995
997
997
999
1000
998
999
998
997
994
996
994
996
997
997
997
997
996
996
994
990
990
989
988
986
991
993
998
1001
1003
1005
1003
1001
999
998
995
997
1002
1007
1012
1015
1013
1010
1005
1001
1000
998
997
998
999
999
1000
1002
998
994
990
989
986
987
985
985
985
986
987
986
985
984
981
982
982
982
983
986
986
987
986
984
979
972
966
965
972
988
1009
1041
1075
1117
1155
1189
1210
1204
1172
1118
1061
1011
982
971
977
990
1001
1008
1014
1011
1008
1003
995
992
986
987
988
986
988
989
987
988
987
985
985
982
984
984
982
981
983
982
985
985
983
982
982
983
985
988
989
992
991
990
989
985
985
986
985
987
987
990
989
988
986
985
986
985
986
986
986
984
986
990
991
989
990
989
991
990
989
987
988
986
984
984
984
986
986
988
988
987
987
987
984
984
984
985
988
991
993
993
996
995
995
996
994
993
992
995
996
997
999
998
998
999
995
994
991
988
987
984
985
987
987
986
985
984
981
978
976
976
975
978
977
976
975
973
976
975
977
977
976
977
978
978
978
976
977
975
976
976
976
975
976
975
975
973
975
975
976
975
975
975
973
971
971
970
969
968
970
971
972
975
976
976
974
971
970
970
969
972
977
981
985
984
984
985
982
979
979
981
983
985
989
989
988
986
986
980
978
974
971
973
972
971
972
973
973
974
971
968
967
963
960
959
959
962
963
967
969
969
969
970
970
965
963
962
961
962
961
960
957
954
953
955
965
980
1000
1025
1058
1096
1131
1165
1188
1187
1163
1119
1065
1014
976
956
957
967
977
987
992
995
994
989
986
978
973
970
968
970
970
973
973
974
972
972
972
969
966
968
966
966
968
969
972
972
972
973
969
968
969
967
966
966
968
970
973
970
970
970
971
970
970
971
971
972
973
972
975
976
977
975
974
971
970
970
968
969
970
971
972
973
974
974
972
970
971
971
972
973
974
975
976
976
975
974
972
968
969
968
967
970
969
973
975
978
979
979
980
980
981
982
982
984
988
988
990
989
991
989
989
987
984
980
979
979
984
984
988
986
984
983
980
978
976
975
974
972
974
975
976
976
978
976
972
970
970
968
967
970
972
974
976
976
973
974
971
968
966
967
966
968
970
970
972
971
972
971
971
970
968
969
968
968
969
969
970
971
971
969
968
967
965
965
962
964
965
967
969
973
976
979
980
979
978
975
976
976
976
979
982
986
985
986
984
983
976
974
975
974
974
973
974
974
974
971
970
967
967
965
962
960
960
963
961
962
961
962
962
963
961
959
958
959
957
958
959
957
956
951
946
942
948
959
977
1001
1034
1068
1108
1144
1172
1178
1161
1120
1067
1013
970
948
944
955
969
977
983
983
980
979
972
968
965
965
966
965
966
966
964
964
963
961
960
958
957
957
958
961
965
962
964
964
961
957
960
959
958
958
959
961
963
964
964
965
963
962
959
960
960
962
964
966
965
968
968
967
965
965
964
963
962
962
963
963
965
964
964
961
961
961
960
961
962
963
963
963
963
965
963
964
963
963
961
961
960
960
964
964
966
963
966
968
967
968
967
969
971
972
973
972
977
978
982
983
981
980
978
978
976
975
977
974
976
975
973
971
971
968
967
965
963
962
963
964
964
965
964
962
961
961
960
958
958
957
957
960
959
959
960
961
958
960
957
957
955
954
953
955
954
954
954
956
956
955
954
950
953
951
951
952
953
953
953
953
952
952
950
951
948
949
950
951
952
953
954
951
953
951
953
953
955
957
958
958
960
962
964
965
967
967
969
967
964
962
960
961
962
963
959
958
955
953
950
951
950
950
950
945
946
946
946
946
945
944
940
940
939
942
942
944
946
942
943
943
942
939
936
931
929
931
941
959
984
1021
1062
1108
1145
1168
1159
1123
1066
1009
964
940
937
945
956
964
965
966
959
956
951
950
947
947
947
948
948
948
945
942
940
941
942
941
942
943
944
944
948
947
946
946
946
944
945
945
945
946
946
948
948
950
948
947
946
943
942
943
944
948
951
953
954
950
949
947
946
946
945
948
948
950
949
951
948
948
948
945
944
944
944
945
947
949
950
952
951
950
947
947
946
948
947
948
948
951
954
955
957
958
958
956
957
959
959
961
962
964
966
968
965
966
965
960
960
958
956
954
954
953
955
955
953
953
949
949
947
945
944
942
943
943
943
945
946
944
945
943
942
937
939
937
939
938
938
941
942
941
941
938
939
938
937
936
937
936
935
934
935
936
935
935
934
935
934
935
937
936
937
937
936
935
935
935
935
932
933
934
935
936
939
941
943
946
946
945
943
941
940
940
944
949
954
957
956
955
952
946
943
942
940
942
940
941
940
940
942
942
938
933
929
926
923
923
926
926
926
927
928
928
929
926
926
924
925
927
930
931
932
932
931
935
941
956
978
1007
1038
1071
1103
1134
1162
1181
1189
1176
1141
1094
1047
1011
994
986
981
977
972
963
955
947
944
938
934
931
929
928
929
929
931
932
932
932
930
928
927
924
924
927
926
928
928
931
928
928
927
927
924
925
924
924
926
929
928
932
930
930
928
926
926
923
924
925
925
925
927
925
927
926
924
923
924
921
920
918
918
918
919
918
920
917
916
914
913
911
910
910
910
912
912
915
915
915
914
913
911
911
912
917
919
923
925
927
926
928
933
931
934
933
933
935
934
934
937
941
941
941
940
938
934
935
933
933
934
935
936
936
939
937
938
938
936
934
932
932
932
934
936
938
939
940
938
936
934
933
933
934
935
937
937
937
937
936
935
933
932
932
930
933
931
934
935
936
936
937
935
933
931
931
931
931
934
934
936
937
936
936
937
936
937
938
941
944
944
946
946
948
949
950
953
954
954
952
949
946
944
942
944
945
946
945
944
944
942
938
936
935
934
933
932
932
933
933
933
929
930
930
928
930
932
933
934
936
933
932
932
928
925
918
917
920
932
947
973
1005
1046
1089
1127
1155
1159
1137
1091
1035
980
941
926
927
939
953
959
961
958
951
947
943
941
942
943
946
943
941
940
937
937
936
936
937
938
938
940
940
942
942
942
942
941
938
940
940
939
942
946
945
947
947
946
944
943
943
942
942
943
947
949
947
949
948
947
946
947
945
945
945
945
945
944
945
947
947
947
946
946
947
946
945
944
946
946
949
949
951
951
949
947
946
943
944
943
946
946
950
952
951
952
952
952
955
954
953
957
959
960
962
962
963
961
959
957
957
955
955
955
956
956
956
955
954
952
948
948
946
943
944
942
946
944
944
946
945
946
945
945
943
940
940
942
943
945
944
946
947
944
944
942
941
940
939
940
941
942
942
945
944
944
940
940
938
937
937
939
