1005
1005
1003
996
992
989
994
996
993
986
986
987
991
995
995
992
985
984
981
977
973
969
965
962
962
956
948
942
941
942
946
947
950
951
953
954
958
957
954
951
953
955
958
964
969
977
987
999
1009
1023
1030
1034
1040
1045
1053
1055
1055
1052
1053
1058
1064
1065
1065
1064
1061
1063
1065
1066
1064
1062
1061
1066
1066
1067
1063
1060
1062
1063
1070
1072
1072
1069
1069
1071
1076
1077
1075
1071
1065
1062
1067
1063
1060
1056
1051
1050
1049
1048
1047
1041
1039
1040
1044
1050
1050
1048
1040
1037
1031
1021
1017
1008
1001
993
984
979
971
962
955
951
947
942
933
926
917
914
912
911
903
894
891
890
889
890
889
889
891
896
902
909
917
928
937
944
950
959
964
971
971
980
987
991
996
999
1001
1004
1008
1011
1011
1008
1010
1012
1019
1024
1023
1024
1027
1033
1038
1041
1042
1042
1042
1043
1048
1048
1049
1048
1050
1053
1059
1064
1062
1067
1067
1068
1070
1071
1070
1069
1070
1071
1077
1081
1078
1079
1080
1082
1089
1089
1084
1084
1078
1076
1075
1071
1064
1053
1048
1044
1037
1029
1019
1010
1006
1007
1007
1007
1005
1006
1003
1004
1004
1002
1003
1000
1002
1005
1007
1003
1002
1000
993
989
988
985
987
983
984
987
992
995
1000
999
1004
1006
1011
1013
1016
1015
1014
1020
1021
1022
1018
1011
1009
1005
1003
1002
1003
1000
1002
1002
1008
1009
1009
1005
1005
1007
1009
1009
1011
1008
1011
1013
1013
1018
1017
1017
1017
1023
1023
1025
1025
1024
1025
1026
1025
1026
1024
1021
1025
1027
1029
1032
1034
1035
1038
1041
1041
1038
1034
1033
1030
1032
1032
1029
1022
1017
1012
1010
1006
1006
999
1001
999
1001
1007
1009
1008
1009
1007
1012
1018
1014
1015
1011
1009
1012
1014
1015
1011
1010
1008
1007
1004
1001
1000
998
997
998
1001
1005
1008
1006
1010
1012
1017
1019
1017
1020
1023
1027
1028
1030
1030
1027
1027
1027
1026
1027
1024
1021
1019
1019
1019
1020
1020
1018
1019
1024
1025
1028
1027
1028
1027
1029
1037
1039
1038
1038
1038
1042
1043
1045
1044
1039
1037
1038
1040
1041
1037
1034
1034
1034
1038
1040
1042
1040
1035
1034
1031
1024
1020
1016
1010
1005
1000
995
983
971
966
966
964
964
962
955
961
963
963
967
968
966
966
966
969
967
965
962
959
956
953
955
951
950
951
958
966
973
978
980
984
989
993
999
1000
997
1004
1008
1013
1015
1015
1015
1013
1015
1014
1014
1010
1006
1004
1003
1003
1002
1002
1001
999
1004
1003
1007
1005
1005
1007
1011
1016
1015
1013
1009
1011
1014
1014
1017
1019
1018
1018
1023
1027
1028
1027
1026
1027
1028
1030
1034
1032
1033
1042
1050
1055
1057
1050
1042
1035
1029
1025
1023
1023
1016
1008
1000
998
995
991
985
981
980
983
984
981
981
982
984
982
985
981
979
980
979
979
977
972
969
971
977
984
990
990
995
998
1005
1008
1012
1010
1013
1017
1017
1018
1018
1021
1021
1020
1023
1024
1022
1016
1011
1009
1007
1007
1006
1002
999
993
992
993
995
993
991
989
991
991
990
988
985
988
989
991
992
992
992
992
995
998
998
998
997
996
997
997
998
997
995
995
998
1002
1005
1008
1011
1016
1020
1018
1017
1010
1006
1004
1004
1007
1006
996
989
982
974
973
967
965
964
968
973
979
982
980
982
984
987
992
991
992
992
994
997
999
1000
995
995
996
1002
1009
1017
1023
1023
1029
1036
1046
1051
1051
1054
1058
1066
1069
1076
1069
1068
1069
1070
1070
1065
1059
1055
1050
1047
1044
1042
1040
1035
1033
1034
1036
1035
1034
1030
1030
1027
1030
1030
1031
1027
1025
1029
1030
1030
1030
1028
1025
1024
1024
1024
1019
1019
1014
1017
1017
1018
1017
1014
1011
1013
1019
1020
1022
1016
1012
1006
1003
999
994
991
987
983
978
973
961
954
945
945
942
941
942
942
943
947
949
948
949
945
949
947
949
951
949
948
949
949
952
948
941
937
940
944
950
955
961
965
973
982
989
993
996
1002
1008
1019
1023
1025
1026
1026
1023
1023
1025
1027
1024
1024
1025
1027
1030
1033
1035
1035
1036
1041
1045
1046
1050
1050
1052
1055
1060
1061
1060
1060
1060
1062
1064
1063
1059
1053
1051
1050
1052
1049
1049
1049
1046
1049
1050
1053
1056
1059
1060
1060
1058
1052
1047
1040
1036
1034
1034
1029
1021
1011
1004
999
996
995
991
988
989
994
998
996
997
996
995
995
998
993
991
986
984
984
985
986
978
974
972
972
974
974
976
978
977
983
987
993
996
999
1000
1000
1002
1006
1007
1008
1006
1005
1006
1004
999
993
992
990
989
986
986
985
986
984
987
989
991
992
990
994
998
999
997
996
994
995
999
998
996
994
995
998
998
996
998
998
999
1007
1007
1011
1013
1016
1019
1027
1032
1031
1028
1022
1018
1019
1017
1019
1016
1011
1006
1001
997
991
985
979
978
979
983
988
987
985
984
988
992
992
992
989
987
988
988
989
989
986
987
989
993
994
996
998
1002
1012
1017
1026
1030
1033
1036
1040
1043
1043
1043
1043
1045
1050
1057
1056
1050
1051
1045
1042
1046
1047
1044
1040
1038
1041
1043
1045
1041
1037
1035
1034
1038
1041
1041
1041
1041
1042
1043
1042
1043
1043
1042
1044
1047
1046
1042
1042
1040
1040
1041
1037
1035
1037
1034
1036
1036
1033
1030
1029
1029
1030
1031
1028
1022
1021
1019
1020
1019
1012
1005
998
988
980
970
965
955
945
941
942
940
941
938
939
939
942
948
947
947
942
942
942
947
952
951
950
954
959
961
961
968
974
980
986
992
1001
1007
1008
1014
1023
1031
1035
1035
1034
1037
1039
1042
1042
1039
1031
1029
1030
1031
1032
1029
1027
1024
1025
1025
1022
1023
1021
1019
1022
1025
1027
1025
1025
1024
1029
1032
1037
1037
1038
1034
1040
1048
1051
1050
1048
1047
1054
1057
1058
1057
1055
1054
1059
1058
1054
1045
1038
1035
1041
1046
1046
1040
1034
1029
1028
1023
1018
1010
1005
1001
1003
1007
1008
1012
1016
1015
1016
1016
1016
1014
1006
999
992
987
987
982
977
975
976
979
976
975
980
988
994
1000
1001
1005
1010
1015
1021
1023
1028
1031
1031
1030
1030
1034
1032
1029
1030
1029
1032
1029
1033
1029
1028
1027
1028
1030
1031
1031
1030
1029
1035
1038
1039
1036
1032
1037
1039
1045
1044
1043
1039
1037
1037
1038
1039
1039
1038
1036
1036
1039
1038
1037
1035
1034
1031
1026
1026
1019
1020
1015
1015
1008
1002
1000
994
989
986
984
977
970
967
965
970
970
974
975
975
974
977
980
980
981
977
978
981
985
985
986
983
984
987
992
995
1000
1006
1014
1019
1026
1029
1031
1031
1033
1036
1040
1040
1039
1044
1047
1052
1053
1055
1056
1054
1051
1052
1054
1055
1054
1055
1058
1061
1064
1063
1063
1062
1068
1071
1073
1072
1069
1069
1067
1069
1073
1074
1073
1073
1072
1070
1071
1070
1065
1063
1062
1067
1069
1067
1062
1064
1065
1068
1071
1067
1061
1056
1052
1051
1047
1045
1038
1031
1024
1019
1014
1009
1003
993
987
986
988
984
980
978
978
981
988
985
982
976
976
974
977
975
969
969
969
969
973
975
975
979
985
990
996
1001
1005
1008
1011
1017
1019
1022
1025
1027
1028
1035
1042
1046
1048
1047
1048
1047
1051
1051
1048
1044
1042
1039
1039
1040
1034
1033
1030
1032
1037
1033
1034
1035
1035
1035
1035
1039
1043
1046
1048
1053
1055
1060
1060
1061
1062
1063
1067
1066
1067
1066
1066
1066
1066
1063
1057
1053
1051
1057
1057
1053
1044
1034
1027
1027
1024
1020
1010
1001
990
986
979
972
967
958
956
954
954
956
954
954
951
954
957
956
953
951
948
948
951
951
948
947
947
952
959
967
970
975
981
988
994
996
999
1003
1007
1013
1017
1020
1019
1018
1023
1030
1038
1035
1034
1032
1031
1030
1030
1029
1026
1024
1019
1017
1023
1023
1025
1026
1027
1032
1040
1042
1039
1038
1039
1043
1045
1043
1043
1043
1042
1045
1047
1044
1042
1039
1036
1039
1042
1043
1043
1042
1046
1049
1056
1058
1058
1054
1048
1046
1045
1041
1037
1032
1027
1023
1019
1013
1003
995
988
989
991
992
990
988
986
985
989
986
979
975
970
968
965
959
952
947
947
948
953
952
952
953
962
973
981
985
986
987
991
999
1005
1007
1005
1001
1006
1012
1015
1016
1014
1011
1008
1009
1011
1008
1006
1001
1001
1003
1003
1002
1001
996
995
997
998
998
997
995
994
997
1002
1004
1001
1000
1001
1005
1008
1011
1012
1007
1006
1014
1018
1019
1018
1019
1023
1026
1028
1034
1036
1041
1046
1050
1049
1044
1037
1030
1027
1026
1024
1019
1013
1007
1001
999
998
995
993
995
995
995
995
995
995
993
992
995
1001
1000
994
995
992
995
995
989
986
983
983
989
989
992
994
994
997
1001
1007
1010
1010
1011
1012
1018
1020
1023
1026
1022
1021
1020
1020
1018
1012
1013
1010
1013
1009
1007
1008
1004
1004
1007
1011
1009
1005
1007
1006
1011
1009
1011
1010
1007
1007
1007
1007
1005
1002
997
998
999
1001
999
997
994
995
1001
1008
1011
1013
1013
1013
1016
1014
1007
1002
999
1000
1002
1001
995
986
980
974
976
977
979
979
978
983
986
996
997
1001
996
1001
1005
1009
1008
1004
1001
1003
1004
1005
1002
1000
997
996
998
1000
1001
1004
1006
1014
1022
1031
1037
1037
1036
1043
1049
1047
1044
1049
1053
1052
1055
1057
1055
1051
1046
1042
1039
1043
1042
1037
1036
1031
1029
1032
1031
1026
1024
1025
1028
1029
1028
1025
1022
1021
1024
1028
1030
1027
1026
1026
1026
1024
1022
1019
1016
1015
1019
1021
1020
1021
1016
1016
1016
1013
1005
999
991
985
980
980
975
960
955
947
945
940
935
934
931
929
928
930
927
923
924
926
925
930
931
932
933
936
941
948
948
946
948
955
963
970
975
983
989
1001
1013
1022
1027
1029
1031
1037
1045
1049
1049
1046
1046
1048
1054
1059
1057
1052
1048
1050
1049
1049
1047
1042
1039
1037
1038
1040
1040
1035
1030
1028
1032
1032
1032
1030
1026
1029
1028
1028
1029
1026
1018
1017
1017
1017
1012
1004
1002
1001
1006
1010
1015
1012
1008
1003
997
993
986
978
972
967
964
955
950
941
934
932
931
933
932
930
929
929
933
935
935
932
929
926
925
925
922
917
918
917
918
916
921
923
927
939
946
957
961
964
968
974
986
995
1007
1009
1018
1022
1030
1038
1045
1047
1050
1051
1055
1060
1060
1059
1056
1056
1056
1057
1055
1052
1048
1048
1046
1045
1043
1038
1035
1033
1030
1034
1030
1027
1024
1025
1029
1032
1030
1023
1019
1019
1015
1020
1017
1012
1009
1008
1014
1017
1019
1019
1016
1011
1007
1003
996
988
986
984
983
982
975
964
956
953
952
952
954
952
954
954
956
961
957
955
953
952
951
954
953
952
946
943
946
948
945
943
940
942
947
954
960
964
967
973
979
983
988
989
991
993
996
1001
1000
997
999
996
999
1002
997
991
989
988
991
993
993
992
994
992
1000
1000
1001
1002
1004
1008
1009
1013
1016
1020
1020
1020
1025
1026
1024
1024
1024
1024
1025
1024
1023
1026
1022
1023
1026
1030
1035
1034
1029
1025
1020
1011
1004
1000
999
1002
1003
997
992
984
976
971
971
973
973
973
974
974
974
977
980
977
979
978
977
976
977
976
973
969
967
967
965
961
957
955
955
959
964
964
968
973
982
988
991
992
994
996
1003
1010
1012
1011
1006
1007
1009
1010
1005
1003
1002
1005
1006
1007
1003
999
1000
1001
1001
1000
999
999
993
992
996
1001
1003
1002
999
1001
1007
1009
1006
1002
1002
1003
1006
1007
1006
1004
1006
1008
1017
1023
1020
1010
1003
995
990
988
986
979
970
958
947
938
931
924
919
918
921
927
927
926
926
925
927
927
926
920
922
927
929
927
921
920
914
914
920
925
923
925
932
945
957
968
976
979
982
987
993
998
1000
1001
1000
1000
999
1000
999
999
998
1000
1005
1009
1009
1007
1007
1006
1006
1007
1007
1004
1002
1004
1005
1009
1008
1008
1004
1003
1006
1000
998
994
994
989
993
999
1004
1002
1005
1010
1015
1012
1010
1000
992
988
985
984
976
964
956
950
942
939
931
926
923
925
931
929
932
930
926
925
926
923
923
920
916
918
915
915
915
914
914
918
917
920
924
925
929
941
949
954
960
959
962
967
972
981
982
979
978
977
977
982
981
977
975
972
972
976
975
975
974
974
978
978
975
973
972
978
984
985
988
987
989
994
998
1002
999
1001
1001
999
1003
1001
1001
997
998
998
998
1004
1005
1004
1004
1001
1002
997
996
993
990
990
991
989
982
973
964
957
954
954
954
954
956
959
961
963
962
962
959
954
952
953
951
942
940
938
933
930
927
921
920
921
923
924
924
926
927
935
946
953
956
953
954
953
957
960
958
957
955
954
955
953
951
949
949
952
957
958
958
958
956
957
962
967
964
963
959
961
963
966
963
962
963
962
967
970
966
968
968
969
976
980
981
983
985
991
996
1000
998
997
995
992
991
993
995
993
992
992
993
990
988
983
977
971
969
969
966
961
957
956
957
962
960
960
960
962
963
966
963
958
962
961
965
967
967
963
965
961
963
964
964
963
965
970
978
985
991
994
997
1002
1009
1017
1018
1019
1016
1018
1019
1021
1020
1018
1017
1019
1026
1029
1029
1024
1026
1029
1031
1033
1032
1030
1032
1032
1036
1040
1037
1038
1039
1042
1049
1048
1049
1047
1044
1045
1046
1051
1052
1053
1052
1054
1054
1053
1053
1047
1040
1033
1032
1032
1031
1029
1027
1024
1016
1009
1000
992
987
986
983
982
978
971
967
969
972
974
974
971
971
967
964
961
956
952
949
949
949
947
947
940
933
931
929
928
923
921
917
915
919
925
926
928
931
939
944
948
953
958
959
964
969
971
974
971
971
970
973
978
979
981
978
985
989
992
988
989
990
992
993
996
996
997
998
1001
1000
1006
1005
1005
1003
1006
1006
1007
1004
1004
1005
1011
1016
1017
1019
1019
1019
1021
1025
1024
1021
1016
1010
1010
1012
1015
1014
1013
1010
1010
1005
1004
1000
995
987
981
979
977
975
971
970
972
969
973
972
972
970
971
975
978
978
974
972
973
974
979
978
978
979
982
987
990
989
988
992
996
1003
1008
1013
1013
1012
1016
1019
1022
1024
1024
1023
1023
1025
1028
1024
1025
1024
1028
1030
1029
1023
1020
1021
1020
1019
1018
1016
1012
1016
1016
1014
1016
1016
1011
1011
1012
1012
1014
1010
1010
1007
1011
1013
1017
1018
1017
1016
1019
1021
1024
1027
1024
1026
1031
1035
1034
1030
1036
1039
1042
1044
1045
1039
1033
1026
1024
1024
1020
1014
1014
1009
1008
1007
1003
996
990
983
978
974
967
964
960
959
960
961
962
961
960
957
958
959
962
954
953
951
952
955
958
959
955
956
965
971
976
977
981
983
988
990
994
998
1000
1003
1007
1014
1017
1017
1014
1014
1014
1021
1024
1025
1027
1028
1030
1033
1037
1037
1035
1037
1040
1040
1042
1041
1038
1040
1042
1047
1046
1046
1046
1044
1045
1047
1050
1046
1045
1039
1039
1041
1042
1041
1039
1036
1038
1039
1039
1037
1037
1033
1032
1035
1039
1038
1037
1038
1039
1040
1042
1042
1041
1043
1045
1045
1042
1035
1026
1020
1011
1008
1001
995
986
977
971
966
962
959
955
954
953
955
955
950
945
945
943
936
936
930
928
925
925
926
925
922
918
917
920
926
927
927
932
936
940
944
951
956
960
963
968
974
978
981
986
989
995
1002
1001
1003
1002
1004
1008
1009
1011
1012
1009
1009
1013
1018
1021
1022
1022
1023
1028
1034
1036
1036
1037
1037
1041
1046
1051
1051
1050
1050
1052
1055
1059
1060
1060
1060
1063
1061
1064
1066
1070
1073
1077
1081
1082
1082
1080
1083
1083
1081
1076
1068
1061
1055
1048
1041
1037
1031
1024
1015
1009
1003
999
998
995
991
991
991
992
994
994
990
993
998
997
996
990
987
982
988
990
987
980
975
971
967
965
964
963
963
963
970
974
977
985
986
983
982
984
983
987
989
990
986
989
984
977
979
979
989
990
991
989
993
1000
1002
1005
1004
1000
1002
1007
1013
1015
1017
1016
1014
1014
1015
1014
1018
1020
1022
1021
1024
1030
1031
1032
1031
1032
1038
1045
1052
1054
1057
1060
1066
1068
1066
1059
1050
1046
1045
1048
1050
1044
1038
1032
1027
1018
1013
1008
1005
1008
1012
1016
1018
1020
1018
1015
1013
1013
1013
1016
1014
1017
1017
1016
1017
1015
1014
1018
1019
1020
1015
1011
1013
1018
1022
1029
1026
1026
1025
1030
1042
1054
1060
1062
1063
1065
1070
1072
1073
1075
1075
1078
1080
1081
1082
1081
1081
1083
1083
1086
1083
1081
1082
1085
1085
1085
1085
1087
1084
1085
1086
1088
1087
1086
1083
1085
1087
1090
1092
1090
1090
1085
1079
1079
1083
1085
1080
1078
1077
1083
1089
1091
1094
1094
1094
1093
1087
1078
1072
1066
1064
1060
1058
1048
1037
1024
1015
1004
995
985
973
965
962
953
950
952
956
956
955
951
947
940
936
938
938
935
933
931
931
933
939
943
947
950
954
957
963
970
978
988
998
1007
1018
1027
1034
1037
1041
1050
1057
1064
1067
1068
1077
1081
1085
1094
1101
1105
1104
1105
1109
1115
1120
1124
1127
1120
1118
1121
1131
1134
1137
1135
1135
1135
1135
1134
1137
1139
1139
1138
1138
1132
1133
1136
1138
1138
1136
1133
1134
1132
1133
1129
1131
1132
1130
1130
1134
1139
1140
1142
1147
1149
1139
1129
1114
1102
1088
1082
1071
1060
1045
1028
1015
1008
1005
1001
1002
1003
1003
1003
1002
994
989
982
982
984
982
985
984
979
975
973
974
977
982
988
991
998
1010
1022
1031
1036
1037
1042
1051
1059
1066
1066
1067
1069
1074
1078
1079
1076
1078
1085
1092
1098
1096
1092
1092
1095
1105
1109
1105
1099
1098
1105
1114
1119
1117
1118
1120
1122
1124
1128
1129
1128
1127
1138
1145
1151
1154
1152
1149
1152
1153
1155
1154
1158
1161
1164
1173
1180
1184
1180
1171
1166
1152
1143
1131
1117
1101
1084
1069
1053
1038
1023
1016
1011
1009
1003
1001
993
982
981
981
979
970
966
964
967
970
971
970
966
961
961
960
958
958
962
965
969
980
987
995
1000
1009
1021
1032
1044
1055
1061
1068
1073
1078
1084
1084
1085
1083
1085
1087
1089
1089
1086
1091
1095
1099
1103
1105
1103
1105
1112
1119
1123
1125
1127
1129
1136
1139
1144
1144
1142
1146
1153
1156
1153
1150
1151
1151
1157
1155
1159
1162
1164
1167
1171
1174
1172
1167
1162
1156
1149
1142
1135
1124
1109
1090
1073
1055
1040
1023
1010
996
993
994
994
988
984
981
978
981
977
970
966
960
962
962
960
958
956
956
956
958
955
956
955
957
960
962
965
967
967
973
977
990
996
998
1000
1001
1012
1022
1028
1032
1034
1037
1042
1048
1053
1054
1059
1064
1069
1073
1077
1082
1083
1089
1092
1097
1097
1100
1101
1107
1112
1116
1116
1119
1120
1119
1127
1130
1133
1133
1132
1132
1132
1133
1136
1137
1134
1138
1144
1151
1156
1159
1156
1155
1151
1149
1141
1133
1126
1119
1110
1100
1091
1076
1060
1046
1036
1027
1016
1009
1010
1008
1010
1008
1005
1003
998
994
993
992
987
984
979
975
975
975
970
961
956
949
945
944
942
943
941
942
947
952
956
960
963
968
972
983
989
990
988
988
990
999
