986
994
999
998
1000
1002
1004
1008
1006
1007
1002
996
997
998
996
993
989
988
988
989
987
986
979
980
984
985
985
983
980
978
982
982
982
979
979
978
978
980
981
978
973
976
975
981
979
980
979
980
982
986
986
983
981
982
984
984
985
985
985
983
987
988
988
987
985
984
984
983
984
982
980
981
979
978
981
975
970
970
969
971
972
970
967
966
969
970
970
966
963
963
963
964
967
963
962
959
961
961
962
960
957
954
957
954
957
954
951
948
948
948
947
945
944
946
945
949
950
950
949
949
955
957
960
965
965
965
968
973
977
978
978
978
979
981
978
977
976
974
979
979
981
979
974
970
972
974
971
970
964
967
968
970
970
968
966
965
967
970
970
970
967
965
969
969
972
972
971
971
972
974
977
974
975
976
973
975
979
978
976
974
974
976
974
974
970
969
969
971
972
970
965
965
965
967
969
967
963
961
962
966
964
962
958
958
961
963
965
962
960
955
957
960
961
956
954
946
951
951
949
946
942
938
935
932
930
925
919
915
915
916
913
906
900
896
894
894
895
890
886
886
888
892
894
897
899
904
914
923
932
939
942
946
955
959
964
967
968
968
970
973
975
975
974
971
970
977
977
976
975
975
979
979
983
982
983
981
982
986
988
987
987
985
986
988
989
987
983
979
983
985
984
983
978
978
976
980
981
979
978
977
980
982
983
980
980
977
979
982
981
980
976
975
977
977
976
972
971
967
966
969
968
969
965
962
961
961
959
956
951
948
947
947
943
937
931
928
924
923
922
917
914
909
906
907
904
900
894
891
891
891
888
885
880
878
877
882
879
881
878
878
881
883
885
885
884
885
888
893
896
899
899
900
906
911
916
918
917
922
927
931
938
938
939
941
946
950
955
955
956
957
960
966
968
971
969
969
972
977
977
976
976
975
977
979
981
983
979
981
984
988
991
990
989
989
992
995
998
996
995
992
993
999
998
996
992
992
992
992
994
992
987
989
989
989
989
986
984
981
980
984
984
980
977
973
971
970
967
959
953
948
943
943
937
931
923
920
916
912
907
903
898
890
887
889
886
880
876
872
873
873
873
871
872
869
876
878
882
885
885
890
895
900
902
905
906
909
913
913
921
920
922
923
930
935
938
938
936
937
939
941
944
944
945
945
947
953
951
955
953
953
954
957
959
956
956
958
960
962
963
962
963
963
965
972
974
975
979
977
983
987
992
993
995
995
998
1000
1007
1007
1010
1011
1014
1019
1021
1019
1021
1022
1028
1030
1031
1032
1030
1029
1034
1036
1037
1037
1037
1038
1040
1042
1046
1044
1042
1043
1047
1046
1047
1047
1045
1046
1046
1045
1045
1044
1039
1041
1042
1044
1044
1041
1035
1035
1035
1038
1039
1035
1030
1027
1031
1030
1028
1027
1021
1022
1022
1027
1026
1025
1019
1018
1018
1019
1015
1010
1003
993
985
977
965
944
926
907
888
878
864
850
837
829
823
821
816
812
804
807
809
812
815
820
822
825
832
840
845
844
847
849
855
861
866
868
869
871
876
879
884
885
884
888
892
895
899
901
903
905
910
913
917
917
919
919
924
925
926
928
927
929
927
935
936
936
936
936
938
943
945
945
945
944
950
953
957
957
957
958
964
969
971
971
970
972
978
980
981
982
981
983
985
990
994
994
996
998
1003
1009
1011
1010
1012
1014
1015
1019
1020
1021
1022
1021
1027
1030
1031
1028
1024
1025
1028
1030
1028
1025
1023
1020
1023
1023
1020
1015
1010
1007
1004
1001
997
988
977
973
969
966
958
952
944
937
930
921
913
903
887
875
865
858
853
847
841
840
841
850
854
858
860
864
871
878
881
885
888
891
897
902
906
907
908
913
917
923
927
927
922
926
931
936
936
937
937
936
942
948
946
949
948
951
954
958
961
960
962
963
969
974
974
977
979
981
986
992
993
993
993
995
1000
1001
1005
1003
1003
1003
1006
1010
1009
1012
1014
1015
1020
1027
1029
1027
1027
1031
1030
1034
1036
1037
1036
1036
1039
1043
1039
1040
1037
1036
1038
1041
1040
1037
1038
1038
1039
1039
1040
1031
1030
1026
1025
1023
1021
1016
1010
1008
1007
1006
1005
998
997
995
994
995
992
989
986
985
987
986
982
977
969
961
952
941
925
913
904
895
892
891
886
882
880
877
878
879
879
883
883
887
893
898
899
902
901
904
911
916
920
922
922
926
931
934
938
937
940
941
943
949
950
951
950
952
960
962
963
967
971
972
978
984
983
985
983
988
993
997
999
998
999
1001
1006
1011
1010
1017
1016
1019
1025
1030
1032
1035
1038
1038
1046
1045
1049
1049
1047
1048
1051
1054
1056
1052
1052
1050
1056
1058
1056
1054
1052
1051
1053
1052
1048
1047
1042
1037
1033
1035
1029
1023
1018
1013
1010
1008
1005
997
992
986
987
987
984
983
981
981
982
984
979
978
974
967
962
958
948
942
932
927
925
925
921
917
914
912
915
917
916
911
911
911
917
918
924
925
927
930
936
941
941
944
946
948
953
957
959
959
961
962
966
973
972
977
975
978
987
992
994
999
1000
1003
1012
1019
1023
1024
1026
1027
1035
1039
1043
1042
1045
1046
1052
1057
1060
1062
1062
1063
1069
1074
1080
1078
1077
1078
1082
1086
1086
1083
1082
1083
1087
1088
1088
1088
1083
1081
1082
1086
1084
1080
1077
1073
1070
1072
1068
1062
1056
1053
1052
1049
1044
1038
1035
1030
1030
1030
1025
1022
1018
1012
1011
1010
1005
1001
994
991
984
980
971
958
953
945
946
945
943
939
939
935
939
942
942
941
941
942
948
951
955
954
959
960
965
971
972
975
977
980
985
988
991
992
994
997
999
1005
1009
1012
1013
1015
1019
1025
1028
1030
1032
1034
1040
1045
1049
1051
1053
1057
1060
1067
1069
1068
1071
1072
1076
1080
1083
1084
1085
1088
1091
1095
1098
1096
1096
1099
1102
1105
1105
1104
1103
1105
1109
1111
1112
1110
1106
1107
1109
1109
1105
1100
1099
1095
1096
1095
1092
1085
1081
1079
1079
1078
1073
1068
1065
1061
1058
1059
1054
1048
1040
1039
1038
1035
1026
1020
1014
1006
1003
998
992
986
981
978
978
980
973
973
971
969
973
975
978
979
978
978
982
987
990
989
990
992
997
1001
1006
1005
1006
1007
1013
1018
1020
1019
1019
1024
1027
1034
1038
1036
1038
1040
1046
1051
1053
1052
1054
1053
1062
1066
1067
1069
1072
1075
1082
1085
1087
1090
1091
1092
1097
1102
1106
1106
1106
1109
1112
1116
1117
1118
1121
1122
1126
1131
1130
1128
1130
1127
1132
1133
1130
1131
1129
1128
1129
1126
1129
1120
1118
1117
1115
1114
1110
1106
1102
1099
1097
1097
1089
1086
1076
1074
1070
1069
1064
1058
1053
1048
1047
1042
1035
1029
1023
1019
1016
1010
1004
1000
996
988
990
990
985
985
984
983
988
993
994
993
992
997
1002
1007
1008
1009
1007
1015
1019
1024
1026
1026
1025
1029
1034
1038
1039
1038
1040
1042
1045
1051
1052
1055
1057
1056
1063
1067
1070
1070
1076
1081
1086
1088
1092
1096
1096
1099
1103
1109
1109
1110
1110
1112
1119
1120
1123
1124
1124
1126
1130
1133
1137
1137
1138
1141
1143
1144
1145
1146
1145
1145
1148
1151
1153
1148
1144
1139
1136
1136
1135
1125
1119
1116
1114
1112
1108
1101
1096
1092
1092
1090
1087
1082
1075
1073
1073
1071
1066
1058
1052
1047
1043
1039
1033
1026
1018
1014
1010
1012
1010
1005
1004
1005
1009
1010
1010
1010
1010
1011
1017
1021
1021
1020
1023
1024
1030
1034
1037
1038
1038
1038
1042
1048
1049
1049
1049
1053
1057
1061
1065
1063
1064
1068
1073
1078
1079
1080
1083
1086
1089
1093
1094
1096
1097
1101
1105
1108
1111
1108
1111
1113
1118
1120
1122
1122
1120
1123
1124
1130
1130
1129
1130
1134
1136
1141
1142
1144
1143
1145
1149
1152
1151
1152
1150
1149
1155
1157
1158
1154
1151
1153
1153
1152
1148
1146
1141
1139
1139
1138
1132
1127
1119
1117
1115
1108
1102
1094
1090
1080
1076
1070
1064
1056
1046
1041
1034
1030
1023
1015
1007
1000
998
994
991
986
981
977
979
981
978
978
978
979
982
987
986
988
988
991
996
1000
1001
1002
1001
1003
1007
1012
1014
1014
1012
1016
1019
1023
1027
1025
1027
1028
1034
1038
1040
1042
1042
1045
1052
1056
1058
1060
1059
1063
1066
1071
1076
1074
1073
1074
1077
1084
1084
1084
1086
1086
1091
1094
1097
1096
1096
1097
1103
1108
1108
1109
1112
1115
1118
1122
1126
1127
1126
1129
1135
1138
1136
1138
1141
1141
1144
1145
1149
1144
1144
1145
1146
1146
1143
1140
1135
1132
1132
1131
1126
1120
1115
1109
1107
1103
1095
1088
1079
1070
1064
1058
1050
1038
1027
1021
1018
1012
1006
998
991
984
984
981
979
975
974
972
975
978
975
979
978
980
987
991
995
992
995
1000
1004
1007
1011
1011
1010
1016
1016
1023
1024
1026
1026
1028
1034
1040
1042
1044
1046
1051
1054
1063
1064
1063
1065
1067
1070
1070
1071
1072
1071
1073
1075
1081
1082
1082
1082
1084
1088
1091
1095
1093
1096
1096
1101
1105
1108
1111
1112
1112
1120
1125
1126
1130
1130
1133
1139
1142
1144
1146
1142
1140
1141
1146
1145
1141
1134
1133
1128
1126
1120
1110
1100
1094
1090
1085
1077
1066
1058
1049
1043
1038
1026
1015
1005
997
989
983
973
964
953
950
946
946
942
938
937
937
940
941
941
941
944
947
950
955
955
960
961
964
969
973
978
977
979
979
986
989
994
995
992
1000
1002
1010
1011
1012
1015
1020
1025
1033
1036
1037
1041
1044
1050
1054
1058
1058
1058
1059
1064
1065
1067
1070
1069
1074
1075
1081
1082
1086
1084
1091
1094
1100
1102
1105
1108
1113
1118
1123
1125
1127
1127
1127
1136
1147
1151
1151
1152
1156
1159
1160
1165
1159
1156
1154
1150
1148
1142
1135
1126
1119
1118
1111
1105
1095
1088
1078
1075
1070
1064
1053
1043
1033
1023
1013
999
986
977
967
960
956
950
942
937
932
933
932
930
930
930
932
936
939
939
938
941
943
947
954
957
955
958
961
964
970
969
973
973
977
983
987
989
992
993
992
998
1005
1011
1013
1014
1020
1027
1032
1035
1038
1040
1043
1047
1054
1055
1054
1056
1056
1061
1061
1062
1063
1063
1067
1071
1072
1074
1075
1077
1082
1086
1091
1093
1097
1098
1102
1108
1114
1118
1117
1117
1124
1129
1135
1141
1141
1144
1146
1146
1149
1150
1148
1147
1143
1140
1135
1129
1121
1118
1113
1110
1101
1099
1088
1077
1072
1068
1060
1052
1037
1024
1010
998
987
973
962
949
942
933
933
931
926
922
920
922
925
925
922
921
925
931
935
937
942
942
945
951
954
955
958
958
959
965
972
975
974
976
981
988
992
993
994
996
1001
1011
1018
1022
1026
1029
1033
1039
1043
1045
1045
1047
1048
1052
1055
1056
1057
1059
1062
1066
1071
1072
1073
1074
1076
1082
1086
1091
1092
1096
1103
1113
1118
1119
1121
1122
1128
1136
1140
1144
1143
1150
1154
1157
1160
1159
1160
1160
1159
1159
1158
1150
1141
1127
1121
1117
1111
1105
1098
1088
1081
1074
1066
1055
1043
1031
1019
1008
995
976
956
944
933
928
918
914
911
907
905
909
912
915
916
916
920
922
927
928
928
929
931
937
940
941
941
941
945
951
957
961
958
962
969
975
980
983
983
986
990
996
1004
1007
1012
1013
1022
1028
1034
1034
1035
1037
1038
1047
1049
1051
1049
1048
1050
1053
1057
1058
1056
1055
1058
1063
1066
1071
1074
1071
1078
1084
1091
1096
1098
1099
1103
1107
1111
1114
1114
1118
1125
1133
1137
1137
1138
1139
1143
1146
1144
1140
1131
1125
1118
1111
1104
1096
1087
1080
1075
1074
1069
1063
1055
1045
1037
1032
1025
1013
999
984
967
955
947
937
925
918
913
915
912
910
910
911
913
917
919
920
922
922
923
928
932
930
931
931
935
940
943
948
949
951
953
954
960
958
962
965
968
971
977
980
983
986
994
1002
1010
1011
1015
1017
1021
1027
1030
1031
1031
1031
1035
1037
1039
1040
1039
1041
1042
1048
1052
1055
1054
1055
1061
1065
1072
1075
1075
1080
1086
1093
1095
1097
1099
1096
1105
1109
1115
1119
1124
1126
1130
1134
1134
1132
1126
1122
1118
1112
1106
1096
1085
1074
1069
1063
1063
1053
1047
1041
1040
1037
1029
1025
1018
1015
1012
1013
1003
990
973
961
947
945
939
934
927
924
922
922
923
921
920
919
921
926
927
930
929
928
931
932
939
941
939
945
948
952
952
952
955
958
961
968
973
979
980
987
993
1001
1004
1005
1007
1008
1011
1015
1019
1021
1019
1020
1023
1029
1031
1033
1034
1034
1038
1045
1046
1045
1050
1055
1061
1068
1071
1073
1076
1080
1085
1091
1097
1099
1096
1099
1104
1110
1112
1110
1108
1097
1089
1086
1081
1078
1066
1057
1049
1045
1038
1032
1025
1016
1011
1008
1005
999
992
984
981
980
976
973
964
960
958
956
950
938
930
925
924
924
926
926
923
922
919
924
926
927
924
927
928
935
938
944
942
945
949
956
962
963
964
963
972
975
982
983
988
989
992
997
1002
1001
1001
1001
1006
1007
1012
1011
1013
1014
1018
1023
1026
1027
1028
1028
1032
1037
1041
1044
1048
1049
1054
1056
1063
1067
1067
1069
1073
1077
1083
1083
1081
1082
1080
1081
1080
1078
1076
1072
1069
1067
1059
1049
1042
1033
1028
1023
1013
1004
995
987
985
982
979
973
969
967
963
967
969
971
967
966
963
965
965
964
967
970
969
967
960
951
937
933
930
928
927
925
921
918
918
925
927
929
928
930
935
937
943
946
945
948
952
957
964
962
964
968
974
980
984
989
989
987
990
995
998
996
996
998
1001
1007
1008
1011
1011
1011
1015
1018
1022
1024
1026
1027
1031
1041
1048
1050
1051
1052
1060
1066
1072
1075
1074
1074
1077
1076
1081
1078
1077
1075
1075
1076
1075
1071
1065
1059
1054
1053
1049
1047
1042
1038
1036
1035
1030
1020
1006
993
977
967
961
955
948
942
939
940
944
944
942
941
943
945
946
950
952
954
962
966
970
969
962
955
953
947
941
935
927
925
926
928
930
929
929
930
933
939
942
943
945
944
949
953
953
957
957
961
965
969
972
976
977
980
984
988
992
993
994
990
994
998
999
997
998
996
1000
1002
1007
1008
1007
1012
1018
1025
1027
1030
1036
1041
1045
1051
1054
1058
1058
1060
1063
1069
1071
1071
1065
1066
1070
1072
1070
1066
1059
1051
1050
1047
1040
1038
1034
1032
1028
1029
1024
1015
1007
1000
990
981
974
964
956
947
947
946
945
941
936
931
933
935
935
936
934
935
938
940
945
943
942
941
942
943
939
935
928
926
930
933
933
929
930
932
933
937
939
939
939
943
950
955
958
959
961
963
969
973
978
981
984
985
989
996
999
1001
1000
999
1005
1010
1010
1010
1010
1011
1015
1018
1026
1028
1029
1033
1034
1043
1048
1049
1055
1056
1063
1068
1072
1076
1076
1078
1080
1082
1086
1087
1087
1088
1087
1089
1089
1082
1072
1067
1062
1061
1055
1048
1041
1034
1025
1017
1001
987
976
967
961
957
950
943
936
935
936
937
936
930
925
923
927
930
930
926
925
926
926
927
927
921
914
907
905
906
908
911
911
912
917
920
920
919
921
921
925
927
931
931
932
935
943
947
949
950
948
954
954
961
966
967
969
975
981
988
990
995
998
1000
1005
1007
1013
1013
1014
1012
1017
1022
1022
1023
1025
1028
1034
1039
1044
1046
1046
1046
1056
1064
1067
1068
1067
1070
1074
1078
1078
1080
1080
1083
1086
1089
1088
1087
1084
1078
1073
1073
1069
1067
1061
1054
1053
1045
1041
1027
1010
992
984
983
974
964
957
951
948
949
948
944
941
938
934
933
934
933
932
935
938
943
944
937
929
921
914
910
907
903
903
905
909
913
913
913
911
910
912
917
919
919
918
922
931
935
936
940
942
944
946
953
960
961
963
966
973
979
980
984
988
992
996
1003
1006
1007
1010
1012
1018
1023
1024
1025
1027
1032
1035
1039
1046
1047
1047
1048
1052
1057
1060
1062
1061
1064
1072
1074
1076
1077
1077
1083
1088
1094
1096
1096
1091
1087
1085
1085
1084
1083
1080
1076
1075
1077
1077
1069
1061
1054
1049
1045
1038
1024
1005
991
981
977
969
963
957
951
949
950
948
946
939
937
942
940
937
934
934
932
933
935
936
931
922
917
912
907
904
902
901
898
900
903
905
906
905
909
915
920
920
919
919
920
925
927
930
929
934
939
943
946
950
952
954
957
962
968
971
976
977
984
992
997
1001
1005
1008
1013
1019
1022
1025
1027
1027
1030
1033
1037
1040
1041
1040
1040
1044
1044
1043
1040
1042
1045
1050
1054
1058
1061
1062
1068
1073
1079
1079
1078
1076
1075
1079
1081
1078
1078
1076
1080
1083
1084
1083
1077
1073
1070
1068
1068
1060
1053
1040
1027
1018
1007
998
991
983
980
978
972
968
961
954
947
940
937
931
928
926
928
929
931
926
920
910
904
901
895
892
890
886
889
894
895
892
896
895
894
896
900
900
899
901
900
906
909
910
912
913
913
922
929
932
937
941
950
961
972
978
985
987
994
999
1009
1018
1018
1020
1021
1027
1028
1031
1033
1033
1033
1042
1044
1048
1046
1048
1047
1051
1055
1057
1056
1057
1059
1062
1067
1068
1068
1065
1065
1068
1068
1068
1067
1063
1063
1064
1067
1070
1068
1067
1064
1064
1063
1062
1057
1052
1048
1044
1040
1034
1021
1009
997
989
981
977
974
969
967
967
967
965
958
956
955
953
955
952
950
944
940
942
946
943
941
936
929
924
917
911
904
900
900
903
905
907
905
905
905
908
909
910
910
908
906
909
912
912
909
908
910
911
916
915
918
916
915
917
921
923
923
922
923
927
931
930
931
933
930
936
941
939
941
940
937
944
948
946
952
954
958
965
974
977
982
989
998
1011
1023
1033
1038
1047
1054
1064
1071
1077
1081
1085
1090
1096
1102
1105
1110
1112
1113
1114
1123
1126
1127
1126
1126
1127
1123
1118
1108
1101
1089
1083
1077
1071
1063
1055
1047
1044
1037
1033
1024
1017
1012
1009
1009
1007
1004
998
997
994
991
987
980
975
969
960
960
950
936
932
927
929
931
932
934
930
934
934
934
937
938
940
938
943
947
948
950
949
951
955
958
959
960
958
958
962
961
963
962
960
959
963
965
968
964
968
968
969
973
971
972
972
973
976
979
979
981
979
977
979
983
981
979
976
973
974
977
975
970
968
970
971
973
975
970
969
967
969
970
967
962
956
950
946
941
940
937
930
927
928
930
929
927
926
924
928
931
933
935
939
938
941
950
951
954
953
953
955
959
964
964
968
969
972
971
972
971
975
979
990
995
997
995
990
987
989
993
995
996
995
994
999
1005
1006
1005
1002
1008
1011
1016
1017
1016
1017
1015
1018
1022
1022
1018
1019
1020
1023
1025
1025
1025
1022
1022
1027
