1028
1032
1036
1035
1038
1043
1045
1046
1048
1047
1048
1053
1057
1060
1063
1064
1068
1074
1078
1077
1076
1078
1080
1078
1074
1063
1059
1052
1044
1040
1034
1037
1032
1029
1031
1036
1039
1039
1038
1039
1031
1024
1014
1007
998
987
974
974
970
972
967
957
946
944
942
934
925
918
913
911
905
899
887
878
874
874
874
874
868
864
862
862
862
857
851
851
850
855
865
869
870
867
866
876
883
888
893
895
903
914
926
936
943
948
955
966
969
971
972
974
979
984
986
992
995
996
996
1002
1007
1007
1009
1012
1014
1017
1024
1027
1030
1031
1037
1047
1052
1054
1050
1046
1042
1050
1054
1058
1058
1060
1063
1068
1075
1075
1071
1066
1059
1058
1056
1058
1051
1044
1036
1037
1038
1037
1038
1035
1035
1040
1044
1042
1037
1022
1014
1002
996
988
981
975
972
976
975
966
956
948
940
934
928
916
909
902
892
885
880
871
861
855
857
858
859
863
860
856
848
845
851
851
853
856
858
861
863
865
863
860
862
871
881
891
893
895
900
909
919
927
936
947
953
963
972
977
977
981
988
998
1006
1008
1006
1008
1014
1023
1029
1031
1034
1038
1039
1046
1053
1059
1065
1067
1065
1071
1080
1080
1083
1089
1101
1113
1123
1126
1125
1115
1104
1095
1088
1080
1070
1063
1059
1059
1061
1054
1043
1042
1046
1054
1057
1053
1040
1023
1015
1007
1009
1002
986
972
963
967
966
960
948
934
920
915
914
908
895
880
863
856
858
858
857
853
846
842
846
847
850
846
841
843
847
850
847
846
850
859
870
866
859
853
862
883
890
888
888
899
910
924
933
939
946
956
971
994
1012
1017
1017
1018
1022
1033
1042
1042
1040
1045
1052
1063
1068
1068
1070
1067
1065
1074
1090
1099
1103
1111
1117
1120
1118
1115
1116
1124
1132
1146
1159
1163
1167
1160
1161
1163
1163
1152
1135
1119
1099
1085
1082
1077
1063
1056
1058
1062
1061
1054
1037
1013
993
990
992
990
981
968
958
944
933
923
914
904
889
880
874
866
860
850
844
843
853
858
853
843
835
839
849
854
848
842
837
843
850
856
858
856
853
852
857
864
869
877
892
913
924
934
945
960
969
982
999
1017
1023
1023
1020
1021
1028
1038
1054
1060
1054
1043
1045
1058
1068
1069
1071
1078
1081
1095
1101
1107
1109
1111
1121
1132
1134
1129
1125
1131
1149
1160
1160
1152
1158
1168
1171
1170
1163
1150
1130
1110
1104
1098
1095
1094
1091
1089
1090
1083
1073
1073
1075
1061
1042
1024
1019
1014
1004
985
972
959
951
926
913
912
909
903
895
886
875
870
874
869
849
835
835
846
855
853
848
849
856
856
843
836
843
858
860
861
857
852
851
854
859
866
871
872
874
883
901
914
924
932
948
964
977
980
993
1013
1028
1024
1018
1032
1059
1065
1059
1043
1046
1062
1079
1086
1085
1087
1091
1098
1099
1105
1113
1123
1124
1125
1135
1155
1160
1149
1150
1169
1188
1191
1175
1169
1168
1160
1141
1121
1109
1101
1102
1101
1098
1089
1075
1079
1090
1098
1092
1084
1081
1076
1066
1051
1023
999
992
988
973
938
916
919
942
945
919
896
888
895
893
881
870
863
861
864
858
842
839
849
857
856
858
865
864
858
859
868
884
890
887
881
875
884
892
896
904
918
923
924
931
945
964
979
999
1016
1020
1018
1027
1049
1065
1072
1073
1074
1081
1085
1089
1095
1103
1110
1119
1121
1125
1124
1127
1136
1143
1150
1161
1172
1180
1183
1189
1195
1199
1199
1193
1178
1156
1134
1114
1102
1095
1089
1091
1092
1092
1089
1083
1080
1077
1068
1058
1047
1029
1009
991
972
962
950
944
943
939
933
924
915
907
902
897
893
885
879
873
869
859
859
855
851
847
847
851
858
868
869
871
871
871
875
880
881
880
882
886
887
897
896
896
901
905
913
923
934
945
959
975
993
1005
1017
1023
1029
1036
1045
1049
1052
1056
1058
1063
1070
1078
1079
1083
1088
1095
1099
1106
1110
1116
1120
1132
1143
1155
1156
1160
1162
1164
1163
1155
1138
1116
1101
1091
1082
1086
1085
1078
1077
1078
1080
1081
1084
1080
1072
1063
1056
1046
1029
1013
999
992
977
970
966
960
956
943
936
931
925
921
915
904
895
889
877
869
864
859
854
849
843
839
837
844
849
853
853
853
853
854
857
862
868
867
872
877
883
884
886
888
894
899
906
907
910
915
927
936
950
962
970
978
984
989
997
1008
1015
1016
1020
1022
1027
1033
1032
1035
1040
1050
1059
1063
1064
1061
1064
1076
1085
1094
1100
1107
1117
1120
1120
1120
1107
1089
1077
1062
1048
1042
1039
1033
1033
1036
1038
1047
1053
1056
1057
1053
1053
1044
1030
1018
1006
997
995
989
978
971
964
955
946
940
935
924
912
906
898
898
895
888
885
881
876
873
864
854
843
842
847
850
854
850
850
857
865
875
878
874
876
875
884
884
884
882
881
883
890
898
903
909
914
922
931
940
938
942
949
956
965
970
975
975
974
974
984
998
1006
1009
1006
1007
1012
1015
1021
1026
1030
1035
1042
1052
1066
1077
1077
1070
1058
1048
1034
1021
1010
1004
1008
1012
1018
1026
1031
1036
1040
1041
1044
1045
1040
1036
1027
1022
1011
1005
993
981
972
964
958
948
939
930
927
927
924
915
908
902
902
898
897
895
890
886
888
887
883
877
879
884
900
902
897
896
903
916
929
932
924
920
920
923
931
937
940
929
922
922
933
941
948
947
945
947
954
960
957
951
945
949
961
970
969
968
967
973
985
996
997
1000
999
1002
1006
1011
1013
1019
1025
1034
1039
1047
1053
1052
1047
1040
1040
1037
1026
1015
1008
1009
1016
1022
1027
1032
1037
1043
1052
1058
1056
1052
1048
1045
1043
1037
1030
1024
1020
1017
1013
1005
998
994
987
979
972
961
956
946
942
941
943
946
941
936
932
931
927
928
924
922
922
927
930
939
942
945
949
955
962
968
967
961
958
960
963
959
960
958
958
962
964
969
971
969
967
967
968
967
963
965
970
968
966
964
961
964
965
972
980
988
994
999
998
997
999
1004
1006
1005
1011
1020
1031
1041
1039
1041
1047
1049
1051
1044
1034
1023
1014
1010
1013
1019
1014
1007
1009
1019
1026
1026
1026
1025
1021
1011
1007
1002
995
986
981
983
981
974
964
956
955
951
943
936
931
924
915
907
902
898
895
895
891
885
879
875
868
857
855
859
868
876
885
891
892
896
913
927
928
918
918
918
918
920
926
934
941
944
932
919
925
941
953
959
966
975
981
982
985
992
996
988
990
998
1006
1009
1011
1016
1029
1037
1043
1054
1062
1055
1042
1046
1061
1079
1090
1106
1115
1112
1113
1120
1118
1097
1080
1071
1063
1063
1065
1064
1053
1041
1045
1050
1057
1059
1053
1048
1035
1017
999
989
989
994
986
974
974
982
985
971
945
926
921
924
922
911
911
912
906
893
876
869
869
875
878
871
868
876
888
891
888
895
910
920
918
912
917
928
932
927
916
919
930
938
945
952
958
965
972
984
995
1000
1009
1021
1033
1037
1034
1029
1034
1039
1044
1047
1052
1060
1069
1073
1083
1088
1092
1088
1095
1107
1121
1130
1132
1134
1143
1150
1160
1166
1165
1153
1140
1119
1102
1091
1083
1082
1075
1080
1084
1080
1074
1072
1074
1069
1052
1035
1019
1002
989
986
978
970
959
944
935
934
935
936
926
913
906
904
898
897
890
885
880
874
872
864
866
860
857
858
861
864
868
870
877
886
895
901
907
907
910
915
920
925
928
927
926
934
943
953
960
969
979
988
999
1006
1008
1017
1018
1025
1036
1043
1050
1053
1057
1063
1071
1076
1082
1088
1090
1092
1099
1106
1114
1119
1123
1132
1141
1148
1153
1155
1153
1148
1141
1127
1110
1095
1091
1091
1093
1093
1090
1087
1086
1088
1089
1090
1081
1067
1054
1042
1026
1009
992
976
969
964
964
959
950
945
943
943
940
933
926
917
913
912
912
908
898
893
892
895
896
896
897
897
898
902
908
914
923
929
935
938
948
954
952
949
944
946
957
961
961
961
964
969
975
978
981
983
985
992
1001
1007
1009
1007
1011
1015
1023
1028
1028
1031
1036
1051
1057
1062
1060
1064
1073
1084
1093
1099
1104
1110
1119
1127
1126
1119
1108
1097
1082
1072
1064
1065
1059
1052
1055
1066
1074
1077
1079
1080
1080
1075
1069
1058
1043
1036
1026
1016
1005
1005
1002
989
984
980
981
975
965
957
951
949
947
945
943
936
934
937
936
931
927
922
925
932
938
939
940
944
950
957
968
980
982
976
974
985
993
998
997
998
997
999
1007
1014
1013
1011
1011
1008
1006
1011
1012
1009
1005
1006
1009
1010
1008
1008
1012
1017
1024
1034
1042
1045
1043
1043
1052
1063
1067
1063
1063
1073
1085
1088
1088
1090
1098
1114
1127
1133
1127
1122
1117
1111
1103
1088
1079
1071
1068
1070
1074
1082
1084
1083
1084
1085
1085
1077
1061
1055
1052
1050
1049
1048
1047
1044
1037
1034
1035
1034
1031
1019
1004
1001
1001
996
989
981
979
976
978
972
966
966
965
966
962
963
965
968
972
977
979
979
983
986
994
1000
1004
1005
1003
998
1000
1004
1008
1009
1008
1011
1011
1011
1010
1011
1014
1011
1007
1007
1008
1010
1011
1009
1007
1009
1010
1008
1008
1007
1013
1020
1026
1030
1032
1035
1039
1043
1052
1055
1058
1052
1050
1058
1062
1071
1079
1084
1090
1097
1105
1110
1112
1108
1102
1099
1093
1088
1078
1073
1070
1071
1076
1080
1083
1085
1090
1096
1100
1103
1096
1084
1070
1064
1058
1060
1059
1059
1054
1055
1056
1056
1052
1043
1040
1036
1037
1034
1030
1021
1009
1000
998
998
997
993
988
985
982
977
969
964
968
975
984
984
984
988
994
999
1002
1003
1001
996
998
1003
1001
1003
1003
1005
1005
1004
1003
999
993
984
985
995
1005
1013
1011
1005
999
998
999
1004
1008
1014
1016
1023
1024
1022
1020
1022
1029
1042
1057
1051
1044
1041
1049
1060
1074
1082
1086
1082
1091
1103
1113
1112
1105
1098
1095
1095
1087
1082
1074
1071
1068
1064
1064
1073
1078
1079
1083
1091
1087
1076
1063
1059
1059
1061
1055
1044
1032
1031
1035
1033
1019
1011
1007
1001
988
984
976
967
958
948
940
938
938
937
930
933
928
927
926
920
906
898
902
920
930
936
941
943
941
945
959
968
973
970
970
974
980
977
970
967
973
987
991
991
993
997
1006
1020
1026
1027
1023
1021
1022
1032
1048
1062
1064
1055
1055
1068
1073
1078
1081
1086
1094
1103
1105
1102
1105
1116
1127
1138
1146
1152
1162
1169
1172
1175
1168
1151
1135
1123
1116
1110
1104
1092
1090
1095
1095
1086
1079
1081
1091
1093
1084
1066
1046
1039
1035
1027
1019
1011
1011
1012
1006
998
996
1002
1001
989
978
966
958
956
953
950
942
937
932
928
920
917
919
921
914
915
917
916
914
914
922
928
936
943
953
963
969
968
964
968
973
974
971
970
981
988
981
977
988
1013
1028
1029
1023
1021
1036
1053
1059
1048
1049
1051
1063
1068
1072
1073
1079
1090
1092
1094
1098
1106
1113
1112
1115
1124
1138
1151
1150
1149
1150
1165
1186
1191
1194
1188
1184
1182
1169
1148
1127
1113
1109
1114
1118
1112
1111
1115
1110
1101
1089
1083
1070
1060
1051
1045
1038
1030
1018
1003
995
985
981
986
987
980
967
962
957
950
942
932
926
928
935
934
925
912
908
908
902
904
910
916
915
916
920
924
917
915
923
946
963
962
953
948
954
965
976
984
983
972
968
969
972
977
987
991
1003
1014
1028
1037
1040
1044
1045
1044
1038
1042
1048
1056
1062
1068
1078
1080
1080
1082
1082
1083
1094
1103
1111
1114
1117
1125
1133
1140
1150
1156
1166
1176
1184
1185
1183
1178
1171
1160
1148
1127
1110
1094
1090
1094
1097
1098
1097
1095
1093
1091
1085
1080
1068
1054
1041
1027
1017
1006
995
988
979
973
970
967
963
956
948
944
940
933
926
918
912
913
911
909
901
896
893
893
893
894
889
887
887
892
902
908
911
914
918
928
936
943
949
947
944
945
947
950
949
949
951
954
963
974
978
981
984
994
997
1003
1003
1006
1009
1011
1014
1016
1021
1023
1028
1033
1042
1043
1047
1052
1054
1062
1067
1073
1079
1083
1089
1098
1109
1117
1122
1132
1135
1134
1130
1126
1116
1099
1081
1064
1059
1060
1058
1055
1055
1060
1065
1068
1066
1066
1064
1060
1048
1037
1026
1016
1005
1002
996
992
984
975
965
962
956
954
953
948
941
934
932
933
930
923
913
914
915
914
909
901
898
902
910
915
916
916
921
928
936
942
946
951
957
965
969
965
954
946
949
958
972
972
967
964
967
972
977
983
984
982
985
990
995
996
997
998
1002
1005
1008
1014
1024
1033
1038
1045
1048
1056
1054
1056
1061
1068
1073
1077
1088
1098
1101
1106
1111
1123
1121
1107
1095
1085
1071
1062
1057
1054
1054
1053
1060
1068
1074
1078
1074
1071
1060
1051
1038
1029
1021
1019
1020
1018
1011
1005
1001
1001
996
986
973
968
964
959
952
949
946
942
940
934
934
931
925
915
912
917
923
930
933
931
934
942
951
958
963
963
964
968
972
971
970
967
962
961
965
967
970
974
971
977
982
979
980
977
976
978
988
992
991
988
991
999
1007
1013
1019
1019
1024
1029
1032
1035
1032
1036
1043
1051
1064
1073
1076
1073
1077
1084
1088
1090
1089
1085
1077
1068
1066
1062
1063
1061
1064
1067
1076
1081
1087
1093
1097
1091
1076
1065
1057
1052
1052
1058
1064
1066
1064
1053
1044
1038
1033
1027
1017
1002
993
990
991
988
979
971
970
970
962
950
943
944
940
939
949
962
968
974
977
981
986
987
982
979
975
979
984
986
981
975
970
969
973
981
986
989
989
990
994
992
1000
1000
1000
1006
1013
1014
1011
1009
1010
1016
1019
1019
1024
1026
1030
1037
1041
1045
1048
1051
1057
1065
1071
1070
1062
1054
1048
1049
1047
1048
1045
1041
1043
1049
1060
1069
1070
1065
1064
1067
1073
1075
1072
1060
1041
1035
1039
1043
1041
1037
1040
1048
1049
1041
1036
1027
1021
1014
1010
1010
1007
1000
990
987
986
982
974
957
947
946
944
942
941
938
938
941
948
957
967
971
974
972
970
977
981
981
980
980
984
983
983
983
984
987
991
992
994
993
993
1000
1004
1011
1016
1013
1012
1016
1023
1022
1023
1020
1017
1018
1024
1028
1032
1036
1038
1042
1046
1052
1052
1053
1054
1054
1048
1045
1041
1035
1029
1029
1032
1036
1039
1041
1045
1051
1054
1054
1051
1047
1042
1041
1037
1030
1015
1001
998
1006
1011
1015
1018
1012
1008
1002
995
992
987
983
980
975
967
959
950
945
939
934
932
926
916
908
898
892
890
890
892
891
893
898
908
909
906
906
905
911
919
926
930
924
920
914
915
919
916
921
925
931
938
943
947
951
959
966
973
979
983
990
998
1006
1007
1002
1002
1007
1013
1020
1032
1044
1049
1045
1039
1038
1043
1060
1067
1070
1055
1034
1029
1036
1038
1030
1024
1029
1036
1040
1042
1048
1047
1042
1043
1037
1028
1020
1021
1018
1004
986
983
990
995
997
995
989
983
981
986
984
968
956
951
949
951
944
933
921
920
927
921
904
888
884
881
879
879
878
883
887
894
902
901
902
906
910
916
915
908
908
918
926
932
933
922
920
922
929
933
935
945
955
963
970
975
987
997
1005
1008
1019
1032
1040
1041
1043
1047
1051
1054
1056
1060
1071
1081
1090
1093
1093
1099
1105
1107
1107
1100
1094
1088
1089
1084
1075
1064
1055
1052
1061
1073
1078
1071
1069
1070
1066
1053
1035
1021
1016
1009
1002
1006
1013
1012
996
981
972
974
972
977
972
964
961
960
956
946
936
932
935
937
931
917
908
909
912
909
899
892
890
896
907
925
934
926
921
925
933
936
941
947
952
951
952
955
960
962
960
955
961
975
989
987
979
986
998
1013
1025
1036
1043
1036
1036
1051
1070
1079
1069
1065
1072
1080
1082
1083
1090
1096
1103
1108
1114
1118
1114
1107
1123
1147
1162
1169
1166
1168
1166
1148
1117
1098
1093
1086
1077
1079
1080
1080
1076
1068
1061
1047
1028
1018
1018
1012
1004
993
986
991
985
968
953
942
945
956
963
957
940
923
916
912
907
899
898
893
882
880
883
889
887
885
883
878
879
882
891
896
904
906
897
882
888
911
924
916
910
915
927
934
943
947
956
971
982
984
984
1007
1031
1038
1038
1041
1056
1068
1064
1053
1058
1072
1078
1084
1091
1093
1094
1102
1116
1124
1126
1128
1131
1132
1140
1151
1158
1167
1182
1200
1210
1199
1175
1161
1166
1163
1139
1110
1093
1092
1092
1094
1093
1094
1092
1080
1067
1051
1024
1002
1001
999
985
970
956
946
944
939
925
906
899
900
901
896
879
867
874
888
889
881
876
878
873
860
865
868
875
885
892
896
899
898
892
890
897
911
917
913
917
930
944
949
955
958
960
963
981
997
1008
1016
1025
1033
1038
1045
1047
1039
1036
1042
1054
1065
1070
1072
1074
1075
1080
1086
1094
1095
1099
1108
1115
1124
1130
1140
1155
1169
1168
1162
1159
1155
1151
1136
1116
1100
1087
1085
1085
1089
1089
1087
1085
1081
1079
1070
1062
1047
1027
1010
995
988
976
963
944
934
931
925
915
897
881
873
871
868
867
857
860
864
863
865
861
860
860
858
863
865
870
874
881
887
894
901
903
907
909
913
921
925
930
936
941
947
958
970
978
986
993
997
1005
1015
1021
1022
1020
1025
1031
1037
1040
1041
1040
1041
1047
1050
1058
1063
1061
1065
1070
1078
1084
1085
1086
1089
1099
1109
1120
1130
1139
1142
1146
1150
1146
1135
1118
1098
1083
1079
1074
1071
1058
1051
1051
1057
1059
1056
1051
1042
1036
1029
1019
1011
1003
1001
994
989
978
969
957
947
939
932
925
916
905
897
894
894
891
884
882
882
884
884
880
881
887
892
893
895
898
908
911
914
922
926
927
925
926
930
942
954
960
960
965
978
990
999
1003
1008
1012
1018
1028
1032
1028
1028
1026
1031
1041
1047
1053
1056
1057
1056
1056
1062
1071
1079
1082
1086
1088
1095
1100
1101
1106
1109
1120
1127
1134
1134
1137
1137
1142
1139
1127
1104
1081
1068
1069
1071
1071
1067
1063
1066
1071
1072
1072
1061
1046
1036
1027
1015
1006
1003
999
992
981
970
959
945
930
917
915
911
900
889
882
883
880
878
878
873
871
871
877
890
894
889
885
886
892
898
901
899
903
907
912
920
926
925
928
941
949
957
961
965
970
980
990
994
997
993
995
1002
1008
1016
1018
1020
1020
1025
1036
1046
1049
1048
1046
1049
1059
1067
1072
1080
1086
1089
1098
1103
1103
1100
1096
1088
1075
1060
1056
1053
1053
1055
1058
1063
1072
1072
1072
1072
1070
1057
1039
1027
1016
1013
1009
1005
993
976
962
950
948
941
929
916
904
893
885
883
882
882
880
877
880
886
889
887
889
891
901
904
906
904
907
907
909
911
921
923
924
929
941
949
947
943
947
956
966
977
984
986
985
989
994
999
1000
997
999
1009
1017
1027
1034
1036
1036
1037
1042
1045
1051
1057
1064
1070
1077
1086
1090
1088
1087
1089
1090
1083
