988
988
991
995
996
997
1001
1000
996
991
991
995
999
1004
1006
1000
995
990
987
986
982
973
962
956
951
958
959
956
944
935
935
946
952
954
951
950
954
962
965
962
962
952
947
944
943
940
940
942
951
959
965
960
946
932
924
920
923
929
931
935
944
955
958
965
969
969
974
982
994
1002
1007
1013
1014
1018
1023
1021
1018
1017
1016
1017
1019
1024
1031
1030
1031
1042
1050
1055
1058
1060
1062
1069
1075
1073
1076
1078
1085
1087
1089
1080
1072
1063
1050
1038
1031
1020
1012
1006
997
994
991
988
984
983
990
995
995
988
981
977
978
980
985
984
984
981
985
989
991
987
979
976
971
970
966
965
961
958
955
957
957
957
961
963
970
977
986
993
995
990
993
988
987
980
975
972
973
973
967
968
970
971
977
989
992
993
988
983
979
975
970
968
970
972
978
980
984
989
992
993
996
1001
1003
1007
1008
1008
1006
1004
1003
1003
1005
1005
1009
1015
1020
1022
1021
1019
1022
1026
1032
1035
1032
1032
1035
1039
1039
1038
1031
1028
1021
1016
1011
1004
997
994
990
988
981
973
969
973
976
979
976
971
965
963
962
966
968
969
964
965
966
965
964
967
966
967
967
968
972
975
973
968
969
972
974
974
972
971
971
974
978
980
980
981
980
978
978
977
972
969
965
964
967
970
971
973
974
979
983
989
987
984
984
990
994
995
995
990
987
988
992
995
997
996
1000
1006
1009
1013
1018
1017
1020
1023
1024
1023
1021
1020
1022
1021
1023
1022
1024
1024
1025
1023
1022
1020
1015
1011
1009
1010
1009
1005
1002
995
992
991
994
994
987
983
980
980
980
979
972
967
968
969
970
966
962
960
960
968
967
967
963
960
959
958
963
963
960
959
959
961
960
953
951
950
952
960
965
968
967
963
962
962
966
969
967
963
964
963
964
960
954
956
957
963
970
973
974
973
973
975
976
975
974
971
971
975
981
990
992
992
993
996
1004
1009
1011
1016
1023
1030
1036
1039
1037
1035
1031
1032
1031
1034
1033
1035
1037
1038
1037
1034
1027
1022
1019
1020
1026
1025
1025
1023
1024
1027
1024
1019
1014
1009
1004
1000
998
993
987
987
985
982
980
976
969
968
969
974
980
978
972
967
965
962
965
960
956
956
960
960
962
959
958
957
957
961
958
957
953
952
956
953
957
954
959
958
960
962
965
966
958
956
953
952
950
942
937
937
945
953
957
957
959
960
961
963
965
963
957
955
953
954
958
962
966
973
979
987
992
995
999
1000
1006
1011
1017
1020
1015
1011
1010
1009
1012
1010
1010
1014
1018
1017
1018
1013
1001
995
992
996
992
989
987
988
987
988
983
979
971
966
965
964
963
958
948
945
942
942
942
943
940
938
940
943
945
944
942
940
942
944
942
947
944
941
942
942
943
943
939
938
942
942
939
940
939
942
944
951
954
952
953
962
963
963
964
966
962
959
956
953
955
949
943
941
940
939
944
943
947
954
964
972
970
964
963
959
957
954
954
956
958
964
970
981
986
988
990
998
1000
1005
1006
1006
1009
1007
1009
1010
1012
1010
1006
1002
999
998
993
987
980
972
970
968
968
964
960
956
956
956
954
949
945
938
936
933
936
934
934
934
935
930
920
914
914
918
922
923
922
919
918
916
920
922
923
920
917
920
924
929
926
921
921
920
924
931
942
945
947
953
969
981
988
992
998
1001
1005
1011
1014
1014
1011
1006
1004
1009
1010
1007
1000
1000
1002
1005
1007
1009
1014
1020
1026
1029
1027
1020
1010
999
996
1000
1001
1002
1003
1006
1007
1014
1022
1026
1026
1029
1031
1035
1037
1037
1032
1033
1030
1027
1031
1030
1025
1023
1018
1023
1027
1028
1023
1014
1002
998
997
1001
999
991
990
991
989
982
972
967
963
960
954
953
950
947
942
940
931
926
927
934
939
940
932
928
933
937
940
938
936
933
930
925
920
923
929
933
936
944
948
958
959
957
955
964
967
977
984
987
984
981
980
982
987
989
989
988
990
990
992
992
994
997
1004
1011
1017
1021
1024
1029
1034
1036
1033
1028
1023
1023
1022
1021
1022
1030
1030
1029
1031
1038
1042
1043
1047
1044
1045
1048
1047
1042
1032
1026
1023
1023
1025
1026
1027
1028
1026
1019
1014
1008
999
997
998
997
993
988
984
983
980
973
971
967
961
960
957
954
952
946
946
942
938
930
929
930
933
936
937
940
940
943
942
940
941
944
945
940
936
934
936
937
938
938
934
930
927
929
933
934
930
927
932
942
955
960
956
955
952
953
956
955
957
957
962
963
962
959
960
961
966
970
974
980
983
985
994
998
1003
1004
997
990
986
985
987
986
987
987
994
996
1000
1002
1003
1005
1010
1019
1027
1029
1026
1022
1016
1009
1002
997
993
992
999
1005
1011
1013
1011
1006
1002
1000
1001
1000
996
995
997
998
997
994
990
992
990
992
992
988
985
988
986
987
982
973
967
964
965
967
968
966
962
960
959
960
960
957
954
953
956
954
954
949
947
944
941
941
940
937
937
936
938
941
943
940
938
934
937
944
950
952
957
956
956
951
951
948
943
943
948
952
953
955
956
958
959
961
965
970
973
970
969
972
970
968
962
959
966
973
981
984
988
989
993
994
999
1001
1000
996
992
988
983
980
974
971
975
982
991
992
988
988
993
997
1000
996
987
985
987
992
992
995
993
996
995
996
995
992
993
994
994
993
992
990
985
990
994
997
998
998
1001
1001
1001
1004
1003
1002
996
995
998
996
996
991
987
986
982
982
982
979
978
975
973
974
976
978
977
981
978
981
984
986
989
993
1000
1004
1004
996
988
981
981
980
984
987
992
994
993
993
994
989
982
980
980
983
984
987
992
999
1003
1006
1006
1006
1007
1010
1017
1024
1028
1030
1027
1025
1021
1018
1011
1004
1001
1001
1000
1006
1013
1013
1013
1011
1008
1006
1004
1000
997
992
988
991
988
991
990
991
991
992
987
981
975
969
972
970
970
964
959
956
954
952
950
946
943
940
946
953
953
954
950
948
945
943
942
941
939
940
941
950
954
956
953
948
948
950
951
954
955
959
968
971
973
969
964
961
967
972
980
984
985
982
978
982
984
979
971
967
964
963
959
960
959
962
968
976
977
974
970
965
965
964
960
956
952
952
955
961
968
970
973
980
987
994
997
998
997
999
1003
1004
1004
1002
997
994
996
1003
1005
1005
999
993
990
986
981
974
968
966
967
966
963
959
955
953
949
947
944
935
927
918
917
918
919
920
915
914
917
914
910
905
901
900
903
911
914
912
906
904
903
899
892
886
884
885
895
896
900
900
897
894
899
902
898
897
903
913
913
909
907
908
912
916
924
931
937
935
936
933
937
940
944
946
940
938
943
951
953
954
948
947
952
953
958
960
960
963
969
974
980
978
971
965
958
954
956
961
968
975
978
982
986
987
990
995
1005
1009
1010
1006
995
988
982
975
975
983
989
992
986
978
970
961
952
951
948
949
947
946
941
936
926
918
910
916
914
914
915
919
915
906
897
897
895
891
888
880
880
882
890
894
894
887
883
883
885
884
883
877
874
879
880
882
880
880
882
888
890
895
897
902
905
914
930
945
955
961
963
963
970
979
991
997
1001
1001
994
991
985
975
964
957
964
981
998
1007
1004
998
992
977
960
946
938
937
936
943
956
967
972
975
977
980
981
987
986
984
986
996
999
993
985
978
972
970
967
959
952
954
958
954
956
959
959
951
945
949
962
973
972
961
951
942
931
915
906
897
892
888
884
882
894
911
922
923
909
895
891
889
889
889
890
894
900
905
906
905
902
899
896
897
904
904
901
893
889
888
886
885
885
885
889
898
913
927
940
946
940
936
937
942
942
940
936
939
953
960
965
963
957
947
946
953
962
968
971
974
980
987
992
993
991
983
970
966
970
980
988
1000
1013
1017
1015
1010
1006
1007
1006
1012
1013
1012
1010
1005
1005
1008
1009
1004
1004
998
989
981
971
967
968
976
990
996
994
984
969
960
961
971
975
975
974
979
994
1004
1003
988
973
963
960
966
976
991
1009
1030
1040
1025
986
952
933
930
939
950
962
970
974
977
979
984
985
979
974
967
964
962
957
948
946
943
944
937
927
920
918
923
930
941
953
962
973
990
1009
1016
1011
995
985
979
992
1013
1030
1030
1011
977
960
955
957
964
974
982
991
995
997
1008
1031
1070
1093
1075
1049
1050
1072
1073
1045
1002
986
991
989
979
968
963
968
969
957
935
920
916
926
929
927
923
923
923
926
931
934
936
940
947
954
953
944
938
939
946
957
959
964
975
991
1005
1013
1027
1054
1090
1099
1075
1027
996
1005
1048
1095
1110
1083
1035
980
955
961
958
947
940
943
947
955
964
974
992
1004
1002
990
988
1001
997
984
962
952
947
946
961
983
1018
1063
1093
1082
1041
998
981
987
996
997
994
988
985
985
991
993
988
987
980
982
988
990
994
1001
1011
1026
1040
1053
1070
1099
1139
1158
1106
1031
1004
1016
1039
1064
1058
1036
991
958
956
957
929
898
879
875
890
914
946
968
978
982
976
978
1008
1051
1063
1030
986
968
974
976
967
971
998
1033
1029
998
991
1014
1027
1004
950
909
892
892
891
897
909
921
935
946
950
949
952
955
957
955
951
955
958
962
958
953
954
961
965
968
969
973
976
987
1001
1021
1056
1097
1144
1194
1210
1172
1124
1089
1068
1062
1064
1090
1142
1183
1164
1075
994
959
942
927
923
944
981
996
984
961
954
969
980
978
973
976
981
987
991
999
1008
1016
1010
1020
1050
1058
1025
1006
1003
988
954
933
943
959
952
938
928
924
922
932
944
953
961
971
990
1009
1022
1035
1057
1075
1044
969
902
877
888
908
926
936
944
955
968
972
970
963
956
958
964
961
951
936
926
933
945
943
930
921
922
936
948
949
940
937
949
967
973
984
1005
1045
1100
1145
1159
1121
1075
1067
1097
1131
1133
1089
1034
1003
1017
1034
1031
982
896
827
801
816
846
869
888
904
922
936
951
955
951
951
956
968
984
996
1008
1022
1059
1112
1145
1139
1116
1101
1099
1081
1056
1067
1076
1041
993
984
974
935
887
847
829
833
851
880
904
910
897
888
891
898
904
905
899
894
895
900
902
905
908
922
930
929
929
929
933
937
933
931
938
958
997
1042
1060
1038
1030
1076
1126
1148
1142
1102
1030
969
946
978
1043
1068
1029
967
935
919
881
832
837
885
924
937
952
952
949
942
930
930
946
962
960
945
937
933
931
933
945
951
952
950
941
938
935
934
933
938
945
956
963
964
965
968
976
984
995
1003
1003
1001
1005
1010
1003
996
993
996
997
999
1005
1022
1048
1038
989
931
905
916
948
994
1032
1048
1044
1037
1028
1014
985
958
957
978
975
954
931
938
989
1016
962
882
831
814
823
857
918
984
1012
1009
1002
992
970
946
921
914
936
978
1004
980
931
891
862
852
868
917
967
980
950
917
906
914
925
929
931
932
923
921
930
941
940
934
940
942
951
957
955
946
941
944
952
962
951
933
918
912
917
921
916
911
920
933
942
943
940
943
955
963
969
975
982
995
1013
1032
1045
1048
1067
1119
1157
1144
1127
1109
1068
1029
1019
998
954
937
941
921
878
859
879
892
871
824
799
799
821
854
887
908
930
941
939
930
945
971
995
999
972
938
916
894
868
851
854
883
920
954
965
938
892
852
835
832
844
867
893
910
920
924
929
940
949
950
949
954
963
971
978
985
986
986
984
982
987
989
991
985
983
982
979
974
971
971
969
968
962
945
935
931
938
949
954
954
956
961
966
984
1018
1071
1128
1135
1079
1020
988
956
935
937
934
908
869
846
853
898
954
975
954
927
920
949
1012
1066
1058
994
919
863
860
907
978
1014
998
963
931
914
915
927
931
906
877
862
860
865
872
887
900
909
916
928
939
943
933
927
926
937
961
994
1024
1016
960
889
837
820
835
868
902
924
930
919
909
909
919
931
942
950
956
973
989
1009
1032
1035
1011
971
946
945
962
977
990
994
997
995
990
983
978
971
971
974
975
983
986
994
998
1003
1012
1017
1025
1036
1037
1027
1016
1015
1027
1044
1053
1051
1033
1002
966
945
950
988
1040
1064
1046
1003
958
916
884
881
921
1000
1065
1052
986
919
878
871
880
894
901
912
929
938
928
910
898
894
902
920
938
937
921
904
899
901
898
881
870
866
878
911
952
974
952
909
874
865
881
894
907
920
932
932
919
911
912
918
925
935
944
945
945
944
943
943
941
942
946
951
956
970
990
1006
1000
973
943
907
868
841
837
850
869
885
898
909
916
923
936
946
954
960
960
963
970
981
983
983
978
971
966
965
968
972
975
975
977
974
971
966
965
966
973
984
994
992
992
992
990
992
983
948
912
896
900
929
973
992
954
891
851
844
859
885
914
925
921
907
901
893
891
900
921
931
927
920
913
909
900
874
834
808
811
838
872
897
895
874
854
846
853
873
887
898
900
905
916
930
941
941
937
935
938
940
939
933
930
935
939
943
943
942
938
938
937
938
939
939
937
939
942
949
953
957
959
963
967
972
975
973
975
979
981
978
974
963
950
940
936
935
939
941
939
938
936
939
939
935
927
926
933
934
928
916
907
903
905
903
901
899
896
888
885
883
882
887
881
874
871
871
873
875
884
886
883
870
862
863
865
869
866
860
860
862
860
860
856
855
857
862
861
860
864
871
882
890
890
898
906
917
924
929
933
931
931
933
934
930
923
920
919
924
934
945
949
944
940
937
937
933
919
912
911
917
917
923
927
935
942
951
958
974
987
979
960
951
950
935
903
875
860
860
868
874
877
880
883
886
886
887
885
880
878
874
873
880
887
887
888
885
887
889
886
889
893
900
901
896
884
869
855
856
866
880
883
880
874
870
864
857
852
848
851
852
858
861
863
865
870
881
890
897
897
902
911
920
931
943
953
963
969
978
978
974
973
971
968
969
969
966
967
969
976
979
976
967
956
952
948
943
942
946
951
955
961
967
969
974
975
973
971
967
968
966
961
948
935
926
923
927
928
927
928
927
924
915
909
905
908
917
917
917
913
916
920
929
937
937
936
937
937
942
941
934
928
921
917
915
910
906
901
904
910
917
917
912
907
906
902
902
905
905
908
911
915
921
926
929
928
928
927
933
942
955
968
976
983
992
998
998
998
997
997
999
997
993
986
980
978
985
989
986
982
979
979
977
973
967
962
959
961
965
971
977
983
982
988
988
991
990
984
980
972
964
956
948
941
942
942
950
952
952
947
942
941
946
949
952
950
944
939
936
936
932
929
930
938
945
944
940
938
933
927
927
926
921
917
916
914
920
922
923
921
918
917
920
917
910
905
903
909
912
913
911
914
918
917
917
922
919
919
923
930
940
946
947
951
957
960
963
962
962
959
957
961
961
961
958
956
952
950
952
954
953
947
941
937
937
936
932
929
922
924
931
933
934
942
945
951
958
962
967
967
975
983
982
980
970
958
951
945
945
945
943
944
944
945
943
943
940
940
940
941
945
944
936
930
929
929
930
930
932
930
929
932
931
930
925
921
918
914
918
918
921
922
923
927
928
927
922
917
918
925
929
930
925
921
927
928
932
932
933
933
931
937
943
947
949
951
954
960
960
959
959
962
967
971
972
969
965
960
956
954
953
952
951
947
948
947
946
947
945
938
931
928
927
931
934
935
939
943
950
953
957
958
959
968
973
980
983
982
974
966
965
964
958
952
952
953
951
949
940
935
929
927
928
932
929
924
919
914
909
905
897
895
895
897
896
898
896
889
883
880
886
890
891
892
893
899
911
915
915
913
911
919
925
931
933
934
935
943
952
955
955
950
956
964
971
983
986
989
991
994
1006
1016
1023
1024
1031
1038
1044
1041
1032
1031
1030
1031
1031
1026
1024
1018
1014
1012
1010
1012
1013
1009
1010
1013
1011
1005
994
984
977
981
987
988
983
985
995
1004
1002
995
994
993
998
996
992
979
966
956
950
950
949
944
937
926
915
911
920
925
930
925
918
917
917
912
902
896
900
910
911
910
904
902
906
908
908
906
903
897
894
892
895
899
903
905
903
909
910
906
903
902
907
911
918
924
928
935
938
939
939
943
948
948
954
965
981
997
1005
1010
1021
1036
1057
1068
1075
1078
1080
1081
1083
1087
1087
1080
1078
1082
1090
1084
1073
1066
1068
1075
1074
1068
1059
1059
1065
1069
1066
1064
1067
1072
1076
1080
1076
1075
1076
1079
1075
1073
1083
1097
1099
1091
1079
1068
1058
1053
1046
1045
1042
1036
1026
1015
1005
993
981
967
960
950
940
930
923
926
930
925
912
903
897
893
890
886
885
882
877
875
882
885
888
886
883
881
884
880
874
868
864
864
864
864
862
863
863
870
876
879
879
876
877
880
885
887
888
893
896
903
905
906
908
908
913
922
933
948
955
966
977
992
1003
1012
1021
1023
1030
1032
1034
1032
1034
1032
1033
1035
1036
1034
1035
1032
1028
1031
1035
1037
1038
1035
1038
1042
1045
1050
1049
1052
1051
1060
1064
1065
1067
1067
1070
1070
1074
1079
1081
1082
1085
1090
1094
1097
1101
1103
1102
1100
1094
1085
1076
1068
1058
1052
1046
1042
1037
1026
1022
1020
1014
1008
999
989
979
973
966
959
949
943
938
937
930
918
907
896
890
886
884
881
877
867
860
855
849
846
842
840
838
843
848
849
852
851
850
848
851
853
855
856
858
862
871
876
880
884
888
892
900
904
911
918
927
939
950
958
965
969
976
985
993
999
1003
1004
1006
1010
1013
1013
1012
1014
1011
1012
1014
1017
1016
1014
1017
1023
