1005
1013
1023
1028
1031
1037
1043
1052
1059
1068
1071
1075
1080
1088
1095
1101
1103
1105
1109
1115
1120
1123
1125
1122
1125
1129
1131
1133
1131
1130
1129
1129
1130
1124
1120
1114
1110
1109
1110
1110
1105
1101
1099
1096
1098
1098
1094
1087
1079
1078
1077
1071
1058
1045
1033
1021
1008
992
974
957
940
930
919
910
896
884
877
875
871
868
861
860
856
857
857
854
850
849
849
855
855
856
856
860
864
868
875
877
880
883
889
895
903
906
911
914
920
927
936
942
947
953
959
968
978
986
993
998
1005
1015
1023
1028
1032
1037
1044
1053
1058
1064
1068
1071
1077
1081
1087
1093
1098
1100
1103
1111
1117
1119
1123
1125
1127
1131
1139
1138
1138
1137
1138
1140
1141
1143
1140
1138
1141
1141
1143
1139
1140
1136
1133
1130
1130
1124
1119
1107
1104
1103
1099
1096
1090
1090
1088
1089
1087
1084
1080
1076
1072
1070
1063
1051
1035
1020
1002
986
971
954
938
919
906
899
898
892
885
880
875
876
880
880
880
878
877
882
886
884
885
886
888
892
896
897
901
903
904
912
921
922
925
927
932
938
942
945
948
948
949
955
961
960
962
964
963
970
973
976
976
979
981
988
992
991
997
998
1001
1006
1012
1014
1013
1016
1023
1027
1034
1036
1037
1038
1040
1043
1047
1047
1046
1043
1042
1040
1038
1037
1032
1028
1026
1025
1024
1020
1018
1013
1011
1009
1009
1006
1002
1001
1002
1003
1006
1009
1009
1006
1010
1017
1023
1023
1024
1022
1024
1029
1031
1030
1027
1023
1020
1018
1015
1010
1002
999
993
991
986
981
976
974
969
967
965
963
959
954
953
954
958
958
958
958
959
963
967
967
969
973
972
978
984
986
989
986
987
989
993
992
991
992
993
996
999
1000
999
997
999
1000
1004
1005
1003
1000
999
1004
1006
1007
1003
1003
1002
1005
1008
1007
1005
1002
1002
1002
1004
1000
994
990
986
986
986
982
979
974
973
975
973
972
970
968
967
970
977
978
976
974
979
983
984
986
986
984
985
986
986
987
985
986
990
993
999
1005
1008
1008
1010
1015
1015
1016
1015
1010
1010
1013
1012
1014
1011
1008
1006
1006
1006
1005
1002
1000
999
1001
1003
1006
1004
1004
1006
1010
1012
1016
1015
1016
1013
1020
1022
1028
1026
1028
1032
1038
1044
1050
1051
1054
1056
1061
1068
1072
1071
1074
1073
1078
1082
1084
1082
1082
1082
1087
1088
1088
1085
1080
1081
1081
1080
1079
1074
1072
1069
1069
1065
1065
1058
1055
1054
1053
1054
1053
1050
1050
1050
1050
1055
1053
1051
1049
1045
1045
1045
1044
1040
1039
1034
1037
1039
1037
1032
1028
1023
1021
1013
1007
997
991
987
984
983
977
972
967
961
965
963
959
955
949
948
945
946
945
937
933
931
936
936
936
934
932
934
937
938
937
939
937
939
942
945
944
944
944
949
953
955
960
959
959
961
963
968
969
967
966
968
974
976
979
980
980
979
985
985
988
988
984
986
984
982
981
976
973
971
975
975
975
971
970
972
975
975
979
977
975
976
978
981
982
982
982
984
988
994
997
997
997
1000
1006
1010
1009
1009
1009
1009
1008
1008
1005
1001
996
991
988
984
979
977
968
966
970
972
972
970
972
977
985
989
994
995
995
998
1001
1006
1009
1010
1015
1018
1024
1031
1036
1035
1039
1044
1050
1055
1058
1060
1062
1066
1070
1076
1079
1080
1082
1087
1093
1096
1102
1102
1103
1107
1109
1114
1113
1111
1114
1115
1120
1125
1126
1126
1125
1126
1129
1129
1128
1125
1125
1123
1125
1123
1123
1123
1121
1121
1123
1124
1120
1114
1110
1102
1095
1087
1079
1066
1060
1055
1050
1045
1042
1034
1029
1026
1026
1024
1023
1022
1020
1023
1025
1026
1026
1020
1014
1011
1006
998
988
975
959
946
935
926
919
911
905
897
898
896
894
884
880
881
879
880
876
870
868
867
864
866
865
862
862
860
866
871
868
868
869
872
877
880
883
880
884
890
896
902
906
909
911
915
921
927
932
934
937
941
952
957
963
967
968
974
982
987
989
996
995
1001
1005
1015
1010
1014
1017
1021
1026
1030
1034
1035
1038
1040
1047
1051
1055
1055
1056
1057
1056
1062
1063
1060
1058
1058
1061
1061
1060
1058
1055
1056
1055
1057
1053
1050
1047
1046
1051
1051
1049
1042
1040
1039
1035
1032
1028
1018
1009
1003
999
993
989
981
970
972
968
972
971
967
961
962
960
960
957
953
949
949
955
958
959
960
959
962
965
965
967
967
966
968
972
974
977
975
977
982
983
990
988
988
987
989
992
999
1000
998
997
998
1001
1002
1004
1001
1002
1003
1009
1012
1016
1018
1019
1023
1028
1031
1033
1035
1035
1037
1043
1047
1050
1053
1052
1053
1059
1060
1062
1059
1061
1062
1063
1064
1060
1056
1052
1053
1051
1049
1044
1038
1035
1031
1028
1027
1020
1016
1010
1006
1006
1007
1005
998
997
999
1000
1001
1001
998
991
986
979
970
965
957
950
945
943
938
930
922
918
916
917
917
916
915
913
917
923
925
926
927
928
931
934
937
936
936
935
938
940
942
941
943
945
945
949
950
950
948
951
953
958
961
964
963
962
967
970
975
976
979
979
983
988
993
996
995
999
1003
1010
1015
1018
1017
1019
1020
1024
1026
1024
1021
1024
1023
1024
1023
1018
1011
1003
998
999
995
987
977
969
964
960
954
946
938
930
928
925
924
919
917
917
916
919
921
923
922
922
925
931
939
944
945
948
957
968
973
976
978
973
972
972
970
971
964
966
973
981
989
993
998
1005
1015
1022
1030
1034
1037
1042
1046
1053
1057
1059
1063
1063
1064
1068
1070
1069
1070
1070
1071
1075
1077
1077
1076
1076
1077
1079
1081
1079
1077
1078
1081
1084
1084
1085
1084
1079
1079
1081
1083
1081
1078
1076
1071
1069
1065
1056
1047
1037
1030
1023
1014
1004
991
982
979
973
967
958
954
948
942
942
941
938
935
927
923
925
922
916
912
911
911
911
910
907
905
906
908
912
913
915
913
914
913
914
916
915
913
909
910
909
908
906
901
900
901
905
911
912
916
919
923
930
938
946
947
952
963
972
982
991
998
1005
1017
1025
1034
1042
1046
1050
1057
1067
1074
1083
1090
1096
1107
1116
1124
1130
1137
1141
1145
1152
1156
1158
1155
1151
1148
1142
1139
1132
1121
1111
1098
1093
1085
1076
1066
1055
1053
1045
1043
1037
1030
1025
1022
1019
1017
1013
1008
1003
1002
1003
1003
1000
995
994
993
997
997
996
994
993
992
994
991
988
980
975
972
972
976
972
968
963
962
960
959
952
951
950
952
955
959
959
957
961
962
967
969
968
967
971
971
976
978
979
979
981
984
986
991
996
997
998
1002
1008
1010
1012
1012
1012
1015
1020
1022
1024
1026
1032
1035
1043
1048
1051
1054
1058
1061
1062
1064
1062
1057
1053
1053
1052
1047
1042
1034
1025
1025
1023
1020
1016
1010
1005
1005
1004
1002
1000
997
993
995
998
999
999
997
998
1003
1003
1005
1005
1002
1003
1008
1014
1015
1016
1011
1012
1011
1010
1008
1002
998
995
993
994
992
986
978
976
975
973
976
979
977
977
978
983
986
988
987
988
989
993
995
994
993
994
998
1000
1001
999
1002
1002
1004
1006
1007
1010
1009
1008
1012
1017
1019
1020
1022
1022
1023
1024
1026
1027
1027
1026
1029
1032
1034
1035
1032
1034
1039
1041
1044
1041
1036
1034
1029
1029
1025
1019
1010
1002
997
995
991
986
981
977
975
977
976
972
972
969
971
973
975
974
979
977
982
987
988
988
987
985
993
997
1000
1002
1001
1006
1010
1016
1020
1019
1016
1015
1015
1019
1018
1014
1013
1009
1010
1011
1016
1016
1020
1022
1024
1026
1030
1033
1035
1035
1041
1045
1048
1049
1047
1049
1054
1054
1057
1057
1052
1052
1056
1058
1059
1060
1057
1058
1059
1063
1063
1064
1061
1058
1059
1062
1063
1060
1058
1058
1060
1063
1063
1063
1062
1061
1061
1062
1064
1061
1060
1059
1062
1067
1068
1071
1069
1070
1073
1074
1074
1068
1062
1057
1053
1049
1046
1037
1028
1018
1009
1006
997
984
975
969
964
960
955
952
947
947
948
950
951
947
945
945
941
940
940
938
932
933
932
934
937
938
938
941
944
945
948
946
941
940
937
937
935
937
938
939
943
949
954
955
954
959
964
971
974
976
978
978
984
993
998
1000
1002
1003
1009
1016
1020
1019
1021
1026
1027
1035
1036
1037
1037
1041
1044
1048
1050
1051
1049
1047
1051
1051
1053
1055
1055
1053
1058
1060
1062
1064
1062
1059
1062
1064
1066
1063
1062
1061
1062
1065
1064
1063
1056
1057
1060
1059
1054
1048
1039
1031
1023
1017
1005
992
979
964
959
950
944
935
931
925
921
918
917
913
909
909
905
905
903
899
898
893
892
889
885
882
879
877
879
884
887
889
890
891
894
897
900
901
902
902
907
914
916
918
919
929
941
950
960
966
969
977
981
993
998
1005
1008
1013
1017
1028
1034
1038
1041
1044
1051
1056
1063
1066
1066
1067
1073
1079
1084
1086
1088
1093
1095
1101
1106
1108
1108
1110
1114
1117
1120
1118
1120
1118
1119
1124
1126
1128
1127
1127
1128
1129
1129
1120
1117
1113
1105
1098
1089
1081
1069
1060
1049
1038
1026
1012
998
988
981
971
962
953
945
937
932
928
921
916
910
907
904
900
898
892
887
886
887
890
889
885
884
882
884
888
884
885
884
883
884
887
888
885
885
889
891
897
903
905
908
911
917
923
930
935
940
946
952
961
967
972
975
983
992
1001
1005
1011
1015
1019
1025
1031
1037
1038
1040
1044
1047
1052
1057
1057
1061
1063
1069
1073
1079
1079
1082
1083
1087
1092
1093
1096
1098
1100
1105
1110
1109
1108
1103
1099
1097
1093
1088
1081
1072
1062
1055
1046
1036
1025
1012
1003
995
991
989
983
977
974
972
970
968
961
957
955
955
956
953
946
941
938
940
941
940
935
936
934
938
937
939
935
936
935
938
938
937
935
931
928
934
939
944
942
946
950
956
958
963
968
970
976
981
989
995
998
1002
1004
1010
1018
1024
1027
1029
1031
1038
1045
1047
1047
1050
1054
1059
1064
1067
1068
1066
1070
1072
1079
1082
1082
1082
1083
1086
1091
1090
1088
1086
1088
1091
1090
1091
1087
1088
1083
1084
1085
1084
1081
1079
1078
1078
1077
1076
1075
1071
1070
1069
1070
1069
1065
1066
1067
1070
1073
1074
1072
1073
1076
1081
1084
1086
1090
1090
1094
1100
1107
1111
1114
1119
1121
1131
1137
1145
1149
1154
1156
1162
1167
1167
1169
1170
1172
1175
1175
1172
1163
1151
1139
1129
1116
1102
1082
1061
1043
1028
1018
1006
996
985
974
972
967
961
954
951
950
956
955
953
947
944
938
938
933
933
928
923
920
918
917
911
907
901
897
893
894
893
889
885
881
879
878
871
875
872
872
877
880
881
880
882
881
889
892
892
894
895
897
898
902
904
905
904
907
910
914
917
919
918
921
927
931
934
935
936
939
946
950
953
955
952
956
964
966
968
970
971
971
978
982
983
987
987
990
993
997
996
1003
1005
1008
1014
1019
1026
1029
1032
1036
1045
1055
1063
1067
1070
1077
1091
1103
1107
1113
1122
1126
1134
1142
1151
1157
1160
1164
1172
1178
1183
1184
1187
1191
1202
1211
1215
1217
1212
1211
1211
1211
1210
1198
1189
1179
1174
1168
1162
1152
1140
1126
1117
1112
1103
1093
1082
1071
1062
1057
1046
1034
1021
1010
1008
1003
998
989
980
967
956
945
936
923
914
905
898
891
882
873
866
855
853
847
840
837
835
834
834
836
835
834
833
834
835
841
841
842
842
843
848
856
856
859
858
861
867
873
875
875
877
881
889
898
904
907
911
917
925
932
936
942
948
956
964
976
981
985
987
994
999
1002
1003
1004
1006
1007
1014
1022
1025
1028
1028
1033
1043
1049
1052
1053
1057
1065
1075
1084
1088
1092
1100
1106
1121
1138
1148
1157
1163
1172
1183
1190
1198
1202
1203
1208
1217
1223
1227
1226
1225
1226
1226
1224
1219
1217
1212
1209
1210
1208
1200
1187
1169
1154
1136
1117
1095
1069
1045
1024
1007
988
976
954
933
918
905
897
889
882
875
868
867
865
861
859
856
850
852
854
855
854
852
850
850
855
856
855
853
853
855
858
861
862
861
863
867
868
873
874
875
877
884
887
891
893
889
896
905
912
917
923
933
937
952
961
968
971
976
983
989
998
998
997
995
996
1003
1006
1008
1009
1011
1012
1017
1023
1025
1029
1034
1036
1041
1049
1055
1059
1065
1070
1083
1092
1104
1112
1120
1127
1135
1143
1147
1151
1157
1159
1165
1166
1167
1167
1166
1162
1161
1158
1154
1147
1136
1129
1123
1122
1110
1098
1083
1069
1057
1044
1030
1018
1003
996
993
989
979
974
964
958
953
951
945
937
932
926
924
921
916
910
907
902
899
898
891
889
883
881
883
885
884
883
881
882
885
888
889
890
891
892
895
903
906
907
908
913
920
928
932
936
936
944
955
963
972
981
989
996
1004
1015
1019
1022
1027
1030
1037
1041
1041
1039
1040
1042
1046
1050
1054
1054
1054
1059
1066
1072
1076
1075
1077
1080
1087
1094
1101
1103
1111
1119
1129
1137
1142
1146
1150
1155
1162
1171
1176
1176
1177
1177
1177
1183
1180
1177
1169
1164
1163
1159
1152
1140
1131
1121
1112
1101
1087
1072
1057
1040
1026
1010
995
980
968
958
952
944
934
922
912
904
899
899
896
897
897
899
904
906
906
901
900
899
900
899
897
894
893
893
896
897
895
897
895
894
901
906
904
903
903
906
911
914
913
914
915
920
921
927
928
931
935
939
949
957
965
971
977
986
995
1008
1012
1017
1022
1030
1036
1043
1043
1042
1038
1038
1044
1047
1048
1049
1049
1052
1057
1063
1065
1071
1072
1075
1084
1091
1096
1101
1104
1110
1118
1128
1134
1137
1140
1149
1156
1162
1169
1173
1172
1177
1178
1180
1181
1179
1173
1169
1169
1167
1162
1152
1141
1137
1131
1124
1115
1103
1092
1079
1071
1055
1041
1023
1006
990
977
964
951
943
933
925
917
912
909
900
890
885
884
880
873
871
869
869
871
875
875
871
870
869
871
877
876
877
874
874
877
879
881
880
884
887
889
891
894
894
897
900
903
909
911
910
914
919
926
931
933
937
939
941
948
954
958
961
964
972
982
992
998
1005
1011
1022
1033
1043
1050
1058
1064
1073
1076
1082
1085
1089
1089
1092
1097
1102
1104
1107
1109
1115
1122
1126
1131
1130
1133
1137
1144
1150
1156
1158
1163
1168
1174
1181
1185
1187
1189
1195
1195
1198
1198
1196
1195
1194
1199
1198
1194
1188
1181
1175
1167
1164
1156
1146
1133
1129
1118
1109
1098
1080
1066
1054
1041
1027
1010
990
976
963
954
946
933
925
911
901
895
889
881
872
868
867
867
869
868
865
862
861
861
859
855
854
850
851
855
858
858
856
854
852
857
862
862
861
863
866
871
876
878
879
881
884
888
893
898
897
900
903
911
914
916
919
919
927
928
938
939
944
949
956
966
971
979
982
985
992
999
1010
1016
1020
1025
1030
1038
1041
1048
1052
1060
1067
1082
1094
1102
1107
1115
1122
1132
1139
1148
1149
1152
1158
1167
1173
1180
1181
1184
1188
1198
1203
1212
1216
1221
1223
1229
1232
1228
1228
1228
1230
1235
1234
1229
1219
1213
1207
1203
1196
1190
1183
1179
1172
1163
1156
1145
1126
1115
1101
1092
1084
1065
1045
1029
1016
1001
986
971
954
937
924
919
912
904
899
894
891
888
888
884
881
873
871
875
869
869
867
863
864
866
869
864
861
858
860
864
866
865
865
863
866
869
872
873
873
874
874
878
885
884
884
884
887
889
893
895
898
897
901
907
911
915
916
920
925
930
935
936
941
940
943
949
953
957
959
959
962
966
972
974
975
975
977
983
988
986
988
988
990
994
995
998
997
997
997
999
1001
1002
1001
1000
1001
1003
1003
1003
1003
1004
1003
1006
1009
1009
1006
1004
1006
1009
1009
1008
1005
1006
1006
1007
1008
1009
1006
1004
1007
1010
1011
1012
1008
1008
1009
1010
1013
1013
1009
1007
1008
1011
1013
1012
1010
1006
1005
1010
1013
1009
1010
1008
1010
1009
1012
1012
1010
1010
1010
1011
1014
1013
1012
1011
1010
1012
1015
1013
1011
1009
1008
1014
1016
1015
1012
1012
1011
1013
1017
1016
1015
1013
1014
1014
1012
1015
1013
1013
1014
1011
1015
1015
1013
1011
1011
1016
1017
1017
1015
1014
1016
1017
1019
1020
1017
1015
1015
1018
1019
1019
1016
1016
1016
1019
1019
1017
1017
1014
1016
1018
1021
1021
1019
1016
1019
1022
1022
1023
1019
1018
1019
1021
1019
1017
1019
1017
1018
1019
1019
1023
1020
1020
1023
1025
1027
1024
1022
1021
1022
1026
1029
1025
1026
1023
1025
1027
1025
1025
1018
1022
1022
1024
1027
1028
1025
1025
1024
1027
1029
1028
1026
1025
1022
1026
1027
1026
1023
1021
1020
1021
1024
1023
1020
1020
1021
1021
1023
1024
1022
1021
1021
1023
1023
1024
1022
1021
1021
1024
1023
1023
1021
1020
1020
1021
1024
1024
1022
1019
1022
1023
1027
1026
1023
1021
1021
1024
1023
1024
1021
1020
1020
1021
1023
1023
1021
1019
1021
1024
1026
1022
1021
1020
1019
1022
1027
1025
1021
1018
1020
1023
1026
1022
1020
1021
1021
1023
1024
1025
1021
1021
1023
1025
1026
1025
1022
1022
1019
1022
1023
1022
1018
1018
1019
1021
1023
1020
1016
1018
1021
1022
1020
1024
1022
1019
1018
1023
1022
1023
1018
1018
1020
1021
1019
1020
1020
1019
1019
1019
1022
1021
1020
1018
1019
1020
1020
1021
1019
1016
1018
1022
1023
1020
1016
1016
1015
1015
1019
1017
1016
1012
1013
1014
1015
1016
1014
1012
1016
1014
1017
1016
1014
1013
1013
1016
1017
1015
1012
1012
1014
1015
1014
1016
1012
1012
1013
1016
1017
1017
1016
1014
1011
1014
1018
1019
1015
1011
1016
1016
1018
1017
1014
1012
1015
1015
1016
1018
1015
1012
1016
1018
1022
1018
1020
1017
1017
1021
1021
1023
1018
1020
1019
1020
1023
1020
1014
1013
1016
1019
1021
1021
1016
1018
1019
1020
1020
1021
1019
1018
1020
1022
1022
1020
1019
1019
1019
1020
1021
1020
1018
1018
1018
1021
1023
1022
1018
1020
1019
1020
1021
1021
1021
1019
1021
1024
1024
1022
1020
1018
1019
1022
1022
1022
1018
1019
1021
1020
1022
1023
1021
1021
1022
1021
1023
1024
1018
1018
1018
1022
1023
1022
1022
1020
1021
1021
1025
1023
1021
1019
1022
1022
1023
1023
1021
1021
1023
1025
1023
1024
1021
1019
1023
1026
1025
1024
1022
1020
1023
1023
1024
1022
1021
1022
1023
1026
1026
1022
1023
1020
1019
1021
1023
1023
1020
1020
1021
1023
1022
1022
1020
1019
1021
1021
1026
1024
1023
1019
1021
1023
1024
1024
1022
1019
1023
1022
1023
1024
1022
1018
1019
1023
1023
1021
1022
1021
1022
1025
1027
1027
1026
1024
1025
1025
1026
1028
1026
1024
1027
1028
1029
1028
1022
1023
1025
1029
1030
1030
1028
1027
1027
1030
1031
1030
1026
1025
1027
1029
1031
1031
1027
1027
1027
1031
1032
1027
1025
1029
1031
1032
1032
1029
1029
1030
1029
1032
1035
1032
1029
1029
1031
1031
1029
1030
1032
1028
1028
1031
1032
1032
1031
1028
1031
1030
1032
1032
1030
1029
1031
1030
1030
1028
1024
1026
1029
1030
1031
1029
1029
1028
1030
1033
1034
1029
1032
1032
1033
1035
1037
1035
1034
1032
1034
1034
1033
1033
1033
1031
1032
