1233
1153
1064
993
961
954
950
946
944
946
953
961
964
957
953
953
955
954
954
952
946
949
951
955
953
950
949
951
954
953
957
954
952
954
956
959
958
957
955
952
955
962
962
963
963
963
966
969
971
971
970
969
971
975
975
979
976
976
981
987
992
993
991
994
999
1005
1009
1010
1010
1014
1018
1023
1031
1034
1035
1038
1043
1049
1055
1055
1053
1051
1055
1058
1060
1058
1054
1050
1049
1048
1043
1038
1032
1021
1018
1014
1008
1000
991
982
975
976
974
969
964
961
960
961
958
954
951
949
949
950
951
950
949
946
946
949
951
949
948
946
945
947
948
946
942
941
945
951
952
951
949
944
950
949
951
948
947
947
948
949
953
952
950
950
946
954
955
952
950
952
955
956
955
956
955
955
958
963
967
969
969
970
974
978
982
981
979
977
977
977
974
972
967
963
963
964
963
960
954
951
951
953
950
951
946
942
948
952
953
952
947
946
948
951
952
952
946
947
950
952
957
956
954
954
954
955
954
954
964
984
1015
1055
1099
1148
1201
1252
1291
1298
1259
1188
1109
1036
989
968
961
957
951
947
953
958
961
961
956
955
956
959
957
956
954
951
951
953
957
957
954
955
957
958
961
961
960
959
962
964
966
961
961
960
964
969
973
972
973
973
972
976
981
982
980
980
979
985
990
992
992
994
999
1004
1010
1013
1012
1012
1017
1022
1028
1032
1033
1033
1040
1048
1052
1054
1053
1053
1058
1062
1067
1066
1062
1057
1056
1056
1052
1049
1043
1037
1031
1027
1022
1015
1006
998
994
992
987
981
975
970
973
972
970
968
964
962
964
962
965
962
958
955
957
961
961
962
958
958
957
961
962
961
960
956
959
960
960
961
956
956
959
964
963
963
962
961
961
965
965
962
961
961
961
961
962
960
962
963
963
968
964
966
961
962
962
963
965
965
961
960
965
971
975
978
977
978
980
985
985
988
989
986
993
996
998
998
1000
1004
1013
1021
1032
1041
1044
1053
1062
1078
1092
1103
1111
1121
1131
1143
1159
1176
1186
1197
1211
1229
1248
1257
1262
1257
1247
1241
1233
1229
1223
1219
1220
1225
1227
1225
1218
1215
1211
1216
1218
1218
1210
1190
1171
1143
1108
1069
1026
987
965
947
931
923
912
904
906
903
900
894
892
889
886
887
887
887
882
880
878
880
877
875
871
869
872
873
872
870
866
863
864
866
866
864
861
857
857
857
859
859
856
854
854
857
858
857
855
851
853
856
857
857
855
853
858
868
870
872
872
874
879
884
893
897
900
900
906
916
923
929
931
936
943
948
955
959
958
957
962
966
968
965
963
962
961
964
966
966
958
956
959
960
960
961
956
952
954
956
957
956
953
948
951
954
956
954
952
952
949
953
954
955
950
950
950
950
955
955
954
952
954
956
960
960
957
955
954
957
961
962
957
956
960
963
965
965
961
960
961
965
966
966
961
959
960
964
970
969
966
963
966
967
967
968
965
966
966
967
971
968
964
963
968
970
972
973
968
968
966
970
970
976
973
975
980
984
990
991
989
990
993
997
1002
1005
1002
998
995
997
996
993
991
986
985
984
981
981
976
973
972
973
972
971
964
962
961
967
969
967
964
962
965
970
971
968
964
962
963
965
965
966
964
961
963
967
968
969
970
966
964
969
983
1001
1022
1047
1087
1137
1190
1245
1291
1317
1301
1246
1179
1109
1044
1001
984
975
969
961
959
961
965
971
968
967
966
960
963
963
965
964
960
960
958
962
964
962
960
959
959
959
963
966
968
965
964
968
971
970
967
967
967
969
973
971
970
971
972
977
982
983
981
978
982
985
984
988
988
988
993
997
998
1003
1004
1007
1011
1016
1021
1020
1023
1025
1028
1035
1042
1049
1049
1053
1056
1060
1063
1063
1063
1063
1064
1066
1067
1061
1056
1050
1046
1046
1041
1037
1029
1020
1012
1007
1004
1000
992
990
986
983
980
976
969
966
965
967
970
965
959
961
962
965
966
964
960
957
959
962
963
964
962
958
960
963
963
962
956
956
960
960
964
962
961
963
964
966
966
961
961
960
958
964
967
965
959
962
962
968
967
965
963
965
969
974
980
981
980
980
982
987
990
994
989
985
985
985
987
985
981
976
971
971
972
968
962
959
956
958
958
957
955
954
959
959
961
961
957
953
953
955
957
958
954
956
959
962
964
960
957
957
970
997
1025
1061
1107
1162
1221
1279
1310
1291
1228
1143
1061
995
963
953
952
950
954
959
965
965
958
952
955
960
961
960
954
953
954
958
957
958
954
955
959
962
967
964
963
961
964
964
969
968
966
964
966
970
973
975
972
970
972
976
977
981
979
981
981
986
987
990
988
991
994
999
1002
1004
1005
1003
1008
1015
1020
1021
1021
1021
1025
1033
1039
1043
1045
1045
1047
1054
1058
1059
1057
1057
1057
1058
1057
1054
1047
1044
1039
1037
1035
1029
1021
1014
1008
1004
999
992
984
978
973
974
975
971
970
964
960
966
963
959
960
955
952
956
957
957
955
952
953
956
958
958
954
953
952
951
955
956
953
953
953
954
956
956
956
953
952
956
959
959
956
955
952
956
957
958
953
946
951
957
959
959
957
956
961
967
971
971
968
966
968
975
979
983
982
983
985
987
990
988
983
978
975
975
977
975
968
964
960
962
963
960
961
962
965
975
986
994
1004
1017
1029
1047
1062
1076
1084
1094
1108
1124
1141
1154
1170
1180
1193
1211
1232
1251
1269
1278
1280
1275
1269
1262
1267
1276
1286
1299
1310
1315
1319
1321
1326
1328
1308
1260
1200
1137
1083
1034
998
969
946
926
916
914
915
910
900
895
895
892
893
893
889
887
887
887
888
883
882
877
879
880
881
880
876
871
873
875
874
875
870
864
867
867
867
864
860
855
856
858
861
858
853
853
851
851
852
854
851
849
847
851
852
852
852
853
857
862
865
868
865
868
876
882
888
893
893
898
904
915
925
932
933
938
942
950
954
958
957
958
958
962
960
961
959
960
960
961
961
960
957
957
957
960
960
959
958
954
954
955
960
958
958
954
955
961
961
960
958
955
953
956
959
959
955
954
956
958
963
963
957
957
960
964
964
963
960
957
956
962
966
967
963
960
962
962
969
971
969
964
964
970
969
972
974
976
978
985
989
987
989
985
992
996
1000
999
997
994
999
1002
1005
1006
1000
993
991
995
994
993
987
983
981
980
979
976
970
967
970
973
977
975
974
969
973
976
976
977
974
970
970
972
974
974
972
969
973
975
978
978
975
972
975
977
978
976
970
971
984
1007
1035
1069
1109
1160
1210
1264
1313
1339
1324
1265
1198
1128
1066
1024
1002
991
983
976
977
980
981
983
983
983
981
981
975
971
973
975
980
982
980
977
979
980
984
982
980
978
979
981
982
984
977
979
981
984
987
988
987
986
988
990
994
996
994
991
992
994
999
1001
1000
998
1001
1007
1012
1015
1012
1012
1013
1018
1023
1027
1026
1027
1028
1033
1042
1048
1047
1050
1055
1063
1067
1072
1071
1073
1076
1081
1086
1089
1086
1085
1088
1091
1094
1094
1091
1083
1082
1074
1076
1070
1062
1051
1045
1040
1038
1034
1027
1019
1015
1013
1010
1008
1001
995
991
992
993
992
984
984
983
988
987
986
987
982
982
984
988
988
983
980
980
983
985
985
985
982
980
985
986
987
980
979
980
982
987
987
986
983
984
985
988
990
985
985
985
983
988
990
986
981
982
979
987
987
987
983
985
991
996
998
1000
997
1000
1001
1004
1006
1007
1006
1010
1013
1016
1018
1013
1013
1010
1012
1011
1009
1005
1002
1001
1000
999
996
991
988
986
988
989
987
981
980
978
981
985
982
982
978
976
976
977
978
977
975
979
978
982
981
980
979
979
982
982
984
982
980
978
978
984
990
1004
1020
1042
1068
1108
1151
1195
1239
1290
1327
1325
1283
1220
1154
1097
1052
1024
1008
996
986
978
976
983
987
987
983
980
982
983
982
975
974
977
980
983
984
980
977
977
982
983
982
980
979
978
982
986
989
986
985
986
986
991
990
987
983
985
987
991
992
990
988
991
997
999
1000
997
995
1000
1004
1009
1010
1009
1008
1010
1014
1019
1020
1022
1022
1028
1035
1042
1044
1044
1044
1046
1050
1058
1057
1056
1054
1057
1063
1070
1073
1073
1072
1077
1078
1078
1077
1073
1068
1063
1063
1058
1056
1049
1042
1037
1034
1031
1024
1018
1010
1007
1004
1001
1001
991
987
986
987
984
987
982
979
978
979
979
980
976
974
971
976
976
976
973
969
968
972
977
979
974
971
974
975
977
978
975
974
972
973
976
977
972
972
973
977
979
979
977
974
974
975
977
977
974
971
970
972
976
977
975
973
973
976
980
979
975
971
970
973
976
974
975
973
978
984
988
991
990
985
985
991
996
1001
999
999
1001
1006
1012
1017
1022
1028
1036
1049
1067
1078
1083
1093
1105
1119
1133
1146
1152
1162
1177
1194
1211
1223
1237
1251
1271
1284
1286
1280
1267
1257
1253
1250
1248
1246
1246
1241
1237
1236
1237
1235
1235
1236
1235
1226
1210
1183
1140
1089
1043
1004
975
960
944
931
922
921
919
913
907
900
899
901
901
900
895
891
893
892
897
893
892
887
886
887
885
887
880
879
880
880
881
877
875
872
872
872
875
868
866
863
862
864
867
865
861
857
859
863
863
866
863
862
862
863
869
868
867
865
869
874
880
883
882
884
889
895
903
906
909
911
915
920
930
935
937
938
941
948
952
957
955
957
956
956
957
960
956
954
954
953
957
956
952
950
950
953
956
954
950
947
947
949
948
950
947
943
946
946
952
950
948
947
947
948
950
950
944
943
945
949
949
952
950
946
948
950
952
954
950
945
949
950
952
953
950
948
949
953
957
955
955
953
953
956
959
959
954
950
953
957
958
962
958
955
957
957
961
961
954
954
956
960
961
961
959
958
958
961
963
964
962
959
957
959
964
965
962
962
965
968
974
977
973
974
974
982
986
991
990
989
989
990
991
989
985
979
981
982
984
984
978
971
968
966
966
968
966
962
959
960
965
965
963
961
964
966
968
968
967
964
965
965
967
967
966
962
964
968
972
971
971
966
966
964
967
977
991
1011
1038
1081
1141
1199
1254
1306
1331
1313
1257
1182
1104
1030
984
968
968
970
966
964
964
972
979
974
972
968
969
971
974
972
969
966
967
968
973
972
972
970
971
976
977
978
974
970
972
977
980
978
977
974
975
978
983
986
984
982
985
988
992
994
990
987
989
991
998
1000
1002
1003
1006
1011
1016
1017
1017
1019
1019
1027
1033
1033
1033
1034
1035
1046
1054
1060
1062
1059
1061
1070
1075
1079
1077
1077
1081
1082
1086
1083
1080
1078
1074
1075
1071
1066
1061
1053
1047
1042
1039
1033
1025
1015
1011
1008
1007
1004
997
993
993
990
990
990
987
981
983
983
984
981
979
977
978
978
981
982
979
978
979
981
982
983
979
977
977
979
982
981
981
980
981
983
986
987
983
982
982
981
982
986
982
977
976
980
987
985
986
982
983
984
988
988
982
980
982
984
988
992
990
992
996
996
1001
1002
1000
1000
1000
1006
1010
1013
1012
1009
1008
1009
1013
1013
1010
1007
1005
1004
1005
1003
998
994
991
991
991
984
981
983
979
979
980
983
981
981
980
984
986
984
983
979
978
980
983
983
981
980
982
985
986
988
987
986
984
988
989
988
983
989
1010
1038
1080
1120
1164
1214
1261
1309
1340
1324
1270
1204
1140
1080
1033
1007
993
985
981
982
987
993
994
990
986
986
988
985
983
980
980
982
987
988
986
986
985
988
992
991
989
985
985
990
990
991
988
990
992
992
998
998
997
1000
999
1002
1002
1002
1000
996
999
1003
1007
1008
1007
1007
1008
1013
1019
1023
1022
1022
1023
1027
1033
1036
1035
1040
1043
1051
1058
1060
1063
1063
1066
1072
1078
1079
1080
1079
1083
1083
1092
1095
1093
1092
1090
1090
1090
1087
1078
1071
1064
1061
1059
1052
1046
1036
1033
1030
1023
1018
1013
1007
1001
1002
1002
999
993
991
990
992
992
992
990
987
985
988
990
990
987
983
982
983
985
986
987
987
985
985
988
985
987
985
983
986
987
987
986
984
982
987
992
992
989
988
988
986
990
992
990
985
985
988
991
993
989
990
990
992
994
995
992
998
998
1000
1005
1005
1006
1008
1011
1016
1022
1026
1025
1019
1023
1026
1035
1040
1045
1053
1060
1072
1084
1096
1108
1119
1132
1144
1151
1163
1170
1179
1195
1210
1224
1238
1251
1267
1278
1283
1280
1268
1254
1245
1241
1242
1243
1246
1241
1236
1234
1233
1234
1234
1237
1235
1226
1206
1182
1144
1100
1052
1010
986
968
954
943
936
931
931
927
922
921
917
915
915
915
914
912
908
905
905
906
907
903
901
900
900
900
899
893
889
889
890
892
892
889
885
882
885
887
887
883
880
877
878
879
880
880
875
876
878
883
882
878
876
881
884
887
889
889
892
895
902
910
916
918
921
923
932
941
948
948
953
955
962
966
972
974
971
976
981
984
982
980
978
976
975
978
975
970
968
966
970
971
971
968
967
967
967
970
967
966
963
962
964
966
965
963
960
963
966
969
967
966
963
960
963
963
963
962
960
959
962
965
965
965
966
966
961
968
966
968
964
964
965
966
968
967
968
968
973
976
973
972
970
969
973
975
974
974
969
966
969
976
976
975
973
972
975
976
973
972
969
968
971
973
971
973
970
971
973
976
973
976
973
971
975
979
980
979
980
984
986
994
999
999
999
1002
1006
1009
1010
1005
1000
998
996
995
990
986
981
979
979
980
980
975
971
968
969
972
970
970
969
966
967
971
974
971
965
966
968
975
975
975
975
972
970
972
976
977
974
970
973
977
997
1018
1047
1089
1138
1196
1251
1298
1328
1307
1245
1165
1084
1024
998
984
979
978
978
981
982
980
979
981
982
979
977
977
979
981
982
982
974
975
977
979
981
977
974
977
980
985
983
982
983
983
985
988
987
988
986
986
989
992
997
997
995
995
996
1001
1003
1004
1001
1001
1006
1013
1015
1014
1015
1020
1027
1032
1032
1035
1038
1039
1043
1050
1049
1050
1052
1056
1063
1070
1072
1074
1073
1070
1077
1083
1084
1079
1075
1071
1070
1069
1065
1058
1051
1045
1038
1034
1031
1022
1018
1012
1007
1005
1000
995
986
985
984
983
983
977
970
971
977
979
976
973
971
967
969
972
972
971
968
968
970
973
974
970
967
967
968
970
972
971
967
968
972
977
977
972
970
970
968
972
974
969
965
964
969
975
974
975
971
968
971
973
974
976
970
972
978
984
988
989
988
988
991
996
1000
998
995
994
995
994
992
988
984
983
982
980
975
971
966
961
963
968
963
962
961
963
965
968
967
964
960
961
965
965
967
963
959
960
963
968
967
969
968
964
966
967
965
962
969
984
1005
1039
1076
1123
1176
1238
1292
1325
1309
1252
1170
1089
1023
983
970
964
964
961
963
971
973
971
964
965
964
969
969
965
963
960
963
966
969
965
962
964
968
974
974
971
969
969
972
975
974
973
969
968
972
982
984
985
983
983
987
990
993
993
992
996
999
1006
1009
1011
1009
1014
1019
1023
1030
1031
1030
1028
1032
1043
1046
1047
1052
1053
1059
1062
1063
1067
1065
1067
1067
1065
1064
1055
1049
1046
1042
1041
1035
1029
1021
1015
1010
1008
1002
995
990
985
983
983
981
977
974
971
971
973
970
966
963
963
963
966
966
964
962
962
963
965
967
962
960
961
964
966
965
965
961
960
962
966
967
964
964
964
966
968
969
965
965
962
964
967
968
965
962
964
968
972
973
969
965
965
968
971
971
968
967
967
968
973
977
980
981
981
984
988
990
989
988
989
992
994
999
997
995
993
993
996
995
999
1004
1010
1019
1031
1039
1049
1061
1072
1088
1102
1115
1124
1135
1145
1164
1184
1197
1205
1214
1232
1252
1271
1279
1272
1261
1248
1241
1241
1240
1233
1228
1231
1232
1231
1228
1226
1220
1216
1221
1225
1228
1221
1201
1181
1158
1126
1084
1039
1000
967
947
935
929
921
916
909
908
906
903
901
898
898
898
899
899
892
889
887
888
888
887
883
880
875
875
879
881
877
875
870
871
872
871
869
862
860
862
860
864
860
856
854
855
859
859
856
853
853
856
857
856
855
853
852
858
861
864
867
865
868
870
875
883
884
882
885
894
900
907
910
915
918
925
933
941
946
944
950
955
963
966
967
967
966
967
970
970
969
966
965
968
971
970
966
964
960
962
964
963
961
958
957
957
961
958
960
956
955
959
962
962
959
957
957
957
960
963
961
956
957
955
960
962
963
959
958
962
965
967
965
962
958
960
961
965
963
961
960
963
967
971
969
966
967
968
971
972
970
969
968
971
973
974
971
970
970
975
978
979
977
974
974
977
976
978
975
972
969
972
980
978
978
975
977
980
985
984
987
988
992
994
998
999
997
998
1000
1006
1010
1014
1012
1010
1008
1009
1009
1008
1002
1000
997
997
994
993
990
985
984
984
987
989
986
982
981
981
984
984
981
980
977
979
982
985
983
980
979
980
981
984
982
981
979
982
985
986
986
980
980
979
988
1006
1024
1046
1077
1116
1161
1210
1257
1294
1321
1314
1271
1208
1142
1077
1030
1006
998
992
984
979
987
990
990
989
981
979
980
982
986
984
983
982
980
983
986
988
986
985
981
983
986
988
986
986
988
992
992
994
991
988
989
993
997
999
997
995
993
997
1000
1003
1003
1002
1003
1006
1011
1014
1013
1012
1014
1015
1021
1022
1024
1026
1027
1034
1039
1044
1046
1047
1048
1052
1060
1064
1064
1066
1066
1072
1078
1085
1087
1088
1086
1090
1096
1095
1096
1094
1088
1089
1088
1083
1079
1068
1059
1057
1053
1051
1040
1032
1027
1022
1023
1017
1015
1009
998
999
997
999
994
988
987
989
991
993
989
986
982
981
984
982
984
978
972
978
981
985
984
980
980
979
985
983
981
980
978
981
