969
967
965
965
968
970
970
966
966
966
968
971
971
973
973
973
975
980
978
976
969
970
972
976
977
979
978
976
980
980
984
986
983
985
987
985
989
990
991
990
993
995
999
1002
1007
1009
1016
1023
1024
1025
1023
1024
1027
1032
1033
1035
1036
1035
1037
1041
1042
1044
1043
1042
1043
1044
1039
1036
1032
1028
1030
1030
1027
1022
1019
1009
1010
1006
1004
1000
992
985
986
987
987
984
980
977
977
977
978
978
974
970
970
973
976
976
974
971
973
976
977
974
972
970
971
970
973
973
972
972
970
973
971
973
970
967
965
970
974
970
970
970
971
970
973
972
969
971
972
972
972
972
972
972
970
971
975
974
973
972
973
975
975
976
977
975
975
980
982
986
982
983
984
984
985
985
980
977
977
978
976
976
977
979
979
979
979
973
971
967
965
969
973
973
967
969
972
973
973
973
969
962
962
961
963
962
957
955
957
957
958
956
956
954
955
959
960
959
954
953
953
954
955
954
953
948
943
942
946
952
970
995
1032
1075
1121
1173
1220
1247
1248
1214
1150
1064
969
886
846
847
859
871
888
906
922
932
936
939
941
939
942
945
945
945
943
943
943
946
947
945
944
945
946
948
947
946
944
946
950
953
954
956
953
950
952
954
957
959
956
956
960
964
965
967
965
966
970
976
978
979
979
980
983
988
991
990
991
992
998
1003
1006
1008
1004
1006
1009
1011
1016
1015
1013
1010
1013
1020
1020
1019
1018
1020
1020
1020
1023
1020
1017
1015
1014
1012
1013
1009
1000
995
994
992
992
985
979
974
973
972
970
968
965
958
959
961
961
960
954
951
955
955
956
954
952
949
949
950
953
950
949
947
948
952
956
951
950
951
952
954
952
952
952
950
950
953
954
954
952
951
951
953
952
952
950
948
949
952
952
953
952
952
950
951
957
956
955
952
953
955
958
958
956
952
951
958
959
963
963
963
965
970
975
974
973
973
972
974
977
975
973
972
973
974
972
971
972
970
968
970
968
966
960
958
959
963
962
962
960
961
962
962
963
959
955
953
949
947
949
946
949
947
947
949
950
950
949
949
952
953
955
951
949
947
949
951
955
953
949
947
943
942
940
948
958
979
1013
1054
1101
1150
1200
1240
1256
1236
1178
1104
1010
922
867
855
864
879
893
910
924
938
939
942
943
944
945
949
951
953
947
946
946
948
951
949
948
945
948
951
954
954
950
949
953
955
959
958
955
956
958
958
960
960
960
961
966
968
969
969
970
967
971
980
982
983
982
978
983
989
992
994
996
998
1001
1004
1006
1010
1010
1011
1015
1016
1020
1020
1019
1022
1025
1029
1032
1031
1026
1028
1032
1033
1031
1024
1022
1020
1020
1021
1022
1019
1021
1016
1015
1011
1007
998
995
987
990
989
987
981
975
971
970
974
973
970
969
962
958
961
968
968
966
965
965
966
967
964
961
960
968
971
974
971
963
958
958
963
964
966
964
965
968
965
970
967
963
961
964
967
968
967
966
966
965
967
963
962
958
961
965
969
971
970
974
975
973
972
971
967
965
967
970
972
974
973
978
982
983
981
974
974
973
976
980
984
988
987
983
984
985
990
990
986
981
979
981
981
981
979
979
979
980
979
977
975
976
974
973
976
974
972
969
967
964
961
962
960
958
958
959
964
965
963
958
953
958
960
962
963
963
966
965
963
960
954
956
956
955
953
953
950
947
951
965
989
1022
1061
1106
1154
1203
1247
1260
1239
1186
1121
1040
955
890
867
869
874
883
894
913
926
932
937
939
948
953
955
955
955
957
957
954
955
954
955
955
956
961
960
961
959
960
962
961
962
962
960
964
967
969
967
965
965
972
978
980
978
978
977
979
986
986
988
991
992
996
999
1008
1010
1009
1009
1010
1016
1020
1024
1024
1025
1029
1034
1035
1032
1030
1031
1037
1040
1043
1042
1038
1037
1038
1038
1036
1033
1029
1025
1027
1028
1025
1018
1012
1008
1004
1005
1007
1001
996
993
993
992
992
988
985
983
978
976
976
979
977
977
975
975
975
975
971
970
973
976
976
976
975
975
978
979
978
976
976
976
982
981
981
979
978
979
981
982
981
982
979
981
981
985
986
988
987
983
982
983
983
982
982
980
982
984
988
991
988
989
992
996
1000
996
996
994
996
999
1001
1002
999
997
995
995
996
999
997
993
996
996
1002
1003
1000
996
990
992
992
994
991
987
985
986
989
991
988
982
982
981
979
976
973
971
969
974
974
975
972
969
971
975
979
977
977
973
973
976
978
976
972
965
965
962
970
980
993
1020
1055
1099
1148
1197
1240
1267
1264
1229
1167
1088
999
914
872
874
888
899
910
930
951
965
972
971
974
979
983
987
987
981
973
968
978
986
988
986
980
978
974
979
981
979
980
984
988
986
983
981
980
976
981
989
995
993
985
979
979
984
994
997
996
998
1000
1003
1007
1008
1007
1012
1019
1023
1026
1025
1027
1027
1033
1035
1038
1040
1042
1049
1048
1053
1053
1055
1054
1053
1056
1056
1057
1054
1054
1051
1053
1056
1058
1057
1053
1048
1046
1049
1045
1035
1024
1018
1018
1017
1017
1013
1010
1008
1010
1013
1016
1011
1003
996
995
998
999
996
996
993
995
997
999
1002
1003
999
999
999
999
999
999
995
992
991
994
995
992
997
999
995
998
998
1003
1000
999
1001
1003
1000
996
995
996
999
1002
1002
1001
1002
1001
1002
1002
1001
1000
1002
1001
1003
1007
1002
1004
1006
1008
1009
1010
1006
1007
1009
1012
1014
1013
1017
1019
1020
1020
1023
1024
1023
1019
1013
1015
1017
1019
1017
1013
1009
1008
1013
1016
1014
1010
1005
1006
1010
1009
1006
1004
1006
1010
1011
1013
1007
1001
993
993
997
996
997
997
995
993
992
992
992
993
994
996
998
999
997
994
996
997
996
992
986
980
983
990
1003
1025
1054
1092
1137
1187
1242
1283
1297
1267
1207
1127
1035
947
899
892
901
912
925
946
965
979
988
989
985
987
990
988
988
990
989
991
991
989
988
991
993
996
990
987
986
990
994
996
997
999
998
999
1000
1004
1004
1001
1001
1005
1010
1016
1016
1016
1013
1015
1019
1022
1022
1024
1027
1032
1036
1042
1042
1046
1048
1052
1056
1058
1059
1060
1063
1065
1065
1062
1063
1062
1067
1071
1073
1076
1072
1072
1068
1069
1065
1064
1064
1061
1057
1051
1050
1049
1044
1038
1030
1030
1029
1022
1018
1016
1017
1018
1014
1014
1011
1008
1006
1006
1006
1007
1006
1006
1002
1001
1005
1003
1003
1001
1003
1006
1004
1002
1003
1001
1000
1004
1003
1002
1005
1006
1006
1004
1007
1010
1009
1010
1008
1009
1012
1014
1012
1009
1005
1004
1002
1004
1006
1003
1002
1002
1005
1006
1006
1002
998
1001
1003
1005
1007
1005
1008
1013
1019
1022
1019
1016
1012
1012
1013
1019
1022
1021
1019
1017
1018
1021
1021
1016
1016
1016
1018
1019
1017
1012
1004
1004
1010
1009
1011
1007
1006
1007
1013
1013
1011
1007
1006
1002
1001
996
994
989
991
993
999
1000
998
991
989
995
1002
1001
1000
997
994
991
993
991
987
983
980
979
985
993
1012
1040
1075
1124
1175
1226
1270
1294
1293
1252
1189
1107
1005
921
884
889
902
917
935
957
970
980
978
979
981
979
980
981
981
985
984
983
982
984
985
983
984
985
987
988
989
992
994
991
990
987
990
993
993
994
992
993
998
1000
1002
999
1000
1002
1007
1011
1011
1011
1008
1011
1011
1013
1018
1020
1022
1027
1033
1038
1043
1043
1045
1046
1050
1048
1053
1053
1050
1054
1057
1057
1062
1062
1055
1057
1055
1057
1054
1052
1048
1048
1045
1045
1045
1040
1034
1032
1032
1030
1024
1018
1016
1013
1012
1011
1007
1004
1000
1000
1002
1003
1004
1003
1004
1004
1004
1005
998
990
987
990
995
999
999
997
994
997
996
998
996
994
992
989
990
994
990
991
992
992
995
992
993
993
993
995
994
997
994
992
994
995
1001
999
996
991
989
995
996
997
999
999
998
995
994
994
996
997
998
1001
1005
1008
1010
1009
1009
1007
1007
1012
1011
1007
1005
1005
1009
1009
1008
1007
1003
1003
1005
1003
1002
995
994
992
996
999
1001
998
999
998
1001
1000
998
993
989
986
985
984
985
982
980
979
984
986
985
985
983
981
980
981
982
977
980
981
981
978
973
971
971
984
1010
1046
1086
1132
1182
1236
1282
1298
1267
1199
1117
1017
927
880
880
896
913
930
951
957
964
966
969
971
974
976
973
971
974
974
977
978
978
979
976
975
979
984
981
980
977
973
975
980
981
982
980
981
986
987
991
989
987
991
992
995
994
992
993
994
998
1005
1008
1009
1011
1016
1017
1025
1028
1023
1028
1028
1033
1039
1043
1043
1041
1042
1047
1052
1053
1052
1053
1055
1054
1053
1047
1045
1047
1046
1046
1046
1040
1034
1032
1032
1028
1027
1025
1018
1017
1016
1015
1011
1008
999
993
987
986
992
989
983
981
987
988
990
988
985
986
988
993
995
996
989
986
990
990
984
983
977
976
981
984
989
987
981
977
983
983
985
979
975
977
982
985
988
988
985
985
986
988
988
988
988
988
990
994
991
990
986
988
987
986
984
987
985
987
990
995
996
996
997
996
1000
1000
1003
1002
1000
998
1001
1004
1004
1006
1006
1007
1003
1005
1007
1008
1005
1000
997
996
997
991
986
984
990
992
993
993
993
993
991
990
986
989
986
980
980
977
976
973
977
975
971
974
983
982
976
972
976
976
975
972
961
959
969
996
1035
1092
1150
1214
1260
1273
1245
1171
1075
972
893
865
873
889
909
930
944
955
959
960
960
960
958
963
969
967
963
962
957
958
959
962
962
965
964
964
967
964
962
961
964
967
975
974
973
969
964
969
971
972
974
977
978
980
983
984
983
985
988
992
997
1000
997
1001
1005
1009
1012
1014
1019
1020
1022
1026
1028
1029
1028
1025
1028
1031
1033
1033
1032
1031
1028
1030
1030
1029
1021
1018
1015
1014
1013
1008
1002
993
992
989
986
981
977
971
971
972
971
965
963
965
964
962
964
960
962
955
957
960
964
961
958
958
957
963
967
963
959
953
951
954
953
954
953
951
951
953
956
955
954
954
954
955
954
954
953
952
954
955
954
957
951
953
953
956
956
957
955
955
952
956
958
957
954
953
952
954
955
955
950
953
953
959
960
964
964
963
963
963
965
962
960
955
956
961
964
962
957
951
950
950
951
952
949
948
952
954
954
952
952
950
946
945
942
938
937
936
938
941
942
944
942
939
939
939
938
938
937
938
935
935
937
939
937
933
929
924
923
925
934
948
976
1011
1050
1097
1144
1189
1234
1254
1239
1190
1118
1035
940
867
838
838
846
855
872
892
907
913
916
918
918
922
925
924
920
921
923
926
927
924
923
921
922
927
930
926
929
928
931
931
936
938
933
929
928
928
931
934
931
932
935
937
940
940
937
938
941
944
945
945
945
944
946
950
955
951
954
956
961
965
971
976
975
978
983
987
991
992
991
990
992
993
999
1001
999
999
1000
1001
1003
1005
1000
997
996
997
993
992
986
982
978
978
980
979
974
969
966
963
963
961
954
948
944
946
947
944
939
937
938
937
941
943
939
938
936
939
937
939
938
936
937
937
938
940
938
937
933
938
938
938
937
934
936
939
940
942
939
940
941
941
944
944
944
944
942
948
948
950
948
946
949
953
954
954
950
944
943
945
947
945
944
942
946
947
950
948
947
944
946
947
946
946
944
944
945
948
951
951
950
951
955
957
962
961
961
962
963
966
971
971
969
966
968
969
972
970
971
970
973
971
971
973
971
969
970
972
972
968
963
960
960
966
966
967
965
962
960
958
959
957
953
950
948
948
948
950
951
949
952
952
953
952
949
951
949
953
957
956
954
953
948
947
945
946
952
963
987
1022
1063
1113
1166
1212
1253
1276
1270
1227
1162
1086
1004
919
871
860
870
881
894
914
936
945
946
949
950
957
960
958
953
956
957
958
960
958
958
957
960
961
964
964
961
962
959
961
966
967
966
965
962
968
972
970
970
971
975
978
982
982
977
978
978
983
987
984
989
987
994
998
1001
1002
1004
1006
1010
1014
1019
1020
1023
1025
1026
1031
1038
1040
1039
1037
1038
1043
1049
1049
1048
1048
1049
1052
1056
1054
1053
1053
1051
1054
1053
1051
1050
1046
1041
1042
1039
1038
1032
1026
1022
1022
1023
1016
1010
1004
1003
1007
1006
1007
1003
1002
998
1000
1002
999
998
995
995
998
999
1002
998
997
996
999
1000
1001
998
998
999
999
1003
1003
1000
1000
998
1000
1003
1002
1001
1000
1001
1002
1004
1005
1002
1002
1001
1004
1007
1006
1006
1004
1003
1004
1007
1011
1007
1005
1006
1008
1010
1010
1010
1008
1007
1009
1011
1010
1008
1010
1012
1014
1013
1010
1009
1007
1011
1014
1017
1019
1016
1018
1018
1018
1022
1021
1023
1023
1022
1024
1025
1023
1022
1018
1021
1022
1023
1021
1022
1020
1018
1018
1019
1015
1012
1011
1013
1018
1018
1017
1017
1016
1016
1017
1019
1017
1011
1007
1004
1005
1005
1005
1002
1002
1002
1005
1007
1008
1006
1003
1005
1007
1007
1008
1006
1005
1005
1008
1009
1008
999
995
991
997
1007
1023
1049
1083
1129
1182
1238
1287
1311
1308
1260
1185
1095
993
920
899
908
926
946
965
980
988
992
994
1002
1002
1000
999
1001
1002
1005
1003
1002
998
1001
1001
1006
1006
1004
1003
1005
1007
1011
1010
1008
1008
1009
1012
1014
1013
1015
1011
1015
1015
1016
1015
1013
1015
1019
1023
1028
1027
1028
1028
1031
1034
1041
1041
1040
1042
1048
1052
1056
1054
1057
1058
1061
1066
1070
1070
1071
1072
1075
1075
1077
1072
1074
1075
1078
1078
1080
1081
1077
1076
1075
1072
1072
1069
1065
1064
1062
1061
1057
1054
1048
1042
1039
1036
1036
1032
1026
1023
1023
1025
1025
1024
1021
1016
1018
1023
1021
1020
1018
1015
1014
1018
1020
1020
1017
1015
1017
1018
1022
1019
1019
1016
1014
1015
1020
1019
1016
1014
1015
1018
1018
1016
1014
1015
1015
1017
1018
1018
1016
1015
1014
1017
1018
1018
1014
1012
1014
1015
1018
1018
1016
1016
1015
1018
1019
1017
1015
1013
1012
1013
1016
1015
1013
1013
1015
1019
1021
1021
1024
1026
1030
1032
1036
1032
1028
1026
1028
1032
1033
1031
1028
1025
1026
1029
1031
1029
1027
1024
1022
1023
1022
1019
1017
1017
1015
1016
1019
1020
1020
1020
1019
1016
1017
1013
1010
1002
1001
1004
1006
1003
1000
999
1001
1001
1007
1006
1003
1001
1001
1003
1006
1003
1002
1000
1002
1003
1002
998
988
982
987
1000
1024
1053
1089
1134
1187
1244
1293
1321
1313
1267
1187
1095
1004
926
891
897
916
935
956
972
980
987
989
994
998
997
999
996
998
1001
1004
1004
1001
997
998
1002
1009
1009
1008
1007
1001
1002
1004
1008
1008
1008
1009
1009
1009
1001
1002
998
998
1005
1010
1011
1010
1007
1009
1005
1007
1009
1009
1011
1013
1016
1021
1028
1030
1029
1032
1034
1039
1038
1041
1045
1049
1057
1063
1066
1066
1067
1066
1068
1072
1073
1070
1071
1074
1077
1080
1072
1069
1063
1061
1061
1063
1063
1060
1056
1050
1052
1052
1050
1044
1037
1033
1029
1025
1020
1017
1018
1021
1024
1021
1014
1010
1004
1004
1005
1007
1010
1010
1003
1001
1006
1012
1015
1011
1004
988
992
997
1004
1004
998
994
995
999
1002
1002
1000
997
999
1004
1007
1006
1007
1004
1004
1005
1005
1006
1007
1007
1012
1017
1019
1017
1011
1008
1012
1016
1014
1014
1007
1004
1006
1008
1008
1009
1006
1008
1009
1005
1001
998
1000
995
995
997
994
988
987
992
995
990
991
987
986
985
984
986
983
983
984
984
986
986
985
983
980
971
965
964
962
972
994
1026
1070
1121
1173
1223
1257
1264
1241
1190
1113
1024
933
883
879
893
904
919
939
953
966
971
970
970
970
972
977
978
973
973
975
972
973
977
977
977
975
975
976
977
980
978
974
975
977
983
983
981
980
982
985
989
989
989
986
989
995
1001
1001
1001
1000
999
1005
1014
1018
1019
1020
1018
1021
1026
1029
1031
1028
1032
1036
1041
1040
1045
1041
1043
1047
1049
1050
1049
1049
1047
1049
1049
1047
1044
1036
1034
1034
1030
1028
1022
1020
1017
1020
1021
1015
1005
997
987
989
990
985
980
977
979
982
984
978
974
971
972
972
971
969
966
964
962
965
967
966
962
962
961
965
967
966
963
963
965
969
971
973
968
967
966
972
973
974
972
973
971
976
976
975
977
975
978
979
979
981
983
981
979
980
982
977
974
970
969
968
967
968
964
963
966
967
966
968
964
960
960
964
965
963
963
960
961
963
967
965
965
964
963
967
965
967
965
966
966
965
968
970
969
968
968
972
978
981
984
982
979
982
985
987
988
985
982
984
987
985
984
980
980
982
982
983
977
971
968
972
974
975
972
970
973
978
978
976
973
968
964
963
964
960
961
960
959
961
963
959
955
957
958
959
961
963
961
958
959
960
960
958
948
948
948
960
980
1008
1046
1091
1142
1196
1246
1267
1246
1189
1105
1007
912
855
847
857
873
889
910
929
939
941
943
949
951
955
951
950
950
952
953
950
949
948
949
947
950
950
948
944
946
947
951
954
954
953
953
957
958
960
959
958
958
961
965
966
965
966
966
969
974
977
976
977
977
981
986
988
989
990
993
999
1005
1005
1007
1007
1008
1011
1016
1021
1022
1020
1018
1020
1020
1024
1025
1023
1025
1025
1028
1024
1019
1018
1018
1020
1021
1016
1011
1007
1001
1001
999
996
991
986
982
979
979
978
975
972
968
969
973
975
970
969
967
970
972
972
970
968
967
971
970
972
968
965
966
970
971
972
970
969
970
971
971
970
971
969
969
972
975
974
972
971
972
975
975
973
974
971
972
975
975
973
972
970
971
975
975
975
975
973
973
973
974
976
973
971
969
968
972
970
968
971
973
982
982
982
982
979
980
986
986
984
979
980
978
978
980
980
980
978
980
977
976
972
967
965
965
969
972
969
968
969
972
971
970
971
967
962
961
957
960
959
962
956
959
960
960
961
959
957
957
958
962
960
956
956
958
962
965
962
960
952
942
946
952
968
994
1029
1073
1127
1186
1236
1270
1263
1215
1139
1050
954
877
847
854
873
892
908
925
938
945
949
952
954
949
949
950
954
952
952
951
951
948
953
954
956
954
955
954
954
