960
957
951
946
946
948
946
940
938
944
953
958
962
962
957
958
960
958
957
959
960
962
962
966
970
973
975
977
981
980
981
983
985
985
997
1004
998
989
978
981
986
993
993
992
986
980
981
985
991
990
987
989
993
998
1005
1007
999
991
991
998
998
992
987
987
991
995
992
985
979
974
975
975
972
969
962
954
954
950
948
945
941
941
940
940
944
947
947
940
937
937
941
946
947
942
940
939
943
949
950
948
947
949
951
953
944
940
944
953
954
950
941
938
938
945
947
946
956
983
1027
1077
1125
1173
1213
1228
1200
1133
1050
957
874
833
840
869
896
914
926
933
941
945
949
942
933
934
942
950
953
957
955
948
942
938
938
940
943
941
938
935
938
938
939
942
949
959
967
970
975
987
986
983
981
981
982
983
989
993
991
986
988
989
993
991
990
986
982
984
990
997
992
986
980
983
991
998
1006
1004
1001
1003
1005
1007
996
987
994
1005
1002
982
975
971
963
957
958
963
967
959
948
945
955
954
949
941
940
946
952
961
958
949
935
936
940
948
950
951
946
940
941
948
952
956
967
973
963
941
929
929
933
931
928
931
941
945
941
940
946
955
954
949
942
934
928
930
934
941
953
971
1005
1052
1103
1153
1197
1219
1202
1151
1088
1009
921
858
844
854
862
875
896
921
933
941
941
941
942
942
943
945
946
948
949
952
953
956
952
950
951
953
954
957
963
962
967
976
981
983
978
978
979
976
975
979
983
980
978
985
997
1007
1006
998
990
988
988
988
990
983
973
972
979
986
986
988
991
993
996
995
995
994
996
997
996
997
999
1000
1005
1008
1011
1010
1007
1003
1000
999
998
995
992
979
973
969
970
974
979
978
972
965
962
957
955
952
952
954
963
969
972
966
959
955
958
962
959
955
952
954
956
964
970
971
967
964
965
970
971
974
974
970
967
970
973
975
971
970
975
993
1016
1043
1073
1111
1167
1230
1273
1286
1251
1173
1084
995
915
863
864
896
931
953
966
972
970
968
967
967
969
971
972
975
973
968
965
962
968
971
975
979
985
989
987
981
974
976
981
987
989
986
987
991
992
986
982
983
988
995
1004
1006
1002
1001
1000
997
998
1001
1008
1012
1010
1009
1008
999
992
990
999
1004
1005
1000
1000
1003
1005
1011
1016
1016
1015
1010
1006
1007
1009
1002
991
984
982
985
988
988
989
980
974
971
975
981
980
972
966
968
978
978
975
971
968
971
976
980
982
980
980
983
987
987
979
973
973
978
983
981
978
981
982
983
986
989
985
980
982
990
1008
1030
1062
1099
1146
1200
1250
1276
1261
1212
1144
1070
985
918
891
899
916
935
954
965
970
968
970
977
986
989
989
988
989
994
996
997
998
998
995
995
998
1002
1001
998
994
999
1001
1003
998
996
996
1002
1001
995
993
994
995
1002
1007
1008
1002
997
999
1001
1006
1009
1010
1011
1013
1014
1020
1017
1019
1020
1024
1025
1024
1022
1021
1021
1023
1025
1033
1039
1038
1032
1036
1040
1035
1033
1029
1027
1026
1028
1027
1023
1018
1017
1014
1012
1009
1006
1001
996
997
1002
1008
1004
997
992
994
1000
1003
1003
1003
1003
998
997
996
997
996
997
1002
1003
1004
1001
999
998
1000
1002
1001
996
994
998
1003
1006
1004
999
998
998
1000
1003
1006
1005
1003
1001
1006
1019
1045
1075
1111
1150
1199
1251
1298
1319
1308
1259
1181
1099
1021
946
900
892
916
949
975
990
996
999
1000
1008
1012
1012
1010
1014
1017
1020
1019
1016
1009
1005
1001
1002
1003
1000
1000
999
998
997
998
995
997
995
996
998
1000
1004
999
997
994
992
993
992
998
996
996
1001
1007
1011
1005
1007
1010
1016
1021
1015
1000
996
996
997
996
997
1001
1004
1003
1007
1007
1012
1012
1013
1011
1014
1020
1023
1021
1022
1022
1023
1022
1020
1016
1013
1012
1009
1011
1008
1001
995
994
997
995
990
981
982
986
990
993
996
999
998
996
992
990
990
984
981
986
989
986
985
984
985
984
985
987
988
983
982
984
982
985
984
982
981
981
979
982
986
990
986
986
986
990
989
984
981
981
986
986
992
1007
1027
1064
1106
1151
1202
1256
1293
1307
1281
1219
1123
1020
927
871
871
905
945
972
987
995
1001
1002
1003
997
987
981
982
988
993
996
995
999
1001
1001
991
972
962
962
967
969
971
971
973
973
978
980
981
979
977
977
980
983
983
980
979
981
985
989
992
990
991
991
998
1004
1005
997
984
979
980
988
993
995
996
1004
1007
1008
1007
1008
1011
1013
1012
1010
1008
1012
1014
1015
1017
1026
1027
1023
1018
1017
1021
1023
1019
1008
998
993
991
991
984
973
971
972
978
982
982
978
979
980
985
984
983
979
979
983
983
982
988
987
985
988
992
991
991
990
991
987
986
992
994
990
988
981
980
985
987
989
987
985
987
992
994
990
985
982
987
989
987
983
986
999
1022
1057
1093
1137
1189
1247
1301
1333
1311
1235
1134
1032
944
897
905
932
967
987
998
1007
1007
1003
999
995
994
995
992
984
977
971
974
973
974
971
966
967
971
975
972
969
969
975
983
989
986
985
982
983
984
997
996
990
989
990
992
993
992
991
990
988
989
993
989
986
983
987
989
992
994
991
989
989
989
989
987
986
993
997
999
1003
1008
1012
1014
1013
1017
1020
1021
1020
1019
1020
1024
1029
1022
1011
1003
998
996
996
995
991
988
986
987
986
985
983
982
981
983
979
976
976
975
978
982
987
991
986
984
978
976
981
983
984
981
984
987
985
983
979
982
985
987
991
987
983
984
985
986
989
988
986
989
987
993
996
998
999
1000
1002
1004
1012
1013
1014
1012
1008
1012
1013
1007
996
992
993
994
999
1000
999
997
998
999
998
996
990
988
987
986
986
983
978
980
981
984
987
987
987
985
986
988
991
988
984
980
979
978
980
978
979
983
985
995
1004
1001
992
978
969
964
960
966
970
977
998
1032
1074
1120
1177
1225
1261
1273
1251
1198
1129
1045
957
892
879
888
902
918
933
956
972
976
978
980
986
989
992
991
987
987
985
987
990
990
987
987
990
995
995
988
980
981
981
988
991
989
986
991
994
999
1003
1004
1003
1002
1002
1007
1010
1013
1010
1008
1011
1016
1020
1021
1023
1024
1024
1027
1026
1025
1026
1022
1027
1031
1033
1035
1032
1031
1032
1036
1033
1030
1028
1030
1034
1040
1042
1049
1048
1048
1046
1047
1047
1045
1048
1048
1046
1046
1047
1047
1044
1036
1036
1037
1039
1038
1031
1029
1027
1032
1035
1032
1027
1019
1015
1017
1016
1016
1009
1006
1005
1006
1009
1007
1005
1002
1003
1004
1010
1009
1005
1010
1015
1020
1028
1028
1024
1021
1020
1022
1024
1020
1023
1021
1021
1020
1022
1023
1024
1021
1018
1018
1022
1026
1022
1025
1023
1022
1019
1012
1006
1001
995
999
1003
1003
997
994
995
1001
1008
1009
1008
1003
1001
1002
1003
1002
999
1000
1000
1005
1005
1006
1003
999
997
1000
1002
999
1000
1000
1004
1006
1010
1012
1010
1007
1001
1004
1011
1013
1009
1009
1005
1002
994
988
991
994
996
997
1000
996
993
993
992
995
1000
997
998
997
999
1000
1002
1004
1002
1000
999
1002
1004
1010
1012
1014
1019
1023
1022
1016
1017
1019
1017
1017
1016
1017
1013
1014
1013
1014
1018
1017
1013
1014
1010
1009
1008
1012
1016
1019
1016
1018
1019
1015
998
986
989
998
1003
1000
995
994
991
994
998
996
992
993
993
997
995
992
994
996
999
1001
999
996
994
995
992
992
990
992
997
1009
1030
1059
1095
1139
1190
1235
1272
1284
1264
1220
1160
1092
1011
936
899
894
904
917
938
956
968
978
981
981
984
988
993
995
994
996
998
1000
1003
1001
995
996
997
997
995
996
994
999
1003
1005
1006
1003
1004
1003
1003
1006
1010
1009
1006
1008
1009
1015
1016
1016
1015
1016
1021
1023
1026
1029
1031
1031
1031
1031
1031
1032
1032
1028
1027
1035
1039
1042
1041
1041
1042
1047
1047
1046
1039
1032
1030
1038
1043
1039
1035
1036
1037
1038
1036
1038
1040
1038
1038
1039
1039
1036
1028
1023
1022
1025
1027
1026
1027
1026
1021
1027
1025
1028
1027
1023
1020
1017
1011
1005
999
1000
1000
1000
999
998
995
997
998
1004
1005
1002
996
993
992
994
996
995
995
993
992
997
1005
1007
1005
1005
1007
1011
1017
1017
1014
1011
1013
1019
1019
1021
1020
1014
1010
1005
1008
1013
1016
1013
1007
1007
1005
1007
1004
1003
1006
1007
1009
1007
1006
1004
1008
1016
1021
1016
1018
1020
1021
1019
1021
1017
1019
1018
1019
1020
1024
1024
1021
1025
1023
1022
1021
1012
1006
1003
1007
1012
1019
1014
1010
1008
1007
1007
1008
1007
1006
1003
996
991
992
995
990
990
991
993
994
992
993
992
991
993
996
996
995
990
988
983
979
975
972
975
991
1017
1052
1090
1133
1176
1226
1262
1255
1209
1144
1062
967
895
871
878
890
904
922
941
955
967
976
979
980
981
984
988
990
992
989
993
990
990
988
989
993
998
998
1001
998
994
988
988
991
998
1003
1009
1006
998
991
992
999
1001
1007
1013
1013
1016
1015
1016
1016
1018
1023
1025
1029
1031
1030
1031
1034
1040
1044
1045
1046
1048
1051
1055
1051
1045
1042
1045
1049
1053
1054
1054
1051
1045
1042
1043
1041
1043
1045
1042
1043
1040
1036
1029
1023
1020
1019
1012
1007
1001
1003
1008
1009
1001
1002
1003
996
992
988
983
982
981
979
986
989
989
985
982
981
984
987
988
995
993
988
983
980
980
979
980
983
984
985
985
988
987
985
991
993
989
982
984
991
994
990
990
993
992
985
985
981
983
984
982
986
983
983
988
993
1000
1003
1002
995
992
994
997
998
1001
1002
1002
1000
996
989
988
991
996
1001
1004
999
994
990
987
984
985
987
982
983
982
983
987
984
985
986
989
983
973
974
972
973
977
971
966
967
969
972
970
967
969
966
969
970
967
970
967
966
966
966
959
955
955
959
973
996
1024
1064
1112
1168
1217
1244
1232
1194
1132
1059
971
905
878
881
890
902
923
944
956
962
960
959
964
971
976
974
968
960
955
964
968
972
971
970
974
979
978
977
977
981
982
979
982
985
986
985
990
994
996
996
997
996
1000
1003
1009
1012
1012
1014
1018
1022
1023
1024
1024
1027
1032
1036
1039
1038
1037
1042
1048
1052
1051
1051
1049
1050
1050
1053
1053
1053
1053
1053
1054
1054
1051
1044
1045
1044
1045
1046
1042
1039
1031
1025
1023
1023
1019
1015
1010
1010
1007
1006
1003
1003
1002
1001
1000
1001
1000
997
995
995
999
1001
1002
998
994
992
995
993
989
987
993
995
997
998
1000
998
997
997
1001
1001
1000
1002
999
1002
1007
1012
1012
1010
1010
1007
1009
1012
1011
1011
1014
1019
1021
1022
1020
1020
1017
1015
1017
1021
1022
1019
1014
1014
1018
1018
1017
1018
1021
1017
1013
1011
1006
996
991
988
992
1002
1002
1001
995
995
995
995
993
989
989
987
989
993
997
995
991
986
982
973
968
965
971
990
1026
1074
1128
1183
1232
1263
1264
1235
1178
1095
998
926
900
904
909
916
926
944
966
975
976
969
972
983
991
993
990
984
981
983
985
985
987
989
991
993
992
991
991
990
994
996
995
1000
1000
1000
997
998
1002
1002
1006
1006
1009
1011
1009
1010
1013
1013
1015
1020
1029
1036
1037
1035
1034
1034
1037
1041
1044
1046
1045
1043
1041
1046
1050
1050
1047
1049
1050
1048
1045
1043
1041
1041
1038
1036
1039
1037
1029
1029
1023
1014
1009
1002
994
991
993
994
992
980
977
980
987
991
985
973
964
965
967
969
971
970
970
972
978
983
980
973
966
966
969
970
967
963
965
963
961
964
964
966
966
966
966
965
962
958
958
962
967
968
975
974
968
970
973
976
975
969
963
962
971
974
968
963
963
965
959
960
962
970
972
972
971
974
970
966
967
974
980
980
977
974
969
969
971
972
976
976
974
970
969
968
968
970
972
977
975
972
972
971
968
965
961
963
961
958
954
952
949
955
958
955
950
946
950
952
952
951
949
954
955
954
958
956
951
946
942
945
944
965
993
1030
1082
1138
1198
1243
1261
1242
1198
1132
1049
953
884
861
863
871
884
904
921
933
935
935
939
945
948
953
951
953
954
953
950
945
948
952
954
956
955
952
951
953
958
960
954
953
954
958
955
952
952
956
962
965
970
967
971
974
983
986
988
987
985
989
994
997
1003
1000
997
998
1003
1008
1010
1014
1015
1016
1021
1023
1025
1023
1021
1019
1024
1028
1028
1025
1023
1019
1016
1016
1013
1006
998
996
991
988
984
976
968
966
961
960
959
957
955
952
952
953
949
948
947
945
942
944
947
945
946
943
943
941
942
944
942
941
941
944
941
942
939
936
939
943
944
947
945
944
946
942
943
943
943
944
943
945
947
947
945
942
943
946
949
949
947
947
954
958
956
956
955
956
957
956
958
954
947
949
951
956
957
958
957
954
952
955
951
946
944
944
947
949
948
944
942
940
944
943
938
936
928
927
929
929
929
927
924
925
927
930
929
926
923
923
928
929
930
926
923
921
921
923
919
918
928
951
990
1034
1083
1139
1188
1235
1258
1247
1195
1114
1021
917
842
818
827
842
854
875
896
911
916
917
919
924
931
932
930
930
929
931
932
938
938
934
927
931
933
938
940
940
936
936
942
944
948
951
951
952
953
958
963
965
965
968
973
976
980
979
981
983
987
991
993
1000
1004
1007
1009
1012
1013
1014
1012
1011
1013
1014
1017
1017
1017
1013
1012
1012
1012
1004
999
996
996
995
993
990
985
983
980
978
976
970
969
963
961
965
964
962
958
955
957
961
960
956
955
955
958
961
959
959
956
954
953
956
958
953
953
951
956
960
962
958
953
951
952
956
959
957
954
953
956
962
962
962
959
954
958
961
962
959
956
954
960
963
966
965
958
962
969
974
979
975
975
974
977
981
983
981
975
971
974
976
978
976
974
970
971
976
975
970
965
963
963
967
966
965
966
967
968
973
970
967
962
958
954
957
954
954
955
957
959
963
961
961
960
957
959
962
961
959
959
958
955
952
952
960
973
1002
1043
1091
1147
1204
1254
1279
1269
1209
1117
1004
904
850
852
881
904
922
932
940
946
957
961
961
953
954
956
960
960
964
963
962
964
964
965
966
967
968
970
971
974
972
969
972
974
974
976
974
972
974
976
980
983
986
985
987
990
993
997
995
995
998
1003
1006
1006
1008
1011
1013
1018
1022
1025
1027
1027
1031
1034
1034
1039
1039
1041
1045
1050
1055
1057
1056
1057
1055
1055
1057
1056
1053
1050
1050
1051
1048
1047
1037
1034
1029
1029
1027
1019
1014
1012
1007
1007
1005
1002
998
993
987
988
987
989
987
983
982
981
982
982
978
975
975
976
977
978
978
977
975
976
975
977
976
975
976
979
983
984
983
980
976
978
982
980
981
978
977
978
980
982
980
981
979
986
984
980
982
980
979
985
988
988
986
985
986
984
986
984
975
970
970
982
999
1029
1072
1120
1173
1231
1278
1298
1279
1219
1136
1038
948
881
872
897
930
956
978
990
994
993
990
989
993
992
989
987
985
989
990
989
990
989
989
991
992
994
993
992
992
994
995
996
993
993
996
998
1000
1001
1002
1003
1002
1002
1006
1004
1005
1004
1007
1007
1012
1015
1015
1014
1018
1020
1025
1026
1030
1028
1029
1029
1037
1040
1041
1042
1043
1047
1052
1053
1049
1046
1045
1050
1053
1054
1050
1049
1047
1048
1047
1045
1044
1041
1037
1038
1037
1034
1026
1019
1018
1019
1014
1012
1006
1002
1003
1000
1006
1007
1006
1001
996
996
998
1000
998
993
992
996
997
998
996
997
995
996
995
995
993
989
991
992
994
992
993
993
992
992
993
991
992
991
992
995
996
997
995
993
992
994
995
995
995
993
993
993
994
993
992
991
990
991
991
991
991
990
989
991
993
994
992
991
991
992
991
994
993
988
985
990
991
994
990
990
990
993
994
994
996
996
996
997
998
999
1001
1002
1003
1006
1008
1009
1007
1006
1007
1008
1012
1011
1008
1004
1002
1003
1005
1003
1003
1000
997
998
999
996
996
991
990
994
995
996
993
988
991
994
994
994
990
987
983
980
979
978
976
977
974
973
977
978
980
973
972
975
976
976
975
974
971
973
970
966
963
964
974
990
1019
1051
1096
1143
1194
1244
1271
1265
1226
1163
1088
1006
924
872
858
866
880
896
916
931
943
953
957
962
965
971
968
963
964
967
970
969
967
964
965
970
968
970
970
967
965
966
969
972
971
971
969
975
978
979
981
980
980
981
984
983
982
984
984
988
989
994
994
989
991
996
999
1000
1001
1001
999
1003
1006
1009
1009
1011
1014
1016
1018
1020
1017
1017
1018
1023
1028
1028
1028
1024
1026
1028
1032
1030
1030
1028
1033
1040
1039
1039
1034
1031
1027
1025
1022
1023
1019
1014
1010
1010
1010
1006
1000
995
989
989
989
989
983
979
976
977
976
976
976
974
976
974
975
976
976
975
972
973
973
973
972
969
970
969
974
976
974
971
973
977
976
978
975
974
976
979
982
982
981
978
977
975
973
976
975
976
974
974
969
970
973
972
974
977
974
972
970
967
967
972
976
978
979
975
973
975
980
983
984
982
983
985
986
986
984
985
983
984
987
982
980
975
975
977
978
977
975
971
972
971
972
972
971
970
971
971
972
973
971
967
965
965
967
968
960
951
946
951
957
958
957
954
953
954
955
959
960
956
957
958
960
960
957
957
955
957
954
949
945
942
942
952
967
992
1022
1062
1107
1155
1202
1227
1221
1187
1137
1074
998
914
859
847
854
863
871
884
902
921
931
937
941
944
945
949
950
953
955
957
955
952
950
954
956
955
955
954
956
958
960
958
960
958
959
964
968
968
965
965
964
972
970
966
965
965
966
968
972
976
976
981
986
989
994
995
994
995
999
1006
1012
1014
1014
1013
1013
1015
1016
1017
1014
1012
1011
1017
1022
1023
1020
1022
1022
1018
1016
1012
1011
1007
1004
1002
1000
1001
995
984
981
982
983
979
973
967
967
968
969
970
966
964
963
963
965
965
962
962
959
961
962
958
953
952
952
953
956
957
955
954
954
955
958
955
952
949
951
955
959
963
959
955
954
956
