961
965
961
963
962
959
949
952
963
979
989
988
977
966
952
942
936
934
936
935
935
939
946
948
944
944
941
944
942
941
939
934
936
941
943
944
939
934
929
932
936
947
969
1001
1040
1084
1131
1175
1208
1218
1198
1155
1084
1002
919
866
849
852
863
874
886
896
914
923
924
929
929
936
939
944
944
946
944
943
943
948
945
943
941
940
941
941
943
946
946
950
959
966
969
965
952
942
946
952
955
956
956
953
954
950
955
960
966
968
974
980
984
984
986
985
990
995
999
1001
1001
999
997
1003
1005
1007
1005
1009
1014
1019
1020
1021
1018
1018
1022
1026
1030
1026
1016
1006
1000
1000
997
996
991
988
991
995
997
992
986
975
964
963
963
960
958
953
954
956
960
962
962
964
968
969
971
971
974
970
965
961
962
965
970
972
981
980
973
965
961
966
971
978
983
983
970
960
959
968
977
973
967
970
971
971
974
975
976
976
973
976
985
988
991
990
989
987
990
996
1000
997
988
984
981
983
981
979
979
980
984
988
985
986
989
992
992
985
978
977
983
986
988
986
983
978
979
977
968
962
954
954
963
972
977
977
975
975
973
972
970
968
966
966
972
982
988
989
985
981
970
958
963
989
1022
1058
1102
1156
1206
1248
1262
1238
1175
1096
1011
925
871
859
873
891
912
929
939
948
957
965
970
973
971
978
982
985
993
999
1004
1009
1000
987
976
971
970
971
983
991
991
984
974
972
979
984
992
995
990
988
994
1000
1006
1011
1018
1020
1019
1013
1011
1011
1022
1033
1049
1056
1048
1034
1021
1012
1015
1031
1047
1056
1057
1055
1053
1055
1056
1055
1051
1047
1051
1057
1064
1064
1065
1063
1064
1064
1064
1062
1058
1053
1046
1046
1052
1056
1049
1044
1038
1030
1024
1021
1015
1004
1002
1003
999
995
997
991
986
984
989
990
990
991
991
995
997
996
995
997
1003
1006
1003
1002
998
998
1002
1007
1015
1016
1009
1002
996
994
999
1006
1010
1013
1015
1011
1009
1002
993
986
984
993
1004
1012
1012
1011
1015
1019
1022
1018
1015
1014
1019
1026
1027
1025
1026
1025
1029
1032
1026
1010
1009
1010
1021
1025
1019
1011
1009
1009
1013
1022
1024
1009
986
971
978
991
1002
1001
999
999
1006
1015
1025
1025
1012
996
989
995
1002
999
996
995
1008
1043
1075
1095
1134
1202
1265
1282
1230
1135
1029
944
912
913
914
925
949
973
988
997
1007
1012
1024
1037
1056
1061
1050
1018
987
978
997
1020
1030
1024
1010
1006
1014
1021
1025
1023
1025
1027
1033
1039
1042
1045
1044
1044
1048
1051
1057
1055
1054
1060
1071
1085
1084
1072
1062
1066
1078
1078
1059
1037
1021
1029
1047
1064
1068
1071
1071
1077
1086
1094
1093
1091
1093
1093
1091
1097
1100
1100
1095
1092
1100
1113
1118
1121
1112
1100
1075
1046
1031
1038
1049
1054
1057
1059
1061
1049
1036
1025
1014
1011
1021
1028
1030
1032
1035
1037
1038
1035
1032
1026
1026
1029
1030
1031
1039
1056
1075
1075
1044
1002
987
1000
1014
1024
1017
1006
998
1007
1019
1030
1027
1018
1012
1018
1023
1026
1028
1027
1024
1024
1029
1038
1040
1038
1035
1041
1048
1042
1029
1017
1018
1021
1027
1030
1030
1035
1047
1056
1053
1039
1014
1003
1009
1025
1041
1048
1055
1053
1057
1050
1035
1029
1029
1031
1034
1040
1044
1048
1043
1035
1032
1036
1043
1040
1036
1034
1037
1038
1038
1038
1033
1037
1038
1032
1025
1024
1025
1021
1019
1019
1023
1020
1022
1026
1022
1014
1010
1017
1023
1034
1047
1041
1023
1003
994
975
960
967
986
1009
1034
1068
1117
1168
1224
1271
1291
1275
1231
1173
1097
1006
932
902
902
913
930
950
975
991
999
999
1007
1019
1016
1006
1011
1023
1025
1018
1004
996
995
996
1005
1010
1010
1008
1011
1013
1010
1010
1013
1019
1025
1020
1015
1018
1030
1037
1035
1025
1020
1022
1034
1049
1058
1055
1048
1040
1033
1026
1020
1019
1023
1031
1043
1053
1055
1059
1063
1069
1076
1078
1075
1073
1076
1081
1079
1077
1074
1076
1079
1084
1086
1094
1097
1099
1104
1112
1121
1121
1098
1064
1036
1037
1052
1065
1073
1078
1065
1055
1043
1036
1036
1039
1037
1030
1023
1020
1022
1025
1024
1021
1019
1025
1031
1029
1023
1029
1029
1029
1028
1033
1041
1044
1036
1020
1012
1017
1021
1010
995
990
989
997
1009
1020
1027
1025
1023
1027
1041
1048
1051
1051
1046
1039
1033
1033
1031
1022
1021
1020
1024
1032
1036
1039
1037
1045
1057
1063
1059
1037
1017
1014
1027
1038
1038
1038
1040
1037
1038
1038
1044
1043
1037
1030
1031
1034
1035
1029
1025
1027
1026
1028
1035
1038
1038
1041
1053
1064
1067
1051
1022
998
994
1006
1013
1006
997
998
1004
1011
1017
1014
1009
1006
1003
1007
1005
1006
1009
1007
1001
1003
1010
1008
996
987
990
999
1015
1038
1064
1092
1137
1187
1235
1276
1297
1280
1244
1185
1112
1025
945
904
904
922
941
951
965
979
989
998
1004
1008
1009
1011
1017
1022
1021
1021
1019
1020
1023
1023
1029
1039
1045
1039
1026
1018
1016
1020
1017
1014
1016
1022
1018
1020
1026
1036
1038
1039
1039
1037
1035
1036
1041
1046
1050
1054
1054
1054
1055
1058
1061
1064
1065
1061
1066
1073
1084
1092
1100
1102
1089
1076
1071
1068
1066
1068
1069
1067
1065
1068
1073
1077
1081
1085
1084
1081
1076
1076
1073
1074
1073
1067
1063
1058
1057
1058
1058
1057
1058
1056
1051
1041
1042
1044
1036
1017
1001
1004
1013
1022
1020
1017
1013
1016
1017
1018
1019
1014
1014
1015
1022
1022
1022
1019
1027
1034
1043
1038
1028
1019
1021
1031
1033
1027
1021
1016
1014
1012
1014
1018
1020
1018
1013
1013
1022
1030
1028
1024
1026
1030
1042
1038
1033
1031
1036
1046
1058
1065
1063
1047
1032
1021
1018
1019
1020
1026
1031
1041
1046
1044
1031
1024
1018
1014
1013
1013
1014
1016
1021
1028
1026
1016
1006
1003
1000
1004
1012
1011
1014
1015
1018
1020
1023
1018
1004
992
986
991
1000
1003
1004
1006
1010
1012
1008
1002
989
980
976
971
973
979
989
1011
1042
1086
1142
1195
1238
1264
1272
1255
1220
1154
1056
954
894
889
901
905
913
920
931
940
945
948
950
954
958
967
971
974
972
970
969
965
971
974
975
975
977
981
984
987
989
986
981
984
985
977
966
964
973
980
991
999
998
989
970
961
964
973
984
992
996
997
1003
1004
1007
1010
1010
1007
1001
997
994
995
1003
1011
1020
1021
1021
1023
1025
1032
1034
1038
1040
1051
1053
1044
1024
1005
999
1004
1012
1017
1024
1024
1022
1021
1019
1017
1013
1009
1008
1003
1001
999
998
1001
997
990
990
993
981
954
947
953
962
967
961
952
945
935
928
927
931
930
917
914
922
928
929
925
918
914
911
915
923
922
928
932
938
940
936
932
934
935
932
927
926
924
916
909
905
911
924
929
931
924
914
905
905
906
906
909
914
914
913
908
908
911
918
920
920
920
912
902
895
891
893
884
887
907
943
996
1056
1116
1172
1204
1200
1164
1105
1022
929
841
793
794
820
841
859
877
886
892
896
899
903
909
912
903
895
888
879
875
873
883
895
904
906
908
906
901
894
892
890
892
895
895
893
889
891
891
895
903
910
912
912
915
911
910
907
908
911
919
922
924
932
939
944
943
932
919
909
907
908
911
920
932
939
940
936
939
946
949
951
948
941
936
942
957
961
959
949
939
933
933
936
940
939
939
937
930
924
921
921
916
906
899
900
903
898
885
876
879
886
889
887
886
890
894
896
903
904
900
885
872
870
877
884
886
892
896
904
914
919
921
915
907
900
899
900
905
909
908
896
876
865
864
875
887
899
899
889
875
873
878
882
887
891
891
888
878
874
877
879
878
879
881
884
885
888
892
903
915
919
911
893
880
874
883
899
914
917
919
927
926
926
918
914
917
915
919
925
932
934
933
934
939
939
929
920
925
935
939
932
927
932
936
932
932
935
939
941
942
935
925
924
929
931
932
940
945
943
925
916
912
914
911
915
923
921
918
919
918
917
913
907
907
908
912
916
922
930
929
929
926
926
929
928
923
921
931
952
985
1020
1053
1097
1149
1195
1229
1225
1184
1115
1015
903
823
799
822
850
866
874
887
898
908
917
921
921
922
917
916
913
918
926
934
937
933
931
937
934
929
927
929
933
937
946
948
941
938
948
962
961
951
938
936
937
941
945
949
948
948
953
954
957
962
966
963
962
967
970
976
977
977
974
982
988
997
998
999
1004
1007
1011
1012
1008
1011
1018
1026
1029
1037
1054
1057
1041
1012
989
977
983
994
1008
1022
1030
1020
994
969
956
961
968
967
969
968
964
965
967
968
961
959
958
966
971
971
962
950
945
948
959
968
979
981
966
949
945
945
949
951
955
957
958
959
959
964
965
965
965
958
952
948
950
954
958
960
963
971
977
981
979
972
963
956
954
953
957
960
969
977
982
978
973
976
982
981
975
968
964
968
971
977
979
984
986
985
982
982
981
986
994
995
985
967
950
947
950
958
960
964
966
973
982
973
957
947
945
953
965
968
974
976
982
985
989
987
980
971
958
957
964
976
984
980
965
954
954
960
971
987
1016
1049
1088
1137
1194
1237
1258
1250
1215
1163
1091
1009
923
871
862
872
886
902
925
947
959
957
959
965
970
972
975
978
978
978
984
999
1014
1009
978
949
952
967
979
984
982
987
986
988
987
991
994
993
988
993
996
1001
1002
1001
1001
1004
1011
1021
1032
1039
1038
1030
1022
1013
1005
997
1002
1015
1028
1039
1046
1050
1049
1038
1035
1036
1041
1043
1044
1048
1053
1052
1050
1045
1051
1059
1067
1069
1062
1063
1068
1073
1080
1073
1055
1040
1032
1031
1030
1024
1009
1005
1009
1016
1022
1023
1014
1004
993
990
990
994
997
998
1000
999
998
996
998
1001
1008
1014
1019
1020
1017
1005
1004
1002
999
1000
997
999
1006
1018
1027
1030
1034
1033
1022
1002
987
984
987
984
982
988
996
998
1002
1009
1013
1017
1018
1017
1013
1009
1010
1006
1008
1010
1016
1022
1030
1043
1057
1059
1049
1035
1022
1018
1020
1023
1022
1021
1027
1035
1037
1030
1027
1029
1030
1037
1041
1038
1026
1019
1021
1024
1029
1028
1023
1019
1018
1020
1022
1020
1012
1005
998
1000
1005
1007
1007
1006
1005
1008
1007
1006
1004
1003
1003
1004
999
1001
1006
1006
1008
1008
1008
1003
995
997
1009
1036
1072
1112
1166
1225
1277
1301
1284
1231
1145
1045
949
909
914
928
934
948
971
992
1001
1002
1001
1006
1018
1026
1023
1020
1021
1019
1021
1026
1030
1024
1018
1012
1012
1012
1018
1016
1014
1009
1007
1014
1017
1018
1019
1020
1030
1035
1035
1031
1025
1023
1028
1035
1035
1040
1040
1042
1046
1051
1051
1049
1051
1055
1058
1057
1061
1067
1072
1074
1079
1077
1074
1069
1071
1080
1082
1090
1097
1097
1086
1084
1086
1081
1071
1066
1072
1074
1075
1077
1077
1072
1068
1065
1065
1070
1065
1057
1048
1045
1048
1049
1048
1043
1036
1031
1033
1038
1043
1048
1046
1036
1025
1016
1020
1018
1013
1007
1013
1021
1025
1019
1019
1017
1014
1013
1011
1013
1020
1022
1033
1046
1053
1051
1040
1018
1000
999
1004
1013
1010
1008
1005
1009
1018
1022
1020
1024
1026
1025
1023
1019
1022
1029
1033
1041
1054
1057
1057
1047
1036
1029
1025
1024
1024
1041
1057
1064
1057
1033
1016
1016
1017
1017
1021
1024
1022
1020
1024
1023
1026
1025
1024
1017
1012
1014
1021
1026
1021
1017
1018
1026
1030
1027
1024
1025
1024
1021
1005
977
957
959
978
991
997
1000
1001
998
1005
1004
1001
1004
1008
1002
999
995
988
986
987
993
1012
1046
1092
1139
1190
1245
1284
1292
1268
1211
1127
1028
932
880
874
887
899
918
944
963
975
979
981
984
990
993
993
991
986
988
991
994
997
996
995
994
991
994
999
999
996
994
996
1010
1026
1027
1016
1000
988
981
983
990
998
1002
1004
1009
1017
1013
1007
999
1001
1013
1019
1014
1013
1013
1014
1020
1029
1033
1032
1034
1040
1045
1049
1046
1039
1042
1048
1052
1058
1058
1060
1058
1059
1059
1062
1057
1046
1034
1030
1032
1029
1028
1024
1023
1019
1018
1018
1017
1012
1004
1000
1001
999
998
995
994
990
987
994
991
987
988
988
990
987
985
984
984
979
978
984
986
988
987
984
986
989
992
1001
1009
1015
1007
985
964
957
963
974
986
990
993
989
983
977
966
962
967
977
982
983
987
984
985
987
986
981
978
983
989
990
995
1001
1004
1000
1004
1007
1010
1004
999
1001
1005
1011
1018
1026
1025
1014
1001
978
962
966
977
985
984
981
978
972
977
986
999
1000
994
986
986
987
983
973
966
963
966
974
977
974
972
979
994
1009
1001
982
971
978
986
986
973
968
971
969
968
965
955
949
958
984
1028
1074
1126
1179
1231
1267
1271
1229
1157
1067
970
892
857
870
891
916
939
955
977
992
992
982
972
971
976
985
988
994
992
982
970
970
972
973
976
977
982
986
986
985
982
977
981
989
990
991
990
993
998
1003
1008
1013
1020
1024
1022
1010
998
994
995
1005
1013
1017
1023
1027
1031
1025
1023
1029
1033
1032
1031
1033
1036
1042
1044
1039
1038
1040
1052
1057
1054
1049
1049
1049
1048
1047
1046
1046
1047
1042
1042
1038
1028
1015
992
975
976
983
982
983
980
975
982
985
983
980
975
973
973
976
978
975
973
973
974
978
978
975
971
970
973
975
973
966
958
957
960
963
967
964
961
957
966
970
969
968
968
970
969
968
962
960
959
957
960
960
960
957
960
962
966
969
972
973
976
974
974
975
975
978
977
973
983
990
990
988
989
991
974
947
933
934
944
945
943
944
947
950
951
951
955
964
965
956
944
941
943
942
938
939
942
946
955
964
955
934
919
916
927
937
937
931
920
918
925
930
922
906
903
917
945
979
1015
1060
1116
1172
1213
1215
1175
1096
1010
913
837
807
814
837
857
874
892
903
907
911
915
920
928
930
932
929
927
927
923
922
919
918
920
922
922
920
912
905
903
904
910
916
922
925
930
933
931
929
923
919
922
929
934
934
934
935
935
940
948
953
952
953
957
957
958
955
952
955
958
963
966
966
966
965
970
977
981
984
980
975
971
964
963
972
973
970
968
968
970
967
963
958
949
943
942
941
939
936
933
927
928
932
930
933
941
942
933
919
906
901
901
901
906
908
910
910
911
909
909
907
911
910
911
910
911
914
916
917
912
911
912
916
914
915
915
911
908
913
921
922
921
920
923
925
922
921
918
916
916
913
908
907
907
913
922
926
927
924
922
920
923
921
921
919
918
913
912
914
913
911
908
907
911
909
909
908
906
906
908
910
913
912
915
918
923
931
932
935
936
942
949
950
953
955
956
957
957
957
956
953
956
955
952
952
949
943
943
942
944
944
938
930
927
926
936
955
988
1035
1089
1143
1190
1219
1210
1169
1110
1030
931
851
820
820
822
831
850
872
884
895
896
895
898
900
907
909
913
914
910
906
909
914
917
919
921
921
922
928
931
935
937
934
931
929
926
931
931
937
937
932
930
929
938
944
945
948
949
954
964
969
975
974
975
978
980
989
995
994
989
988
991
996
996
996
996
1000
1008
1013
1019
1024
1023
1019
1022
1025
1023
1015
1013
1018
1030
1032
1032
1032
1028
1024
1020
1011
1003
995
984
980
978
977
975
968
966
964
961
963
961
954
950
949
950
952
959
957
952
945
944
945
938
934
930
931
942
948
946
939
934
941
949
956
961
965
969
969
964
955
948
943
941
947
955
960
960
966
962
961
956
951
952
949
948
947
956
962
960
956
957
957
959
962
961
959
961
963
963
969
977
980
985
981
979
974
972
972
966
960
965
974
980
977
973
965
960
959
958
960
957
957
958
961
961
956
954
955
959
960
953
949
947
950
948
943
944
940
942
944
949
949
951
948
947
949
952
957
956
948
946
946
947
941
931
924
925
939
959
988
1018
1063
1108
1158
1204
1234
1228
1192
1134
1059
975
900
860
851
850
860
878
906
933
945
943
939
940
948
954
953
950
952
958
961
960
954
951
953
960
962
960
957
953
952
956
957
955
952
950
949
952
956
959
961
958
960
966
977
983
982
980
979
980
985
991
989
987
992
1001
1008
1011
1012
1013
1014
1017
1021
1022
1022
1023
1020
1019
1019
1018
1019
1021
1023
1025
1031
1034
1039
1039
1043
1041
1045
1050
1050
1046
1041
1042
1042
1041
1039
1035
1030
1029
1025
1021
1011
1004
1006
1006
1008
1007
1003
999
1000
1003
1004
1003
1003
1004
1001
1003
1006
1007
1006
1008
1010
1017
1019
1022
1020
1020
1016
1016
1021
1022
1025
1027
1027
1032
1035
1037
1036
1037
1038
1041
1041
1039
1041
1041
1044
1048
1056
1059
1057
1054
1054
1051
1051
1051
1046
1043
1042
1044
1041
1041
1042
1036
1035
1036
1036
1037
1036
1037
1040
1042
1041
1037
1032
1030
1030
1035
1034
1029
1023
1016
1009
1010
1014
1022
1036
1061
1100
1154
1207
1254
1294
1313
1312
1285
1231
1158
1065
983
936
929
940
953
961
975
992
1007
1017
1020
1020
1015
1012
1008
1003
1002
1002
999
1002
1014
1023
1027
1024
1022
1019
1021
1026
1026
1025
1023
1022
1022
1023
1024
1022
1026
1023
1026
1029
1031
1028
1024
1025
1025
1032
1033
1029
1028
1029
1033
1035
1033
1027
1028
1028
1034
1035
1038
1043
1044
1044
1049
1051
1054
1055
1054
1055
1054
1055
1059
1058
1059
1057
1056
1055
1059
1055
1052
1051
1049
1056
1058
1059
1058
1049
1042
1043
1041
1040
1036
1037
1037
1036
1033
1031
1027
1023
1022
1020
1016
1011
1008
1003
1004
1007
1007
1004
1001
1003
1004
1008
1004
1003
1002
997
1002
1001
998
998
996
999
1003
1005
1002
1005
1007
1007
1007
1008
1010
1010
1009
1006
1011
1012
1011
1011
1012
1015
1018
1024
1028
1028
1025
1022
1027
1027
1028
1027
1021
1022
1026
1030
1027
1025
1023
1018
1026
1025
1027
1025
1021
1024
1025
1028
1027
1026
1026
1024
1025
1024
1025
1023
1020
1021
1019
1018
1016
1014
1015
1011
1018
1020
1021
1021
1020
1020
1022
1023
1023
1022
1022
1022
1026
1028
1029
1027
1023
1025
1026
1029
1031
1032
1030
1029
1028
1027
1024
1022
1023
1022
1027
1028
1027
1024
1023
1020
1018
1018
1017
1012
1012
1013
1012
1015
1014
1010
1007
1005
1006
1007
1006
999
994
994
995
997
996
994
992
994
995
999
998
994
996
995
998
1000
998
994
988
985
992
1003
1022
1046
1079
1119
1170
1227
1273
1304
1300
1258
1193
1110
1021
936
889
890
912
937
958
973
981
987
993
998
1003
1001
1003
999
1000
1002
1001
1001
996
994
994
994
994
992
990
997
1002
1009
1012
1011
1006
1003
1005
1009
1010
