968
971
970
970
971
971
971
970
969
971
973
976
982
977
972
973
973
975
978
978
975
974
975
977
978
975
973
970
971
973
973
972
970
969
968
970
972
971
969
970
970
974
979
978
981
981
982
981
981
982
983
982
982
987
988
986
983
982
984
985
987
984
981
979
978
977
976
976
973
973
974
978
980
975
971
967
963
961
960
958
957
955
957
956
958
956
954
952
955
959
963
959
957
957
961
963
962
962
958
953
948
948
953
964
982
1008
1048
1093
1148
1196
1232
1232
1194
1131
1053
958
869
825
825
850
878
901
917
929
940
946
948
955
955
949
952
954
958
959
955
956
957
961
963
960
962
961
964
968
969
968
964
965
971
972
975
975
977
976
977
978
981
980
981
980
983
985
987
989
993
991
996
1003
1004
1007
1009
1011
1013
1017
1018
1020
1022
1025
1027
1030
1034
1037
1036
1037
1033
1035
1041
1042
1040
1037
1037
1040
1038
1038
1034
1029
1026
1026
1024
1021
1020
1011
1008
1001
998
997
991
987
990
987
987
987
983
978
976
975
974
974
971
968
968
970
970
970
965
966
964
966
968
966
963
961
963
962
964
966
965
966
971
972
971
973
973
970
971
972
971
972
968
966
971
974
974
974
972
969
965
968
970
974
977
975
977
977
981
983
985
987
987
986
987
989
988
987
988
987
990
988
983
985
985
985
986
982
979
978
974
976
975
975
972
971
971
974
978
980
980
978
970
966
966
963
962
961
958
962
965
967
964
960
960
957
957
961
961
960
961
962
965
964
961
955
950
952
955
963
978
1002
1042
1090
1141
1191
1223
1227
1207
1159
1098
1017
927
870
854
860
872
882
903
919
933
943
949
952
956
960
960
963
966
964
966
966
965
969
970
968
962
960
961
963
965
967
966
966
968
972
973
973
971
973
980
988
987
985
982
985
991
994
995
992
994
996
997
998
1004
1006
1008
1010
1012
1015
1022
1026
1026
1025
1024
1024
1027
1032
1033
1034
1038
1040
1045
1044
1040
1038
1032
1036
1033
1030
1029
1024
1023
1024
1026
1027
1019
1015
1010
1005
1001
992
987
984
986
985
980
972
969
970
974
974
969
967
963
962
965
965
964
964
964
963
963
970
972
971
970
967
970
969
972
973
969
969
970
971
969
970
972
970
972
975
977
977
971
970
973
974
979
977
972
975
980
985
985
984
986
986
987
990
991
991
990
989
990
989
992
988
987
986
990
990
992
990
988
987
983
985
982
979
974
976
976
979
978
977
975
975
974
975
970
967
962
957
957
959
965
963
960
959
962
965
966
965
965
962
963
967
967
969
965
957
955
952
950
945
940
944
956
979
1010
1048
1094
1142
1191
1227
1231
1201
1144
1078
994
912
862
850
850
862
874
900
923
934
938
938
944
949
952
955
953
952
956
958
962
963
958
958
958
959
959
957
954
953
955
965
967
966
969
971
971
973
971
971
972
974
974
974
978
979
980
981
984
985
989
987
989
992
993
996
1003
1005
1005
1008
1011
1014
1019
1023
1021
1020
1021
1023
1024
1026
1025
1026
1027
1030
1032
1032
1027
1025
1028
1029
1030
1030
1024
1022
1019
1020
1017
1012
1011
1007
1001
1001
993
990
986
985
984
982
983
982
977
974
970
971
971
966
968
964
964
962
967
965
958
959
961
964
968
967
962
959
959
963
966
963
962
963
963
967
968
971
968
965
963
963
964
963
965
962
963
964
967
968
965
964
961
960
961
961
957
954
956
960
964
964
961
960
961
966
970
977
977
971
973
973
977
977
975
975
974
976
973
972
970
969
968
971
973
968
966
962
961
965
966
968
966
963
965
964
965
962
959
958
955
954
952
952
952
951
951
949
952
951
948
950
951
951
956
956
953
952
952
953
962
960
955
949
945
945
949
953
965
985
1014
1049
1095
1149
1205
1243
1253
1226
1163
1071
969
875
829
833
852
871
890
906
925
937
943
947
948
946
947
948
950
951
951
951
953
954
961
958
956
953
953
957
959
959
958
958
961
964
965
966
966
966
967
970
972
970
969
972
974
976
980
980
981
978
982
986
991
991
991
991
994
998
1003
1002
1006
1008
1011
1015
1020
1019
1020
1020
1023
1026
1028
1029
1029
1029
1027
1031
1038
1038
1035
1032
1032
1031
1033
1029
1026
1020
1016
1016
1016
1010
1005
1001
999
997
1000
993
987
983
983
982
979
974
970
970
972
973
976
975
970
969
971
973
976
974
971
969
969
972
972
972
970
966
965
967
971
971
969
964
962
966
971
968
967
967
969
969
974
973
968
967
966
968
970
971
971
963
967
972
976
978
978
973
976
978
981
979
976
977
983
984
987
990
991
991
989
987
987
995
994
993
995
994
992
993
991
990
987
989
988
986
984
981
979
979
979
980
979
974
976
982
983
985
981
977
973
976
976
972
968
964
966
967
968
965
963
963
963
967
971
970
968
965
968
968
972
974
971
967
968
963
962
956
956
963
983
1012
1047
1089
1139
1185
1230
1255
1248
1199
1126
1043
955
876
844
851
874
900
922
941
953
957
960
963
964
964
965
964
965
965
963
969
968
967
967
968
967
967
970
969
968
968
970
973
977
978
975
974
977
978
980
983
985
987
986
990
992
989
991
991
992
990
996
998
998
998
1000
1001
1008
1010
1011
1014
1018
1024
1026
1026
1026
1026
1028
1033
1038
1035
1033
1033
1039
1043
1045
1045
1045
1044
1044
1047
1047
1045
1042
1038
1037
1035
1036
1032
1026
1025
1023
1023
1020
1015
1009
1004
1007
1007
1003
1000
994
989
990
989
991
988
984
983
981
981
982
984
979
977
978
980
983
981
978
975
979
981
983
982
977
977
978
979
980
979
973
974
975
978
979
980
975
978
975
980
978
977
975
974
975
977
977
978
975
974
974
973
975
977
977
977
979
982
986
985
982
980
982
990
994
992
988
987
988
989
989
986
986
982
982
981
983
980
977
975
970
975
976
977
975
976
977
978
978
975
968
964
959
956
957
958
955
956
957
959
960
959
957
957
955
960
962
961
956
956
961
964
962
956
949
943
945
952
966
988
1014
1048
1093
1148
1195
1229
1230
1197
1134
1059
976
888
834
829
850
876
898
918
929
938
943
950
954
955
952
953
955
960
961
959
958
956
957
962
964
961
959
957
960
964
966
967
967
965
962
972
974
972
970
969
974
975
976
977
977
976
977
983
986
986
987
987
992
995
1001
1002
1003
1005
1006
1010
1017
1016
1016
1018
1017
1021
1025
1026
1026
1026
1025
1031
1035
1034
1029
1029
1031
1034
1037
1037
1033
1027
1028
1027
1026
1025
1020
1017
1015
1014
1012
1007
1004
997
992
989
991
989
986
981
979
978
979
977
976
975
972
971
973
973
973
965
968
965
969
969
968
970
971
972
971
969
967
964
966
965
969
966
966
967
967
969
970
968
970
968
966
969
969
968
966
966
963
966
971
971
971
969
968
971
969
970
966
964
966
969
970
972
971
971
976
978
981
978
974
972
974
977
982
981
974
973
975
982
981
976
974
973
971
974
975
971
969
965
967
968
969
966
964
965
966
968
967
965
961
959
953
951
953
951
949
948
946
952
953
952
948
947
947
948
950
951
949
948
947
949
951
947
937
931
932
944
960
982
1010
1044
1093
1146
1193
1216
1198
1145
1071
979
890
824
812
831
862
888
912
927
931
934
938
944
948
947
946
948
949
951
950
950
948
948
949
951
952
951
951
952
953
959
960
958
956
955
959
962
966
970
967
967
969
971
975
974
973
974
979
983
986
987
986
987
988
994
999
1001
1004
1001
1006
1010
1014
1018
1015
1013
1016
1023
1026
1026
1026
1024
1023
1028
1028
1028
1023
1023
1023
1023
1022
1019
1015
1014
1013
1011
1007
1003
1002
996
993
991
987
985
984
980
978
977
978
976
971
966
969
974
974
971
969
969
968
966
970
968
968
965
966
968
969
967
964
963
964
964
966
968
967
963
963
963
966
966
963
963
964
968
971
967
967
965
963
967
969
968
964
964
963
966
967
967
965
964
967
968
973
973
975
974
975
975
974
974
974
974
980
983
987
983
981
978
978
978
981
978
974
975
971
969
970
968
967
966
966
966
966
970
967
967
966
965
963
958
954
952
952
952
953
953
949
949
947
952
953
954
954
955
954
958
963
962
960
956
954
952
954
948
942
941
944
954
974
997
1030
1073
1124
1175
1204
1199
1161
1102
1029
948
871
826
820
837
861
887
908
921
931
935
939
945
947
946
945
944
945
950
951
948
947
949
948
947
947
949
953
953
955
956
957
957
957
956
957
958
956
953
953
955
960
966
974
978
978
976
975
978
982
984
983
982
985
988
992
998
1002
1004
1009
1012
1015
1012
1011
1015
1017
1021
1024
1029
1028
1031
1031
1031
1031
1032
1031
1031
1031
1033
1034
1035
1033
1026
1023
1025
1024
1023
1016
1010
1005
1005
1006
1001
991
986
983
982
983
979
977
976
974
974
977
975
972
973
969
972
973
975
976
976
971
973
977
983
984
984
984
988
990
989
988
987
987
988
992
993
989
983
987
987
989
988
984
979
976
973
972
969
968
965
966
968
971
970
967
965
968
974
974
970
970
965
964
965
966
965
960
958
959
961
958
961
955
943
934
935
944
960
987
1025
1077
1133
1181
1202
1183
1135
1075
1003
917
849
831
853
886
911
931
946
953
954
958
965
969
969
970
964
964
966
967
968
966
967
968
969
977
975
975
970
968
971
973
976
974
973
975
977
978
979
978
979
983
984
987
988
985
985
986
990
995
997
997
995
995
1003
1009
1011
1011
1011
1013
1015
1020
1024
1025
1021
1022
1028
1031
1029
1026
1025
1028
1033
1034
1031
1025
1025
1027
1031
1034
1031
1026
1021
1015
1016
1015
1012
1007
999
999
999
999
992
988
980
978
980
982
982
980
979
976
979
981
980
975
973
970
975
977
975
975
968
964
967
971
972
967
961
965
968
971
970
968
964
969
969
971
970
967
963
962
966
969
970
967
966
966
966
966
967
963
963
963
966
967
966
964
961
961
962
965
966
963
961
961
965
967
966
966
965
965
968
972
969
966
964
963
965
968
968
963
961
960
962
961
962
961
957
957
957
961
960
961
959
961
968
976
977
978
977
981
983
984
984
985
983
983
987
989
987
983
979
981
982
982
984
983
979
976
975
975
971
970
969
971
972
979
982
978
973
969
968
964
960
954
952
952
954
956
956
951
952
951
955
959
960
958
956
959
959
963
962
961
955
950
949
961
970
990
1015
1053
1104
1156
1196
1215
1194
1141
1078
1002
914
849
830
846
868
891
907
921
931
937
945
953
961
959
954
951
952
957
957
957
955
955
959
960
959
956
952
953
957
961
962
963
966
968
972
972
972
970
970
970
972
975
978
979
979
980
986
990
988
987
988
991
993
999
1003
1007
1007
1012
1014
1019
1019
1017
1017
1020
1024
1025
1033
1031
1029
1030
1037
1039
1042
1040
1041
1040
1042
1043
1041
1038
1034
1033
1031
1028
1025
1020
1020
1016
1012
1010
1006
997
993
991
992
988
986
981
981
982
984
986
986
979
977
977
980
976
975
975
975
978
979
982
985
983
981
977
979
979
977
976
974
975
975
978
979
976
978
978
979
978
976
971
971
973
978
982
981
973
973
976
980
983
979
976
974
973
980
984
982
978
975
976
980
981
981
977
980
982
986
988
991
986
982
978
983
990
992
991
983
981
980
979
977
976
973
974
973
973
977
975
975
974
975
975
963
953
949
945
946
949
950
947
946
946
948
952
953
950
945
946
953
958
957
957
956
951
952
946
940
936
935
942
961
987
1014
1048
1092
1144
1191
1216
1202
1162
1110
1047
970
898
858
855
861
864
876
897
917
930
937
940
944
947
949
950
949
945
949
952
955
953
952
948
956
955
954
954
953
951
956
960
962
962
958
959
966
967
971
971
970
970
975
977
976
976
976
979
984
989
990
988
989
989
994
1000
1002
1002
1003
1003
1011
1019
1022
1022
1020
1023
1030
1033
1031
1032
1028
1030
1031
1036
1036
1029
1022
1016
1019
1022
1025
1020
1013
1006
1002
999
996
990
986
983
984
984
984
977
967
963
962
964
965
965
964
965
965
962
961
963
960
960
961
961
959
960
960
960
960
964
963
960
956
957
958
959
958
956
955
955
954
958
960
959
956
955
959
963
965
965
963
963
964
966
965
960
958
959
966
970
970
970
968
968
973
977
978
975
973
971
976
981
980
975
972
969
973
978
982
982
982
981
980
976
972
969
963
964
968
975
975
969
970
967
965
963
957
952
949
947
951
953
951
949
948
948
951
952
952
950
948
949
952
957
955
952
948
944
945
945
945
954
978
1015
1070
1133
1193
1224
1208
1142
1040
926
848
835
858
884
911
931
945
943
939
944
949
956
955
955
953
953
955
961
962
960
957
957
961
964
964
962
961
961
964
967
970
972
966
968
971
974
975
977
975
979
983
986
988
988
986
988
996
1003
1004
1003
1003
1005
1010
1013
1013
1012
1012
1014
1018
1022
1025
1024
1024
1023
1026
1030
1031
1028
1025
1025
1026
1027
1022
1020
1018
1013
1013
1016
1016
1011
1004
1001
999
998
995
991
983
980
979
976
974
973
967
964
967
970
968
965
964
961
963
965
961
962
958
957
959
961
961
959
957
959
961
962
965
963
960
962
961
962
963
957
960
962
965
969
967
965
962
961
964
966
965
962
957
959
963
963
962
963
962
964
968
971
973
975
974
971
972
979
980
978
974
972
970
971
971
967
967
967
968
969
966
964
961
957
956
957
958
961
954
953
957
961
960
957
952
947
946
945
944
943
940
940
943
943
941
937
939
937
940
940
941
939
941
941
941
945
940
936
936
930
926
925
932
943
960
990
1029
1078
1129
1175
1207
1216
1181
1125
1048
956
867
815
813
835
859
880
897
909
918
927
934
934
934
929
929
932
931
928
926
927
929
931
928
929
927
930
935
939
936
933
933
935
940
943
942
939
937
938
940
943
946
944
941
937
944
953
954
954
952
956
959
962
964
961
963
961
967
972
973
973
976
977
979
985
987
987
986
989
991
994
992
992
991
993
994
998
996
992
990
994
998
999
1001
999
996
990
988
985
981
978
973
971
972
971
968
960
955
951
952
953
948
944
942
937
937
938
933
928
925
920
922
924
919
918
917
916
916
920
921
920
916
912
915
915
917
914
916
915
915
915
917
913
914
913
914
916
916
915
911
910
912
915
913
913
911
908
908
909
913
913
912
911
914
914
916
913
914
910
914
912
906
899
897
903
922
950
991
1039
1094
1146
1184
1186
1141
1059
969
879
812
793
811
842
868
886
898
906
912
914
914
908
909
915
918
917
914
914
916
921
919
918
915
911
914
919
922
919
916
914
918
920
921
921
920
918
920
924
927
925
924
922
924
930
931
934
933
934
938
940
941
943
943
946
949
952
954
957
956
959
964
969
969
969
968
970
969
976
978
977
976
977
980
981
982
979
975
976
979
982
980
975
973
973
972
968
965
961
957
950
951
952
948
942
938
934
939
941
937
934
934
931
929
936
937
934
932
932
934
938
937
936
934
935
939
941
941
938
935
936
937
940
941
935
934
933
939
942
943
941
938
941
942
946
944
940
936
938
940
941
944
940
943
942
944
946
946
943
943
946
949
952
949
950
947
943
947
949
950
947
944
943
946
948
948
946
942
943
945
949
950
945
944
945
947
951
950
951
950
947
950
956
959
957
962
962
964
967
966
964
966
967
972
972
969
968
967
965
968
971
972
967
969
966
964
965
966
963
960
962
968
972
967
963
964
967
970
969
967
961
955
956
957
960
956
955
956
951
954
956
960
959
960
960
963
965
961
960
957
957
962
964
965
961
956
952
952
954
963
974
995
1025
1062
1109
1158
1201
1222
1209
1170
1112
1040
953
873
837
840
864
882
900
918
932
945
955
958
961
960
963
966
970
970
970
967
967
969
969
973
969
968
968
970
975
974
972
970
970
972
975
977
978
976
974
976
981
984
984
982
985
991
997
997
997
997
999
1003
1005
1010
1011
1011
1014
1018
1018
1025
1026
1022
1024
1028
1037
1036
1037
1036
1038
1043
1046
1049
1052
1050
1051
1054
1058
1058
1060
1053
1057
1059
1061
1062
1063
1060
1059
1060
1058
1058
1056
1053
1052
1052
1049
1047
1042
1036
1033
1030
1029
1028
1026
1019
1017
1016
1016
1015
1011
1009
1010
1012
1011
1011
1009
1010
1010
1012
1015
1015
1013
1011
1010
1011
1011
1011
1011
1011
1006
1009
1011
1009
1007
1007
1006
1008
1009
1009
1007
1004
1005
1006
1010
1012
1008
1003
1004
1007
1007
1008
1004
1003
1005
1006
1009
1009
1006
1000
999
999
1002
1002
1000
999
1001
1006
1011
1007
1008
1010
1011
1012
1010
1009
1008
1006
1007
1009
1012
1012
1008
1003
1005
1004
1010
1008
1002
997
996
997
1001
999
998
994
993
993
994
993
993
992
990
992
992
989
986
978
974
974
978
979
978
977
978
978
981
982
982
979
978
979
981
980
976
976
974
977
978
980
976
966
961
963
966
975
990
1012
1046
1092
1142
1188
1222
1234
1208
1159
1096
1019
933
869
848
865
884
904
926
942
953
961
965
967
971
974
975
975
979
980
978
974
975
979
981
985
983
982
983
987
989
991
987
987
988
991
992
991
990
989
987
996
997
997
996
995
994
999
1001
1003
1004
1003
1005
1011
1015
1016
1016
1018
1020
1024
1029
1030
1032
1033
1035
1040
1045
1045
1045
1042
1044
1043
1048
1049
1049
1043
1041
1045
1046
1045
1044
1042
1042
1042
1043
1040
1037
1038
1037
1036
1034
1032
1028
1024
1023
1022
1023
1021
1017
1013
1011
1008
