988
990
992
993
993
991
990
994
993
996
994
986
990
991
996
997
997
995
996
999
1002
1006
1008
1005
998
995
995
996
994
989
986
986
988
991
995
994
994
1000
1004
1010
1005
1001
1000
1002
1007
1007
1009
1009
1010
1011
1014
1015
1014
1007
1004
1005
1006
1009
1005
996
992
993
998
998
997
998
999
1002
1002
999
990
981
978
978
983
983
981
976
974
978
979
980
979
974
974
976
980
981
982
978
977
979
981
977
967
957
952
958
975
996
1020
1056
1105
1157
1203
1218
1201
1160
1101
1030
951
895
877
880
893
909
928
944
952
951
953
956
964
967
965
961
960
963
966
967
963
956
958
961
970
970
969
968
962
963
967
969
971
975
975
979
979
975
972
973
975
974
978
979
985
981
982
986
991
997
997
998
998
998
1004
1008
1014
1018
1020
1014
1011
1011
1015
1015
1013
1016
1018
1018
1018
1017
1018
1019
1024
1022
1020
1016
1014
1015
1016
1012
1009
1004
1000
997
996
994
993
988
986
988
987
987
984
978
977
980
983
978
973
970
966
970
971
972
971
967
965
966
967
971
971
969
968
969
977
976
974
971
973
972
973
979
978
974
977
979
986
989
985
978
976
985
989
986
982
981
981
981
986
988
990
987
986
988
987
987
985
985
984
989
993
985
979
973
973
974
971
971
970
968
968
971
972
969
964
964
967
971
972
970
964
959
957
961
965
965
962
954
948
947
944
946
952
962
986
1023
1069
1123
1174
1205
1199
1163
1109
1033
943
879
866
877
887
900
918
932
939
945
947
946
947
947
947
950
953
954
954
951
952
958
960
959
959
957
961
961
963
961
959
957
960
962
963
965
965
963
962
965
967
969
971
972
971
972
972
976
974
975
978
983
987
989
990
992
995
996
999
999
1003
1003
1003
1001
1006
1012
1006
1007
1006
1004
1010
1012
1008
1000
1000
1003
1004
1007
1004
997
996
997
993
990
988
984
981
977
977
973
972
967
967
970
971
970
967
961
960
958
960
962
966
966
962
962
963
967
963
957
951
957
958
961
964
961
965
965
960
961
961
961
961
959
962
966
964
965
964
961
961
963
962
956
952
952
956
956
957
955
953
954
958
960
957
956
955
958
958
962
961
957
956
958
963
964
965
965
966
967
967
966
961
957
954
955
960
959
960
955
954
954
959
960
959
958
955
956
958
957
952
947
945
945
944
943
938
934
932
937
939
939
938
938
940
945
947
948
945
941
941
940
938
934
925
929
937
962
991
1027
1067
1118
1167
1202
1199
1156
1087
999
907
844
837
856
873
888
903
918
931
930
929
927
927
932
935
936
935
934
931
934
934
933
929
931
931
936
939
937
934
937
939
940
940
938
937
938
940
941
943
947
949
947
947
949
954
957
958
958
955
957
961
964
963
965
965
968
974
980
981
982
985
989
990
989
989
989
989
989
992
994
991
989
988
991
995
995
991
985
983
986
987
987
983
978
972
971
968
963
959
956
954
955
958
956
960
958
952
951
952
954
950
949
945
951
952
950
947
942
939
944
950
954
953
949
948
949
952
950
951
948
950
947
945
947
946
943
942
945
949
952
954
950
945
945
945
948
950
947
946
942
946
953
954
954
956
959
963
965
959
961
961
964
965
961
965
963
960
959
962
964
962
955
957
956
954
952
950
949
950
951
952
955
956
954
952
951
951
949
947
942
939
941
939
938
935
936
937
936
939
941
938
935
935
934
937
938
935
932
929
926
927
924
921
920
928
945
969
1002
1042
1088
1136
1180
1202
1193
1155
1097
1016
931
864
846
849
856
871
892
909
916
921
919
920
923
929
931
931
927
927
929
932
933
930
928
928
931
936
937
939
936
937
939
942
944
949
948
946
943
945
945
946
945
950
953
953
953
954
952
949
953
957
959
961
961
964
965
969
974
976
977
981
984
990
991
991
988
989
991
996
996
996
995
993
995
1002
1002
998
994
991
991
995
993
992
990
988
987
988
988
987
983
983
981
976
973
969
966
963
962
959
961
962
960
956
949
950
952
952
949
950
951
956
957
955
953
951
954
957
955
956
953
952
949
954
953
953
951
952
958
961
961
960
958
952
950
949
951
951
949
950
953
956
960
956
953
953
952
955
957
956
957
959
965
969
968
968
966
961
960
962
966
963
960
960
961
967
970
968
967
963
960
961
959
959
953
954
952
953
953
954
956
957
959
962
964
961
957
958
956
953
952
949
945
943
942
945
949
950
947
943
939
938
943
943
939
935
941
942
943
944
942
939
934
934
932
930
931
938
956
982
1014
1052
1097
1145
1195
1225
1229
1190
1131
1064
987
917
864
847
852
865
883
902
915
924
928
926
931
932
934
933
931
930
930
933
936
937
936
936
934
935
937
937
938
936
935
936
935
936
936
937
939
942
946
944
943
944
942
944
943
945
948
947
951
955
956
955
952
954
958
964
965
967
966
967
970
978
982
981
979
979
980
985
988
989
989
987
992
995
997
998
998
997
997
996
996
999
998
1000
997
994
991
987
986
983
980
978
976
974
967
964
965
964
964
960
958
958
953
958
960
958
955
953
953
953
956
956
950
949
951
952
951
946
944
945
952
954
955
955
949
946
946
952
953
952
955
956
955
953
954
954
952
952
951
950
954
950
954
952
953
957
961
962
956
954
956
962
963
959
958
959
961
966
967
965
959
958
960
962
965
967
965
963
963
960
958
954
953
955
958
957
960
958
957
956
955
957
957
952
950
940
941
945
948
946
945
942
942
940
943
943
941
940
944
945
945
946
946
946
946
949
942
933
924
921
924
940
961
988
1026
1072
1124
1173
1202
1206
1179
1134
1079
1008
935
869
845
848
860
877
891
908
923
932
935
936
936
937
934
932
932
937
939
938
934
934
934
932
936
936
937
937
937
938
941
942
941
941
944
947
946
944
942
943
947
952
954
954
953
950
952
957
959
959
959
960
962
967
971
972
971
971
977
981
984
989
985
984
986
989
991
995
995
994
998
1003
1002
999
998
1000
998
1003
1006
1009
1005
1005
1004
1001
1003
1002
998
992
991
991
992
987
984
977
975
972
969
968
968
966
966
968
968
965
963
959
959
962
964
957
953
952
959
961
958
953
953
955
960
966
968
967
963
959
955
959
967
970
965
960
962
962
964
965
962
962
963
962
971
969
967
965
964
967
969
965
965
966
965
966
967
967
966
970
973
978
975
969
966
966
966
967
969
973
976
980
984
984
985
985
986
988
990
992
995
990
981
978
983
989
989
986
977
973
975
975
976
975
974
976
978
980
983
983
984
981
982
981
980
977
973
971
970
973
975
972
966
967
968
969
968
967
962
963
967
971
972
971
970
968
962
962
960
959
958
966
984
1014
1045
1088
1137
1183
1227
1241
1221
1176
1114
1040
956
896
879
884
891
900
911
931
946
952
950
947
953
959
964
963
960
958
957
954
960
961
959
962
964
968
970
965
965
963
966
970
972
974
971
968
972
975
976
975
977
979
978
977
979
982
980
982
986
989
992
996
995
999
1003
1009
1011
1013
1012
1014
1016
1020
1023
1024
1019
1021
1023
1024
1025
1029
1030
1026
1029
1030
1030
1031
1028
1026
1024
1026
1024
1023
1019
1016
1016
1016
1011
1012
1009
1004
997
992
995
992
991
987
984
981
981
982
982
981
979
979
981
978
978
975
976
977
980
982
977
976
978
981
984
982
980
979
974
978
983
982
983
981
978
980
984
984
984
983
981
978
978
980
982
983
983
985
988
987
987
988
991
993
990
989
991
992
1001
1004
999
997
996
1000
1006
1008
1012
1007
1004
997
993
998
1000
996
995
996
995
997
996
994
995
997
996
996
999
999
996
992
995
995
997
993
988
982
983
982
979
977
977
977
980
981
985
986
982
982
986
989
988
987
985
982
983
981
975
970
968
968
976
997
1027
1067
1113
1166
1219
1258
1277
1257
1205
1133
1046
957
897
884
894
908
922
940
956
965
967
968
971
974
978
976
980
979
976
977
980
980
981
978
976
979
983
983
986
983
987
989
989
987
984
984
985
989
990
991
987
993
994
995
998
994
994
998
1002
1005
1011
1012
1011
1010
1016
1016
1018
1016
1019
1022
1027
1032
1037
1035
1034
1031
1032
1036
1044
1045
1042
1041
1045
1048
1048
1047
1041
1042
1041
1046
1046
1044
1040
1035
1027
1024
1027
1028
1022
1013
1010
1009
1013
1007
1001
996
993
998
1002
1001
999
999
1000
997
997
997
996
994
995
998
1002
998
994
994
997
1000
999
997
992
994
993
994
997
997
994
993
993
994
996
995
998
998
1001
1003
1002
999
999
998
999
1004
1003
998
993
992
994
1000
1003
1006
1006
1006
1012
1016
1014
1013
1010
1011
1016
1019
1011
1009
1007
1010
1015
1016
1017
1010
1009
1006
1005
1005
1002
1003
998
999
997
1002
1007
1007
1001
998
996
995
994
989
991
991
988
994
998
998
994
988
988
993
994
995
992
991
991
994
996
991
984
975
971
976
982
996
1018
1051
1093
1153
1212
1261
1277
1256
1205
1133
1044
955
897
886
900
920
939
953
968
972
976
984
986
983
981
980
983
987
989
990
986
985
986
989
993
993
991
991
987
989
991
990
991
991
997
999
1001
999
997
995
997
1001
1009
1006
1006
1008
1008
1009
1016
1018
1019
1020
1018
1021
1029
1030
1032
1031
1039
1040
1044
1048
1047
1047
1049
1057
1061
1060
1060
1060
1058
1060
1060
1057
1055
1054
1054
1058
1059
1059
1054
1046
1045
1047
1047
1042
1039
1035
1036
1036
1033
1029
1020
1015
1012
1012
1012
1014
1007
1005
1006
1007
1010
1010
1008
1008
1007
1006
1007
1010
1006
1006
1009
1010
1006
999
995
997
1002
1002
1004
1006
1006
1007
1008
1009
1008
1008
1007
1007
1007
1003
1005
1004
1008
1009
1007
1005
1000
999
1002
1001
1003
1004
1004
1003
1000
1002
1007
1011
1015
1014
1011
1009
1009
1014
1019
1020
1017
1016
1019
1018
1020
1020
1020
1017
1013
1015
1013
1010
1004
1002
1003
1004
1007
1009
1011
1012
1009
1006
1005
1002
996
988
989
991
994
997
991
987
983
983
991
992
985
986
984
988
990
989
985
985
984
987
983
977
972
972
985
1010
1040
1076
1123
1175
1226
1264
1267
1233
1165
1091
1000
920
884
885
901
913
931
948
962
971
971
974
978
980
982
980
974
972
972
978
979
978
980
982
985
987
985
983
984
984
982
984
988
992
989
988
990
993
996
992
987
991
996
999
1000
1000
1001
1005
1012
1016
1018
1014
1015
1016
1021
1028
1031
1031
1031
1035
1038
1045
1045
1037
1034
1037
1039
1042
1044
1044
1045
1047
1044
1050
1048
1043
1039
1036
1035
1034
1031
1029
1028
1021
1017
1017
1013
1012
1009
1005
999
998
995
993
991
989
991
993
996
995
993
992
993
993
993
986
988
987
986
988
988
989
984
978
976
980
985
986
984
983
985
988
992
991
983
981
982
982
981
984
982
983
982
981
988
983
985
984
988
996
1001
998
992
988
990
995
996
991
987
987
985
984
986
991
991
987
985
989
991
992
988
986
980
975
974
974
970
964
968
974
980
977
967
962
959
963
971
971
966
966
967
971
972
968
961
956
957
953
949
947
948
956
977
1012
1055
1102
1150
1195
1222
1222
1196
1142
1069
983
907
877
880
891
901
910
928
945
954
952
950
949
954
960
962
961
958
959
959
960
968
968
967
961
958
960
964
961
959
958
957
962
966
967
970
967
965
968
971
971
969
967
967
973
977
980
983
988
993
997
996
998
994
990
989
998
1005
1007
1006
1007
1010
1014
1015
1017
1018
1020
1022
1024
1024
1024
1022
1025
1021
1023
1021
1019
1015
1012
1010
1011
1011
1010
1000
996
989
986
986
985
979
976
972
973
974
972
968
969
970
971
973
972
970
972
973
976
972
969
961
958
957
964
967
970
967
966
969
970
973
971
969
968
968
967
967
966
970
972
972
973
975
974
968
969
968
970
973
976
975
974
971
973
975
973
969
970
972
975
977
977
972
971
972
974
974
974
970
968
974
977
980
978
974
975
976
978
981
980
983
984
990
990
993
992
990
985
986
989
992
992
988
983
981
979
979
980
981
980
975
978
983
983
980
980
980
978
975
971
967
967
971
973
973
973
974
968
968
971
974
970
974
971
971
973
971
974
970
965
960
962
977
996
1026
1067
1118
1173
1220
1251
1241
1196
1135
1059
971
896
869
877
896
909
924
937
949
957
959
965
968
969
969
965
965
970
975
973
974
971
975
981
982
983
981
979
978
980
980
979
977
978
981
984
986
987
986
990
994
997
997
997
1001
1008
1016
1020
1028
1029
1024
1026
1023
1024
1028
1033
1037
1038
1043
1046
1049
1047
1048
1047
1045
1048
1048
1050
1047
1042
1040
1039
1042
1041
1043
1039
1035
1036
1035
1033
1026
1021
1020
1019
1016
1012
1017
1016
1013
1011
1013
1009
1007
1005
1002
1005
1002
1000
998
997
995
1001
1004
1005
1004
1002
1002
1004
1009
1007
1004
1007
1008
1011
1013
1009
1006
1007
1011
1016
1016
1016
1014
1013
1015
1019
1025
1027
1026
1027
1027
1032
1030
1025
1018
1018
1019
1021
1025
1021
1014
1013
1014
1017
1019
1018
1020
1022
1024
1023
1026
1027
1025
1022
1024
1023
1022
1022
1021
1023
1025
1026
1026
1023
1020
1020
1025
1029
1032
1031
1028
1023
1022
1028
1028
1023
1019
1016
1013
1015
1015
1017
1013
1007
1007
1010
1019
1015
1011
1010
1007
1005
1010
1013
1010
1010
1017
1023
1021
1019
1015
1008
1006
1008
1012
1016
1028
1046
1075
1115
1171
1230
1277
1290
1267
1218
1158
1078
990
933
919
932
947
962
975
987
997
1000
998
999
1009
1014
1014
1012
1015
1013
1010
1006
1009
1013
1015
1017
1011
1010
1011
1014
1015
1017
1019
1018
1022
1020
1023
1020
1021
1022
1029
1035
1040
1043
1038
1038
1038
1042
1048
1053
1054
1056
1055
1058
1060
1063
1059
1063
1063
1067
1068
1068
1071
1072
1078
1087
1094
1096
1092
1086
1080
1080
1085
1088
1091
1092
1092
1093
1094
1094
1089
1086
1088
1092
1093
1088
1082
1075
1071
1071
1069
1066
1060
1055
1052
1050
1052
1054
1049
1041
1033
1032
1038
1040
1036
1032
1035
1036
1036
1032
1027
1032
1037
1035
1035
1036
1034
1033
1035
1036
1038
1036
1033
1032
1034
1039
1043
1046
1046
1039
1039
1040
1048
1051
1050
1046
1048
1049
1051
1052
1057
1052
1052
1049
1047
1044
1048
1048
1048
1047
1051
1054
1054
1052
1052
1051
1053
1048
1046
1045
1048
1051
1051
1055
1061
1064
1068
1069
1067
1067
1065
1059
1058
1061
1066
1064
1062
1059
1063
1062
1064
1058
1056
1052
1052
1051
1052
1047
1043
1043
1042
1045
1046
1045
1042
1041
1042
1048
1045
1043
1039
1037
1038
1040
1041
1039
1036
1035
1035
1039
1043
1040
1035
1033
1033
1033
1031
1032
1041
1058
1085
1122
1161
1206
1254
1296
1317
1309
1275
1222
1149
1073
1000
966
964
973
980
990
1004
1020
1030
1031
1026
1021
1021
1021
1026
1030
1029
1027
1028
1030
1035
1033
1030
1030
1032
1038
1043
1041
1037
1032
1035
1040
1051
1051
1047
1044
1045
1047
1046
1051
1048
1045
1048
1053
1054
1054
1055
1057
1057
1063
1065
1068
1065
1062
1069
1081
1089
1090
1087
1085
1091
1104
1113
1123
1130
1131
1127
1121
1119
1117
1112
1108
1104
1105
1105
1108
1112
1114
1114
1117
1118
1115
1111
1112
1108
1111
1108
1108
1108
1111
1106
1105
1102
1097
1088
1083
1078
1080
1082
1084
1084
1079
1073
1071
1072
1067
1062
1055
1053
1062
1068
1074
1068
1059
1055
1058
1057
1060
1062
1062
1067
1071
1077
1078
1079
1081
1083
1084
1080
1077
1076
1072
1069
1067
1066
1070
1072
1071
1069
1071
1078
1079
1072
1072
1084
1095
1103
1092
1081
1075
1074
1069
1068
1069
1074
1079
1090
1097
1101
1104
1104
1101
1099
1099
1097
1098
1095
1098
1099
1100
1105
1106
1106
1103
1097
1087
1075
1072
1075
1081
1086
1089
1090
1088
1081
1078
1078
1075
1070
1071
1074
1076
1081
1081
1081
1077
1076
1078
1080
1084
1090
1094
1088
1072
1065
1067
1072
1072
1070
1064
1060
1056
1051
1054
1069
1090
1115
1143
1173
1219
1263
1302
1339
1358
1347
1298
1228
1145
1055
990
978
990
1005
1014
1029
1044
1053
1057
1059
1058
1064
1067
1066
1067
1064
1065
1065
1067
1065
1069
1071
1074
1077
1072
1065
1064
1062
1062
1063
1066
1070
1072
1074
1076
1079
1086
1086
1079
1074
1072
1077
1079
1082
1085
1091
1100
1099
1091
1086
1087
1089
1089
1091
1100
1109
1112
1120
1125
1128
1127
1123
1116
1112
1115
1120
1124
1127
1131
1134
1133
1134
1135
1136
1132
1129
1126
1126
1128
1133
1130
1124
1119
1115
1116
1117
1115
1105
1096
1092
1096
1101
1103
1100
1091
1091
1095
1104
1109
1106
1100
1096
1094
1096
1101
1105
1106
1108
1119
1135
1145
1136
1112
1099
1108
1131
1139
1135
1130
1136
1136
1117
1076
1040
1037
1055
1074
1078
1075
1073
1074
1078
1080
1079
1074
1071
1069
1069
1071
1070
1076
1079
1076
1075
1073
1078
1082
1080
1074
1074
1075
1079
1082
1082
1081
1081
1085
1088
1084
1076
1062
1056
1051
1054
1062
1077
1099
1140
1189
1237
1278
1308
1318
1302
1258
1205
1127
1042
990
980
994
1012
1024
1034
1047
1056
1062
1067
1067
1063
1061
1064
1067
1071
1069
1065
1063
1063
1061
1059
1058
1058
1058
1057
1058
1063
1066
1067
1072
1074
1076
1078
1077
1075
1077
1070
1069
1070
1075
1074
1075
1079
1081
1083
1085
1084
1085
1085
1092
1098
1099
1099
1103
1110
1117
1122
1124
1124
1128
1131
1137
1135
1133
1129
1127
1118
1120
1128
1130
1128
1125
1130
1130
1125
1116
1104
1100
1103
1108
1110
1102
1097
1092
1089
1091
1089
1086
1082
1080
1078
1079
1073
1079
1074
1069
1062
1060
1064
1076
1081
1078
1059
1046
1042
1043
1046
1051
1053
1058
1062
1059
1061
1057
1054
1055
1056
1056
1053
1048
1047
1050
1053
1054
1051
1050
1052
1054
1056
1059
1060
1057
1054
1054
1058
1059
1058
1056
1054
1053
1056
1054
1053
1057
1055
1053
1053
1059
1059
1059
1057
1057
1061
1062
1055
1051
1050
1056
1060
1058
1049
1050
1055
1058
1057
1051
1050
1048
1050
1053
1055
1051
1050
1050
1049
1052
1056
1057
1054
1052
1052
1051
1058
1054
1051
1051
1052
1055
1058
1059
1057
1058
1060
1065
1074
1074
1072
1072
1070
1067
1061
1059
1057
1053
1054
1061
1066
1063
1060
1053
1053
1051
1051
1057
1063
1062
1059
1064
1067
1061
1050
