1015
1017
1022
1026
1027
1027
1030
1032
1038
1040
1043
1043
1044
1044
1049
1051
1050
1048
1049
1050
1054
1056
1053
1046
1041
1040
1042
1041
1039
1034
1029
1022
1024
1024
1019
1016
1013
1010
1010
1009
1004
998
993
992
993
994
993
990
984
987
991
991
988
984
984
987
991
991
990
990
991
988
989
993
995
993
989
986
986
986
984
982
981
981
986
990
990
987
986
988
988
990
988
987
988
987
991
993
990
988
989
990
992
998
997
994
993
993
996
998
999
997
997
1001
1003
1009
1011
1011
1013
1011
1011
1014
1014
1014
1015
1016
1016
1013
1008
1005
1002
1004
1005
1006
1006
1001
998
996
995
992
992
991
990
990
994
997
997
998
995
995
993
991
990
987
980
982
981
982
983
982
984
984
987
988
989
984
983
981
983
986
986
985
984
983
987
985
984
982
976
971
969
977
989
1010
1038
1078
1125
1173
1223
1259
1272
1261
1220
1163
1087
1002
922
878
869
881
893
906
926
946
960
964
966
968
967
971
974
975
978
978
977
978
980
981
981
980
980
982
985
986
985
983
982
981
985
985
987
985
984
986
992
993
991
990
992
995
999
1000
1000
1001
1003
1006
1006
1011
1011
1014
1016
1018
1023
1023
1025
1026
1026
1035
1039
1038
1041
1044
1043
1046
1048
1052
1053
1052
1053
1053
1057
1059
1059
1055
1055
1057
1055
1056
1053
1050
1047
1048
1047
1043
1039
1035
1032
1029
1029
1030
1024
1018
1017
1013
1013
1012
1004
1001
997
998
1000
1000
999
996
998
997
996
994
992
991
992
989
994
995
998
994
995
995
996
998
997
996
994
996
995
997
997
996
995
997
1001
1000
999
998
999
1000
1000
1002
1000
1000
1000
1003
1003
1004
1005
1006
1003
1004
1003
1007
1005
1004
1001
1008
1011
1012
1012
1011
1014
1017
1015
1017
1014
1014
1015
1016
1021
1015
1013
1011
1012
1013
1017
1017
1014
1012
1007
1010
1011
1008
1006
1005
1004
1006
1007
1008
1012
1008
1007
1007
1007
1006
998
990
987
987
989
992
991
989
988
991
996
993
992
993
992
992
996
996
992
989
989
990
992
993
992
987
980
975
980
988
1007
1034
1066
1107
1156
1206
1254
1286
1289
1260
1201
1128
1037
944
885
873
886
901
918
932
947
958
972
978
981
982
983
982
983
985
982
982
985
983
985
988
990
984
980
981
983
989
988
988
985
983
984
984
984
980
983
986
986
987
987
986
985
987
991
995
999
997
999
1003
1002
1003
1002
1003
1008
1009
1016
1018
1017
1020
1025
1024
1028
1034
1037
1037
1034
1037
1038
1041
1041
1041
1040
1039
1042
1044
1046
1045
1044
1047
1051
1050
1043
1039
1036
1031
1028
1027
1022
1019
1015
1013
1012
1009
1007
1003
999
996
995
995
993
989
985
983
986
992
988
989
986
982
982
981
975
973
969
974
979
981
977
976
977
975
978
980
980
976
977
976
978
978
978
975
973
975
979
977
973
970
967
969
972
973
974
971
965
967
970
971
971
966
966
966
969
969
973
970
971
972
979
983
984
985
987
986
988
991
993
993
990
993
995
995
993
990
991
990
994
995
994
994
994
994
992
991
988
987
990
991
994
994
993
992
991
991
993
990
985
981
976
975
977
978
981
979
977
975
976
979
979
977
978
981
979
984
983
982
978
975
974
978
970
962
960
972
992
1024
1059
1099
1143
1194
1245
1272
1263
1211
1136
1040
951
891
876
885
899
916
941
959
968
970
972
977
979
983
979
975
975
970
973
976
975
973
973
975
980
984
986
981
980
981
982
978
979
981
979
979
982
985
984
987
986
991
996
1001
1001
999
996
1001
1002
1007
1008
1007
1008
1013
1023
1029
1033
1036
1043
1050
1055
1058
1054
1047
1043
1038
1035
1039
1038
1041
1040
1040
1042
1046
1049
1050
1046
1045
1042
1037
1034
1032
1032
1034
1034
1029
1026
1020
1018
1018
1017
1014
1008
999
999
1002
1005
1013
1015
1007
996
987
991
991
992
986
986
989
996
997
992
988
988
984
988
985
985
983
989
992
993
990
990
986
987
987
991
997
1002
999
1000
997
992
997
995
995
996
999
998
1002
1004
1003
1006
1007
1006
1004
1003
998
1001
1002
1006
1002
999
994
994
994
1000
1004
1005
998
993
988
985
986
986
984
986
983
983
982
982
980
981
981
982
984
983
984
984
986
987
987
984
979
972
971
966
962
962
965
976
996
1025
1060
1103
1153
1201
1234
1240
1213
1161
1093
1010
931
891
889
888
891
897
916
937
956
962
962
960
964
972
975
969
968
966
969
970
970
970
971
968
968
970
970
969
966
970
973
980
978
972
965
965
971
980
986
984
981
980
982
983
988
986
984
978
977
980
992
993
993
997
995
998
999
999
1001
1005
1007
1006
1008
1015
1017
1019
1022
1021
1025
1027
1032
1030
1031
1033
1028
1027
1024
1023
1027
1033
1035
1028
1018
1007
1002
1003
1005
999
990
983
982
983
980
976
969
963
959
956
958
956
956
952
951
949
949
950
950
949
950
949
953
952
950
949
950
953
952
951
946
947
948
950
948
942
943
941
943
944
944
944
940
935
933
938
940
942
939
942
942
943
944
943
941
937
936
938
940
939
939
940
942
942
946
941
934
933
931
932
935
934
933
930
932
932
935
938
936
936
934
932
937
937
937
936
935
939
941
943
943
940
936
937
937
937
934
935
935
937
941
939
939
934
933
930
928
925
923
921
923
925
926
931
927
924
922
925
924
919
914
913
914
911
910
910
908
909
907
904
905
903
902
904
905
906
905
905
901
901
899
896
896
898
904
920
951
993
1035
1082
1129
1173
1196
1187
1145
1079
997
906
828
794
797
803
805
813
833
853
868
871
870
871
880
882
890
889
882
882
881
884
888
891
889
887
881
882
884
886
885
884
885
891
893
889
888
887
889
892
894
895
895
894
896
903
904
902
898
899
902
904
909
910
914
914
916
920
925
928
926
922
923
931
939
944
944
945
944
944
955
958
959
957
956
957
962
960
958
954
955
957
960
956
956
952
948
945
945
941
935
931
928
929
924
922
917
917
914
915
915
914
907
902
900
904
906
905
899
895
891
903
904
900
901
900
899
899
903
903
901
898
899
900
904
906
904
902
904
907
906
905
903
903
904
906
907
910
910
910
906
907
908
908
906
906
906
908
911
912
911
914
913
918
921
924
924
924
925
928
933
932
931
934
933
932
932
930
929
929
932
933
938
939
935
930
929
924
926
924
922
922
920
917
924
926
924
924
921
920
917
915
909
909
910
912
916
915
914
914
915
918
919
919
920
920
924
928
929
929
924
919
919
922
923
921
918
920
935
963
998
1044
1093
1144
1185
1217
1225
1192
1128
1048
960
872
828
827
837
849
866
887
910
916
919
921
924
927
928
927
926
927
926
928
932
937
937
937
938
941
945
949
949
949
952
953
954
953
950
949
948
955
956
957
956
954
954
962
963
962
963
965
967
970
973
979
979
980
984
989
996
999
1000
1004
1005
1012
1017
1018
1018
1017
1023
1029
1034
1034
1031
1029
1032
1034
1032
1031
1024
1023
1021
1020
1021
1020
1011
1007
1003
1002
1003
999
994
987
984
983
984
985
984
980
978
978
979
982
981
981
982
983
985
984
981
981
982
985
988
988
986
984
984
989
992
991
986
983
980
985
986
986
980
983
982
985
990
990
989
988
987
991
992
990
990
989
987
989
991
990
991
987
985
987
990
991
991
994
995
1003
1005
1006
1007
1005
1004
1006
1010
1013
1011
1005
1003
1004
1007
1007
1007
1005
1002
1005
1006
1009
1007
1002
999
1001
1004
1006
1005
1003
1003
1003
1005
1003
1002
996
989
989
992
995
997
995
996
992
987
987
989
987
985
986
993
993
989
986
984
985
983
978
972
974
984
1010
1041
1081
1128
1179
1229
1269
1290
1269
1217
1139
1048
952
884
868
876
892
910
934
953
964
969
970
974
980
984
984
981
979
981
985
986
985
984
984
985
988
989
988
988
987
986
990
992
992
989
989
989
994
993
995
993
994
996
999
1000
1000
999
999
1002
1007
1009
1009
1010
1013
1014
1018
1021
1025
1030
1030
1032
1033
1039
1044
1044
1048
1047
1051
1053
1056
1057
1058
1059
1061
1062
1061
1059
1061
1057
1056
1053
1050
1049
1043
1034
1036
1036
1033
1025
1024
1019
1015
1012
1014
1006
1005
1003
1002
1000
998
995
995
992
992
996
995
994
992
988
987
988
991
991
989
987
991
990
993
992
989
988
987
992
992
989
986
984
983
985
987
985
984
983
983
988
988
986
982
984
987
988
990
990
987
985
986
992
990
989
986
985
989
992
994
990
988
991
995
998
1000
997
996
994
997
1001
1001
996
996
994
997
999
1000
999
995
993
994
993
993
990
985
983
986
990
989
986
981
984
988
987
985
982
978
977
975
977
979
978
976
976
977
973
972
973
972
972
975
974
974
973
969
965
969
967
963
960
957
962
980
1009
1046
1093
1142
1199
1249
1272
1249
1179
1087
983
897
860
866
885
901
919
938
948
954
954
958
959
964
961
961
962
959
959
956
963
964
965
964
965
965
968
969
969
969
966
971
971
976
975
973
975
980
984
984
984
984
983
987
989
992
993
993
995
1000
1006
1008
1013
1015
1017
1026
1035
1045
1049
1049
1051
1051
1053
1055
1055
1055
1055
1055
1051
1053
1046
1042
1038
1040
1035
1030
1023
1016
1008
1004
1001
997
995
992
990
988
990
988
986
981
983
979
982
983
980
978
974
974
975
977
976
975
972
973
974
975
975
973
971
975
977
977
975
968
966
967
967
971
970
967
966
970
972
976
974
971
970
974
976
977
978
975
972
968
967
966
969
987
1019
1065
1123
1183
1244
1288
1301
1267
1186
1086
983
898
860
880
914
942
959
969
974
978
978
970
964
962
966
967
967
969
968
967
966
966
971
970
970
967
969
970
971
974
976
975
975
977
981
984
984
982
979
975
978
979
983
981
977
980
981
983
988
988
991
991
992
993
994
999
1000
1004
1006
1008
1010
1012
1014
1018
1016
1016
1014
1014
1017
1022
1021
1023
1022
1015
1013
1014
1015
1016
1014
1010
1009
1005
1004
997
991
990
988
988
985
981
975
969
964
964
964
964
959
963
965
966
964
960
958
956
956
957
960
960
955
949
950
952
954
953
953
950
948
950
953
955
956
951
951
948
952
956
957
958
960
960
958
953
952
949
951
951
954
960
961
956
949
946
945
948
949
945
947
944
950
949
953
948
943
944
947
949
948
944
942
943
948
948
949
945
943
943
947
948
946
943
941
940
941
941
942
940
939
940
937
941
942
946
946
945
945
941
936
933
929
932
934
938
937
937
938
940
940
940
946
949
950
955
961
962
960
950
949
951
953
951
949
949
948
947
948
949
949
948
947
948
952
955
952
947
939
935
939
943
946
942
938
937
938
939
940
935
928
926
926
925
928
930
930
932
925
924
927
924
927
925
927
927
928
929
929
931
927
924
918
915
920
931
947
971
998
1037
1083
1136
1183
1216
1215
1181
1121
1047
967
892
846
835
837
838
838
850
869
886
892
900
905
910
914
916
917
922
924
924
920
915
915
920
923
925
926
927
928
931
935
936
932
927
926
930
931
934
932
930
926
929
933
940
941
942
938
939
941
945
944
941
944
950
956
954
950
951
957
963
967
968
969
972
972
977
982
986
986
984
981
983
987
987
992
993
992
993
990
995
996
993
991
992
995
998
997
992
987
988
986
983
982
977
975
976
973
975
972
964
960
961
962
964
963
964
957
953
951
949
948
949
947
945
950
954
949
946
945
949
952
955
952
943
942
941
943
947
945
945
945
948
949
951
947
943
942
948
952
955
955
954
952
951
951
954
953
953
951
953
958
959
958
955
954
953
957
957
955
953
955
958
961
958
957
955
952
952
952
953
951
949
949
948
951
951
956
958
959
962
964
966
965
961
960
962
966
967
962
963
963
965
962
964
960
960
964
964
966
964
962
961
956
959
962
966
963
962
958
958
962
961
953
950
944
944
943
941
938
938
940
941
944
941
937
936
940
942
946
946
945
941
937
938
939
943
945
942
944
947
942
939
935
927
935
943
965
993
1028
1063
1107
1155
1201
1224
1221
1185
1133
1067
988
909
856
843
849
855
866
887
903
914
919
924
925
929
928
930
932
935
939
936
935
931
933
936
939
940
943
942
947
950
956
956
946
939
936
940
947
953
959
959
957
956
955
956
953
952
954
957
962
963
965
964
970
982
996
1000
997
991
982
983
988
996
1000
999
1001
1008
1015
1017
1009
1001
996
999
1003
1009
1010
1005
1000
1000
1000
1004
998
993
991
995
997
1001
1000
997
993
992
986
982
975
967
964
962
964
962
960
959
958
958
959
958
956
955
956
956
956
960
957
954
950
951
954
962
964
960
957
959
965
969
968
962
959
959
963
966
965
959
960
963
967
972
973
976
977
968
959
957
960
963
966
966
973
970
969
969
973
976
977
975
974
973
972
969
966
967
972
970
964
963
962
966
969
971
973
976
986
996
1003
1000
988
970
966
965
971
972
972
972
979
982
976
972
968
972
972
973
972
974
981
990
993
982
973
966
965
965
961
954
953
958
961
965
962
961
959
960
962
961
963
967
962
958
959
962
965
959
952
955
953
960
958
961
958
953
948
946
950
957
964
985
1019
1063
1111
1157
1200
1236
1251
1245
1206
1145
1071
985
900
854
847
857
862
875
897
914
926
935
938
941
942
942
945
944
943
945
943
947
947
946
946
945
947
948
951
950
950
950
945
941
950
955
955
953
951
956
960
963
963
958
956
954
957
960
962
961
961
964
969
973
977
980
982
992
999
1002
998
1000
999
999
997
996
997
996
992
997
1005
1008
1008
1007
1009
1012
1013
1013
1014
1015
1014
1017
1023
1027
1028
1029
1024
1024
1026
1029
1024
1010
997
989
989
990
986
985
980
980
977
978
976
975
968
968
972
975
975
970
967
966
962
957
949
945
945
942
940
941
946
950
953
949
949
950
946
941
941
939
943
943
943
946
947
947
947
947
943
941
942
942
943
944
944
939
939
941
948
952
952
951
953
958
957
948
941
938
942
945
946
950
952
950
945
943
943
946
945
942
930
921
926
942
966
999
1046
1103
1164
1219
1255
1262
1237
1177
1095
1006
918
856
855
874
897
911
919
925
932
938
942
939
936
934
938
940
941
941
941
941
940
940
940
942
943
942
940
942
945
946
946
946
943
945
952
954
955
948
948
951
955
956
958
960
960
963
970
974
975
975
975
977
978
975
974
975
978
981
987
992
997
993
995
1000
1003
1008
1006
1004
998
999
1005
1005
1006
1003
999
997
997
994
987
983
985
986
982
976
972
965
961
960
960
958
952
951
949
952
955
956
950
949
957
957
950
942
944
952
951
944
936
939
943
947
945
944
943
942
942
946
951
952
952
947
948
947
950
953
956
952
950
947
951
954
955
954
951
949
947
941
939
943
950
948
944
944
948
949
946
944
942
943
945
947
947
941
940
941
943
949
946
944
945
946
948
947
947
949
947
946
947
951
952
952
951
953
952
953
949
946
945
948
958
967
968
963
960
960
965
966
970
968
967
964
970
966
960
955
953
957
958
958
957
957
958
957
956
955
955
953
950
950
951
954
952
953
951
951
950
946
944
941
944
950
951
945
939
939
938
936
941
947
948
944
939
939
940
941
938
930
928
932
942
961
982
1013
1051
1103
1156
1201
1241
1262
1254
1200
1123
1035
942
865
838
844
861
878
900
910
916
922
927
929
929
927
932
934
935
935
935
933
934
932
934
936
935
936
938
938
943
945
940
937
937
940
944
944
945
946
949
949
948
946
948
949
950
957
959
961
957
960
962
966
971
976
978
977
976
983
993
999
999
999
1001
1003
1007
1008
1009
1009
1010
1015
1019
1023
1022
1021
1023
1025
1026
1029
1027
1022
1019
1020
1017
1014
1014
1015
1017
1009
1005
1003
999
996
992
985
985
985
984
979
971
970
972
974
978
973
971
971
974
974
971
965
962
967
971
973
974
971
971
968
972
974
972
969
970
968
970
968
970
972
968
965
963
961
965
965
967
967
969
973
971
972
971
970
968
967
966
966
965
965
970
973
973
970
968
970
973
974
973
972
972
975
978
980
979
981
981
979
974
977
984
985
977
969
969
975
979
978
975
977
975
976
974
969
965
964
965
967
967
968
971
974
974
971
967
963
957
955
951
956
959
955
949
948
951
956
955
951
949
954
958
959
957
953
950
951
955
956
950
944
937
935
943
958
983
1014
1051
1096
1150
1201
1239
1243
1210
1152
1080
995
908
856
851
865
877
887
900
918
930
937
942
943
944
946
945
945
947
950
954
952
949
950
956
957
954
952
961
973
987
985
972
955
946
945
948
951
953
955
956
963
970
970
969
967
968
966
969
975
979
980
976
980
983
988
989
989
993
999
1005
1010
1013
1011
1014
1017
1018
1023
1027
1029
1030
1035
1040
1041
1038
1032
1029
1027
1027
1031
1030
1029
1033
1042
1045
1030
1008
990
980
982
985
985
981
978
980
980
978
977
974
971
972
972
972
974
975
975
975
978
972
964
961
966
969
970
966
963
962
960
959
957
957
959
962
961
958
962
970
978
985
994
1005
1011
1003
984
962
945
935
943
957
960
960
960
964
966
963
964
965
964
961
968
972
984
991
993
985
981
977
969
967
972
978
985
988
985
976
969
966
971
974
981
982
981
981
983
984
987
991
994
995
995
1000
1004
1009
1006
1006
1000
988
974
963
962
969
980
986
985
982
979
973
970
967
970
962
954
950
946
945
947
948
955
961
967
974
976
979
980
980
975
971
972
981
