1013
1011
1010
1005
999
994
995
1001
1001
999
1003
1003
999
1007
1005
1006
1002
1001
1009
1021
1024
1025
1020
1016
1010
1011
1010
1014
1011
1003
995
998
1001
1006
1005
1002
1005
1010
1014
1013
1009
1003
999
999
1000
997
998
995
994
992
983
978
974
979
985
989
985
987
991
992
993
993
994
994
991
988
988
988
990
990
999
1020
1051
1088
1127
1178
1225
1255
1265
1240
1186
1109
1020
939
888
882
898
912
926
947
962
978
983
981
976
977
982
987
986
977
969
966
974
982
989
990
984
984
987
997
1002
1001
994
990
990
998
1005
1004
1001
1000
1000
1004
1009
1006
1004
1001
1004
1009
1014
1014
1012
1013
1017
1021
1024
1023
1022
1028
1037
1047
1051
1054
1054
1055
1057
1055
1059
1060
1067
1065
1066
1071
1071
1062
1058
1061
1063
1067
1071
1073
1073
1075
1071
1066
1063
1053
1047
1039
1040
1041
1038
1032
1022
1018
1010
1012
1010
1006
995
992
994
1003
1005
994
985
988
996
999
994
991
986
984
986
985
992
994
998
997
995
995
999
1000
997
995
994
997
997
993
988
989
990
992
994
991
986
981
983
986
994
1001
998
994
991
995
998
991
985
986
995
1015
1047
1084
1126
1169
1224
1279
1310
1293
1224
1136
1041
953
895
891
922
962
991
1004
1004
999
995
995
994
995
997
995
987
982
987
997
1001
1001
995
993
992
995
998
999
996
996
995
997
998
994
990
991
996
1006
1009
1011
1011
1008
1008
1011
1016
1016
1012
1009
1009
1012
1016
1022
1022
1023
1021
1028
1030
1032
1028
1029
1034
1041
1048
1049
1052
1051
1052
1059
1059
1055
1052
1048
1051
1053
1057
1057
1056
1052
1045
1042
1047
1053
1049
1045
1044
1042
1041
1038
1030
1029
1029
1026
1026
1019
1015
1007
1008
1011
1011
1011
1007
1006
1009
1017
1021
1012
1007
1013
1016
1016
1007
996
995
997
999
998
1000
1002
1004
1004
1006
1007
1008
1006
1004
1002
999
1003
1009
1013
1008
1004
1001
1001
1008
1010
1009
1006
1007
1009
1012
1015
1014
1012
1006
1006
997
991
990
994
1002
1006
1006
1005
1002
1004
1001
1002
1003
1002
1003
1004
1006
1014
1020
1017
1014
1012
1012
1012
1015
1013
1015
1016
1017
1021
1025
1028
1028
1024
1023
1025
1031
1034
1031
1028
1025
1023
1023
1025
1023
1018
1023
1034
1030
1015
1007
1008
1011
1018
1023
1025
1017
1019
1021
1030
1033
1028
1023
1020
1018
1016
1012
1008
1003
1003
1011
1022
1026
1020
1011
1008
1009
1005
1005
998
995
994
999
1007
1009
1006
1004
1012
1025
1049
1075
1100
1133
1170
1213
1253
1271
1265
1231
1178
1106
1024
954
922
920
925
933
944
961
973
985
997
996
992
988
995
999
998
1000
1006
1006
1012
1012
1011
1013
1018
1019
1016
1012
1008
1010
1013
1017
1017
1014
1015
1017
1014
1017
1017
1017
1009
1004
1003
1010
1019
1020
1023
1022
1022
1026
1034
1041
1041
1041
1042
1046
1050
1052
1050
1043
1039
1047
1056
1066
1066
1064
1072
1078
1083
1079
1075
1071
1068
1068
1070
1071
1069
1071
1079
1078
1073
1070
1068
1063
1062
1059
1055
1049
1048
1055
1056
1048
1049
1040
1031
1023
1021
1033
1038
1029
1020
1018
1026
1029
1023
1012
1014
1019
1022
1020
1019
1021
1022
1018
1015
1017
1021
1018
1014
1008
1012
1017
1013
1004
1000
1005
1008
1008
1009
1013
1011
1007
1010
1011
1011
1008
1006
1002
1005
1007
1005
1003
998
992
990
995
1001
1003
1001
1003
1012
1017
1016
1015
1013
1011
1012
1010
1007
1004
1003
1004
1006
1005
997
995
996
994
998
1002
1001
1001
999
990
990
988
986
986
984
988
989
989
989
985
985
980
979
982
984
986
983
979
982
985
983
981
977
979
985
989
985
982
982
985
985
982
975
971
973
989
1013
1046
1086
1134
1185
1228
1251
1237
1189
1118
1036
953
900
891
895
903
914
931
948
961
970
969
967
971
977
980
979
980
981
981
979
982
981
983
982
982
988
995
999
993
983
975
974
979
984
986
985
985
985
986
985
987
989
992
994
997
1001
1004
1006
1003
1005
1009
1014
1016
1017
1019
1024
1031
1035
1036
1036
1035
1037
1034
1033
1033
1038
1037
1037
1039
1039
1034
1027
1026
1029
1032
1028
1028
1029
1025
1024
1028
1027
1024
1021
1017
1014
1011
1008
1009
1012
1010
1008
1011
1013
1015
1017
1020
1015
1005
991
984
986
984
983
984
979
978
977
981
989
992
992
985
979
979
982
989
993
995
993
992
994
995
995
995
993
995
1004
1005
1000
995
996
1002
1007
1004
995
983
983
981
986
988
987
989
990
996
1001
1006
1009
1008
1007
1002
1006
1008
1010
1011
1010
1007
1006
1008
1005
1004
1002
1005
1006
1005
1002
995
994
996
994
993
992
990
986
992
992
994
992
990
986
988
988
986
982
976
974
975
975
979
975
976
973
973
974
978
976
977
977
976
981
981
974
968
964
964
969
987
1013
1046
1080
1122
1172
1221
1251
1243
1190
1112
1021
931
869
853
871
889
909
930
944
953
954
951
959
960
958
957
956
955
958
960
958
958
955
956
958
964
966
962
960
958
963
965
965
965
964
965
965
967
968
972
972
970
973
975
978
981
980
981
984
990
994
996
997
999
1004
1011
1014
1015
1018
1023
1027
1035
1035
1029
1026
1024
1027
1031
1034
1034
1030
1030
1034
1037
1038
1033
1028
1027
1030
1029
1027
1020
1014
1010
1007
1006
1004
1000
996
990
994
991
989
989
984
985
984
984
982
975
972
974
979
981
980
976
972
972
977
981
979
973
969
970
972
976
977
973
968
970
974
975
973
969
967
967
971
972
972
970
968
966
970
967
972
975
973
968
973
977
977
979
977
976
984
990
991
985
983
981
983
988
989
986
981
978
978
980
977
976
974
973
974
974
971
972
969
967
967
970
971
969
965
964
964
963
960
957
953
949
952
956
955
954
955
958
964
967
963
958
955
955
958
959
959
955
951
952
964
981
1009
1045
1088
1135
1186
1228
1246
1222
1172
1105
1022
941
879
863
873
891
912
932
944
950
950
951
952
956
960
960
958
958
959
965
968
969
965
965
964
967
968
968
967
968
972
974
973
973
976
979
980
984
983
983
983
985
987
989
991
994
994
996
1002
1010
1017
1022
1023
1023
1026
1028
1029
1033
1031
1031
1033
1035
1037
1036
1033
1033
1035
1035
1032
1029
1028
1029
1031
1032
1032
1027
1019
1015
1014
1012
1006
1003
1000
996
994
992
993
989
984
985
989
992
991
982
976
977
977
980
979
977
972
975
973
977
977
978
977
977
981
982
981
978
975
973
975
978
980
978
975
978
980
984
980
982
979
976
977
981
982
981
981
985
985
987
988
987
980
981
984
985
984
984
987
990
995
997
998
996
995
995
995
999
997
993
990
987
986
984
980
978
977
979
981
981
982
981
978
976
977
975
973
967
961
962
968
970
971
970
965
968
969
972
971
970
970
967
968
972
977
973
969
969
965
964
966
969
977
1004
1041
1088
1141
1191
1232
1246
1226
1178
1106
1016
928
882
874
884
898
915
932
945
954
958
960
958
959
964
969
970
969
968
964
965
967
967
967
968
968
966
967
972
972
969
968
966
968
972
974
976
975
973
975
979
982
981
978
978
979
987
984
988
988
991
992
994
999
1004
1008
1010
1010
1013
1016
1018
1021
1023
1024
1026
1029
1028
1026
1029
1032
1032
1037
1038
1034
1034
1029
1034
1035
1034
1031
1028
1029
1028
1024
1022
1018
1017
1017
1018
1013
1003
999
999
997
997
996
993
988
985
983
982
981
978
978
978
976
973
971
971
967
968
969
971
970
968
968
970
969
969
970
968
967
966
969
973
972
972
972
968
969
970
969
968
967
967
972
973
975
970
968
971
973
973
974
969
969
971
976
982
987
987
983
982
981
982
985
989
989
984
984
984
986
984
983
982
986
987
987
984
984
980
978
978
976
974
975
976
974
974
978
978
973
969
970
968
967
961
955
954
960
966
966
966
963
963
964
967
966
967
961
961
964
966
969
968
966
963
961
963
964
967
974
991
1021
1056
1096
1138
1177
1213
1237
1227
1181
1112
1029
945
880
860
868
885
896
910
926
942
955
960
960
962
959
959
959
958
957
955
959
961
958
959
958
961
965
969
965
965
967
966
965
963
960
960
957
958
961
964
966
965
965
965
965
970
970
972
972
974
974
980
983
985
988
990
992
993
995
997
998
999
1005
1008
1011
1008
1007
1009
1011
1015
1016
1018
1018
1021
1027
1030
1036
1037
1037
1036
1038
1040
1037
1034
1033
1033
1031
1028
1028
1026
1020
1019
1017
1015
1008
1007
1002
997
994
992
990
987
984
979
978
979
978
976
972
973
970
969
965
964
964
964
965
967
965
966
964
968
968
967
967
967
963
962
961
963
964
964
960
957
959
957
960
959
958
965
965
964
961
959
957
960
958
958
956
957
959
962
967
971
970
970
970
971
974
975
975
977
975
977
975
978
979
976
970
969
968
971
972
971
969
969
965
969
970
966
961
961
964
966
963
959
962
965
967
963
961
956
950
946
950
952
954
950
948
944
948
949
945
945
943
947
946
947
943
944
942
941
944
943
944
939
936
939
946
965
988
1015
1044
1086
1139
1189
1218
1221
1198
1147
1090
1018
939
874
842
847
860
876
889
904
917
929
933
932
936
934
933
931
933
937
938
937
938
935
938
941
938
939
937
935
937
936
936
933
933
931
931
935
937
940
940
942
942
944
944
947
946
948
949
955
958
956
953
955
963
972
972
972
974
980
982
984
985
987
985
982
982
986
985
984
985
984
989
994
1001
998
999
995
996
998
997
991
984
989
993
990
982
977
974
974
973
972
969
962
958
951
953
951
948
942
942
942
942
941
940
939
934
933
935
932
933
932
927
925
926
929
935
935
934
932
930
926
931
935
932
925
925
931
936
935
932
927
927
932
935
935
937
937
939
942
942
939
939
939
942
943
944
942
939
939
944
947
946
951
951
950
949
950
950
949
946
945
946
950
955
954
949
950
954
958
960
956
949
944
943
946
946
942
937
936
939
944
948
946
940
939
942
942
937
934
932
930
934
937
938
936
933
930
935
937
934
930
930
931
935
943
945
941
932
927
925
926
930
934
935
946
970
1000
1037
1078
1122
1164
1196
1208
1196
1161
1101
1025
936
869
850
852
862
867
879
899
919
925
926
923
925
930
932
931
931
935
935
935
936
935
934
938
937
934
932
933
935
936
940
942
946
946
944
942
944
945
949
952
951
953
950
952
952
954
956
954
958
963
966
970
971
971
973
971
967
965
970
977
981
985
990
992
990
994
999
1003
1002
997
997
1003
1008
1008
1003
997
994
998
1002
1005
1005
1001
995
989
984
982
984
984
978
971
967
969
970
963
956
953
954
956
956
955
956
955
954
951
950
950
949
948
949
948
947
947
945
949
951
952
950
946
943
944
946
952
954
960
963
966
967
967
961
957
960
963
965
968
967
964
961
960
966
969
968
966
966
967
965
967
967
968
966
964
967
967
964
959
953
951
952
955
957
952
950
949
952
954
957
960
955
956
954
956
958
954
953
950
952
944
938
938
943
953
970
995
1024
1063
1111
1160
1207
1233
1226
1187
1127
1054
963
894
871
879
888
906
926
943
948
947
944
942
946
950
955
954
952
952
949
951
954
953
954
956
959
962
962
960
954
958
961
962
966
964
966
966
966
973
978
981
979
983
984
984
982
981
982
983
986
990
995
994
993
992
1001
1007
1012
1007
1008
1007
1017
1023
1025
1026
1022
1024
1025
1028
1029
1027
1024
1023
1021
1021
1018
1014
1004
1004
1003
997
994
990
981
976
975
976
975
974
974
974
973
972
973
974
970
964
963
964
968
971
967
967
966
964
962
960
958
957
959
959
962
961
964
964
965
965
968
969
967
964
966
969
971
970
967
966
965
963
966
966
966
962
968
973
977
977
972
971
972
973
973
973
972
972
973
974
973
971
968
965
966
968
972
972
968
969
967
965
966
969
966
969
971
974
975
979
976
974
974
978
981
982
981
979
979
979
979
977
974
976
976
976
976
975
975
975
982
987
988
982
976
974
972
975
977
975
971
965
962
963
964
964
960
959
958
961
956
957
956
954
961
965
966
965
961
957
960
958
959
962
976
1000
1033
1072
1118
1167
1216
1250
1261
1230
1165
1079
981
897
859
858
875
888
901
918
936
946
952
953
952
954
954
956
957
956
953
952
953
957
962
961
958
958
962
965
964
963
958
959
960
963
965
963
963
964
968
971
971
972
969
969
969
972
974
974
974
979
982
990
995
995
995
995
996
995
999
1005
1006
1007
1011
1017
1020
1020
1017
1019
1021
1028
1034
1033
1030
1026
1031
1035
1034
1034
1030
1026
1026
1028
1029
1024
1015
1011
1012
1010
1008
1000
998
994
992
989
988
983
979
976
978
978
977
975
975
978
980
984
987
985
981
977
977
980
982
981
978
978
979
983
982
982
979
977
976
980
980
981
978
978
981
982
980
982
978
976
979
982
982
982
977
975
982
986
987
986
987
987
993
996
996
993
989
989
993
993
993
990
986
987
988
988
987
983
982
982
980
975
977
973
974
974
973
977
976
977
975
972
973
972
972
971
965
964
962
963
962
960
957
960
963
967
966
964
961
962
960
961
967
967
965
961
961
964
965
962
960
966
988
1017
1055
1094
1142
1187
1230
1254
1248
1197
1121
1036
948
881
861
870
887
901
918
936
950
954
955
952
954
958
961
963
961
959
958
963
967
967
966
966
965
969
968
964
963
961
961
965
965
967
966
963
964
967
970
971
971
971
975
976
979
976
979
980
984
987
990
991
992
993
995
1002
1010
1009
1006
1009
1012
1016
1018
1018
1019
1019
1021
1023
1026
1027
1025
1018
1022
1028
1031
1030
1026
1023
1022
1020
1020
1018
1014
1010
1007
1009
1003
1000
993
990
991
990
990
982
978
975
975
975
976
976
977
975
972
973
973
975
973
972
973
976
973
972
968
967
965
964
961
961
957
962
966
969
971
969
970
970
970
970
973
973
973
969
972
973
975
975
975
972
977
978
978
976
978
979
982
986
986
991
990
987
987
987
989
993
991
992
993
996
994
992
987
982
976
973
976
976
976
975
972
972
973
975
977
973
969
971
971
965
963
959
964
966
967
968
969
970
970
970
967
962
961
963
964
966
969
966
965
962
960
958
961
964
976
1000
1038
1086
1138
1189
1234
1249
1225
1174
1101
1015
925
875
869
887
903
923
933
947
955
964
966
964
960
960
959
959
960
960
957
959
960
964
971
975
974
971
971
971
972
974
975
975
976
977
980
984
986
986
987
988
990
991
990
994
997
1006
1010
1015
1014
1011
1011
1012
1015
1013
1014
1016
1018
1020
1024
1027
1028
1032
1034
1035
1036
1035
1037
1039
1043
1042
1043
1039
1039
1041
1045
1048
1050
1047
1044
1039
1036
1037
1038
1035
1025
1021
1018
1017
1015
1014
1012
1013
1016
1015
1013
1009
1000
994
997
1001
1002
1003
996
987
984
985
984
984
980
984
984
987
984
986
984
985
985
987
989
987
986
984
981
979
981
983
984
984
987
986
985
982
981
983
985
988
992
987
981
976
980
986
996
1011
1036
1079
1126
1184
1235
1259
1248
1210
1156
1088
1012
935
891
887
902
920
938
956
970
978
977
978
979
981
981
980
979
986
991
995
990
989
984
982
978
980
979
982
987
990
991
991
988
984
975
975
984
993
990
985
982
986
989
985
989
989
997
1004
1006
1003
1002
1006
1011
1017
1021
1025
1026
1025
1030
1033
1035
1038
1037
1036
1037
1041
1043
1038
1036
1041
1046
1043
1038
1035
1037
1039
1042
1042
1042
1041
1038
1029
1024
1018
1014
1013
1005
999
994
995
995
993
992
992
995
997
997
993
986
986
983
979
981
983
983
980
981
986
991
990
988
984
982
982
984
983
985
989
993
991
986
980
975
972
972
972
972
973
972
975
970
968
967
970
970
974
981
991
992
988
986
984
982
978
977
983
982
981
979
980
984
983
981
980
982
980
979
979
980
978
981
983
985
984
979
974
972
971
973
977
977
977
971
963
962
964
963
961
960
962
970
983
988
987
985
987
990
987
983
984
989
994
991
990
987
986
986
984
985
981
976
975
979
974
973
969
971
972
978
986
991
987
978
971
970
975
979
977
973
967
966
968
968
964
961
961
965
968
971
972
966
961
956
958
966
978
994
1018
1049
1090
1142
1196
1238
1261
1250
1205
1134
1040
944
889
881
887
893
900
913
932
946
958
965
972
976
979
978
976
970
964
956
955
961
965
964
959
953
949
950
959
965
971
969
969
970
972
971
966
964
964
965
975
984
984
977
974
976
981
985
983
985
988
995
1000
1000
1000
1004
1009
1014
1021
1024
1026
1027
1023
1023
1028
1034
1039
1037
1029
1023
1025
1029
1029
1027
1024
1025
1025
1027
1023
1018
1013
1016
1017
1014
1005
999
997
1001
1004
1010
1010
1000
987
984
981
981
977
972
974
982
994
999
994
986
974
971
975
983
988
982
976
973
977
982
981
977
977
978
988
990
986
978
976
978
980
981
981
979
977
979
985
991
996
997
998
998
998
1003
998
987
984
986
993
995
993
987
982
981
988
990
987
987
982
987
996
1001
1002
998
993
993
994
994
987
982
977
977
979
988
990
984
974
974
977
986
990
992
991
985
977
972
969
964
963
962
966
966
965
965
961
960
962
966
970
966
964
963
965
962
956
953
950
951
959
972
985
1006
1040
1078
1121
1173
1221
1254
1256
1219
1160
1081
986
901
868
878
895
908
919
932
943
954
958
960
955
958
956
958
964
974
973
970
964
967
969
969
968
971
970
972
976
979
981
977
976
979
983
987
986
980
982
986
989
990
986
983
985
987
992
996
998
1001
1008
1016
1020
1021
1020
1017
1015
1018
1022
1022
1023
1022
1029
1029
1030
1034
1037
1035
1037
1040
1051
1050
1043
1035
1034
1032
1035
1039
1035
1030
1029
1026
1031
1032
1028
1022
1014
1008
1003
1000
997
998
999
1003
1001
997
989
983
979
979
982
986
982
978
