1042
1043
1039
1035
1032
1031
1029
1030
1028
1022
1019
1015
1012
1011
1008
1002
999
997
995
999
998
996
990
988
988
992
990
984
984
984
989
996
994
989
985
983
984
987
988
987
987
985
985
988
987
988
986
986
986
988
989
987
986
986
992
996
997
992
989
991
995
997
993
991
988
988
992
995
993
990
993
992
998
1002
1005
1007
1009
1009
1007
1011
1008
1008
1006
1007
1009
1009
1007
1008
1008
1007
1008
1008
1006
1003
998
1000
1002
1003
1004
1001
1002
1004
1005
1006
1001
998
992
988
990
986
985
984
989
986
988
993
993
994
990
990
990
992
993
993
992
990
993
992
988
984
979
981
988
1004
1027
1057
1098
1149
1206
1259
1294
1298
1267
1208
1134
1048
956
900
888
899
920
943
961
972
978
983
987
992
995
994
991
987
987
988
996
995
994
992
994
998
997
996
993
994
998
999
998
998
994
998
1001
1003
1003
1000
1001
1004
1006
1010
1012
1010
1012
1010
1015
1019
1021
1024
1026
1027
1027
1033
1038
1035
1038
1043
1046
1048
1049
1052
1053
1055
1058
1057
1061
1061
1061
1063
1067
1069
1071
1068
1068
1070
1074
1072
1071
1069
1062
1062
1063
1062
1061
1053
1049
1044
1044
1044
1040
1037
1032
1027
1026
1025
1021
1016
1013
1010
1012
1014
1013
1010
1006
1005
1006
1010
1010
1004
1003
1001
1005
1005
1007
1004
1002
1001
1002
1004
1005
1004
1003
1002
1004
1007
1005
1003
1002
1002
1002
1006
1007
1006
1003
1002
1004
1006
1006
1004
1003
1004
1007
1008
1008
1008
1006
1006
1008
1012
1011
1011
1012
1015
1019
1021
1018
1017
1018
1019
1020
1022
1021
1019
1014
1016
1017
1021
1021
1019
1018
1016
1015
1016
1016
1013
1010
1008
1009
1010
1015
1014
1012
1007
1005
1004
1000
995
995
993
993
995
994
990
993
992
992
998
995
993
989
989
990
995
998
996
994
989
987
986
984
985
994
1011
1044
1085
1130
1181
1235
1277
1290
1262
1192
1105
1009
923
880
884
906
928
948
963
976
984
985
987
986
985
987
990
992
992
990
988
990
993
991
990
990
991
993
996
993
993
990
988
994
997
1002
1000
999
998
1003
1004
1001
998
998
1001
1004
1011
1013
1013
1016
1019
1020
1025
1030
1030
1028
1029
1034
1039
1043
1042
1042
1040
1046
1051
1053
1052
1056
1058
1059
1063
1063
1065
1063
1065
1067
1066
1069
1068
1067
1061
1058
1059
1057
1053
1050
1048
1046
1044
1040
1033
1028
1023
1021
1020
1016
1012
1008
1006
1006
1007
1006
1004
1001
995
997
999
999
996
993
992
991
994
994
994
993
992
994
999
999
997
995
994
995
998
998
998
997
996
995
997
995
993
989
989
986
993
991
987
985
984
988
992
992
990
987
988
989
992
987
982
982
986
989
995
998
1001
1006
1008
1011
1011
1010
1007
1008
1008
1008
1010
1005
1003
1001
1001
999
1005
1007
1006
1005
1003
1005
1003
1000
995
993
993
996
997
996
993
989
986
986
982
981
977
972
973
976
978
979
978
979
978
979
974
971
973
972
970
975
977
978
979
978
974
977
978
975
967
964
963
971
986
1005
1038
1084
1137
1198
1251
1268
1244
1193
1120
1033
941
878
863
875
894
914
933
945
951
957
961
964
974
976
975
974
975
982
982
981
975
972
972
977
978
978
976
978
977
974
976
975
975
977
974
978
983
983
981
982
981
985
987
988
989
988
990
996
1003
1003
1005
1007
1009
1013
1018
1021
1023
1023
1025
1032
1036
1039
1038
1035
1031
1037
1043
1043
1044
1038
1041
1044
1049
1049
1049
1044
1041
1044
1042
1042
1034
1027
1020
1019
1017
1008
1001
998
996
994
993
990
992
986
983
983
985
984
979
974
973
973
980
980
979
977
978
981
984
983
978
976
974
977
977
977
977
975
974
976
978
972
970
967
968
972
976
974
971
965
965
969
971
968
970
969
970
969
969
974
975
975
976
981
986
985
983
982
981
984
986
987
988
986
987
989
989
993
990
987
988
992
994
994
986
985
983
983
985
984
979
974
975
981
984
983
981
977
975
976
977
975
970
962
959
962
967
967
962
963
966
972
977
973
970
967
966
966
966
965
964
962
964
962
966
963
957
952
951
955
973
993
1026
1071
1123
1186
1234
1249
1226
1176
1101
1008
915
867
859
868
880
892
914
935
946
950
950
952
958
965
967
963
959
959
961
965
964
963
963
966
970
969
968
968
965
969
971
973
972
972
969
971
972
974
972
969
974
978
981
980
982
983
985
989
993
993
994
991
994
999
1006
1010
1011
1013
1012
1019
1023
1023
1023
1024
1025
1025
1029
1028
1027
1026
1026
1029
1033
1034
1034
1031
1032
1036
1039
1033
1031
1026
1025
1025
1021
1017
1012
1009
1003
1000
997
995
993
988
982
983
982
978
974
970
969
966
965
965
963
962
961
966
966
963
960
962
961
962
962
960
957
957
957
960
965
965
965
963
962
964
969
967
962
962
966
967
968
962
960
958
961
962
965
964
962
959
961
961
963
962
962
962
963
964
965
965
966
964
968
968
973
974
971
969
969
971
974
974
974
973
972
974
973
973
970
968
966
968
967
964
963
958
954
956
961
960
957
954
956
957
959
957
953
950
946
945
945
944
940
937
935
941
945
945
940
942
942
943
946
944
945
945
940
944
945
939
931
929
935
952
979
1015
1056
1109
1168
1220
1246
1231
1174
1098
1006
917
854
837
847
863
882
904
920
927
929
927
933
938
941
939
936
934
933
936
941
941
940
937
935
939
941
941
941
938
940
942
950
951
950
946
948
953
957
958
956
955
958
959
962
963
966
965
968
968
972
975
975
979
981
984
990
991
992
995
997
1003
1007
1009
1013
1012
1009
1012
1015
1016
1017
1020
1023
1023
1023
1024
1023
1019
1012
1014
1014
1010
1003
1003
999
1000
998
994
985
980
972
973
972
969
966
967
963
962
960
959
961
961
958
961
965
964
960
959
956
957
960
960
960
958
956
956
960
960
960
959
958
956
960
956
957
957
953
956
959
960
960
958
959
956
960
960
955
956
956
961
964
964
963
964
967
971
975
974
974
972
969
976
978
978
974
970
968
971
975
975
971
970
970
971
971
971
966
965
965
963
966
966
965
964
964
966
965
964
960
959
956
958
954
948
946
948
947
948
949
950
948
947
947
952
953
953
952
949
950
952
954
952
952
950
945
942
942
941
944
956
975
1005
1041
1086
1138
1191
1234
1262
1252
1206
1138
1058
967
888
848
845
867
885
902
919
935
940
941
946
945
950
951
951
949
947
948
948
951
950
952
951
950
952
957
955
954
956
955
959
959
958
958
958
961
964
970
969
964
964
965
972
976
977
979
975
976
981
987
988
990
989
991
996
1000
1002
1004
1003
1004
1008
1016
1021
1022
1020
1020
1026
1029
1037
1038
1035
1033
1036
1038
1037
1034
1034
1033
1033
1035
1034
1028
1023
1020
1017
1018
1016
1010
1003
997
996
996
995
991
993
989
988
987
983
982
977
978
975
977
977
974
968
971
969
973
976
975
971
967
968
969
968
971
969
968
969
973
970
969
963
966
968
970
971
970
967
963
967
969
970
967
966
964
965
971
972
974
968
971
973
974
971
971
970
972
975
975
975
973
977
979
980
986
989
988
984
979
986
992
994
991
992
992
994
992
988
982
984
983
985
986
986
985
982
978
975
979
977
976
975
975
980
982
981
982
979
982
983
977
975
967
968
968
969
972
969
971
969
969
973
975
971
966
963
967
970
975
973
971
968
967
966
963
960
958
960
970
993
1023
1066
1119
1174
1225
1254
1247
1205
1140
1059
966
887
858
867
883
903
923
943
954
957
953
951
951
960
966
964
964
960
959
964
967
965
965
962
966
971
974
972
972
970
971
973
976
974
971
969
970
975
974
979
979
977
978
981
980
980
976
982
983
987
992
995
995
998
999
1005
1013
1011
1014
1011
1007
1015
1022
1027
1034
1035
1035
1039
1043
1044
1043
1040
1036
1042
1047
1049
1047
1040
1041
1044
1046
1045
1042
1037
1031
1027
1032
1031
1029
1023
1018
1016
1012
1008
1006
1000
998
993
993
991
987
984
987
990
989
986
980
978
977
978
974
978
976
975
970
974
981
981
982
976
974
974
975
976
972
973
973
975
978
980
977
974
971
971
973
975
973
973
974
974
977
978
977
976
976
979
980
978
978
978
981
982
983
981
980
975
974
975
977
977
978
978
979
984
988
985
984
988
988
985
986
985
987
988
989
993
992
988
984
981
984
990
992
992
989
986
986
983
987
985
980
979
978
979
982
977
975
977
977
978
978
977
976
971
970
969
972
969
968
966
964
965
969
967
967
965
964
966
968
970
970
969
967
967
967
968
966
961
959
957
963
967
979
1000
1026
1070
1123
1180
1234
1265
1259
1229
1180
1112
1023
938
890
880
890
894
904
916
932
950
960
963
960
957
960
965
967
965
963
964
962
966
969
969
967
965
964
966
967
968
966
965
968
969
972
973
973
973
973
974
976
974
981
980
981
986
987
988
987
988
990
994
998
1001
1004
1002
1007
1012
1016
1019
1020
1021
1024
1025
1032
1034
1036
1039
1038
1041
1044
1043
1037
1035
1038
1041
1043
1042
1043
1042
1041
1039
1040
1036
1033
1028
1024
1022
1022
1018
1012
1005
1000
999
1001
998
993
988
986
986
988
986
980
977
975
974
977
982
977
975
972
973
973
974
973
967
970
969
971
972
971
969
966
970
972
970
969
966
968
968
974
973
971
967
965
972
972
972
970
971
972
970
973
971
971
970
969
970
972
976
974
972
972
975
979
979
976
974
978
980
986
983
986
987
985
987
988
990
989
989
988
988
990
991
988
985
985
985
989
987
983
978
977
975
979
980
980
980
973
975
983
982
976
969
967
968
966
963
964
962
963
964
968
969
966
963
964
964
965
967
966
966
966
968
970
968
967
963
961
959
956
955
956
965
982
1010
1046
1092
1150
1204
1248
1272
1259
1202
1125
1034
941
874
856
864
880
900
919
936
948
955
958
960
961
963
966
966
965
962
962
964
963
966
962
961
964
965
968
968
968
968
965
970
969
970
968
969
969
973
976
975
976
974
976
979
980
982
981
983
984
987
990
991
993
995
998
1002
1004
1008
1009
1012
1014
1017
1021
1023
1025
1024
1027
1029
1032
1033
1033
1034
1032
1036
1036
1038
1037
1037
1036
1037
1038
1035
1034
1027
1023
1022
1021
1019
1012
1006
1004
1001
1001
1000
992
991
988
986
985
980
977
974
975
975
977
975
972
967
965
968
968
971
969
967
967
969
968
966
967
963
963
965
967
964
963
963
963
964
966
966
963
961
958
965
964
962
962
961
966
966
968
965
963
961
961
966
967
967
966
963
962
964
966
964
964
962
964
965
966
967
967
967
970
974
980
979
976
975
977
979
981
983
977
977
974
973
974
973
972
969
971
969
971
967
965
959
960
964
968
969
968
965
968
967
968
967
961
954
955
956
954
953
951
948
948
949
951
948
948
945
945
950
951
950
950
947
945
947
950
950
947
943
938
939
937
942
949
967
995
1037
1087
1143
1197
1240
1260
1235
1180
1097
1003
908
842
835
853
876
891
907
921
931
935
941
942
938
937
937
944
943
940
941
940
942
947
949
945
943
940
943
946
947
944
944
945
949
953
956
953
953
955
956
956
957
955
955
958
960
961
963
966
964
969
970
977
982
985
985
985
984
986
985
990
990
990
994
1000
1009
1013
1013
1016
1018
1021
1021
1021
1017
1011
1014
1016
1018
1015
1013
1008
1009
1009
1006
1003
998
993
992
988
982
976
976
970
975
974
975
970
961
960
958
958
960
960
952
954
952
954
957
956
953
953
954
956
956
955
952
949
950
950
950
954
949
947
945
945
950
950
950
950
956
954
953
951
946
946
949
950
954
951
952
951
949
952
954
957
955
953
956
957
957
954
948
948
951
950
950
952
952
954
957
961
962
962
961
960
962
962
963
965
965
964
965
967
968
968
969
969
967
968
969
969
964
963
963
962
962
959
959
957
957
955
956
958
956
957
958
959
954
949
942
939
940
941
941
941
938
934
939
947
950
947
942
941
945
944
944
943
942
939
938
944
949
946
942
935
934
936
941
951
969
996
1036
1087
1145
1197
1231
1232
1202
1148
1074
984
899
848
845
859
869
879
897
913
927
932
932
935
933
939
943
944
946
944
944
943
943
947
951
949
947
946
945
948
952
955
959
960
959
960
960
958
958
957
961
965
964
964
964
966
969
977
977
975
973
974
978
981
985
989
987
990
995
998
1006
1007
1002
1001
1003
1008
1014
1018
1018
1018
1021
1023
1022
1022
1026
1030
1033
1033
1035
1032
1030
1028
1026
1025
1022
1018
1011
1009
1010
1010
1006
1005
997
992
983
979
977
977
974
973
973
974
974
973
973
973
974
973
969
965
961
957
958
962
964
968
966
961
964
961
962
962
958
961
959
966
965
969
967
965
964
969
976
981
979
977
973
971
974
978
982
985
984
983
981
982
982
982
984
982
977
976
976
975
973
967
963
963
959
956
954
955
960
960
959
952
958
961
958
957
956
958
962
962
962
964
964
958
957
958
958
954
950
941
934
931
937
949
968
996
1041
1100
1160
1213
1236
1228
1196
1146
1074
985
905
870
872
887
897
914
930
940
946
948
951
950
951
953
952
952
952
949
945
947
954
955
956
958
952
952
957
965
966
963
959
956
960
964
967
968
966
967
971
972
974
972
974
972
976
979
985
986
986
987
991
997
997
999
998
999
1005
1008
1013
1011
1010
1013
1018
1020
1020
1020
1021
1021
1023
1027
1028
1023
1022
1021
1019
1018
1017
1014
1009
1007
1007
1007
1002
999
992
988
985
983
978
974
967
965
967
969
968
962
960
956
958
961
959
954
949
947
948
952
952
951
949
948
947
950
950
949
948
946
949
949
949
946
942
943
946
949
952
951
949
946
949
947
953
951
949
948
952
953
950
949
950
946
950
951
954
952
950
950
951
953
951
950
947
944
944
943
948
949
947
948
947
949
949
947
947
945
942
945
944
944
940
941
941
945
944
944
942
941
944
946
946
947
949
953
958
962
963
959
960
963
965
968
967
965
963
965
968
970
970
966
964
962
960
961
958
956
956
956
958
959
959
959
958
956
955
958
955
949
944
941
944
946
945
945
943
940
946
946
952
951
950
949
948
953
955
955
954
947
944
944
942
945
955
979
1014
1056
1113
1176
1228
1261
1254
1200
1117
1013
911
848
842
863
886
903
917
928
932
938
941
942
939
943
942
946
945
945
945
940
944
947
950
950
951
949
949
951
951
954
950
952
956
960
962
961
959
960
964
965
966
967
963
964
970
975
979
976
977
981
986
990
991
993
992
994
1002
1009
1012
1015
1016
1017
1020
1024
1026
1027
1025
1026
1028
1029
1035
1033
1033
1033
1033
1038
1037
1036
1031
1026
1025
1026
1027
1023
1019
1013
1011
1007
1004
1001
994
989
986
989
986
983
980
977
978
981
982
979
979
978
980
982
984
980
975
977
979
981
984
983
980
978
981
983
982
982
982
980
981
982
983
981
981
978
981
981
980
979
975
977
977
980
982
980
980
978
979
982
984
980
977
976
982
984
987
984
984
987
990
994
993
992
994
994
992
994
997
992
990
988
988
992
993
995
991
988
993
993
990
989
988
991
990
989
986
985
988
988
984
983
984
980
976
974
974
976
975
972
971
971
973
976
979
975
973
971
974
976
974
975
969
970
972
971
968
964
960
966
984
1011
1044
1083
1133
1191
1242
1278
1269
1216
1132
1038
943
876
860
874
896
914
935
953
962
968
966
970
973
975
977
977
977
973
978
979
982
979
978
980
981
984
987
985
985
985
987
987
992
991
991
990
990
993
995
994
995
998
998
1003
1002
1003
1000
1001
1006
1008
1013
1015
1018
1022
1027
1031
1036
1038
1040
1045
1050
1055
1058
1059
1060
1063
1062
1067
1070
1071
1071
1069
1071
1073
1072
1068
1066
1064
1058
1057
1055
1051
1048
1044
1039
1039
1033
1026
1021
1015
1014
1013
1011
1007
1006
1005
1002
1001
1001
999
997
997
998
998
991
989
991
993
994
995
990
990
991
991
992
996
998
997
995
994
994
995
996
994
993
998
996
997
995
993
989
990
992
997
998
998
1001
1002
1003
1004
1006
1007
1001
1000
1002
1002
1004
1002
999
999
1003
1004
1005
1006
1008
1013
1018
1019
1016
1014
1013
1018
1021
1024
1026
1022
1018
1013
1016
1020
1021
1019
1014
1005
1007
1006
1007
1009
1009
1007
1006
1000
996
993
990
991
995
996
997
997
992
989
992
995
998
994
992
990
993
1000
1001
999
996
990
988
990
993
1002
1017
1051
1096
1154
1213
1260
1276
1246
1185
1105
1014
931
889
892
909
929
948
966
977
980
979
985
991
994
994
994
992
988
991
988
989
987
989
992
994
994
993
994
996
998
998
1000
997
996
995
998
998
998
995
991
994
997
1002
1007
1009
1010
1009
1011
1010
1015
1018
1020
1023
1025
1028
1030
1033
1038
1041
1043
1044
1048
1053
1054
1056
1058
1060
1061
1061
1065
1069
1071
1072
1071
1071
1072
1066
1068
1065
1062
1058
1056
1055
1054
1050
1044
1037
1033
1029
1031
1029
1023
1018
1015
1011
1008
1004
1003
999
996
996
999
997
992
991
989
991
993
993
991
989
990
993
997
995
998
994
990
992
991
994
996
998
993
998
998
997
995
992
991
990
991
992
987
986
990
988
993
997
996
995
994
996
1000
1000
1002
998
1000
1000
1003
1003
1005
1006
1007
1005
1005
1004
1002
1003
1000
999
1000
1003
1003
1005
1006
1007
1008
1007
1003
1000
1001
1005
1011
1010
1005
1000
998
998
995
994
995
995
995
996
1000
1004
1004
999
995
994
995
992
988
985
984
983
984
983
979
977
977
978
977
981
983
982
983
985
982
983
987
984
982
982
983
980
975
970
968
975
989
1013
1044
1083
1132
1191
1238
1268
1261
1225
1167
1091
1004
924
886
881
891
903
921
940
953
962
961
