1050
1052
1052
1052
1051
1049
1048
1042
1041
1033
1027
1028
1030
1028
1018
1015
1010
1013
1012
1004
997
993
990
991
992
988
985
981
982
985
986
984
979
975
971
975
979
977
973
971
973
975
977
977
972
971
972
974
977
979
974
969
968
970
974
972
971
971
970
971
973
974
972
969
968
971
976
977
975
971
968
968
973
971
970
972
975
980
985
983
976
970
965
971
974
976
974
971
975
979
979
982
980
981
985
985
988
990
991
991
991
992
994
989
989
988
991
994
992
988
984
982
982
984
986
984
982
981
982
983
984
982
979
977
979
984
987
984
973
964
962
966
967
964
964
965
966
967
971
971
969
964
963
963
966
967
967
967
961
960
959
956
955
954
973
1006
1044
1082
1128
1179
1225
1267
1277
1233
1158
1066
967
888
849
851
869
887
903
923
936
941
948
952
952
955
956
958
954
955
956
962
964
964
961
962
958
953
960
963
961
960
960
963
963
965
966
966
968
971
974
975
971
975
972
973
979
989
992
989
981
990
998
1004
1002
1001
996
999
1012
1023
1029
1025
1022
1023
1030
1039
1042
1039
1033
1030
1034
1036
1039
1043
1042
1046
1048
1048
1047
1045
1041
1040
1040
1039
1038
1033
1030
1034
1034
1035
1028
1022
1014
1008
1006
1000
993
990
990
995
995
989
981
977
973
969
969
969
965
967
968
970
974
976
972
968
970
972
973
976
974
969
972
976
980
980
980
976
971
966
964
970
969
965
965
970
975
977
974
970
966
968
972
975
974
970
968
966
970
973
974
972
966
964
969
976
976
973
971
974
976
978
978
977
975
980
985
983
985
980
980
981
987
988
990
990
994
998
996
996
991
987
982
984
989
988
989
984
984
991
989
981
974
975
976
981
982
983
979
974
974
978
984
980
970
961
960
964
964
964
964
961
955
951
953
960
963
963
961
966
966
969
969
963
953
948
947
949
951
955
962
979
998
1022
1060
1112
1162
1212
1241
1233
1195
1139
1074
995
916
863
848
851
862
882
908
929
939
943
946
952
964
966
955
950
948
953
961
967
963
954
950
952
954
954
957
958
955
958
958
963
962
959
962
969
977
979
980
981
979
979
980
980
981
979
980
988
997
1003
1004
1004
1003
1008
1007
1010
1014
1019
1024
1030
1030
1028
1028
1028
1032
1039
1042
1046
1047
1045
1044
1043
1041
1042
1041
1038
1031
1031
1032
1029
1025
1023
1021
1014
1009
1005
1001
999
997
994
994
991
987
982
979
977
982
977
977
976
977
974
975
975
978
977
971
968
967
972
973
969
968
971
972
977
972
971
967
968
970
971
971
971
972
974
976
976
976
973
974
981
981
977
977
973
973
976
983
985
983
976
971
971
979
984
983
981
978
981
979
976
973
972
976
980
984
985
987
988
991
998
1003
1004
996
989
985
985
989
999
998
993
989
989
993
996
995
994
993
994
994
993
990
988
987
991
993
991
982
982
986
992
990
987
985
982
977
971
968
968
972
971
969
970
969
973
974
975
971
973
978
981
981
979
976
971
971
970
968
960
957
960
964
978
1006
1039
1085
1142
1200
1245
1261
1240
1193
1123
1044
958
889
863
866
882
897
918
930
940
947
954
956
958
958
959
963
967
969
970
969
965
968
965
972
975
974
975
967
965
965
969
974
976
977
980
980
980
978
979
980
987
992
997
998
1000
1002
1002
1001
998
1000
1008
1012
1016
1014
1014
1018
1017
1016
1023
1033
1039
1037
1041
1046
1051
1055
1058
1056
1057
1059
1063
1065
1065
1065
1067
1066
1062
1061
1062
1058
1050
1042
1038
1036
1032
1027
1023
1020
1016
1012
1010
1006
1001
1000
1000
999
999
998
997
995
994
997
995
991
987
987
990
990
993
992
987
983
979
983
983
984
984
984
989
990
989
989
986
986
988
992
992
991
989
989
991
992
993
993
989
991
991
995
993
992
989
988
989
988
991
993
994
992
992
991
993
995
990
992
994
998
1001
1000
994
1001
1004
1006
1010
1012
1009
1006
1006
1007
1010
1012
1009
1007
1005
1004
1007
1008
1003
999
1005
1007
1002
997
990
994
998
1002
1003
998
998
999
999
995
992
988
984
990
995
998
989
980
974
974
980
983
984
985
982
976
982
980
986
986
985
977
973
971
971
972
975
979
997
1024
1064
1113
1162
1213
1260
1287
1272
1217
1137
1048
951
885
869
882
902
926
946
958
967
973
978
975
976
978
980
979
976
976
978
980
981
984
983
986
984
985
987
986
987
988
991
991
989
990
987
988
993
998
999
1002
1000
1000
1003
1011
1012
1012
1013
1011
1013
1018
1025
1027
1024
1021
1026
1035
1041
1039
1043
1046
1051
1054
1058
1061
1061
1063
1066
1073
1073
1071
1070
1072
1073
1077
1080
1081
1079
1075
1063
1057
1054
1051
1045
1046
1043
1039
1039
1034
1026
1021
1014
1014
1010
1010
1012
1009
1007
1004
1000
999
997
995
998
998
1001
999
998
1000
1003
1005
1010
1007
1007
1005
999
998
995
997
994
994
994
993
992
989
988
987
992
997
996
997
998
1000
1001
1002
1002
998
994
991
992
994
998
999
1000
998
999
999
1000
1000
997
995
998
1001
1001
998
999
1000
1002
1007
1007
1008
1005
1005
1005
1011
1008
1007
1014
1019
1022
1016
1009
1008
1013
1015
1019
1016
1014
1007
1004
1005
1010
1017
1017
1018
1014
1009
1011
1011
1010
1007
1006
1009
1008
1008
1009
1007
1009
1005
1006
1010
1010
1005
997
990
992
991
990
987
981
979
981
987
993
994
991
984
982
983
988
994
993
992
989
987
985
983
980
979
986
1004
1029
1068
1113
1160
1208
1248
1269
1258
1217
1156
1070
979
904
880
884
897
912
927
946
962
971
972
973
973
981
988
992
989
985
980
982
983
984
983
985
986
987
982
981
983
983
992
996
994
991
990
995
999
1003
1005
1006
1005
1005
1007
1007
1009
1009
1008
1012
1019
1026
1031
1027
1024
1025
1033
1041
1041
1049
1055
1060
1064
1064
1060
1057
1062
1067
1077
1081
1078
1076
1072
1070
1074
1079
1081
1074
1066
1059
1061
1065
1062
1058
1056
1052
1046
1043
1036
1030
1026
1017
1013
1014
1012
1008
1006
1007
1001
1002
1001
1000
1004
1004
1001
1000
996
994
997
999
1002
1002
998
991
988
990
994
997
994
991
990
993
992
994
993
991
994
1001
1003
993
992
993
997
997
996
996
998
999
998
997
998
999
1000
994
994
994
996
1002
1006
1007
1009
1013
1015
1010
1003
996
999
1009
1015
1014
1006
1004
1008
1013
1016
1018
1014
1016
1019
1027
1035
1043
1041
1039
1038
1043
1045
1047
1050
1054
1062
1075
1088
1108
1137
1165
1192
1216
1235
1254
1268
1282
1297
1307
1313
1314
1316
1323
1332
1344
1348
1353
1358
1368
1374
1380
1384
1385
1384
1388
1390
1393
1398
1401
1399
1381
1333
1263
1184
1123
1071
1026
982
947
925
909
896
882
874
870
863
861
857
850
845
841
833
826
822
818
814
813
813
805
797
788
785
782
780
778
774
770
763
755
754
755
756
750
744
738
737
741
741
736
735
738
739
737
734
737
742
749
756
760
766
775
783
790
802
812
820
822
825
838
853
866
873
878
884
890
899
905
910
919
929
935
941
943
946
948
951
956
960
961
964
961
960
960
962
966
967
964
964
965
969
969
967
967
965
966
965
962
965
961
960
963
964
967
967
966
969
974
980
982
977
970
968
969
973
976
977
977
978
980
981
983
980
977
973
971
975
981
985
988
988
988
989
991
992
988
982
979
981
986
990
989
985
988
990
989
991
983
987
988
992
993
995
995
995
993
989
983
986
990
993
995
995
997
997
999
1002
1009
1008
1002
1009
1011
1008
1005
1008
1015
1018
1013
1007
1005
1005
1007
1008
1009
1006
1002
1003
1007
1010
1009
1013
1015
1011
1000
992
987
989
987
992
993
995
992
990
988
984
985
988
994
990
990
990
991
995
993
989
980
977
983
992
1009
1031
1061
1107
1159
1215
1265
1298
1304
1272
1219
1140
1046
952
893
878
888
905
923
941
962
975
979
976
971
974
978
982
984
984
984
987
989
991
993
992
993
990
988
989
992
992
993
991
993
991
992
998
1002
999
999
1006
1008
1011
1006
1004
1009
1012
1017
1021
1021
1026
1030
1038
1048
1054
1054
1054
1057
1065
1070
1069
1073
1076
1078
1083
1087
1088
1085
1081
1078
1072
1077
1080
1077
1070
1072
1069
1065
1056
1051
1047
1044
1044
1037
1029
1022
1018
1018
1016
1014
1010
1008
1008
1008
1008
1004
1001
1002
999
1007
1010
1007
1002
998
995
994
995
999
1003
1002
998
1000
1000
1001
999
998
999
1001
1004
1004
1004
998
995
995
997
1000
1000
1000
997
997
994
1001
1002
1007
1006
1006
1004
1003
1000
999
999
998
1005
1009
1011
1004
997
994
994
996
1002
1002
1003
1001
1003
1008
1012
1010
1011
1013
1017
1019
1017
1012
1011
1010
1010
1008
1010
1011
1013
1014
1012
1009
1006
1003
1007
1008
1006
1005
1002
1003
1001
1002
1005
1011
1013
1004
991
987
992
993
991
988
983
988
991
988
989
988
984
981
979
985
989
984
982
981
983
982
977
977
987
1001
1027
1060
1096
1135
1183
1235
1275
1284
1253
1188
1105
1004
916
869
866
889
912
936
954
967
975
979
977
971
968
972
977
977
976
977
980
983
981
979
980
984
984
981
980
979
981
987
993
995
993
991
990
988
986
986
995
1002
1002
999
994
1000
1006
1016
1021
1023
1026
1029
1033
1040
1040
1047
1053
1057
1055
1053
1053
1058
1063
1065
1066
1064
1059
1057
1058
1058
1051
1046
1042
1045
1047
1045
1038
1024
1020
1016
1018
1016
1016
1013
1006
999
997
996
996
995
994
993
994
998
998
992
986
983
986
987
987
987
984
986
992
991
989
983
985
986
990
991
989
984
976
975
980
982
981
979
980
984
987
991
989
986
983
984
987
993
994
994
992
995
995
993
985
981
983
984
989
989
989
991
991
996
999
999
995
995
993
997
998
1000
1004
1001
1003
1005
1008
1005
1002
1000
1000
1002
1006
1007
1004
999
994
995
993
996
997
992
990
993
997
997
991
985
985
986
982
978
978
976
974
972
973
978
978
977
977
977
980
980
977
971
972
974
975
975
974
973
970
968
971
978
990
1009
1036
1075
1126
1174
1224
1260
1271
1245
1186
1107
1013
917
857
853
874
897
913
930
946
957
963
965
958
954
958
963
963
962
964
958
960
960
963
963
966
967
966
964
967
969
971
972
968
971
975
979
976
974
976
977
980
983
981
981
983
983
984
990
992
995
995
995
999
1006
1011
1013
1013
1016
1019
1023
1026
1029
1028
1029
1038
1043
1041
1038
1038
1044
1046
1049
1045
1041
1037
1042
1044
1048
1042
1038
1035
1034
1033
1033
1025
1015
1010
1007
1007
1003
1000
993
987
986
986
985
985
980
976
972
972
973
971
968
969
972
974
971
970
967
965
962
962
963
965
961
962
961
960
960
960
962
960
963
964
970
971
961
955
958
960
963
960
958
957
962
964
961
960
956
955
958
960
966
967
967
963
962
968
969
970
968
968
962
962
963
969
970
969
965
965
970
974
973
971
970
976
977
976
974
975
976
977
978
978
978
972
971
972
977
975
973
975
974
972
968
966
965
962
956
958
963
963
962
957
954
952
950
946
944
945
946
946
943
944
944
945
949
954
958
950
946
944
945
951
951
946
938
938
938
940
941
942
949
959
979
1015
1066
1120
1174
1213
1230
1215
1175
1112
1032
941
870
842
845
854
865
878
895
911
922
926
926
930
933
940
941
940
941
943
945
941
939
940
940
937
934
937
942
945
945
947
951
953
953
954
951
948
945
949
960
962
959
958
960
966
968
965
962
962
966
976
979
979
975
978
990
998
1005
1015
1014
1014
1012
1017
1022
1017
1014
1011
1016
1022
1023
1024
1021
1018
1010
1013
1014
1014
1013
1013
1010
1008
1003
1002
999
996
992
988
984
978
969
963
964
964
960
955
952
952
952
950
956
951
950
947
950
953
958
956
953
951
950
949
948
946
946
947
949
954
955
954
951
952
952
952
948
944
944
947
950
954
961
968
969
967
959
954
953
953
954
958
957
954
954
950
955
956
955
960
963
964
964
965
964
967
969
968
965
962
966
970
975
977
978
976
977
981
982
978
974
971
973
978
982
978
971
966
963
965
965
961
962
961
964
966
966
966
964
963
965
966
968
963
955
942
939
944
950
955
956
957
956
953
949
943
940
940
940
942
947
949
949
945
943
943
943
941
934
928
930
947
972
999
1036
1076
1123
1175
1220
1241
1235
1200
1137
1067
981
901
857
853
863
871
878
891
902
908
914
919
921
927
932
934
937
940
942
941
941
940
937
943
940
939
941
941
942
946
952
952
954
957
955
956
955
953
951
953
958
960
964
963
963
965
967
970
976
975
976
974
981
987
992
992
995
996
1001
1009
1014
1013
1011
1014
1021
1028
1033
1037
1037
1034
1035
1036
1034
1028
1030
1033
1033
1038
1040
1035
1029
1025
1021
1020
1018
1010
1002
998
992
990
993
993
991
990
987
985
980
974
969
967
968
969
970
967
964
962
964
966
967
967
965
967
964
965
961
959
957
952
955
961
958
960
961
963
963
961
962
962
962
960
959
960
965
966
965
966
963
966
971
975
973
970
968
969
972
971
968
963
969
969
971
969
965
966
968
972
973
973
974
977
979
985
986
984
982
982
986
992
996
992
982
976
973
978
982
986
987
985
984
977
970
969
970
971
972
974
977
974
978
976
976
972
970
968
963
954
953
953
957
956
955
955
957
960
962
957
954
951
957
959
957
960
958
960
962
966
969
963
953
942
944
954
978
1003
1037
1080
1134
1194
1244
1265
1250
1198
1118
1025
933
867
847
855
869
885
907
923
936
941
943
946
949
946
950
951
954
953
956
959
958
959
957
959
961
963
962
958
955
960
960
963
960
958
957
955
960
964
966
967
964
967
974
978
979
977
976
978
981
985
986
988
988
994
999
1005
1008
1010
1012
1013
1016
1019
1023
1028
1033
1037
1035
1036
1035
1036
1036
1039
1044
1047
1043
1038
1038
1042
1041
1039
1031
1028
1023
1024
1019
1017
1009
1006
1001
1003
999
994
990
989
989
986
986
983
980
980
978
980
976
974
973
971
972
978
977
976
971
968
970
972
973
972
967
961
965
971
974
976
969
965
966
969
973
968
958
955
957
959
966
965
965
968
969
969
970
971
968
968
965
966
970
969
971
970
967
971
974
977
975
972
966
966
968
972
974
973
977
980
984
985
984
985
983
987
992
991
986
984
983
986
991
991
990
983
980
984
989
990
988
982
978
983
982
983
978
978
980
983
979
978
977
972
967
965
970
973
974
971
964
962
966
970
967
963
963
969
970
968
966
961
955
952
957
958
957
953
958
965
982
1011
1045
1092
1144
1198
1253
1284
1269
1207
1120
1019
922
859
846
860
889
914
935
938
938
941
949
956
959
960
954
950
945
951
952
955
954
954
958
966
967
964
957
959
960
962
964
964
961
956
961
962
965
967
968
970
966
967
968
971
975
979
979
974
979
978
984
987
991
992
999
1005
1010
1015
1023
1028
1028
1028
1028
1031
1037
1042
1047
1044
1038
1036
1034
1035
1039
1041
1041
1036
1032
1031
1029
1026
1021
1016
1014
1015
1016
1009
1002
996
997
997
993
989
986
979
977
978
982
982
979
973
970
973
975
975
973
970
971
972
970
965
964
970
972
975
973
967
964
962
963
969
975
977
973
973
975
976
973
972
970
971
977
982
985
977
969
965
969
973
976
975
973
971
974
977
977
982
980
979
971
971
979
980
978
982
984
992
998
994
994
990
987
988
990
994
992
993
992
992
993
990
988
991
991
993
991
983
979
979
980
984
987
983
977
975
979
985
991
987
978
973
963
968
974
973
969
966
960
964
968
966
963
960
965
974
973
972
968
961
960
964
962
955
948
949
958
973
1001
1030
1064
1104
1156
1216
1264
1274
1242
1181
1111
1033
945
872
849
864
888
910
928
941
947
952
954
960
963
964
961
962
959
959
963
966
966
965
963
964
970
966
965
964
965
968
971
969
969
972
975
980
979
981
984
982
983
986
988
991
990
992
993
992
991
992
1000
1005
1009
1014
1017
1021
1025
1029
1028
1031
1037
1041
1045
1045
1044
1045
1048
1050
1053
1048
1046
1049
1059
1060
1053
1043
1040
1042
1043
1041
1035
1023
1015
1017
1024
1023
1015
1008
999
996
998
999
994
990
985
984
983
985
983
975
974
975
983
985
983
979
980
978
982
981
981
980
981
982
987
984
979
976
969
970
975
979
973
972
971
976
980
982
978
974
971
973
972
977
979
982
984
984
984
981
979
978
978
979
982
982
975
972
973
978
984
985
981
977
981
988
997
1000
997
995
994
998
1004
1004
999
993
992
990
988
987
989
993
989
990
993
994
991
989
985
985
989
990
985
985
986
989
987
986
985
982
979
970
971
971
969
964
958
963
963
974
976
971
964
961
966
966
967
967
967
965
964
961
958
961
968
989
1020
1055
1096
1142
1191
1235
1246
1222
1171
1106
1026
934
871
853
863
880
900
922
937
950
950
951
952
960
964
968
968
962
958
958
961
960
955
955
960
965
965
962
961
964
966
968
968
972
976
975
971
975
982
987
985
980
978
984
993
993
991
986
991
999
1004
1012
1015
1015
1016
1021
1026
1026
1029
1039
1042
1043
1044
1046
1043
1039
1036
1043
1043
1043
1043
1039
1033
1029
1031
1030
1027
1024
1017
1004
1001
1001
997
992
990
990
990
985
978
974
975
979
983
981
977
974
969
972
973
972
966
964
965
968
965
962
963
965
963
961
960
960
954
953
957
963
965
961
960
961
964
966
968
973
971
968
963
961
965
968
969
976
977
978
976
974
970
970
972
975
976
971
971
970
963
964
965
972
971
975
970
975
974
976
983
988
985
976
970
972
978
979
976
976
980
984
980
981
981
980
979
976
976
977
982
982
979
975
970
969
964
963
966
969
969
966
959
956
956
958
956
959
957
954
958
953
946
944
943
