988
988
988
988
987
986
987
985
986
985
990
990
988
988
987
991
992
992
989
984
982
986
987
985
982
979
975
976
977
982
984
980
977
977
977
980
977
971
968
969
972
970
969
968
964
963
965
965
965
962
962
963
966
967
967
965
961
960
961
959
953
946
941
943
954
975
1005
1045
1093
1149
1206
1245
1255
1226
1178
1114
1032
946
881
858
861
873
888
907
928
941
941
944
947
951
954
957
952
954
952
958
959
956
953
952
951
952
952
954
953
953
957
963
965
963
961
959
962
967
970
971
970
971
974
978
984
984
986
991
998
1000
1004
1000
999
999
1006
1011
1018
1021
1017
1016
1016
1019
1023
1025
1026
1030
1033
1034
1035
1027
1024
1020
1023
1024
1023
1023
1022
1023
1022
1021
1019
1013
1010
1005
1005
1002
997
991
985
983
984
980
979
974
968
965
964
961
961
960
956
956
957
954
954
957
955
952
952
953
956
958
961
962
962
959
959
955
954
956
962
963
964
961
961
961
963
965
963
963
961
960
965
966
966
965
966
965
966
969
968
967
964
963
983
1015
1058
1106
1166
1235
1296
1325
1300
1211
1101
997
914
876
891
928
959
976
980
984
981
973
963
958
957
958
958
957
958
959
960
959
957
957
960
964
966
967
966
962
962
962
967
965
963
960
958
960
960
960
962
957
959
958
962
964
966
965
967
969
975
978
979
976
975
972
977
981
989
993
997
994
990
991
995
999
1003
1005
1008
1011
1010
1010
1009
1010
1014
1016
1020
1018
1013
1007
1010
1010
1005
1002
994
991
990
988
985
978
975
971
971
975
973
968
965
962
962
960
960
963
964
964
966
968
967
965
964
966
968
967
964
958
961
967
972
969
962
956
955
954
957
963
962
964
965
962
962
965
968
966
961
959
962
963
964
963
962
959
958
961
960
959
960
961
962
960
959
958
957
959
962
963
960
955
951
953
956
959
960
963
967
967
968
973
975
973
972
975
974
975
971
973
975
973
975
971
969
968
968
968
966
971
967
964
965
964
966
967
962
961
962
965
963
961
955
949
943
945
947
951
951
950
947
947
948
950
949
950
951
950
954
954
950
950
948
951
952
948
943
936
937
944
966
998
1046
1095
1156
1214
1259
1266
1234
1173
1102
1013
924
870
860
865
866
878
896
914
930
933
933
934
940
942
944
944
942
944
944
944
946
948
947
948
951
953
955
954
954
957
958
961
960
955
955
954
961
965
966
957
953
958
966
970
970
969
965
965
969
973
976
978
978
982
991
992
985
983
983
985
992
993
1001
1002
1005
1008
1011
1015
1015
1012
1014
1015
1018
1020
1020
1020
1023
1024
1026
1027
1023
1019
1014
1011
1007
1004
1002
1004
1002
1000
998
995
995
987
979
975
977
975
973
974
971
970
971
971
970
969
968
968
972
973
972
971
969
967
969
970
968
967
962
962
966
971
975
979
977
973
973
975
976
976
975
974
973
975
976
975
975
975
973
976
975
978
979
979
978
980
983
979
982
981
984
984
983
982
979
979
984
989
991
991
985
983
985
991
991
990
987
984
984
988
992
988
986
982
979
977
976
978
974
976
975
974
974
970
967
961
963
964
965
966
961
959
961
964
967
966
960
960
960
959
961
962
961
960
958
959
953
946
946
956
979
1012
1055
1106
1163
1217
1260
1275
1250
1197
1124
1031
934
880
873
886
898
911
928
943
952
954
950
953
959
968
970
970
969
969
969
968
969
964
966
966
966
967
970
970
969
969
971
976
976
980
980
976
979
984
987
986
986
985
988
989
989
994
992
991
993
997
1001
1001
1004
1010
1014
1020
1022
1023
1023
1023
1027
1029
1029
1026
1023
1021
1024
1027
1026
1027
1027
1025
1026
1026
1025
1021
1021
1017
1017
1015
1011
1007
1002
998
995
993
994
993
990
984
983
978
976
974
971
969
968
968
967
962
959
956
958
958
961
962
959
957
960
962
968
968
967
961
964
971
971
969
963
959
958
959
963
964
962
960
961
963
964
963
959
958
957
959
959
960
956
954
964
969
972
971
968
970
974
974
972
974
974
973
972
974
975
970
966
967
968
970
972
969
964
961
962
963
960
956
944
948
951
954
952
953
950
948
947
948
947
943
936
935
936
939
941
939
937
938
939
940
942
939
936
933
939
940
938
938
934
931
925
923
920
926
940
970
1009
1059
1114
1177
1227
1249
1233
1175
1090
989
894
834
824
837
856
876
895
908
918
923
923
925
927
927
927
930
930
925
926
928
928
931
931
934
934
933
934
935
933
931
928
930
932
936
935
937
938
937
940
944
950
951
951
945
945
946
950
951
953
952
956
956
957
959
959
961
966
972
972
972
973
975
978
981
984
984
986
985
988
990
989
988
985
986
991
995
994
994
991
984
983
981
980
976
969
965
962
960
960
960
957
954
952
949
948
945
943
938
939
940
936
939
938
937
939
939
938
939
935
936
933
931
932
931
929
931
935
939
938
936
935
934
933
936
937
935
932
933
930
933
933
931
929
926
931
931
933
934
932
933
934
934
933
938
940
944
947
952
953
950
948
946
948
951
956
955
950
947
947
948
950
950
947
946
944
945
942
941
937
939
939
941
942
943
942
944
940
943
944
940
938
932
932
937
939
938
934
934
937
944
941
937
932
931
934
938
940
941
936
930
931
927
926
927
934
950
973
1010
1060
1117
1179
1231
1259
1246
1185
1100
999
900
837
827
839
858
873
888
905
917
925
928
930
932
932
935
935
935
932
933
936
938
942
940
939
943
946
949
950
952
950
949
954
958
960
960
958
956
961
964
967
967
965
965
969
974
977
976
976
979
982
986
992
997
996
994
995
1004
1011
1010
1008
1008
1009
1010
1012
1013
1014
1013
1015
1018
1023
1019
1016
1011
1013
1017
1015
1015
1013
1009
1007
1006
1004
1000
994
987
984
984
984
983
979
976
976
977
975
973
968
969
968
971
972
969
963
962
963
966
969
967
964
963
965
965
967
968
966
967
970
971
973
974
971
972
971
972
975
976
974
970
970
975
976
974
971
968
973
973
974
970
971
971
974
976
981
982
983
981
982
986
991
991
992
991
990
990
993
993
994
994
992
994
997
994
990
987
983
981
988
988
987
981
982
988
995
994
990
984
985
984
981
976
972
973
976
974
973
974
976
977
978
979
980
977
973
975
976
977
977
980
979
978
975
970
968
967
969
983
1011
1050
1100
1157
1215
1262
1292
1278
1227
1149
1055
960
887
864
881
902
921
936
953
964
969
975
974
975
976
977
980
980
982
981
980
982
983
980
976
976
981
984
983
983
981
983
985
985
986
985
988
990
990
995
1001
1002
999
1000
1005
1009
1011
1012
1011
1012
1013
1017
1019
1023
1021
1020
1023
1028
1032
1036
1040
1040
1042
1046
1050
1049
1051
1052
1052
1055
1060
1061
1060
1062
1067
1072
1069
1071
1068
1060
1060
1061
1058
1055
1050
1047
1043
1042
1040
1035
1029
1024
1020
1016
1014
1010
1007
1005
1005
1007
1005
1002
998
992
993
996
1000
1000
998
1001
1001
999
1001
998
995
995
995
1000
1001
1000
1000
997
996
997
999
999
999
997
999
1001
999
995
994
995
995
996
996
996
995
992
995
997
996
998
995
997
996
1000
1002
1002
1001
1002
1003
1005
1006
1007
1005
1007
1012
1015
1016
1014
1013
1013
1014
1014
1018
1015
1012
1012
1010
1010
1008
1005
999
1001
1005
1004
1002
1000
1002
1000
1001
1000
998
996
993
987
987
989
988
987
984
984
984
988
988
988
986
988
990
995
995
995
992
990
989
993
990
986
977
975
979
993
1006
1034
1067
1112
1167
1224
1273
1289
1259
1202
1127
1040
950
884
863
877
900
923
942
959
966
970
978
986
990
987
984
982
982
988
987
986
986
986
991
992
993
991
987
986
987
988
989
991
990
990
993
995
997
996
994
995
996
995
993
992
991
991
995
998
1003
1005
1005
1005
1008
1013
1016
1021
1020
1021
1024
1028
1032
1036
1036
1040
1046
1051
1056
1057
1058
1055
1059
1065
1065
1064
1059
1058
1059
1062
1063
1062
1060
1056
1058
1060
1056
1055
1051
1048
1046
1043
1042
1039
1034
1026
1023
1023
1020
1017
1010
1006
1001
1002
1000
997
995
991
992
994
994
994
991
989
992
995
1000
995
993
994
992
989
992
992
991
990
993
994
996
995
989
988
986
988
989
987
987
986
987
994
993
991
988
986
986
986
984
983
983
978
980
983
984
985
985
987
988
991
998
997
1001
998
997
1001
1005
1007
1006
1002
1000
1001
1003
1003
1001
996
996
998
999
1000
997
995
993
991
993
994
992
993
996
998
998
993
991
986
984
983
982
981
978
977
979
979
981
982
979
976
978
977
978
976
975
971
972
973
976
976
974
970
965
964
968
985
1011
1046
1095
1155
1208
1248
1255
1230
1175
1104
1014
925
870
864
878
899
918
940
955
961
964
965
972
975
974
974
972
974
977
976
974
973
976
981
984
983
977
973
975
979
982
983
982
979
984
990
991
990
986
982
984
989
997
996
995
995
998
1003
1006
1007
1006
1007
1011
1019
1024
1026
1022
1020
1027
1037
1042
1045
1046
1042
1043
1045
1048
1050
1045
1049
1050
1053
1056
1057
1053
1044
1043
1049
1048
1045
1044
1040
1036
1037
1038
1036
1031
1024
1021
1018
1022
1013
1004
996
992
993
993
993
991
990
983
981
984
989
989
986
984
986
990
988
986
986
985
983
983
981
979
979
983
987
993
991
987
983
980
978
984
985
987
988
987
985
981
983
981
983
983
981
985
984
984
980
979
985
988
990
990
990
991
994
994
997
996
999
1001
1001
1000
997
994
993
992
1000
1004
998
992
990
988
990
996
997
994
992
991
990
994
993
986
981
982
983
985
984
985
983
985
985
984
980
976
973
971
974
976
975
971
967
967
966
968
970
972
971
973
977
979
977
977
976
972
969
967
963
956
955
960
968
986
1007
1035
1075
1122
1179
1231
1259
1259
1225
1169
1098
1014
928
876
866
875
887
898
915
932
945
952
955
955
956
957
960
962
963
967
968
964
962
962
963
968
966
963
962
967
972
976
974
974
974
977
979
980
980
979
978
980
980
981
980
982
984
988
991
990
993
994
999
1001
1008
1009
1009
1008
1011
1015
1019
1020
1022
1022
1021
1026
1030
1036
1037
1035
1037
1038
1039
1041
1042
1042
1040
1041
1046
1045
1044
1039
1034
1031
1030
1029
1030
1027
1025
1023
1027
1026
1019
1014
1007
1004
999
995
991
988
986
982
985
986
980
975
975
976
974
978
975
974
971
968
971
972
972
970
971
969
973
976
973
971
972
974
975
975
974
971
972
972
973
978
975
973
973
975
977
980
978
975
975
978
981
979
978
974
973
975
978
979
978
976
978
980
983
985
988
986
984
984
987
990
989
984
982
983
980
985
985
982
979
980
979
978
971
972
971
969
969
975
980
981
984
982
985
987
984
983
977
977
974
971
969
967
965
965
966
970
966
962
963
961
963
964
961
961
961
962
963
964
962
957
951
946
955
968
992
1022
1057
1108
1161
1217
1258
1274
1253
1202
1128
1040
945
876
853
867
887
905
926
940
946
951
955
957
961
963
962
964
970
968
963
961
965
969
970
970
968
968
970
973
977
980
977
975
976
977
979
980
982
982
981
980
985
989
985
984
985
986
990
994
997
996
996
997
1002
1007
1009
1006
1007
1012
1018
1023
1023
1026
1028
1031
1036
1042
1043
1044
1042
1044
1045
1047
1048
1050
1051
1052
1056
1054
1051
1048
1045
1037
1043
1042
1037
1030
1023
1021
1020
1019
1009
1004
1002
999
1001
1000
997
994
988
990
989
990
989
984
981
982
984
985
986
980
979
983
988
994
992
988
985
984
987
989
990
987
983
985
987
992
993
989
988
987
989
991
986
986
986
985
992
991
987
984
983
984
987
989
989
987
984
985
990
995
995
994
994
995
1001
1005
1003
1003
999
999
1001
1004
1007
999
997
997
998
999
997
992
991
991
995
998
997
993
987
989
985
992
991
990
990
991
991
994
992
985
980
975
976
979
977
977
975
975
979
977
975
973
971
972
974
973
973
972
972
974
977
976
972
964
960
961
970
990
1017
1051
1096
1153
1214
1265
1286
1262
1198
1108
1010
921
869
861
882
904
928
944
953
963
966
972
978
981
976
976
976
975
978
980
980
976
975
976
980
979
982
977
976
979
981
983
983
983
984
985
985
989
985
988
989
989
991
995
995
995
995
998
1004
1009
1010
1016
1020
1021
1024
1029
1033
1034
1037
1038
1042
1047
1051
1052
1051
1052
1055
1060
1059
1058
1059
1058
1060
1062
1061
1056
1052
1051
1050
1048
1043
1037
1034
1029
1029
1025
1021
1016
1011
1008
1006
1005
1001
998
996
996
998
998
995
993
989
989
991
995
995
992
991
993
993
996
995
990
988
991
995
997
994
987
984
984
986
987
988
987
984
985
985
988
987
986
987
984
986
988
989
987
983
983
987
992
991
989
986
989
989
990
991
988
986
990
991
997
1000
1003
1004
1002
1005
1003
1004
1005
1002
1006
1008
1009
1009
1006
1004
1001
1004
1002
1003
1000
997
995
995
992
990
988
990
990
992
996
997
993
989
987
985
984
980
979
982
982
983
983
984
980
977
977
979
980
980
981
980
979
980
983
981
977
972
971
968
967
968
972
987
1016
1051
1094
1148
1204
1247
1261
1236
1180
1103
1013
927
873
865
882
899
916
932
950
960
971
970
970
971
973
978
977
976
974
975
977
977
979
979
979
978
978
979
978
980
979
979
980
979
982
985
983
982
982
985
988
987
987
989
993
996
1000
1002
1000
1001
1005
1004
1009
1011
1013
1015
1015
1019
1023
1027
1027
1025
1029
1033
1037
1040
1042
1046
1050
1056
1058
1060
1056
1057
1060
1062
1060
1053
1051
1047
1047
1045
1045
1044
1039
1034
1029
1029
1028
1024
1020
1013
1008
1003
1003
1001
998
992
990
991
992
989
988
986
982
983
986
985
982
979
979
980
984
984
979
975
977
975
975
973
970
970
973
977
977
977
977
977
980
983
985
984
982
982
980
982
982
978
974
973
973
976
979
982
979
973
976
980
982
986
986
982
982
982
990
990
993
993
992
994
998
997
996
988
990
992
991
991
989
989
986
988
991
990
984
982
980
983
988
986
982
979
980
982
983
977
970
962
960
962
967
967
963
959
962
963
962
960
959
963
964
966
969
968
963
963
961
965
967
967
960
955
957
969
989
1017
1054
1098
1158
1216
1253
1255
1221
1171
1099
1009
925
873
865
875
883
891
911
929
938
943
944
949
954
957
954
953
956
954
955
956
957
958
963
968
970
969
967
964
967
968
970
971
967
968
971
975
977
979
976
971
974
978
983
984
981
984
988
991
993
994
989
992
991
999
1003
1006
1004
1005
1012
1020
1029
1031
1030
1031
1031
1035
1038
1037
1036
1037
1037
1039
1041
1039
1037
1033
1033
1034
1035
1032
1026
1020
1018
1018
1017
1010
1006
998
994
992
989
985
978
978
982
984
982
979
978
971
974
974
973
972
970
969
968
968
972
970
967
962
965
964
967
966
964
962
966
967
971
967
967
964
963
966
970
968
962
958
957
962
967
971
968
964
964
963
971
971
967
965
965
968
971
968
970
965
966
969
971
973
967
967
971
975
979
976
970
968
975
979
981
980
976
972
971
972
975
977
974
970
967
972
973
970
964
964
968
973
973
973
971
967
969
971
975
970
961
957
958
957
961
958
957
954
955
955
960
962
956
955
953
956
957
957
954
951
951
952
952
949
941
937
945
959
985
1018
1055
1103
1158
1213
1251
1254
1221
1166
1094
1008
914
854
843
859
880
898
920
932
937
940
946
949
954
954
951
950
947
950
952
955
954
956
954
955
956
958
957
954
957
959
961
963
962
961
963
970
972
972
970
971
970
972
978
983
982
983
983
987
993
995
996
997
1000
1003
1010
1012
1011
1012
1015
1021
1026
1028
1029
1028
1029
1031
1034
1037
1036
1035
1034
1038
1041
1038
1033
1030
1023
1024
1020
1020
1013
1008
1002
996
998
995
989
980
978
976
978
976
972
966
965
966
966
966
964
961
963
964
966
965
962
958
958
963
961
962
959
958
959
964
969
967
963
961
961
962
962
960
958
957
958
958
960
958
956
959
961
963
964
962
962
958
957
959
965
962
961
958
958
960
961
962
961
960
963
969
973
970
969
966
971
973
972
969
964
964
966
967
965
962
957
955
949
951
952
954
948
947
952
956
956
953
948
944
942
943
944
943
942
941
943
944
946
945
942
941
941
944
945
943
938
939
935
933
931
928
932
944
968
1004
1048
1104
1160
1215
1244
1231
1173
1084
979
883
826
823
843
868
886
905
917
931
937
941
938
937
936
938
938
938
939
938
934
938
942
941
938
937
938
940
941
939
940
937
940
945
947
945
943
943
945
946
950
953
952
953
953
956
961
962
961
962
966
969
972
976
979
981
980
987
989
993
994
993
994
999
1003
1004
1005
1004
1005
1009
1012
1011
1012
1012
1014
1016
1014
1016
1015
1011
1007
1006
1006
1005
1001
995
988
985
984
981
974
968
967
964
963
963
960
956
955
954
954
958
955
949
948
951
952
950
946
944
945
946
948
950
950
953
949
951
952
955
954
954
953
953
955
955
952
951
951
952
954
954
951
949
948
952
953
955
950
949
947
950
952
951
949
947
949
952
960
961
959
958
959
964
967
969
969
968
967
969
974
979
976
976
975
973
972
973
970
969
967
968
970
968
967
961
959
958
960
961
957
957
955
960
963
962
961
956
954
956
954
951
946
943
945
944
950
952
950
949
947
949
949
949
948
947
946
947
948
948
947
943
940
938
940
936
937
939
952
977
1011
1048
1098
1149
1202
1245
1255
1219
1146
1056
953
871
839
845
864
885
904
921
