963
963
961
958
955
960
964
960
955
954
954
956
959
958
955
954
954
954
957
955
950
950
949
952
952
950
949
948
947
947
945
942
938
930
927
930
934
937
935
932
929
929
932
931
927
925
925
929
933
931
933
928
928
930
933
928
918
909
912
919
934
951
972
1009
1059
1119
1175
1213
1218
1192
1143
1083
1006
915
851
833
844
855
866
877
893
906
911
911
913
916
923
924
925
924
924
927
926
925
922
923
924
927
930
931
930
928
927
925
926
929
930
933
939
944
944
944
944
947
952
948
952
952
954
956
955
957
961
962
961
958
962
962
965
968
972
979
986
987
992
991
994
995
997
996
992
990
990
999
1003
1005
1006
1005
1004
1001
1003
1003
1000
995
986
988
988
988
982
975
968
967
967
963
959
956
953
952
951
950
950
947
944
946
949
947
946
941
936
937
943
945
942
942
940
942
944
946
939
940
942
941
945
946
946
945
944
943
947
948
948
944
942
946
948
949
948
947
949
950
949
949
948
946
947
950
954
956
957
955
953
955
959
964
965
967
963
964
967
969
970
967
967
969
970
972
968
963
965
965
968
970
966
962
959
962
960
962
963
963
965
966
969
967
965
963
961
961
958
956
955
956
955
955
957
954
956
950
952
953
954
955
955
954
956
959
961
960
955
948
946
950
964
987
1019
1057
1109
1171
1224
1250
1233
1182
1107
1012
918
866
861
874
883
900
922
940
948
948
948
952
955
959
960
958
955
955
959
958
956
957
957
958
960
960
961
959
956
956
962
967
967
964
964
966
971
974
977
977
979
980
982
984
987
986
984
987
990
993
995
995
997
1003
1004
1006
1008
1008
1011
1014
1018
1017
1023
1022
1022
1025
1032
1035
1038
1038
1038
1042
1044
1045
1045
1042
1038
1036
1040
1037
1037
1033
1027
1024
1023
1021
1019
1012
1006
1004
1004
1002
998
993
989
990
990
991
991
987
984
984
985
987
987
982
983
983
984
987
987
983
980
986
990
993
993
988
986
985
988
989
988
985
983
988
991
988
989
987
984
988
990
987
988
991
989
991
993
994
994
992
985
986
989
991
996
995
998
1001
1002
1004
1005
1006
1006
1007
1012
1015
1012
1008
1006
1006
1007
1008
1005
1003
1002
999
999
1002
1003
1001
1000
1002
1005
1004
1000
996
993
991
988
986
987
984
985
987
987
987
986
986
984
987
989
993
992
992
991
992
994
996
993
987
981
979
984
994
1016
1048
1088
1141
1203
1257
1296
1303
1270
1202
1122
1031
940
886
883
905
930
955
971
980
985
989
991
996
996
992
989
990
992
992
993
993
991
993
996
997
997
998
999
1001
1003
1004
1004
1000
1001
1002
1003
1011
1012
1010
1009
1010
1016
1019
1016
1017
1018
1021
1026
1030
1034
1031
1034
1035
1039
1043
1043
1047
1047
1054
1060
1064
1064
1064
1063
1063
1069
1070
1070
1068
1066
1074
1077
1078
1077
1073
1072
1072
1072
1073
1065
1059
1056
1055
1054
1052
1047
1039
1037
1036
1035
1033
1027
1022
1018
1019
1020
1022
1018
1014
1014
1013
1016
1019
1015
1014
1012
1016
1020
1018
1018
1016
1014
1017
1019
1020
1018
1010
1010
1012
1014
1013
1013
1013
1008
1009
1012
1015
1015
1011
1011
1008
1015
1014
1014
1012
1011
1014
1017
1016
1016
1013
1015
1015
1019
1018
1016
1016
1013
1018
1016
1019
1019
1021
1023
1026
1030
1033
1031
1030
1034
1032
1035
1036
1034
1035
1031
1033
1034
1036
1035
1032
1030
1029
1030
1031
1027
1024
1023
1025
1025
1025
1024
1025
1025
1027
1024
1023
1019
1014
1010
1012
1011
1012
1006
1003
1004
1007
1010
1011
1007
1007
1008
1006
1011
1013
1012
1005
1004
1005
1005
1008
1003
995
994
1003
1017
1038
1065
1097
1139
1197
1252
1296
1313
1285
1226
1147
1062
974
914
896
911
931
952
970
980
988
991
994
999
1003
1001
1001
1001
1005
1007
1010
1009
1009
1007
1008
1012
1012
1010
1010
1010
1013
1016
1021
1019
1016
1016
1016
1019
1022
1023
1021
1018
1020
1023
1026
1025
1023
1022
1022
1026
1028
1030
1028
1026
1029
1035
1037
1036
1040
1042
1048
1053
1057
1059
1063
1064
1067
1072
1074
1073
1074
1075
1077
1081
1083
1080
1078
1082
1083
1081
1083
1079
1080
1078
1077
1076
1074
1072
1066
1062
1058
1062
1063
1063
1051
1047
1045
1046
1044
1042
1032
1029
1026
1026
1025
1023
1017
1013
1016
1018
1020
1021
1017
1016
1017
1019
1019
1016
1013
1011
1014
1016
1014
1011
1011
1011
1009
1012
1015
1012
1010
1009
1008
1009
1011
1012
1010
1008
1010
1013
1016
1012
1009
1008
1010
1012
1015
1014
1011
1008
1009
1012
1013
1012
1009
1012
1014
1019
1019
1019
1019
1017
1019
1018
1022
1026
1026
1026
1029
1031
1033
1030
1031
1030
1030
1030
1030
1024
1022
1016
1020
1024
1027
1025
1025
1022
1026
1026
1028
1023
1018
1020
1022
1022
1022
1019
1019
1017
1016
1016
1014
1011
1006
1004
1004
1005
1004
1004
1002
996
997
997
998
1000
998
997
999
1000
1002
999
998
995
996
995
995
988
984
986
997
1014
1040
1071
1112
1162
1216
1261
1277
1255
1208
1145
1062
975
915
896
902
910
925
946
968
979
987
988
988
990
995
998
996
992
993
993
994
990
989
990
995
998
1000
997
999
998
997
1002
1004
1001
996
995
996
998
1004
1006
1007
1007
1004
1009
1011
1012
1007
1006
1009
1014
1019
1019
1020
1020
1019
1023
1024
1026
1026
1027
1029
1032
1033
1037
1039
1041
1043
1049
1055
1055
1051
1049
1052
1053
1055
1054
1053
1057
1059
1061
1062
1060
1057
1056
1055
1057
1058
1060
1055
1053
1052
1046
1046
1041
1033
1030
1030
1030
1026
1018
1009
1007
1007
1009
1009
1003
999
994
996
996
995
992
988
987
990
992
994
991
989
984
988
992
995
993
992
990
990
993
996
995
994
992
994
996
996
990
989
988
987
995
997
994
992
990
993
994
997
994
988
989
986
989
989
992
989
986
988
991
992
992
988
990
993
994
997
999
997
999
999
1001
1005
1003
1002
1002
1008
1010
1012
1013
1006
1006
1002
1005
1007
1004
1005
1005
1002
999
1001
1000
1000
998
1000
1002
1004
1002
1000
998
1001
1002
1000
995
990
985
982
984
985
982
978
978
979
984
985
984
981
978
977
982
984
981
978
976
975
979
980
982
979
977
975
973
972
972
977
984
1005
1035
1072
1121
1172
1223
1258
1260
1231
1173
1097
1007
921
879
875
886
896
906
927
943
953
958
958
955
963
965
965
963
964
961
964
966
968
968
968
967
969
971
973
975
974
972
972
975
977
977
976
974
977
979
983
982
986
982
982
989
991
991
987
986
990
990
994
993
997
998
1003
1008
1011
1012
1014
1015
1015
1017
1021
1021
1023
1024
1027
1030
1033
1032
1030
1030
1033
1036
1035
1032
1030
1026
1025
1025
1023
1020
1014
1010
1006
1006
1006
1004
998
990
987
988
987
987
983
982
977
978
978
975
973
971
970
973
973
969
967
965
966
968
968
966
966
966
967
967
972
966
966
965
967
968
970
970
967
964
967
970
970
971
966
966
964
963
969
969
970
967
968
969
971
970
968
965
965
967
970
968
967
967
965
967
972
974
971
971
971
974
979
978
979
976
976
978
982
981
979
977
978
979
978
978
973
972
971
973
975
971
968
969
969
969
972
970
966
965
965
970
974
973
971
966
962
959
957
953
949
947
951
953
953
955
955
955
958
956
957
958
955
954
954
957
960
959
957
950
947
944
943
943
949
968
994
1030
1073
1122
1180
1227
1259
1252
1206
1128
1041
952
877
841
849
866
881
899
917
929
937
939
940
941
940
943
944
944
944
942
944
951
955
954
952
953
955
960
960
958
959
956
958
957
960
962
961
957
960
963
966
967
967
966
970
971
975
974
974
972
975
977
980
981
982
984
991
995
998
1002
1004
999
1003
1009
1014
1013
1010
1009
1011
1018
1024
1024
1022
1020
1023
1026
1028
1027
1026
1024
1024
1029
1029
1026
1023
1018
1019
1018
1016
1007
1003
997
998
999
1001
996
991
988
990
991
992
992
987
985
984
987
987
984
983
981
983
993
993
985
978
982
984
984
985
985
981
979
979
982
984
981
976
972
967
967
967
966
962
962
964
966
967
965
961
956
960
962
965
967
967
965
962
962
965
964
962
960
964
967
966
967
964
964
961
962
961
955
946
945
951
967
987
1020
1063
1113
1174
1227
1255
1241
1190
1113
1024
934
868
852
869
894
920
938
952
958
959
959
963
967
970
969
966
965
965
969
970
970
969
967
970
971
976
974
972
970
970
972
980
978
978
978
978
980
984
982
982
980
983
991
995
997
994
997
999
1002
1005
1007
1006
1006
1010
1014
1017
1020
1018
1019
1021
1028
1028
1032
1033
1030
1032
1036
1038
1036
1034
1034
1035
1038
1040
1038
1038
1034
1031
1032
1033
1029
1021
1018
1017
1016
1016
1010
1004
998
994
994
996
996
992
994
993
992
991
990
989
986
986
988
987
988
984
984
983
987
988
988
987
982
985
988
988
987
984
982
984
987
988
986
987
984
984
985
991
987
986
984
984
988
992
988
984
982
982
987
989
987
986
988
986
988
990
989
988
985
983
985
984
985
982
982
981
983
985
983
982
981
983
987
988
986
985
981
982
987
991
992
989
987
987
989
990
990
988
989
989
990
992
990
987
985
985
990
989
985
988
986
989
989
988
988
984
985
985
991
993
992
992
992
996
997
1000
1002
1003
1003
1008
1009
1012
1012
1010
1011
1008
1005
1008
1007
1004
1004
1003
1005
1007
1008
1004
1002
1005
1003
1005
1005
1003
1001
997
1002
1006
1005
1002
998
995
994
992
990
983
981
983
985
985
985
982
983
982
986
988
985
982
981
985
990
988
988
985
980
977
987
998
1017
1041
1077
1128
1183
1241
1276
1278
1239
1173
1093
1008
920
882
880
899
915
931
946
959
967
973
978
984
983
981
981
983
984
988
986
983
985
986
987
988
988
985
985
989
991
996
994
990
993
993
995
996
994
990
988
992
1001
1004
1007
1003
1006
1013
1017
1020
1018
1017
1018
1022
1026
1034
1035
1034
1036
1036
1042
1045
1046
1047
1047
1050
1054
1058
1054
1057
1054
1060
1069
1074
1075
1070
1069
1072
1073
1073
1070
1069
1065
1067
1071
1071
1064
1062
1056
1056
1052
1052
1047
1040
1035
1033
1031
1031
1026
1022
1020
1020
1020
1021
1016
1012
1010
1014
1016
1015
1013
1010
1011
1009
1008
1011
1012
1011
1010
1014
1014
1016
1016
1012
1011
1015
1018
1020
1019
1016
1016
1016
1016
1016
1016
1014
1013
1012
1016
1017
1018
1018
1016
1015
1016
1018
1017
1012
1010
1013
1014
1015
1016
1016
1015
1015
1017
1019
1018
1017
1017
1021
1023
1024
1026
1025
1025
1022
1027
1025
1025
1021
1021
1024
1028
1027
1025
1025
1024
1024
1025
1023
1024
1019
1015
1018
1021
1024
1020
1015
1009
1009
1006
1001
1000
995
995
998
999
1001
1006
1003
999
998
994
996
995
994
992
992
995
995
995
993
989
984
984
985
990
1002
1019
1055
1103
1156
1209
1253
1269
1255
1212
1156
1078
987
920
897
907
922
935
950
965
984
991
994
989
987
987
996
998
997
997
998
997
998
1002
1001
999
1000
1001
1002
1008
1009
1006
1003
1002
1000
1002
1005
1008
1005
1006
1008
1015
1020
1016
1014
1007
1011
1013
1020
1020
1024
1025
1025
1030
1034
1037
1041
1043
1046
1049
1051
1052
1056
1057
1061
1063
1065
1060
1057
1056
1056
1062
1060
1064
1061
1060
1055
1057
1060
1058
1055
1052
1049
1049
1043
1036
1030
1025
1023
1019
1017
1014
1012
1005
1007
1006
1010
1009
1005
1003
999
1000
998
997
998
997
994
998
1003
1000
997
992
992
991
994
993
996
994
997
997
998
996
991
991
992
995
996
996
993
989
987
989
993
993
993
993
993
996
997
996
996
993
995
997
999
996
995
993
995
1000
1001
1003
1004
1003
1004
1006
1008
1006
1003
1002
1002
1005
1007
1006
1006
1003
1002
1004
1006
1004
1005
1001
1003
1006
1005
1000
998
992
996
998
1000
999
996
994
994
999
997
995
994
986
985
986
985
986
983
980
982
983
986
980
980
982
987
987
988
984
982
979
981
981
983
979
976
971
978
988
1005
1029
1059
1101
1156
1215
1260
1270
1243
1184
1112
1026
937
888
883
895
906
921
944
957
962
965
966
969
976
976
977
970
972
973
978
976
974
971
973
975
980
979
975
978
980
982
984
985
984
984
985
988
992
996
993
993
994
993
998
1002
1001
998
999
1002
1009
1014
1015
1016
1020
1025
1028
1030
1031
1031
1034
1034
1040
1043
1041
1039
1040
1044
1045
1047
1044
1042
1044
1047
1047
1046
1043
1037
1034
1033
1034
1030
1024
1018
1014
1011
1009
1007
1003
1002
999
998
998
993
992
992
990
991
992
988
982
981
984
985
987
986
981
983
981
982
983
982
980
976
981
982
985
982
980
981
981
983
984
983
981
982
981
978
981
984
983
984
984
986
986
987
983
983
985
989
990
988
985
984
983
986
986
987
991
990
995
997
1002
1002
1001
998
997
1001
1005
1000
998
996
996
998
998
998
994
992
994
997
997
996
990
989
987
992
993
991
992
986
984
984
987
980
974
973
975
975
978
975
973
975
974
978
980
979
977
976
976
978
981
982
980
976
976
970
967
966
972
987
1017
1058
1107
1165
1222
1263
1266
1226
1146
1043
928
863
860
889
921
945
957
964
967
971
974
976
974
972
975
976
978
979
978
978
978
980
981
983
982
984
985
990
991
992
991
988
988
990
995
999
997
999
1001
1006
1010
1009
1010
1008
1012
1015
1021
1022
1020
1023
1025
1032
1035
1036
1037
1037
1038
1042
1048
1048
1047
1048
1051
1054
1055
1055
1050
1050
1049
1050
1049
1046
1047
1040
1041
1039
1039
1036
1032
1026
1021
1021
1021
1015
1010
1008
1005
1004
1004
1005
1000
996
994
997
998
992
994
992
990
993
992
988
990
988
988
992
992
991
989
990
990
991
991
990
988
987
987
988
989
990
987
984
986
989
990
990
987
988
988
988
989
988
988
988
988
987
986
988
986
986
987
988
992
991
989
990
987
997
1000
1001
1000
999
997
998
1001
1003
1002
1002
1003
1004
1004
1002
999
997
998
998
1002
1000
998
997
992
991
993
994
993
989
990
993
993
992
987
982
980
977
977
977
974
972
975
974
977
975
973
974
975
975
976
975
970
971
973
975
979
974
973
971
969
967
964
966
969
980
1001
1036
1074
1125
1176
1225
1258
1258
1224
1152
1064
974
896
863
871
892
910
929
944
958
965
969
966
967
969
970
972
972
969
969
967
967
970
969
967
965
967
968
973
974
973
973
971
975
978
979
975
977
976
980
986
983
985
984
981
986
990
991
989
986
991
998
1001
1002
1002
1003
1005
1005
1010
1013
1013
1014
1016
1019
1024
1027
1030
1028
1027
1034
1039
1040
1039
1039
1041
1042
1042
1042
1044
1042
1043
1041
1045
1045
1044
1042
1040
1037
1035
1033
1030
1028
1025
1021
1016
1011
1004
1001
996
996
996
994
989
988
984
984
986
985
979
979
980
982
983
981
977
976
974
977
977
977
975
974
973
975
974
976
976
975
972
972
974
975
976
974
973
973
975
974
976
973
973
975
978
977
974
974
975
976
979
980
979
978
979
978
980
980
978
977
977
984
986
986
985
985
989
990
989
990
990
991
991
990
995
993
989
989
989
989
994
989
987
982
982
982
984
978
978
974
974
979
978
976
975
974
977
978
975
973
966
964
962
962
965
962
963
961
959
965
968
969
966
963
966
965
963
963
963
962
962
967
967
967
962
960
954
952
953
961
970
986
1014
1047
1091
1136
1182
1220
1243
1236
1202
1147
1077
995
910
861
857
873
889
905
923
938
950
953
951
952
953
956
961
964
962
963
962
964
966
964
963
959
961
965
966
966
964
962
964
967
970
972
970
968
968
970
975
975
971
966
966
971
975
977
977
978
976
981
983
985
984
985
987
990
995
995
995
997
999
1005
1011
1012
1012
1014
1016
1020
1021
1020
1021
1020
1019
1019
1022
1021
1022
1020
1019
1022
1024
1028
1026
1021
1019
1019
1013
1017
1014
1009
1001
998
995
991
987
980
976
974
974
973
970
965
964
962
962
964
958
959
958
957
958
954
953
948
948
950
953
951
947
945
947
951
952
950
949
952
949
952
953
954
950
946
945
946
949
949
947
947
946
948
950
951
948
948
950
956
955
950
945
944
946
947
950
953
950
948
948
950
953
954
955
954
955
954
954
957
955
958
956
958
956
958
954
952
951
951
957
956
955
951
950
948
950
947
945
941
940
940
945
945
942
940
941
941
936
931
925
921
924
926
927
924
924
923
923
928
930
930
927
925
927
928
930
930
927
922
925
927
924
919
913
913
913
927
946
969
1001
1045
1100
1154
1193
1203
1178
1128
1059
974
892
843
832
835
847
860
874
891
905
911
914
913
916
916
912
910
912
917
920
919
911
911
913
917
921
919
922
915
917
923
927
934
928
924
922
923
931
933
933
930
931
930
934
935
935
935
938
946
949
946
946
944
943
952
956
961
965
964
966
964
965
965
965
969
975
977
981
984
983
984
985
986
991
994
992
988
988
991
994
993
991
987
985
988
989
989
985
978
973
971
970
969
962
956
956
956
953
945
941
940
942
945
945
944
941
940
937
940
938
942
938
936
935
933
935
934
935
932
927
933
936
937
935
934
931
932
937
940
940
934
933
934
939
939
937
937
938
943
944
942
937
935
936
939
942
943
943
939
939
942
944
946
946
940
944
943
945
948
948
950
949
955
958
961
961
957
955
955
960
963
965
960
962
962
961
960
956
955
955
958
960
959
959
957
957
958
957
956
953
953
954
958
961
962
957
954
955
957
957
953
948
946
946
949
952
952
949
944
947
948
951
950
950
945
949
951
954
948
948
945
948
945
946
941
935
938
946
964
991
1022
1069
1122
1178
1230
1250
1230
1184
1121
1039
952
893
874
873
881
887
907
925
939
943
944
946
950
957
959
957
954
956
958
959
958
957
959
956
958
963
964
962
959
962
968
968
971
969
967
966
968
974
977
975
971
972
976
982
982
983
982
984
989
990
989
990
992
992
997
1003
1005
1007
1007
1009
1014
1024
1030
1030
1032
1040
1044
1044
1048
1041
1039
1037
1042
1046
1045
1043
1042
1040
