967
967
964
963
964
966
963
957
953
957
962
964
960
953
948
946
953
956
958
960
960
963
962
958
952
952
954
958
963
962
956
952
947
951
964
986
1010
1038
1071
1115
1151
1169
1164
1143
1105
1058
999
939
900
892
891
902
913
927
942
954
955
957
960
957
956
954
954
962
970
970
959
949
946
955
965
965
961
957
961
961
964
964
961
964
966
969
974
976
975
977
975
982
984
984
986
985
990
991
990
986
985
987
989
996
1010
1012
1005
1002
1006
1017
1023
1021
1014
1012
1015
1019
1027
1031
1029
1027
1026
1030
1035
1032
1032
1032
1032
1036
1032
1025
1020
1017
1021
1027
1030
1025
1014
1000
995
995
1000
995
993
989
990
990
997
996
989
980
979
983
984
983
979
984
985
988
996
997
991
983
981
985
989
991
990
989
984
986
991
993
993
989
983
982
984
983
982
986
992
996
996
991
992
990
991
990
995
992
989
993
996
1004
1006
1005
1003
1001
1001
1000
999
1001
998
999
999
1002
1006
1005
1004
996
995
999
997
992
992
989
989
994
1002
1001
998
998
999
994
988
985
985
984
983
984
987
988
984
986
988
989
992
997
994
991
989
993
987
982
980
979
980
982
994
1010
1033
1061
1097
1145
1193
1224
1224
1184
1120
1046
981
937
925
932
941
951
959
971
977
985
989
990
986
983
980
980
982
988
991
994
994
994
991
991
988
987
988
991
997
1002
1004
1003
997
993
990
991
995
1001
1004
1006
1007
1014
1014
1010
1004
1003
1011
1019
1023
1024
1024
1025
1029
1039
1045
1043
1038
1042
1046
1052
1056
1058
1055
1053
1052
1057
1064
1066
1064
1059
1054
1056
1059
1060
1056
1050
1048
1052
1052
1052
1049
1043
1036
1034
1036
1033
1029
1025
1023
1020
1023
1021
1015
1009
1009
1014
1017
1013
1009
1008
1006
1012
1016
1019
1021
1020
1016
1013
1014
1016
1017
1016
1015
1015
1015
1019
1016
1012
1008
1012
1011
1011
1013
1016
1018
1017
1018
1020
1020
1020
1018
1016
1016
1014
1010
1007
1013
1023
1030
1028
1024
1022
1024
1030
1035
1033
1024
1020
1022
1027
1031
1031
1028
1021
1018
1020
1023
1024
1021
1021
1017
1015
1019
1021
1023
1026
1027
1021
1020
1019
1015
1006
1004
1006
1013
1016
1014
1010
1010
1011
1012
1014
1009
1005
1005
1006
1007
1005
1002
1002
1004
1011
1017
1029
1046
1071
1108
1156
1205
1240
1250
1220
1171
1109
1040
976
936
931
945
968
982
986
984
989
990
995
999
1004
1005
1003
1000
1002
1003
1004
1004
1004
1011
1011
1014
1013
1013
1017
1017
1011
1006
1007
1008
1006
1008
1012
1012
1015
1016
1016
1018
1016
1018
1021
1023
1026
1029
1033
1034
1033
1038
1045
1044
1043
1047
1051
1054
1054
1051
1054
1061
1073
1077
1075
1066
1063
1066
1072
1076
1076
1077
1076
1076
1079
1078
1074
1072
1074
1075
1071
1069
1068
1069
1061
1051
1046
1053
1062
1062
1046
1036
1026
1025
1031
1039
1043
1038
1031
1027
1020
1023
1026
1028
1031
1024
1022
1020
1024
1023
1021
1020
1022
1022
1027
1030
1028
1025
1021
1023
1030
1037
1041
1041
1038
1027
1020
1023
1031
1032
1027
1022
1019
1020
1023
1026
1022
1023
1029
1034
1040
1029
1024
1027
1034
1040
1042
1039
1033
1031
1035
1040
1044
1045
1043
1043
1044
1047
1043
1038
1032
1031
1031
1038
1040
1041
1041
1038
1038
1036
1030
1025
1027
1025
1028
1034
1037
1032
1022
1018
1019
1024
1029
1028
1023
1016
1020
1026
1030
1030
1029
1029
1032
1027
1027
1030
1032
1029
1020
1015
1016
1020
1019
1021
1039
1072
1111
1153
1199
1231
1247
1236
1201
1147
1079
1008
965
955
963
971
978
995
1012
1020
1023
1027
1031
1029
1021
1020
1020
1021
1023
1024
1029
1033
1032
1026
1023
1019
1019
1021
1020
1019
1019
1018
1026
1029
1033
1035
1034
1034
1034
1041
1041
1039
1038
1040
1046
1046
1046
1045
1043
1042
1041
1045
1050
1048
1046
1049
1055
1059
1064
1066
1064
1064
1068
1075
1077
1075
1077
1080
1091
1095
1097
1099
1099
1095
1090
1093
1100
1100
1096
1088
1086
1087
1087
1080
1074
1069
1073
1074
1070
1064
1061
1061
1064
1064
1061
1052
1045
1044
1044
1044
1046
1044
1047
1048
1050
1053
1051
1047
1041
1036
1037
1039
1040
1038
1043
1046
1051
1047
1038
1034
1040
1043
1044
1040
1028
1020
1023
1028
1030
1035
1037
1037
1041
1039
1040
1036
1036
1034
1039
1037
1044
1048
1049
1047
1040
1038
1038
1037
1036
1036
1036
1038
1044
1050
1055
1055
1050
1047
1052
1059
1066
1072
1069
1058
1052
1051
1055
1055
1048
1042
1043
1049
1049
1051
1051
1049
1047
1044
1041
1040
1035
1032
1035
1041
1044
1041
1041
1041
1038
1038
1041
1039
1036
1029
1027
1026
1023
1021
1023
1024
1029
1036
1036
1039
1038
1040
1035
1032
1026
1021
1022
1020
1019
1027
1030
1039
1050
1071
1109
1148
1193
1234
1266
1268
1249
1216
1164
1093
1019
962
949
958
971
977
991
1009
1026
1032
1027
1021
1021
1025
1032
1035
1032
1023
1017
1018
1020
1027
1033
1029
1028
1025
1030
1040
1041
1032
1025
1021
1025
1034
1039
1043
1043
1046
1048
1051
1047
1039
1031
1030
1036
1046
1051
1054
1057
1064
1064
1051
1036
1033
1041
1049
1055
1061
1068
1072
1074
1078
1076
1084
1086
1087
1086
1087
1092
1096
1096
1096
1095
1093
1096
1098
1102
1098
1095
1096
1100
1098
1083
1070
1063
1066
1067
1068
1065
1063
1060
1057
1061
1057
1056
1053
1050
1050
1047
1043
1038
1034
1035
1038
1042
1043
1043
1045
1043
1037
1035
1034
1028
1035
1037
1040
1047
1046
1040
1028
1020
1018
1021
1028
1038
1045
1038
1030
1026
1031
1033
1031
1028
1026
1030
1032
1033
1030
1028
1026
1030
1032
1036
1031
1033
1033
1035
1038
1037
1035
1035
1039
1039
1037
1036
1041
1047
1052
1061
1063
1059
1049
1037
1027
1021
1025
1026
1029
1033
1035
1039
1041
1037
1032
1030
1031
1031
1036
1034
1029
1027
1031
1033
1035
1032
1030
1029
1029
1030
1035
1037
1036
1034
1031
1026
1020
1014
1014
1018
1022
1024
1030
1026
1019
1017
1019
1024
1024
1021
1013
1006
1007
1009
1010
1011
1003
1004
1012
1027
1039
1057
1076
1100
1138
1186
1234
1262
1264
1234
1179
1117
1045
974
931
925
935
954
970
982
996
1005
1009
1008
1009
1010
1009
1007
1008
1013
1019
1024
1020
1015
1008
1017
1022
1020
1013
1010
1012
1015
1017
1011
1010
1012
1015
1017
1016
1016
1020
1024
1026
1028
1029
1025
1019
1012
1017
1021
1027
1026
1027
1030
1029
1035
1037
1035
1036
1043
1046
1045
1045
1050
1055
1060
1063
1067
1067
1071
1069
1066
1065
1065
1072
1078
1079
1072
1073
1073
1081
1084
1077
1065
1061
1065
1069
1070
1068
1065
1064
1062
1065
1064
1060
1054
1048
1045
1042
1042
1039
1033
1030
1027
1028
1027
1027
1027
1027
1029
1030
1032
1031
1027
1026
1024
1023
1016
1012
1015
1020
1025
1024
1023
1023
1019
1019
1021
1023
1022
1017
1017
1017
1019
1019
1020
1022
1021
1018
1018
1020
1018
1018
1016
1018
1019
1022
1024
1024
1029
1036
1033
1029
1020
1013
1012
1008
1013
1022
1031
1033
1029
1026
1024
1028
1028
1028
1028
1029
1034
1035
1034
1033
1031
1031
1030
1032
1033
1029
1028
1026
1028
1030
1031
1030
1027
1028
1026
1028
1028
1027
1023
1019
1020
1024
1028
1025
1014
1007
1013
1017
1018
1011
1007
1008
1015
1019
1022
1019
1014
1011
1010
1011
1011
1012
1009
1006
1005
1003
1006
1010
1023
1043
1069
1108
1153
1193
1228
1250
1241
1209
1155
1091
1015
947
919
925
941
960
970
981
992
1000
1000
1003
1001
1002
1004
1006
1005
1005
1003
1001
999
1002
999
1002
1001
1000
1001
1006
1008
1008
1012
1010
1008
1007
1010
1008
1007
1008
1018
1025
1022
1012
1001
1004
1011
1015
1018
1014
1013
1015
1021
1025
1025
1026
1027
1029
1037
1036
1040
1044
1044
1048
1052
1055
1056
1056
1053
1057
1061
1065
1065
1064
1062
1063
1063
1062
1063
1061
1056
1055
1059
1058
1055
1051
1043
1035
1031
1029
1032
1032
1030
1032
1035
1029
1016
1008
1008
1009
1006
1005
1001
1001
1002
1001
1000
1001
1000
1002
1001
1001
1002
1002
1001
1001
999
1001
997
1000
1000
1000
1002
1000
1001
1003
1002
1002
1002
1007
1005
1004
1001
1003
999
1001
1002
1008
1005
1006
1004
1005
1012
1014
1008
1001
997
996
999
1006
1010
1010
1007
1006
1009
1009
1007
1004
1005
1003
1007
1007
1012
1019
1016
1017
1015
1016
1014
1012
1011
1011
1012
1013
1010
1004
1001
1000
1008
1013
1016
1011
1009
1010
1007
1006
1005
1007
1003
1000
999
998
1000
997
993
991
995
999
1002
996
992
990
996
1000
1002
998
985
980
979
982
985
991
997
1003
1018
1048
1093
1133
1172
1204
1217
1200
1169
1115
1043
964
918
910
925
938
951
964
982
998
1003
996
988
983
983
991
992
986
983
982
986
993
996
993
995
995
998
1001
1001
1002
1005
1007
1008
1011
1013
1017
1014
1010
1019
1029
1031
1014
996
991
999
1011
1018
1017
1020
1027
1031
1026
1018
1012
1015
1024
1033
1040
1045
1050
1050
1048
1053
1063
1067
1065
1057
1052
1053
1057
1061
1062
1060
1066
1074
1071
1062
1054
1054
1054
1054
1054
1046
1039
1035
1032
1030
1029
1029
1028
1029
1036
1043
1041
1031
1016
1005
1007
1006
1002
998
995
999
1003
1005
1005
998
995
996
1001
1008
1010
1010
1004
999
999
1002
1001
999
998
1000
1003
1006
1008
1007
1004
1008
1014
1021
1028
1025
1008
992
989
996
1001
1003
999
996
999
1003
1009
1013
1012
1006
1004
1002
1010
1015
1017
1023
1029
1026
1022
1014
1004
1002
1004
1015
1021
1022
1021
1012
1006
1004
1005
1009
1009
1011
1014
1012
1014
1014
1015
1013
1017
1023
1027
1016
1004
1001
1003
1006
1010
1013
1009
1003
994
995
1000
1000
999
998
1001
1007
1016
1027
1027
1011
988
982
988
999
1003
1003
994
984
978
978
987
999
1021
1054
1096
1140
1179
1206
1218
1215
1180
1126
1060
983
923
900
913
936
956
969
976
981
987
989
988
988
986
994
997
999
995
994
991
994
995
995
994
994
995
999
1003
1006
1003
1000
1001
1003
1006
1008
1007
1006
1009
1011
1012
1014
1013
1012
1016
1026
1032
1031
1026
1018
1021
1026
1034
1038
1038
1038
1033
1031
1035
1038
1040
1037
1039
1045
1056
1060
1057
1052
1052
1057
1064
1066
1066
1063
1052
1046
1052
1066
1073
1075
1066
1044
1023
1016
1019
1017
1018
1018
1017
1013
1014
1014
1014
1015
1019
1018
1013
1007
1010
1011
1013
1014
1009
1005
1002
1002
1005
1006
1003
1005
1006
1005
1005
1004
1005
1004
1003
1001
1007
1007
1005
1004
1004
1003
1007
1008
1006
1003
1003
1005
1007
1009
1008
1009
1010
1018
1024
1028
1024
1017
1014
1018
1020
1020
1003
983
977
980
996
1010
1016
1012
999
992
997
1001
1005
1009
1013
1020
1026
1033
1039
1047
1047
1036
1022
1010
1002
1012
1032
1038
1030
1014
995
975
972
979
992
997
998
995
997
997
1001
1001
999
999
1002
1003
1006
1004
1002
1002
999
1001
1004
1005
1005
1005
1003
1003
1000
997
996
996
1005
1024
1049
1079
1114
1152
1190
1229
1242
1221
1172
1116
1045
971
921
910
920
940
958
975
989
997
1003
1009
1017
1023
1028
1033
1038
1031
1014
994
990
999
1012
1020
1018
1003
988
976
972
971
976
986
997
1002
1001
1004
1008
1018
1025
1024
1017
1013
1008
1011
1013
1011
1005
1004
1005
1007
1014
1019
1018
1021
1023
1026
1028
1032
1034
1037
1039
1043
1055
1054
1054
1054
1054
1055
1060
1065
1065
1065
1065
1063
1066
1066
1063
1062
1056
1058
1058
1058
1056
1052
1050
1044
1043
1043
1042
1036
1030
1034
1034
1033
1031
1031
1036
1051
1059
1057
1045
1032
1013
995
994
1012
1031
1037
1021
1004
996
996
995
983
981
986
999
1004
1004
1003
1005
1011
1020
1032
1042
1037
1020
1007
1002
1003
1000
998
992
997
997
997
994
991
998
1004
1012
1014
1011
1007
1008
1010
1012
1016
1016
1012
1011
1011
1013
1015
1013
1011
1012
1018
1023
1024
1022
1019
1018
1020
1023
1022
1019
1018
1014
1015
1016
1016
1017
1019
1019
1020
1024
1020
1016
1014
1019
1024
1032
1034
1038
1049
1057
1050
1031
1024
1032
1028
1008
981
971
984
994
991
982
982
988
990
986
981
985
993
998
999
998
998
1000
1008
1010
1004
990
978
975
987
1000
1012
1029
1060
1107
1160
1201
1210
1191
1152
1097
1025
956
918
910
918
930
944
962
974
978
978
977
982
986
986
980
977
978
983
984
986
986
984
986
986
991
992
988
986
985
988
991
991
994
999
1004
1008
1012
1016
1015
1017
1029
1042
1048
1035
1013
988
972
976
999
1017
1020
1014
1010
1005
1003
1002
1007
1006
1006
1013
1029
1042
1051
1052
1052
1048
1046
1035
1027
1023
1029
1035
1034
1028
1027
1027
1031
1036
1038
1034
1033
1030
1029
1027
1032
1030
1026
1018
1012
1011
1009
1007
1005
1000
995
995
997
994
991
985
984
986
985
986
984
981
979
980
984
984
983
981
977
978
981
983
981
982
985
989
1000
1010
1022
1029
1025
1010
987
971
978
995
1002
994
976
961
951
946
945
951
958
958
963
968
976
985
989
988
981
972
968
967
973
975
972
966
966
971
974
977
976
974
975
977
981
979
981
978
972
974
977
978
981
978
977
977
979
979
973
964
964
967
970
973
970
964
963
965
965
960
957
954
950
952
955
958
954
955
957
963
970
975
979
973
964
953
955
967
981
987
976
953
934
923
919
922
931
959
992
1030
1076
1125
1159
1169
1160
1130
1082
1016
929
855
835
847
866
880
895
910
922
924
921
919
918
922
931
935
935
930
929
929
931
932
933
932
930
930
936
938
933
934
936
938
940
940
940
937
938
939
939
941
941
938
941
943
946
948
949
951
953
956
961
968
968
970
978
987
992
992
995
1007
1014
1012
1002
993
986
985
990
989
989
983
978
976
982
981
971
967
968
968
963
953
949
948
949
955
954
946
941
939
938
937
936
935
933
929
930
928
928
930
934
933
932
931
930
930
932
932
937
932
933
931
937
934
937
932
931
934
936
937
940
938
937
936
941
943
941
942
949
953
952
948
948
946
947
949
954
944
931
928
935
961
987
995
980
954
936
931
935
952
967
969
963
947
932
928
930
938
947
955
957
958
956
957
961
962
959
960
964
957
940
927
932
939
944
941
936
928
925
931
934
934
934
937
941
944
943
942
938
940
940
940
938
935
937
939
942
941
938
929
927
926
931
937
947
969
993
1034
1082
1126
1164
1181
1165
1126
1069
1001
924
866
852
872
889
905
917
930
946
955
960
959
960
960
957
958
954
942
929
922
925
942
958
957
946
935
934
940
949
953
945
935
934
941
952
960
961
959
957
949
945
950
956
957
955
953
953
952
952
957
965
969
973
974
975
974
978
984
991
992
992
992
993
997
999
1006
1005
1004
1003
1004
1012
1016
1017
1017
1015
1018
1019
1019
1021
1017
1016
1013
1013
1013
1015
1011
1005
1002
1005
1005
1003
1000
1004
1005
1001
994
987
989
998
1004
999
989
982
980
983
979
967
961
967
978
976
960
955
958
972
971
970
971
974
978
983
986
995
999
997
993
980
968
963
963
962
962
962
958
958
963
969
970
974
975
976
977
979
981
980
976
979
983
985
986
983
979
977
980
985
988
987
983
984
990
994
995
994
993
991
995
997
1001
999
1000
999
999
1001
1002
1001
998
997
998
998
998
1003
1004
1004
1010
1017
1031
1039
1028
1003
990
994
1007
1010
994
970
958
963
975
980
975
969
974
984
992
984
970
964
964
968
971
972
972
973
978
979
976
972
968
971
978
992
1014
1043
1080
1120
1164
1201
1215
1195
1144
1092
1024
952
904
892
904
923
942
955
964
968
973
976
978
977
979
980
979
979
980
983
986
987
988
992
997
1002
1012
1016
1006
994
994
1002
1006
1000
992
994
1005
1006
991
977
977
987
995
997
991
991
996
995
1001
1004
1009
1015
1017
1015
1014
1014
1022
1018
1012
1009
1014
1024
1030
1031
1032
1036
1041
1043
1047
1047
1048
1047
1049
1049
1051
1053
1051
1043
1045
1045
1049
1052
1051
1049
1039
1035
1034
1031
1025
1018
1016
1014
1015
1012
1008
1002
1001
1008
1009
1010
1008
1008
1011
1013
1013
1015
1022
1037
1035
1018
999
996
995
994
997
1005
1013
1013
1012
1002
992
986
977
971
975
980
988
996
999
996
991
990
991
994
998
1000
997
1000
997
998
999
995
989
988
988
990
991
988
985
986
985
987
988
986
984
985
983
984
982
983
983
985
988
991
991
996
1005
1022
1031
1026
1014
992
961
946
952
978
1011
1034
1066
1108
1156
1188
1185
1159
1120
1071
1010
945
910
908
919
923
926
937
950
967
976
974
974
980
984
982
979
987
991
984
973
971
978
979
984
989
997
999
990
983
981
989
990
982
973
967
969
972
976
977
981
983
987
991
996
993
994
990
996
997
1000
1000
1001
1000
1000
1003
1008
1009
1013
1014
1016
1016
1021
1023
1024
1026
1025
1028
1029
1030
1028
1032
1038
1042
1041
1036
1036
1038
1049
1052
1047
1045
1058
1077
1080
1064
1028
1004
1002
1004
992
968
959
968
982
985
980
981
981
979
976
973
976
982
982
983
978
983
986
987
990
981
978
970
971
976
982
984
979
979
983
992
992
987
980
976
980
988
991
987
972
961
967
974
978
978
973
974
975
973
971
967
969
972
975
977
974
972
969
968
974
982
989
986
983
979
985
989
998
1005
1001
994
979
968
975
986
993
984
972
973
979
981
975
973
981
989
989
975
958
948
952
962
970
973
971
966
966
969
972
972
970
971
972
975
975
975
978
981
988
995
999
996
987
977
973
976
978
979
978
980
979
982
984
984
983
983
986
988
989
986
984
983
984
984
983
981
978
979
983
985
983
982
985
993
997
996
990
982
981
987
993
1000
998
996
992
981
960
946
941
941
947
952
956
965
968
969
967
969
969
968
967
974
982
995
1011
1034
1069
1108
1142
1171
1201
1205
1180
1128
1055
967
897
868
875
894
910
928
953
975
982
974
953
942
944
955
965
964
962
961
966
968
972
972
971
971
974
978
979
977
974
973
978
979
981
979
974
971
974
980
980
979
977
978
981
984
987
994
994
996
1000
1008
1007
1005
1004
1007
1006
999
994
993
997
1006
1006
1009
1013
1017
1019
1023
1024
1032
1037
1037
1029
1027
1033
1042
1050
1055
1056
1055
1057
1064
1066
1053
1038
1027
1029
1031
1025
1017
1009
1009
1011
1013
1013
1015
1014
1016
1014
1007
998
988
984
984
986
989
993
995
995
990
989
991
994
991
991
991
990
992
995
994
991
993
992
993
992
989
988
988
987
987
988
990
988
992
992
992
993
993
992
995
994
996
1001
1005
1012
1020
1029
1027
1018
994
976
973
980
993
992
988
993
1001
1005
1007
1009
1006
990
979
977
986
990
994
997
1002
1004
1001
997
999
1003
1004
1004
1005
1008
1005
997
995
998
1003
1003
997
991
992
993
993
990
985
986
986
990
988
996
995
992
988
986
985
982
982
977
974
976
976
977
974
971
970
970
976
977
