952
958
962
963
963
960
956
955
956
956
955
956
958
961
963
963
962
962
965
963
965
966
967
971
973
977
985
1000
1018
1051
1090
1136
1186
1237
1283
1317
1317
1262
1162
1043
937
867
854
884
922
950
966
972
978
983
985
975
960
952
954
959
962
962
959
960
957
963
962
959
958
956
956
956
955
950
947
946
940
938
939
936
938
943
945
947
953
955
956
956
960
964
972
970
973
968
971
973
976
975
976
978
983
990
992
994
987
985
988
993
1000
1007
1004
1001
1000
1003
1000
995
990
989
984
980
980
980
976
970
960
957
959
957
954
954
953
954
957
958
951
946
945
950
951
951
952
948
947
949
950
951
953
951
951
952
956
958
961
959
959
958
960
960
959
958
953
962
971
986
1003
1032
1073
1116
1165
1211
1263
1302
1317
1295
1229
1130
1028
946
887
871
889
920
942
953
959
968
973
965
955
944
936
936
943
948
952
949
943
944
942
937
934
932
929
930
930
928
929
928
927
935
939
938
934
928
927
934
934
935
932
933
939
942
947
946
942
938
938
943
948
954
953
951
955
959
960
956
951
948
952
957
964
963
962
959
961
962
964
965
966
963
964
966
969
968
964
964
961
961
965
961
954
942
936
939
943
943
938
934
935
941
944
945
943
942
935
936
939
936
936
939
941
944
940
938
936
939
940
946
945
941
938
941
942
947
949
947
947
948
952
959
964
979
999
1031
1065
1110
1155
1204
1249
1291
1304
1280
1208
1104
999
912
863
866
899
927
940
943
945
950
956
960
952
940
934
939
945
949
948
940
938
938
944
944
945
939
932
930
927
923
924
925
923
930
934
931
927
924
925
932
938
938
935
936
935
941
947
946
949
949
950
950
950
952
953
957
961
965
972
972
972
971
973
979
982
985
984
983
985
988
991
989
982
976
973
974
974
973
965
959
953
948
950
955
953
952
948
953
954
950
945
938
934
938
942
945
950
951
948
951
952
949
944
941
941
945
952
959
958
957
958
959
962
970
986
1017
1062
1118
1180
1243
1297
1324
1294
1211
1101
994
909
873
892
929
950
956
957
957
958
962
960
952
947
946
947
950
953
953
954
952
949
947
945
946
947
950
947
940
933
931
931
933
930
930
936
936
932
930
930
933
939
942
939
946
946
952
953
951
947
947
948
950
958
962
960
962
957
961
965
967
972
972
976
980
985
986
986
977
975
973
978
971
969
964
958
961
960
959
953
947
946
948
951
952
947
947
944
948
951
952
948
949
946
947
950
947
950
947
945
947
951
953
954
950
951
955
963
963
962
962
958
958
965
972
982
999
1030
1076
1129
1177
1233
1283
1315
1308
1248
1144
1031
935
874
870
899
932
948
957
956
961
962
959
955
953
954
964
969
971
967
961
961
965
969
964
961
960
963
966
970
971
972
968
962
963
967
970
967
965
963
966
964
960
954
955
959
963
967
969
972
972
971
972
979
977
974
977
981
990
995
996
997
997
1004
1006
1012
1016
1016
1016
1015
1014
1015
1014
1010
1008
1008
1009
1006
1000
995
989
984
981
979
977
971
969
969
972
975
971
969
967
965
965
963
961
955
953
956
959
962
962
965
966
965
967
969
971
970
967
965
968
968
975
975
973
975
982
994
1015
1040
1076
1112
1165
1220
1277
1325
1342
1309
1223
1116
1015
931
898
917
953
981
989
987
978
966
958
950
948
946
946
950
950
955
952
951
945
941
943
946
947
947
947
949
950
950
949
947
944
942
946
950
954
954
953
951
952
957
960
962
963
968
972
972
973
970
972
973
978
981
982
985
983
982
989
992
993
996
994
994
999
1007
1006
1002
999
1001
1001
1003
996
993
986
985
984
987
987
986
977
972
972
974
972
969
968
970
974
976
971
967
965
965
968
971
970
967
964
966
969
969
967
967
969
967
969
971
972
969
963
966
969
970
969
965
963
962
963
967
967
964
962
960
962
967
967
966
965
966
968
967
965
961
957
959
961
966
965
963
960
965
967
969
966
962
966
970
975
979
979
978
977
978
979
986
986
987
985
980
978
980
978
978
975
974
975
981
981
977
969
967
962
961
958
958
960
957
957
958
961
961
962
959
960
963
964
964
962
958
959
961
961
958
955
947
946
947
951
961
983
1011
1044
1091
1141
1181
1211
1212
1183
1134
1074
998
920
870
857
862
869
884
896
913
926
939
942
938
941
941
944
947
951
950
950
951
951
950
950
950
950
952
955
955
954
952
951
950
954
956
957
955
957
958
963
968
972
969
970
968
973
980
978
971
968
968
973
983
987
986
983
982
987
995
997
996
996
999
1009
1018
1018
1016
1011
1012
1018
1026
1026
1019
1015
1015
1022
1029
1028
1021
1017
1022
1029
1027
1017
1004
1000
996
999
996
996
994
992
991
991
991
992
990
988
986
987
987
985
986
988
983
978
979
980
981
979
978
973
976
976
976
977
978
981
982
982
981
979
979
979
983
987
992
986
974
971
974
973
969
968
968
967
968
974
978
979
973
971
973
973
971
969
969
973
974
971
969
971
970
969
970
967
962
961
963
965
970
967
965
963
962
961
964
968
969
972
976
978
973
966
958
953
953
961
968
977
976
979
980
979
978
977
977
976
980
985
990
987
984
984
978
981
984
982
987
984
977
975
973
969
969
976
983
984
972
959
950
948
947
953
959
957
956
955
957
957
959
962
960
960
955
954
949
945
945
946
952
977
1017
1072
1128
1169
1192
1191
1163
1106
1023
934
867
854
859
868
876
890
908
922
927
923
926
933
936
941
941
941
937
937
939
942
946
946
944
944
942
940
944
945
946
944
946
953
959
959
951
944
943
946
950
954
955
952
954
957
957
961
960
958
962
966
970
972
974
978
984
993
994
994
988
982
978
976
980
980
980
982
983
988
994
994
987
980
977
981
984
988
986
983
980
983
983
978
974
976
972
968
964
960
960
959
953
953
952
951
944
940
942
947
950
949
946
943
941
937
941
944
944
943
946
947
944
942
943
943
944
945
949
951
947
946
943
941
943
940
936
929
932
936
938
940
938
938
938
940
942
939
942
939
940
941
942
947
949
951
947
950
953
952
947
946
949
954
955
953
948
950
946
940
940
945
946
944
940
940
942
942
940
939
935
935
939
942
939
936
934
934
931
935
933
930
927
929
932
931
926
921
924
926
926
922
919
918
921
923
921
917
917
914
914
921
930
942
970
1009
1054
1110
1164
1197
1198
1169
1118
1047
960
878
837
831
838
847
854
865
879
889
892
898
901
910
914
915
911
911
912
910
910
909
910
915
918
920
920
918
914
914
915
918
917
916
916
922
924
925
924
923
920
926
925
926
926
930
934
938
938
939
939
941
946
954
960
962
961
958
962
966
971
977
978
979
980
983
985
987
986
985
989
992
996
992
987
979
977
978
982
977
967
954
949
953
956
955
951
948
941
942
943
941
941
939
939
944
944
940
933
928
930
934
931
929
925
927
926
927
927
927
927
928
926
931
933
934
931
928
932
934
936
937
940
937
929
924
922
919
925
928
929
929
930
932
932
930
929
928
930
927
926
927
928
932
935
937
938
936
936
945
949
949
947
944
943
942
944
940
933
928
931
936
939
938
935
934
933
932
930
930
930
929
932
935
937
937
937
938
936
929
930
928
924
919
915
919
923
922
922
923
924
923
925
926
919
920
920
924
927
925
923
917
914
911
918
922
931
948
974
1010
1062
1115
1164
1203
1223
1211
1174
1116
1039
947
865
823
827
840
852
863
879
895
901
907
908
907
909
911
914
915
916
913
912
915
919
922
922
918
921
924
925
925
926
926
928
930
932
928
922
924
927
930
934
935
935
929
928
935
939
939
936
938
940
944
953
957
963
966
967
969
966
963
966
969
972
974
980
984
989
991
992
993
995
997
999
1001
1006
1004
1003
1000
1003
1005
1004
1001
997
992
990
986
984
984
981
981
975
966
961
961
964
964
957
956
954
955
956
957
954
952
952
959
959
957
952
949
950
949
951
952
947
940
939
944
951
956
952
949
945
945
951
954
952
946
946
950
956
957
955
949
950
949
951
949
951
950
955
957
957
949
948
947
947
950
956
958
960
958
959
964
965
967
967
966
967
969
973
972
968
960
958
957
960
963
964
961
958
960
963
960
959
958
960
962
962
961
961
959
964
968
968
957
950
946
945
949
949
947
943
943
943
947
949
951
950
946
945
945
945
941
943
937
936
935
940
947
956
976
1008
1050
1101
1153
1200
1237
1257
1241
1194
1117
1022
925
856
837
852
872
891
905
917
928
937
943
942
936
929
925
929
935
935
933
932
934
936
940
942
941
942
943
945
944
943
943
943
945
946
948
952
954
949
951
954
959
958
955
950
954
959
960
955
954
962
967
975
980
979
974
976
986
995
1000
997
997
997
1001
1006
1011
1016
1018
1014
1017
1017
1014
1015
1015
1015
1016
1018
1017
1016
1009
1005
1005
1006
1004
998
993
991
994
993
987
983
978
970
971
971
973
974
974
974
974
967
961
955
958
959
965
964
963
963
960
961
964
970
975
978
975
972
971
976
975
977
977
972
969
968
966
963
961
961
965
967
972
974
973
973
969
970
973
977
981
981
983
987
993
999
1002
995
983
971
968
975
982
982
980
979
974
974
974
978
982
986
992
993
984
966
959
963
970
970
965
959
958
966
969
976
970
963
959
965
966
967
966
975
993
1005
1006
987
965
948
943
945
949
953
960
971
994
1024
1059
1093
1135
1186
1234
1260
1251
1216
1157
1079
989
905
869
871
897
926
954
964
962
958
957
957
969
975
978
969
952
945
949
960
967
973
974
972
971
967
964
963
959
958
959
958
959
961
960
957
958
956
963
971
983
980
987
988
980
972
972
974
973
966
972
985
994
991
978
969
972
982
995
1004
1014
1021
1033
1040
1049
1053
1054
1055
1055
1062
1069
1080
1079
1059
1031
1004
998
998
999
995
996
991
978
970
964
963
961
965
969
975
974
977
976
973
978
989
994
990
981
976
971
970
974
963
932
913
913
929
943
958
974
995
1010
1008
1005
994
977
959
946
950
958
964
970
976
987
997
998
989
977
957
939
925
931
946
961
956
954
958
953
938
929
927
925
924
925
927
937
943
939
931
934
957
981
986
970
957
945
949
959
977
987
997
1003
1008
1006
999
986
976
976
985
1000
999
1009
1033
1060
1054
1018
977
950
949
959
976
989
1005
1025
1031
1013
996
984
974
969
972
976
969
950
940
943
951
962
966
962
954
952
949
950
950
963
972
981
1005
1045
1092
1138
1179
1218
1241
1230
1185
1118
1036
960
906
880
862
860
875
898
918
931
939
949
960
980
986
973
958
960
965
953
927
907
905
917
932
938
927
906
895
890
893
903
917
933
948
961
968
968
963
960
955
952
949
947
948
958
969
980
988
998
1016
1032
1039
1021
992
975
980
998
1022
1036
1041
1050
1060
1050
1028
1014
1018
1029
1033
1035
1037
1038
1035
1028
1028
1030
1033
1030
1028
1027
1026
1036
1040
1014
984
969
977
987
999
1005
995
980
972
976
998
1024
1032
1009
972
941
926
926
934
939
937
937
939
946
953
954
949
952
958
960
959
957
960
962
968
969
966
965
965
968
971
972
964
966
964
963
963
966
964
964
968
972
979
979
973
969
972
975
976
971
957
946
943
948
957
960
955
950
953
959
965
967
969
968
965
962
965
964
962
961
960
963
968
969
966
956
948
945
948
949
946
943
942
941
935
934
935
939
943
948
953
951
952
952
953
962
963
967
964
957
950
948
954
966
987
1016
1055
1102
1160
1217
1262
1277
1255
1202
1123
1025
926
868
860
873
890
901
913
926
936
939
942
945
942
938
939
937
939
946
945
945
944
947
952
953
948
945
947
946
945
947
943
943
940
941
939
945
943
940
939
940
944
947
943
945
949
956
960
960
961
963
964
969
975
982
986
984
986
987
996
1001
1003
1000
1004
1013
1020
1023
1020
1015
1014
1017
1023
1025
1019
1019
1019
1019
1017
1018
1011
1010
1004
1004
1002
998
991
984
983
983
982
981
977
974
970
972
973
971
967
969
967
968
968
967
967
963
965
966
962
965
960
961
968
974
974
969
965
961
963
964
968
968
967
961
963
967
968
968
962
963
964
964
964
969
963
960
960
961
965
966
965
960
960
964
973
976
974
974
973
982
986
987
988
985
987
990
994
992
992
988
985
983
984
984
985
983
985
982
982
984
984
980
975
977
982
982
982
981
979
979
982
981
977
971
964
967
968
968
964
964
965
968
971
971
966
965
965
966
970
971
970
968
967
964
960
958
960
967
986
1019
1062
1111
1166
1218
1263
1287
1268
1216
1129
1032
934
869
853
869
891
907
920
931
941
948
957
961
956
955
958
961
962
961
960
959
960
958
958
957
956
959
961
963
963
961
963
966
967
963
964
963
965
967
969
973
979
977
977
974
979
981
982
982
985
987
994
997
998
1004
1009
1014
1018
1022
1022
1022
1026
1031
1035
1031
1032
1032
1033
1041
1043
1044
1043
1041
1043
1042
1044
1044
1044
1041
1037
1031
1032
1033
1031
1023
1019
1013
1013
1012
1010
1005
1002
1002
997
998
996
993
989
988
991
996
993
989
987
990
996
995
991
986
985
987
985
985
986
986
986
991
992
988
986
987
985
987
991
994
991
988
984
986
988
988
987
985
982
986
990
991
993
990
988
990
989
991
988
987
985
989
990
992
991
988
988
996
999
1000
1001
1001
998
995
1001
1003
1004
1003
1000
999
999
996
997
999
998
998
996
997
993
989
986
986
988
989
990
986
989
993
998
995
989
982
979
985
985
980
979
977
977
977
975
979
980
978
975
975
979
982
981
978
977
978
980
977
973
965
959
963
974
993
1018
1053
1097
1149
1207
1253
1275
1256
1202
1132
1046
956
882
856
865
891
910
928
941
947
950
957
964
966
964
961
959
959
962
966
968
964
964
963
965
967
965
966
966
968
969
972
970
972
974
973
971
973
976
977
977
979
984
988
990
995
1002
1007
1015
1014
1007
998
992
992
999
1006
1008
1007
1014
1022
1027
1034
1036
1036
1039
1041
1042
1045
1049
1044
1044
1043
1044
1044
1042
1038
1034
1031
1028
1026
1022
1021
1021
1020
1015
1012
1009
1003
997
995
997
1001
997
993
992
991
990
986
981
983
984
986
987
988
989
991
994
994
995
997
996
993
987
990
992
995
990
992
995
995
995
997
996
995
990
985
988
995
995
994
982
977
980
985
983
982
981
980
979
980
977
977
974
977
978
977
977
975
974
975
985
988
985
974
966
961
958
954
951
952
967
993
1033
1077
1127
1181
1219
1228
1197
1148
1074
983
901
866
869
891
911
927
938
947
954
958
959
960
964
965
966
965
967
967
964
967
970
972
972
966
967
967
969
971
972
975
978
979
980
979
978
975
976
982
987
992
991
994
994
998
1002
1008
1006
1006
1004
1008
1016
1022
1026
1030
1035
1041
1045
1051
1050
1044
1041
1042
1048
1055
1056
1061
1070
1079
1084
1075
1056
1040
1035
1040
1033
1023
1011
1006
1009
1015
1016
1013
1004
999
998
997
998
996
997
997
995
992
994
999
999
994
991
994
999
1001
998
995
996
1004
1015
1028
1033
1030
1011
989
978
972
975
977
979
979
987
986
985
985
985
987
992
994
994
993
991
992
991
994
993
995
994
991
993
999
1003
1003
1003
1011
1020
1024
1017
1000
986
984
995
1002
1001
997
996
991
983
977
971
976
981
987
993
996
998
995
993
994
997
999
996
990
986
986
995
1001
1001
1005
1014
1022
1027
1036
1040
1031
1015
998
1001
1003
993
973
962
965
973
976
977
983
990
987
990
997
1006
1012
1008
1005
1009
1020
1033
1042
1046
1037
1019
1016
1019
1012
1006
1009
1021
1026
1010
990
983
996
1009
1003
994
1000
1010
1015
1013
1008
1006
998
1002
1016
1022
1020
1010
988
962
960
975
995
1020
1040
1029
998
980
981
1000
1003
1005
1009
1015
1026
1043
1056
1077
1133
1214
1281
1297
1261
1176
1050
923
843
824
846
915
984
979
912
850
844
865
879
887
891
880
860
849
850
852
860
881
908
917
904
882
872
866
860
858
867
882
899
913
911
896
893
923
974
1013
1006
961
919
906
904
910
924
948
984
1025
1043
1020
968
926
920
937
960
973
979
983
993
1007
1019
1022
1026
1031
1021
989
962
964
986
1009
1024
1040
1063
1075
1054
1019
998
1005
1030
1066
1103
1114
1081
1035
1021
1041
1069
1080
1049
975
903
858
843
864
902
934
948
948
943
932
923
920
925
934
939
943
951
954
940
908
889
893
912
940
952
971
982
971
941
927
920
911
912
934
962
967
947
913
898
893
894
899
914
926
935
938
948
952
944
931
925
931
943
961
979
974
943
927
926
937
946
954
962
966
958
934
896
871
880
903
923
944
968
983
972
954
952
970
994
997
978
949
934
937
949
959
959
952
954
967
967
957
949
947
950
950
951
957
970
970
944
902
902
924
924
905
901
918
926
916
904
901
905
907
903
901
893
893
905
920
934
951
977
1025
1091
1160
1196
1178
1120
1064
1012
949
868
808
802
828
849
844
824
826
840
845
856
863
866
864
858
852
846
839
835
829
830
838
846
856
866
875
875
873
877
884
893
904
909
912
913
914
924
938
943
940
926
919
921
924
921
928
940
948
946
935
927
927
935
945
954
960
964
974
977
974
963
952
958
972
981
981
980
981
980
