1014
1016
1014
1014
1010
1009
1010
1012
1013
1012
1011
1009
1011
1012
1009
1006
1000
999
1003
1005
1004
1003
999
1000
1001
1003
1004
1000
994
990
989
990
991
989
987
985
986
986
988
984
983
984
983
983
986
987
987
985
985
986
988
981
975
971
970
979
991
1014
1039
1072
1114
1166
1208
1239
1245
1222
1173
1111
1031
945
893
885
896
908
924
942
960
968
974
974
975
980
980
982
984
983
982
978
975
973
975
980
984
983
981
980
982
982
986
985
983
982
983
988
989
988
987
988
991
994
993
994
992
992
999
1002
1006
1007
1006
1011
1012
1016
1019
1022
1018
1021
1024
1026
1032
1037
1038
1037
1039
1041
1045
1044
1043
1046
1046
1050
1050
1049
1047
1046
1046
1046
1046
1040
1039
1035
1033
1032
1031
1026
1019
1015
1013
1012
1010
1007
1003
1002
999
1003
1001
999
997
992
989
993
994
991
988
988
989
990
989
990
987
989
991
991
993
989
986
982
988
992
989
988
989
989
988
989
991
992
991
992
993
992
993
991
987
986
989
989
990
992
991
990
989
994
994
993
992
988
992
999
1003
1003
1003
1002
1003
1003
1005
1004
1004
1004
1004
1005
1005
1005
1000
997
1001
1003
1004
1003
1002
1002
999
998
995
991
988
989
992
995
996
996
994
990
987
987
988
982
977
974
972
980
978
978
977
978
978
979
981
981
978
977
976
978
980
982
983
980
980
979
971
962
958
960
970
989
1016
1050
1091
1135
1187
1231
1259
1250
1204
1137
1056
967
900
872
879
894
909
927
944
953
960
963
967
970
971
973
972
969
968
970
971
972
970
972
973
973
975
971
972
973
974
976
980
978
975
976
979
983
984
982
982
981
982
987
990
988
988
989
992
995
1000
1002
1000
999
1004
1011
1012
1016
1017
1016
1022
1026
1029
1029
1027
1028
1032
1039
1041
1041
1039
1035
1037
1041
1042
1042
1039
1037
1040
1040
1041
1037
1032
1029
1033
1032
1032
1029
1023
1018
1017
1016
1013
1010
1004
999
997
998
999
995
994
991
990
990
991
991
989
987
986
987
986
986
987
985
985
988
986
986
983
981
982
985
985
983
980
980
981
982
986
984
982
980
981
982
984
985
982
982
981
983
986
986
983
980
983
983
985
986
984
986
990
997
999
997
994
989
988
994
994
996
995
993
991
990
988
985
986
984
988
987
992
991
984
979
980
979
976
973
972
971
972
975
976
972
971
969
971
976
975
973
970
970
973
973
971
972
972
967
964
963
958
952
955
970
998
1031
1070
1116
1163
1209
1241
1237
1193
1117
1021
926
865
861
880
902
921
935
945
957
964
966
965
964
964
965
967
966
963
962
961
966
969
966
962
965
963
966
969
971
968
969
969
974
975
972
975
971
971
975
975
977
977
979
977
983
984
987
988
986
990
994
997
1000
1000
1004
1009
1013
1019
1021
1018
1020
1019
1025
1026
1028
1026
1028
1030
1032
1034
1034
1030
1028
1028
1029
1026
1024
1020
1014
1013
1013
1010
1006
998
996
995
994
992
986
984
978
979
981
981
982
981
981
979
977
977
975
974
971
972
973
976
976
976
974
972
973
972
970
970
968
971
974
977
973
972
971
972
971
973
969
971
971
970
974
975
975
973
972
975
977
977
975
965
967
972
974
973
974
974
975
974
977
979
977
976
975
975
982
984
985
976
974
974
976
976
977
972
973
978
980
986
987
987
983
983
987
989
990
986
987
988
987
989
990
993
990
989
988
989
985
981
978
977
983
987
984
983
982
981
983
981
976
974
972
969
970
971
968
968
966
969
970
971
969
965
963
967
971
974
975
974
971
971
972
972
972
960
953
958
965
983
1006
1033
1067
1108
1161
1203
1228
1225
1193
1135
1066
986
909
870
871
884
898
917
933
942
950
957
960
963
965
962
965
965
968
967
968
963
965
966
966
970
970
970
970
969
971
974
973
971
970
970
975
977
975
977
977
979
982
983
980
984
987
990
994
998
998
993
995
997
999
1004
1007
1011
1014
1020
1026
1029
1028
1028
1028
1030
1039
1040
1038
1038
1039
1038
1041
1044
1043
1043
1041
1042
1039
1037
1034
1027
1022
1021
1024
1023
1019
1012
1007
1004
1000
1001
998
995
990
990
992
992
989
984
980
984
987
991
991
990
986
984
987
991
989
989
988
989
985
987
988
986
986
985
987
989
988
985
989
990
994
996
992
988
984
985
987
989
991
988
989
992
998
1000
998
995
992
992
994
994
993
992
996
997
1003
1002
1004
1001
1000
1001
1004
1004
1009
1003
1003
1004
1004
1009
1007
1003
1002
1004
1006
1004
1000
996
996
995
999
1000
996
992
993
996
998
996
992
988
982
983
983
985
984
982
980
981
983
984
981
980
980
981
980
980
982
980
978
981
983
983
983
981
972
967
966
970
986
1005
1031
1068
1114
1161
1208
1240
1241
1208
1152
1081
998
919
883
882
894
907
922
939
951
958
962
963
967
972
972
972
974
974
976
975
971
975
977
978
975
978
975
978
980
982
984
982
979
980
982
985
984
980
984
986
988
990
990
984
989
993
997
1000
1000
1001
1001
1004
1012
1016
1017
1017
1019
1021
1027
1031
1033
1031
1032
1034
1038
1039
1044
1041
1043
1043
1044
1044
1041
1040
1042
1042
1042
1040
1035
1032
1029
1027
1027
1026
1021
1013
1007
1007
1007
1004
1001
997
992
991
992
993
991
989
987
986
989
991
989
984
983
982
986
986
986
984
982
982
984
984
985
980
981
981
983
984
983
983
982
982
982
986
985
983
981
982
983
987
988
990
983
981
986
991
990
986
986
987
986
986
988
989
989
984
987
988
990
990
990
993
997
999
999
997
996
999
999
1003
998
995
996
997
1000
999
997
992
988
984
986
990
993
989
990
990
992
992
990
991
984
983
986
986
986
981
984
983
986
988
988
986
984
984
987
988
986
980
975
972
972
973
966
963
962
969
994
1023
1061
1103
1149
1201
1245
1268
1247
1185
1105
1016
929
880
868
879
897
917
936
949
954
961
965
966
966
968
971
970
971
971
972
971
972
972
970
972
971
973
974
974
971
972
976
980
979
974
973
976
979
984
986
983
982
980
984
989
991
992
989
990
994
999
1001
1001
1002
1002
1010
1013
1013
1021
1021
1025
1025
1027
1030
1029
1032
1035
1037
1040
1039
1040
1043
1044
1046
1045
1043
1038
1035
1035
1035
1037
1033
1025
1019
1017
1021
1018
1011
999
998
997
994
991
988
987
985
981
981
983
982
985
983
982
984
987
986
981
979
981
983
984
981
979
981
981
982
983
982
982
981
981
982
985
981
976
978
976
977
975
976
973
970
973
977
981
982
979
978
979
980
982
979
978
981
981
986
987
984
980
979
979
981
986
983
987
986
987
989
992
995
994
992
992
994
998
998
993
988
986
988
993
996
993
987
980
980
984
986
985
983
979
980
984
988
984
981
978
977
978
978
975
973
970
970
969
969
967
965
966
967
969
969
964
961
963
967
970
969
966
962
962
966
966
966
962
955
950
953
962
975
997
1023
1062
1108
1154
1198
1230
1235
1205
1153
1081
991
905
865
865
878
889
903
915
931
944
949
950
953
954
954
958
962
963
964
965
960
960
964
962
962
961
962
963
967
966
963
964
964
963
968
971
974
974
970
966
967
968
970
970
968
970
973
976
981
979
981
982
986
986
992
992
995
998
1002
1004
1006
1006
1003
1008
1014
1019
1023
1023
1022
1024
1024
1025
1025
1024
1024
1027
1030
1032
1027
1027
1026
1026
1024
1024
1026
1023
1021
1019
1016
1015
1009
1003
1000
997
993
991
985
982
979
979
979
976
973
969
968
969
968
973
975
970
970
974
975
977
974
971
965
963
969
970
973
968
966
966
964
966
967
963
962
959
960
963
960
959
955
956
958
956
952
953
948
948
951
951
951
947
944
944
946
947
946
944
940
938
940
941
945
938
936
935
936
940
937
938
939
936
940
938
936
927
919
910
909
911
922
939
970
1007
1055
1108
1155
1185
1190
1167
1110
1041
956
874
831
829
845
862
879
894
902
908
911
913
914
911
911
909
913
913
911
910
907
910
915
915
913
911
912
911
913
914
911
909
910
912
915
914
912
910
912
913
914
915
917
916
914
916
920
920
923
923
924
925
929
933
934
934
934
937
941
947
948
945
949
951
955
956
956
957
957
960
964
966
965
961
958
956
960
961
962
959
956
956
956
955
953
949
942
942
940
941
937
929
924
921
919
917
911
911
904
902
903
905
903
901
898
896
897
898
896
892
892
890
892
895
895
892
886
886
890
891
892
893
888
887
887
889
888
889
886
887
889
893
894
890
887
887
888
888
890
887
885
885
890
893
893
888
886
884
887
891
892
888
885
885
889
891
889
888
885
884
885
887
889
883
882
880
884
886
885
886
883
882
882
884
884
882
880
880
882
884
882
881
879
880
880
882
881
880
880
880
881
886
884
881
878
879
880
881
881
878
878
877
881
884
883
881
881
881
883
883
886
882
881
882
883
884
884
884
883
887
892
899
900
898
895
893
898
905
905
900
899
898
899
901
901
897
895
894
896
899
899
897
891
887
889
890
892
890
891
892
894
899
897
896
894
892
895
896
892
885
883
882
884
885
886
883
879
880
883
887
887
881
880
884
886
889
888
884
882
876
876
877
881
890
904
933
972
1017
1066
1118
1164
1201
1206
1172
1099
1005
907
824
789
799
817
831
842
854
865
875
877
879
879
880
881
885
884
885
884
883
888
890
892
889
886
886
891
894
896
893
892
889
893
896
898
898
896
896
901
905
906
905
904
903
909
915
917
912
912
916
920
928
928
929
931
932
939
945
948
949
950
958
961
965
969
971
973
977
981
980
982
983
986
988
992
993
997
996
996
993
995
996
992
992
989
989
987
989
986
980
978
973
975
970
969
959
956
955
955
954
951
949
948
946
948
949
948
946
943
941
947
950
949
947
944
944
948
951
950
946
947
946
950
951
950
950
951
949
953
955
955
951
950
949
953
957
955
955
955
954
959
962
962
961
960
963
962
964
961
958
957
956
958
964
964
962
960
959
963
966
964
960
958
960
964
964
968
967
969
969
974
976
972
971
972
975
976
979
978
975
971
969
975
979
979
978
975
973
975
973
972
966
967
968
969
974
971
968
967
967
969
970
967
966
959
956
956
959
958
955
953
955
957
961
963
961
960
960
964
965
964
959
957
955
961
964
960
957
957
950
948
949
953
963
986
1019
1062
1113
1165
1213
1242
1238
1202
1139
1055
962
887
858
865
882
896
913
929
939
947
952
957
958
958
959
958
959
957
955
956
957
962
964
963
959
960
960
961
966
967
966
967
968
975
977
975
971
970
973
975
978
981
979
981
981
987
989
990
989
988
992
996
1002
1002
1003
1001
1004
1010
1012
1017
1018
1020
1022
1026
1030
1031
1029
1029
1032
1036
1036
1036
1037
1039
1041
1045
1045
1042
1040
1036
1032
1031
1033
1031
1026
1021
1017
1014
1016
1012
1006
1000
999
999
998
996
988
984
980
979
984
986
983
980
982
984
983
979
977
977
978
979
977
976
974
969
972
980
983
984
983
980
977
974
970
971
971
973
970
969
973
971
974
973
974
974
980
982
981
977
976
978
977
976
973
970
968
974
979
982
981
978
974
976
980
981
984
980
979
979
978
981
981
985
984
988
989
987
988
988
991
996
999
1002
998
995
989
988
991
990
988
987
985
986
985
985
980
980
980
984
987
990
989
985
980
980
981
980
973
967
966
966
970
969
965
962
965
969
973
973
967
967
965
967
970
972
970
968
963
964
966
963
958
949
943
952
968
993
1023
1060
1106
1155
1204
1235
1239
1208
1147
1069
981
903
869
872
879
891
909
925
936
943
941
945
948
953
956
956
953
955
955
961
959
959
958
961
965
965
965
962
962
966
969
970
967
965
965
971
976
980
978
975
978
981
984
983
982
983
981
984
988
990
989
989
991
997
1004
1004
1006
1006
1008
1014
1017
1021
1020
1018
1022
1027
1031
1034
1035
1034
1033
1035
1037
1038
1035
1033
1035
1034
1031
1030
1021
1018
1017
1018
1015
1010
1004
998
995
992
991
988
984
980
976
977
975
974
971
967
965
970
972
972
970
968
968
972
973
969
965
964
964
965
968
972
968
964
967
969
966
965
965
966
967
969
970
970
968
965
962
964
965
965
963
959
961
965
967
969
965
965
964
969
970
969
969
968
967
966
968
970
968
969
969
973
981
984
983
983
985
988
991
990
986
988
984
986
983
980
979
976
973
973
977
977
972
964
959
960
965
971
970
964
960
960
964
960
958
954
953
953
950
948
951
949
951
952
956
955
955
948
948
953
955
956
955
955
954
956
959
958
955
949
946
942
943
947
958
978
1010
1055
1104
1155
1202
1238
1244
1217
1162
1093
1007
916
863
851
861
874
888
902
917
931
938
940
939
941
944
944
945
947
945
942
943
946
949
950
950
947
944
949
953
955
953
947
950
952
957
957
957
957
957
959
962
959
959
959
959
963
965
968
968
966
967
975
979
980
985
986
989
993
993
994
999
1005
1004
1010
1015
1018
1017
1016
1015
1016
1021
1023
1021
1020
1021
1023
1023
1022
1021
1018
1014
1013
1013
1010
1008
1002
998
995
993
991
988
984
979
975
975
973
970
969
967
967
967
966
963
959
958
959
959
958
958
954
953
952
958
960
956
953
951
953
956
958
956
957
956
957
959
961
960
961
955
960
963
963
960
957
959
960
966
967
967
962
961
964
967
965
965
962
960
961
966
971
972
967
967
967
970
970
967
969
968
968
975
975
974
976
971
972
977
978
977
976
974
974
975
974
970
969
969
973
976
977
975
971
968
967
967
969
968
968
968
966
970
971
969
964
962
961
959
958
956
953
953
954
957
957
957
955
954
954
957
957
956
952
952
956
958
958
959
953
950
951
947
943
946
951
967
999
1041
1084
1137
1191
1240
1274
1266
1211
1122
1018
923
864
856
867
886
904
920
934
945
946
949
949
946
946
950
950
951
945
948
952
953
951
949
947
950
953
958
957
954
956
955
958
961
960
958
959
960
962
963
964
967
965
968
971
974
976
977
977
980
983
987
988
987
989
987
993
997
1001
1000
1002
1006
1013
1016
1018
1017
1018
1022
1025
1026
1028
1029
1026
1025
1025
1029
1027
1027
1024
1024
1025
1023
1021
1017
1014
1014
1016
1011
1007
1001
995
992
992
992
988
981
976
977
977
978
975
973
967
967
968
969
970
966
967
967
969
971
969
967
965
965
966
968
967
966
964
966
968
969
967
966
963
964
966
968
967
964
960
963
964
967
966
964
965
967
965
966
965
963
964
963
965
965
967
967
966
963
964
965
966
966
960
961
964
965
964
966
965
969
970
973
973
974
977
977
976
979
981
980
979
981
980
980
977
977
975
975
978
979
979
975
972
972
971
972
973
972
969
969
970
974
975
973
969
966
960
961
959
957
957
957
957
958
955
952
952
952
956
961
958
953
952
953
954
959
960
957
955
951
945
942
942
947
964
988
1025
1071
1120
1170
1219
1258
1271
1238
1164
1069
960
875
843
857
874
896
912
927
937
942
949
948
945
942
946
949
954
951
947
944
948
951
953
953
952
949
952
954
956
958
955
955
957
960
964
963
962
961
961
966
966
967
966
969
970
975
978
975
976
978
984
990
994
996
993
993
1000
1004
1008
1011
1012
1016
1020
1022
1024
1022
1021
1025
1026
1030
1030
1028
1026
1027
1027
1025
1025
1026
1022
1016
1012
1010
1007
1000
998
991
990
990
988
985
982
979
978
976
976
974
969
971
971
971
973
973
970
969
970
971
970
970
968
966
968
970
970
967
965
964
967
969
972
966
967
966
965
970
972
968
966
966
967
970
970
969
967
967
972
974
974
971
970
971
973
979
980
975
977
980
982
983
980
978
977
976
977
979
985
983
983
987
991
991
990
987
983
984
987
985
987
986
984
981
988
992
992
990
987
984
986
988
988
982
980
980
980
983
980
977
973
973
972
977
980
979
972
968
963
963
967
971
972
967
962
961
961
964
963
964
967
969
970
969
966
961
956
959
973
999
1036
1087
1147
1206
1247
1248
1211
1139
1055
963
892
867
874
890
903
922
938
944
947
949
956
964
969
969
963
961
958
959
960
959
962
961
962
967
969
970
966
963
963
968
968
970
972
975
981
983
978
967
966
970
977
983
984
985
984
986
991
994
991
992
993
995
1001
1006
1006
1009
1011
1017
1023
1027
1033
1035
1036
1036
1036
1034
1039
1040
1041
1045
1051
1055
1049
1044
1037
1039
1041
1046
1044
1037
1026
1023
1023
1026
1026
1020
1010
1003
1001
1002
1000
993
988
985
987
990
989
990
986
983
983
983
981
979
977
981
983
984
987
979
977
973
976
979
983
984
982
979
981
984
987
986
982
983
982
983
981
981
980
980
983
986
986
984
981
982
986
988
989
987
985
987
988
989
987
985
985
986
989
993
992
994
990
994
997
997
998
999
1001
1001
1000
1000
1000
1001
1002
999
1002
1001
1002
1000
998
999
999
1003
1007
1006
1000
994
994
992
993
994
993
991
989
993
991
993
989
986
984
984
982
979
974
974
978
980
983
978
978
978
978
979
982
983
986
984
986
986
988
985
984
982
980
976
973
972
978
990
1017
1053
1095
1147
1195
1236
1248
1226
1174
1103
1018
933
884
878
884
896
907
924
945
958
965
966
965
966
971
973
973
974
975
975
978
980
979
980
978
980
977
982
986
985
987
986
987
991
993
994
992
986
987
990
996
995
992
991
989
992
998
1000
999
1002
1004
1010
1011
1010
1013
