977
977
979
986
990
991
981
979
979
984
991
996
999
1002
998
994
995
997
1001
1001
1001
998
996
994
993
987
979
979
978
983
980
976
970
964
955
952
946
945
944
942
941
939
937
938
934
935
935
941
940
940
937
939
937
943
942
937
933
936
939
944
943
942
937
941
945
944
937
929
926
924
926
928
933
933
936
936
939
942
939
937
934
932
935
942
946
946
945
945
946
947
942
934
930
927
933
935
937
939
939
933
937
943
950
949
952
956
964
958
954
949
951
955
959
963
964
957
951
951
953
959
963
963
961
956
951
941
943
947
951
952
953
953
951
949
947
946
946
945
943
940
937
929
930
930
931
933
933
938
940
938
934
929
927
929
935
940
941
940
938
937
938
937
934
928
922
918
923
936
952
972
1000
1041
1100
1157
1202
1226
1212
1164
1092
1010
918
846
826
836
855
876
893
906
918
924
935
941
941
935
930
929
937
941
935
926
924
925
931
937
935
929
926
930
935
940
942
945
946
946
941
942
936
938
941
942
944
945
949
950
949
953
962
965
964
960
954
961
969
972
976
974
974
982
989
993
998
1004
1007
1007
1011
1017
1016
1011
1007
1008
1009
1014
1017
1022
1023
1022
1017
1009
1006
1003
1003
1003
1003
1003
1001
999
996
992
989
983
974
966
960
960
959
959
959
961
962
960
963
964
960
960
956
954
957
959
957
957
955
954
957
957
953
950
948
952
955
961
961
958
960
964
972
977
968
957
950
953
961
968
963
953
946
945
945
943
945
946
945
948
955
956
958
955
954
957
963
963
953
950
953
959
962
962
960
960
962
965
968
971
968
969
969
971
978
978
980
978
976
976
982
986
988
987
984
981
974
963
957
953
953
953
956
960
960
960
962
967
967
969
967
963
957
951
952
955
957
957
951
947
943
947
948
946
946
944
945
946
950
956
959
956
951
948
949
944
937
932
931
939
951
976
1013
1055
1101
1145
1190
1212
1206
1165
1105
1034
946
873
839
845
862
882
901
917
922
931
935
940
939
942
944
946
945
943
940
939
938
943
951
956
952
948
944
945
944
947
952
953
953
955
960
968
968
968
970
972
976
977
966
959
955
960
965
968
971
972
973
975
978
981
981
976
977
979
982
990
994
996
1001
1007
1006
1008
1009
1009
1010
1016
1018
1021
1019
1017
1017
1019
1023
1027
1025
1022
1022
1019
1013
1013
1012
1009
1005
999
999
997
994
992
989
989
987
985
977
980
978
974
964
963
965
970
975
976
972
962
954
951
954
958
961
962
963
960
960
960
957
955
951
953
952
953
953
954
955
958
958
960
958
957
957
958
962
965
965
967
959
954
949
948
952
958
963
964
966
961
959
956
953
954
956
957
961
963
965
967
968
973
976
982
989
991
992
989
988
985
975
964
956
953
959
962
962
961
963
965
968
971
969
966
962
962
964
969
968
965
964
965
964
967
967
966
962
964
957
960
958
954
948
945
945
943
940
936
935
941
945
946
947
946
949
948
952
952
955
947
938
934
945
971
1005
1047
1092
1146
1194
1226
1217
1176
1123
1056
972
893
854
846
853
866
889
909
923
927
932
931
934
937
943
946
940
942
947
951
953
952
947
944
946
947
944
951
958
959
955
943
934
932
935
943
947
949
948
948
948
950
954
962
964
961
957
956
963
967
975
975
970
970
976
982
986
983
991
994
1006
1009
1009
1014
1019
1013
1003
1000
1010
1016
1016
1014
1007
1006
1006
1006
1004
998
994
993
995
996
990
988
983
984
978
969
964
960
960
958
952
950
947
946
948
944
938
934
934
935
943
952
947
942
938
941
943
943
941
930
924
926
932
942
940
935
931
930
938
940
940
937
934
939
941
941
939
936
931
931
937
937
931
924
921
918
922
929
934
936
935
935
932
933
935
944
944
942
938
941
945
944
936
929
928
929
935
937
940
940
943
940
938
936
936
937
941
946
943
935
928
929
929
927
926
926
929
933
935
935
932
927
920
919
921
923
920
920
923
927
928
919
914
914
906
905
908
915
917
913
913
919
925
925
917
909
909
913
911
900
900
911
933
961
995
1035
1085
1143
1194
1220
1215
1181
1112
1024
922
844
811
814
832
845
857
868
885
893
898
896
899
905
909
909
914
912
913
906
906
908
908
909
909
909
910
913
910
907
906
907
913
918
919
921
924
928
924
917
913
916
926
931
931
925
918
915
919
935
950
954
950
940
936
947
961
970
962
949
947
951
958
962
965
963
966
969
972
973
973
977
979
979
984
994
992
983
980
975
969
964
957
955
959
964
971
964
945
929
928
928
930
930
929
931
927
923
919
920
914
910
908
909
909
912
911
911
913
921
924
921
925
928
924
917
909
904
901
902
912
912
909
909
915
926
930
927
918
913
912
911
912
913
917
924
929
927
920
910
911
920
927
929
927
930
933
934
935
935
928
920
921
934
943
945
939
934
939
946
935
921
917
920
924
924
927
932
938
935
934
931
926
923
919
919
925
930
929
928
931
926
921
921
923
921
914
916
923
930
929
928
926
921
916
911
906
903
902
906
910
913
907
899
903
908
918
928
934
931
921
911
916
931
948
971
999
1043
1099
1156
1211
1241
1238
1190
1113
1017
909
828
800
807
823
839
855
871
884
891
898
906
909
909
910
911
913
917
917
915
913
913
915
919
922
920
918
921
922
925
927
927
926
927
929
933
935
936
936
939
942
944
946
944
944
947
953
959
964
968
972
984
990
994
983
981
986
994
992
992
995
997
1000
1001
1003
1007
1007
1007
1004
999
998
998
996
993
989
988
992
992
990
987
983
975
971
967
965
963
964
964
963
961
958
957
955
955
955
957
959
956
951
952
954
955
949
941
940
942
943
944
950
950
955
959
960
960
953
942
946
951
958
961
958
954
953
953
960
966
967
964
964
962
958
958
960
962
965
970
971
975
974
970
969
967
973
980
977
972
967
972
978
984
986
988
988
986
988
990
992
989
985
992
999
1000
993
990
984
986
988
992
991
992
992
996
998
997
994
990
990
992
993
986
984
984
986
985
985
982
981
978
973
974
978
981
980
980
978
980
985
987
986
984
981
981
979
981
977
980
984
985
987
985
983
981
986
991
1008
1039
1080
1129
1178
1231
1278
1299
1287
1241
1169
1086
988
911
877
880
892
905
925
945
959
967
971
979
987
991
989
982
979
980
988
988
990
988
989
985
985
990
992
993
991
993
995
1000
1001
1000
995
995
999
1000
999
990
993
1000
1002
1005
1007
1006
1006
1011
1014
1017
1015
1018
1019
1026
1034
1036
1033
1028
1025
1029
1040
1047
1052
1053
1054
1061
1065
1067
1070
1072
1072
1069
1072
1074
1078
1078
1078
1076
1076
1078
1074
1069
1073
1070
1069
1067
1064
1055
1047
1051
1054
1053
1048
1042
1036
1025
1023
1028
1025
1020
1015
1014
1018
1021
1017
1013
1012
1007
1001
1003
1009
1008
1009
1012
1013
1015
1014
1011
1015
1015
1020
1020
1017
1016
1007
1005
1006
1007
1008
1011
1010
1010
1011
1009
1013
1009
1003
1005
1008
1014
1012
1007
1007
1007
1013
1016
1015
1011
1010
1011
1016
1015
1015
1018
1020
1020
1023
1029
1030
1033
1031
1029
1028
1032
1037
1038
1035
1036
1033
1032
1030
1026
1024
1024
1024
1024
1025
1023
1020
1016
1012
1010
1013
1019
1021
1023
1022
1022
1020
1016
1009
1007
1007
1013
1014
1007
1001
997
998
1002
1000
999
1003
1003
1003
1003
1002
1002
1002
1001
1003
1005
1007
1005
1005
1005
1006
1003
994
997
999
1017
1042
1076
1112
1154
1205
1255
1300
1322
1305
1254
1185
1100
1007
932
904
904
913
923
942
964
981
988
989
993
999
1001
999
991
995
996
1002
1000
999
993
995
1001
1004
1007
1005
1002
999
999
1001
1000
999
1001
1005
1006
1007
1013
1018
1018
1017
1017
1015
1017
1013
1012
1013
1015
1018
1026
1025
1025
1023
1021
1023
1033
1039
1041
1041
1042
1044
1051
1051
1053
1054
1060
1065
1074
1072
1070
1071
1070
1078
1081
1081
1082
1084
1087
1092
1094
1088
1087
1087
1084
1080
1078
1075
1075
1070
1066
1065
1067
1067
1060
1055
1046
1044
1045
1044
1038
1039
1035
1035
1039
1040
1036
1033
1030
1027
1031
1032
1030
1029
1025
1026
1027
1027
1026
1022
1021
1023
1027
1026
1022
1016
1016
1021
1025
1023
1024
1025
1026
1022
1020
1022
1025
1019
1016
1018
1022
1024
1025
1024
1021
1023
1027
1024
1023
1021
1020
1025
1029
1028
1025
1024
1019
1021
1025
1023
1024
1022
1026
1031
1032
1030
1023
1020
1021
1029
1036
1036
1033
1028
1021
1025
1027
1029
1025
1024
1024
1029
1031
1025
1021
1018
1016
1016
1023
1024
1022
1019
1018
1025
1026
1021
1014
1011
1008
1006
1007
1004
1003
999
999
1000
1003
1006
1006
1005
1005
1011
1018
1019
1016
1011
1006
1004
1005
1005
1001
993
991
991
992
996
1009
1035
1071
1113
1160
1207
1256
1294
1314
1302
1259
1189
1101
1004
925
894
901
916
934
951
967
981
991
993
992
987
983
987
990
989
984
978
980
988
996
997
997
998
999
1001
1000
993
991
993
995
998
1003
1004
1000
996
998
1003
1005
1004
1001
1004
1003
1007
1010
1009
1007
1007
1011
1012
1017
1022
1022
1021
1023
1028
1036
1043
1046
1048
1058
1061
1062
1063
1058
1054
1051
1055
1061
1065
1066
1067
1064
1065
1070
1070
1067
1061
1058
1057
1055
1050
1041
1039
1039
1044
1049
1042
1030
1023
1016
1013
1012
1011
1011
1008
1004
1003
1004
1008
1008
1000
993
994
998
998
998
996
995
994
993
992
989
992
992
992
993
993
996
993
993
996
1002
998
991
989
986
989
995
994
992
992
991
995
996
992
988
988
989
994
997
997
996
993
992
996
997
994
996
998
998
998
999
998
999
998
1001
1004
1009
1010
1006
1003
1006
1004
999
997
995
993
997
996
1000
998
992
992
988
989
992
994
992
992
991
995
996
995
988
984
985
984
984
985
981
978
977
978
981
981
979
978
975
978
982
982
979
976
970
973
984
991
990
983
973
973
973
971
969
977
990
1014
1047
1086
1131
1179
1230
1272
1291
1273
1226
1160
1081
992
918
882
883
893
903
921
940
956
962
963
960
959
963
966
971
974
972
973
974
974
969
971
967
972
975
973
972
972
971
977
980
979
973
973
974
978
978
975
973
977
978
983
986
984
984
988
987
989
989
988
991
989
994
998
1004
1003
1007
1008
1010
1016
1021
1024
1027
1027
1027
1034
1044
1046
1044
1043
1044
1046
1049
1049
1052
1050
1047
1046
1046
1044
1041
1041
1038
1039
1040
1034
1025
1019
1014
1016
1016
1013
1007
1002
999
997
999
995
992
990
988
987
987
988
985
985
980
982
986
982
982
982
980
983
986
984
980
977
978
983
986
985
983
983
982
985
988
986
981
980
979
982
985
984
984
982
981
983
988
988
981
985
982
983
986
989
985
983
980
983
987
989
989
987
988
994
999
999
998
993
993
998
1005
1006
1002
998
998
1002
1004
1001
1000
1000
1001
1001
997
991
988
986
984
988
993
989
989
989
992
995
994
990
985
983
978
982
981
979
976
978
977
978
984
983
982
978
977
980
981
980
978
978
977
979
981
980
974
966
963
970
983
1009
1047
1095
1151
1210
1261
1287
1271
1221
1142
1050
957
893
875
884
896
914
933
948
955
960
960
965
969
971
972
970
970
973
974
976
973
968
968
971
975
972
974
975
976
978
983
991
995
994
986
982
979
988
991
990
985
984
985
991
993
992
993
995
998
1002
1004
1006
1007
1007
1009
1011
1016
1017
1016
1020
1026
1030
1032
1035
1037
1044
1050
1051
1046
1040
1041
1046
1050
1053
1055
1051
1052
1053
1054
1050
1049
1045
1043
1041
1041
1039
1037
1033
1022
1015
1019
1022
1019
1011
1004
1004
1002
1002
1002
1002
1000
1000
995
993
991
993
991
989
985
986
984
987
990
993
993
991
988
984
982
983
982
979
981
983
987
989
989
986
986
980
979
977
981
983
984
983
984
988
993
996
995
987
982
981
985
992
990
987
985
988
994
996
998
1000
1002
1008
1008
1004
1004
1002
1004
1005
1004
1001
1002
1001
1002
1004
1000
1000
996
991
990
993
997
996
995
993
992
993
990
988
984
981
986
987
985
984
980
977
978
979
982
982
982
979
979
981
984
982
982
980
978
978
981
982
982
979
977
982
980
972
968
968
980
1000
1035
1075
1121
1169
1219
1265
1283
1263
1213
1141
1052
958
894
882
891
901
917
936
959
965
967
964
970
974
977
977
974
966
963
967
970
971
971
970
972
974
978
980
983
980
982
984
983
985
987
987
993
997
997
997
994
993
992
993
994
999
1000
998
1005
1008
1013
1014
1017
1020
1023
1029
1032
1035
1035
1033
1033
1038
1046
1047
1045
1044
1047
1053
1058
1058
1060
1058
1056
1061
1061
1063
1057
1052
1048
1047
1046
1045
1041
1036
1032
1034
1033
1032
1026
1016
1011
1010
1007
1008
1006
1000
998
997
994
992
992
992
993
993
995
994
995
993
990
990
992
994
991
994
994
998
999
993
990
988
989
993
997
996
994
992
992
996
994
994
994
993
992
992
996
998
999
994
993
993
995
999
999
995
995
999
1005
1008
1005
1004
1002
1003
1011
1010
1009
1007
1005
1004
1002
1003
1001
1002
999
998
1001
999
995
989
991
994
994
994
993
991
993
995
997
994
993
986
979
978
978
980
979
976
975
977
978
982
980
978
978
981
983
982
982
979
979
981
978
972
966
958
962
975
995
1023
1059
1104
1159
1215
1262
1281
1267
1220
1153
1074
987
907
869
866
880
896
917
934
948
951
953
957
961
958
958
958
959
960
961
960
956
956
957
962
964
962
963
960
960
958
954
956
959
953
956
957
962
965
961
958
959
963
966
965
962
964
964
967
969
972
973
973
976
978
981
982
983
983
985
990
998
1001
1005
1003
1005
1007
1012
1014
1016
1012
1016
1021
1024
1021
1022
1018
1017
1019
1022
1023
1020
1016
1010
1011
1008
1006
1004
998
994
989
987
983
977
971
966
960
961
961
959
956
955
956
956
950
947
942
942
947
948
950
947
946
943
947
950
949
946
944
942
948
953
958
959
961
960
964
965
962
962
960
956
955
958
956
958
957
955
954
957
958
956
955
952
956
960
958
952
950
950
950
952
946
938
942
945
944
945
943
941
939
942
940
939
939
941
944
945
946
944
943
942
937
935
936
942
942
932
927
931
937
950
982
1026
1077
1134
1189
1233
1251
1231
1179
1108
1027
936
870
847
856
873
892
914
921
929
931
932
935
938
940
941
932
928
930
938
942
942
937
935
939
943
946
942
937
940
940
945
946
948
946
947
949
953
952
955
957
960
960
961
962
964
962
963
967
973
980
981
981
977
980
985
990
993
996
995
1001
1008
1010
1012
1014
1017
1018
1020
1017
1014
1015
1014
1017
1021
1020
1015
1008
1007
1008
1006
1005
998
997
997
1000
997
990
982
977
973
973
977
979
974
969
970
975
975
975
972
970
969
966
964
964
962
961
957
962
967
971
967
969
965
963
963
968
969
967
968
966
968
975
973
970
966
965
972
977
976
974
976
981
984
986
983
975
972
974
978
981
983
979
974
976
980
986
983
975
974
980
989
991
991
984
981
979
979
984
984
983
985
987
991
992
988
982
979
985
989
992
992
991
993
993
994
994
996
997
1000
1008
1013
1013
1009
1007
1009
1014
1023
1023
1021
1014
1014
1013
1011
1010
1012
1012
1011
1010
1015
1016
1015
1009
1008
1010
1011
1011
1012
1014
1015
1016
1018
1017
1011
1003
999
998
1006
1004
1007
1007
1004
1011
1008
1008
1004
1006
1009
1013
1017
1015
1011
1007
1005
1001
1000
1001
1011
1027
1056
1093
1134
1181
1230
1279
1315
1323
1293
1239
1157
1065
974
924
917
930
940
953
973
991
1002
1006
1007
1009
1014
1017
1021
1021
1018
1017
1017
1020
1019
1023
1024
1022
1021
1023
1030
1034
1036
1031
1030
1034
1039
1035
1034
1033
1033
1035
1037
1039
1040
1042
1039
1041
1046
1052
1053
1051
1051
1054
1057
1061
1060
1063
1062
1072
1079
1080
1085
1085
1090
1091
1096
1103
1103
1101
1100
1104
1110
1114
1113
1111
1112
1115
1121
1118
1119
1117
1118
1116
1118
1115
1111
1106
1101
1099
1098
1094
1085
1079
1076
1075
1075
1073
1067
1064
1058
1060
1060
1060
1059
1056
1054
1054
1059
1064
1060
1055
1051
1053
1054
1056
1053
1052
1047
1047
1052
1058
1055
1054
1054
1056
1059
1057
1055
1054
1051
1052
1055
1056
1055
1052
1057
1060
1060
1059
1054
1056
1056
1062
1061
1055
1057
1055
1055
1057
1059
1061
1061
1063
1062
1069
1069
1066
1069
1067
1067
1067
1068
1069
1069
1069
1067
1065
1064
1061
1056
1049
1051
1053
1055
1056
1055
1052
1053
1052
1050
1050
1044
1038
1037
1035
1036
1038
1036
1036
1038
1037
1038
1037
1038
1033
1031
1033
1037
1037
1036
1031
1028
1026
1025
1026
1035
1052
1084
1122
1169
1225
1275
1313
1329
1312
1260
1181
1086
991
934
924
941
959
980
996
1006
1015
1015
1021
1018
1020
1019
1020
1019
1020
1019
1018
1016
1020
1023
1024
1023
1020
1018
1023
1025
1026
1025
1026
1025
1027
1029
1030
1030
1029
1030
1032
1032
1034
1032
1033
1035
1035
1041
1042
1045
1045
1044
1044
1047
1052
1053
1056
1058
1064
1066
1069
1068
1070
1073
1075
1076
1079
1077
1077
1080
1078
1078
1082
1079
1075
1075
1076
1075
1076
1073
1072
1070
1070
1071
1068
1064
1060
1053
1051
1051
1048
1046
1040
1039
1037
1036
1035
1032
1027
1027
1023
1024
1024
1022
1019
1021
1018
1021
1024
1020
1020
1011
1009
1009
1012
1009
1008
1007
1007
1005
1007
1007
1006
1006
1008
1009
1010
1009
1007
1007
1004
1006
1008
1007
1004
1001
1004
1006
1007
1008
1003
1005
1005
1007
1010
1008
1008
1007
1007
1008
1012
1010
1008
1006
1006
1008
1007
1005
1008
1010
1010
1011
1014
1017
1014
1013
1013
1018
1016
1016
1010
1009
1010
1013
1014
1014
1013
1010
1011
1013
1012
1009
1003
1005
1012
1016
1016
1012
1009
1006
1004
1003
1003
997
993
986
985
987
988
989
985
985
985
984
985
984
982
980
982
988
990
988
981
982
982
982
983
977
965
962
967
978
1002
1031
1067
1112
1167
1225
1273
1295
1275
1218
1135
1047
956
889
864
877
892
910
928
943
951
956
960
966
