960
960
964
961
964
966
964
962
957
957
958
960
962
964
964
961
960
962
960
962
958
957
961
963
965
964
962
960
965
970
975
979
977
975
970
969
968
972
970
968
966
967
971
967
961
961
963
961
962
963
963
961
963
962
962
960
958
956
950
953
953
950
948
942
940
939
942
944
940
936
930
933
939
942
940
940
937
939
939
941
940
939
935
931
931
935
941
958
984
1023
1069
1118
1171
1208
1218
1197
1148
1077
988
900
849
843
853
863
872
885
901
918
926
931
931
935
942
944
947
947
944
943
941
943
945
943
945
945
946
946
950
950
953
952
952
951
955
950
948
946
948
948
951
955
959
962
963
968
966
967
967
967
970
975
975
980
977
978
982
987
993
996
995
996
998
1002
1004
1001
1001
1002
1002
1004
1007
1009
1008
1007
1007
1005
1001
999
996
991
993
989
987
985
984
978
971
971
967
964
961
960
956
955
952
950
947
945
944
942
943
941
944
942
944
943
945
949
947
946
944
943
945
943
945
944
944
943
944
945
943
940
939
941
942
944
941
942
942
942
943
943
940
943
942
943
943
947
947
947
946
950
951
949
949
950
950
949
947
948
949
950
951
954
959
960
958
957
957
958
962
960
964
961
960
962
961
959
958
952
954
960
959
958
956
951
948
952
955
957
954
953
953
954
957
954
954
949
945
941
943
939
936
936
935
938
941
943
943
937
938
938
939
938
937
936
935
935
934
929
922
916
921
932
951
981
1020
1071
1130
1191
1239
1254
1225
1160
1072
967
871
820
820
838
862
889
905
918
922
923
925
929
933
936
934
934
932
934
934
936
934
936
933
935
940
942
938
939
940
945
946
948
945
946
944
948
949
953
955
955
955
956
957
963
965
962
964
968
971
974
973
974
977
979
985
991
994
994
992
994
999
1001
1005
1009
1006
1006
1005
1006
1012
1011
1009
1009
1011
1012
1014
1007
1005
1002
1004
1004
1002
997
994
991
990
985
981
976
975
974
971
969
966
965
958
956
956
958
955
955
955
955
957
961
961
958
960
960
962
962
960
958
958
957
958
959
959
960
959
960
958
961
958
953
952
951
955
958
961
966
966
968
967
966
964
962
963
964
965
965
964
958
960
961
966
967
966
965
964
967
972
975
975
978
977
977
980
985
982
983
982
982
982
981
975
970
971
973
974
976
982
980
976
976
976
979
978
977
975
974
976
979
978
973
969
968
970
970
966
964
959
960
964
965
962
960
956
961
965
965
965
962
961
962
966
965
961
958
951
950
953
963
982
1010
1047
1095
1152
1206
1253
1271
1250
1189
1103
1004
907
845
833
857
883
905
920
931
940
948
952
956
958
959
959
960
963
963
964
961
961
960
961
964
964
962
962
962
967
966
964
965
961
964
965
969
972
969
973
972
977
978
976
975
975
978
982
989
993
996
997
1001
1003
1006
1007
1008
1007
1011
1016
1016
1018
1018
1018
1020
1029
1031
1034
1029
1032
1036
1038
1038
1038
1036
1036
1035
1035
1035
1033
1028
1025
1022
1021
1018
1016
1010
1005
1001
1000
998
992
991
986
985
986
985
981
982
980
980
980
982
979
976
976
978
982
984
982
979
978
978
980
978
979
976
974
974
979
979
975
972
972
973
975
976
977
973
973
976
978
977
977
975
971
970
976
979
979
980
980
979
981
980
979
975
978
979
978
978
978
980
980
980
982
984
991
993
994
997
1002
1002
1002
1002
1000
997
1000
998
996
993
991
996
996
997
993
989
987
986
987
985
983
981
983
983
985
989
989
986
984
983
980
979
975
968
969
968
970
972
970
969
968
971
973
974
972
968
970
973
973
973
972
968
965
962
961
961
965
977
1003
1037
1080
1132
1183
1230
1257
1252
1209
1140
1052
950
871
841
851
875
896
916
932
945
951
954
955
957
956
958
960
963
964
962
962
964
964
965
964
966
964
967
969
972
972
972
976
977
981
980
978
978
978
979
981
978
983
981
987
991
992
995
997
999
998
1001
1007
1009
1012
1013
1014
1021
1023
1024
1028
1028
1032
1034
1040
1040
1042
1040
1041
1042
1043
1046
1042
1044
1041
1042
1045
1046
1046
1044
1044
1039
1035
1027
1025
1021
1019
1016
1013
1009
1005
1000
996
996
994
997
993
990
988
987
988
986
980
978
981
984
987
989
987
980
979
978
980
979
979
976
973
978
982
980
979
975
976
977
979
981
979
980
980
983
986
991
991
994
993
993
992
990
988
985
985
986
990
993
993
991
988
989
991
992
991
984
988
992
996
1000
1001
1000
1001
1003
1001
998
999
999
1001
1004
1003
1002
1000
995
997
1003
1011
1014
1014
1013
1009
1007
1004
1001
997
996
994
997
997
996
994
994
994
996
999
997
995
986
982
978
980
980
976
974
974
975
981
981
979
974
971
972
971
973
972
973
973
972
971
968
967
966
965
975
991
1018
1050
1089
1140
1197
1239
1246
1213
1154
1074
981
901
868
868
875
887
905
927
940
949
949
952
959
966
968
966
965
969
964
967
965
967
967
970
971
973
976
978
974
972
971
971
975
975
974
975
976
979
983
984
982
985
986
989
993
991
992
994
1002
1008
1011
1014
1013
1012
1017
1022
1024
1028
1028
1031
1035
1038
1039
1038
1037
1035
1040
1042
1039
1039
1037
1036
1036
1037
1033
1031
1029
1028
1026
1025
1022
1016
1010
1007
1006
1002
1002
999
993
990
986
988
987
986
985
982
982
984
983
982
980
979
977
975
977
977
973
974
973
976
978
975
971
968
965
970
970
971
972
971
971
974
975
974
975
976
978
978
979
981
981
980
979
981
980
979
973
970
971
974
975
976
976
978
984
988
990
982
980
980
983
986
987
983
978
979
977
979
981
976
975
975
979
983
987
985
978
973
969
967
968
966
964
966
966
966
965
966
965
962
961
964
968
966
960
950
946
954
971
999
1041
1097
1162
1225
1261
1252
1201
1121
1017
913
856
852
869
888
908
926
940
945
946
951
956
960
962
962
958
959
958
961
961
957
958
957
959
963
967
966
965
963
966
967
968
968
965
964
966
970
975
979
975
976
974
978
982
985
981
982
987
991
996
997
995
995
996
1002
1004
1005
1005
1007
1009
1011
1013
1014
1017
1016
1023
1024
1025
1023
1022
1023
1023
1022
1022
1021
1018
1016
1017
1017
1017
1013
1010
1006
1004
1005
1005
1001
995
991
986
983
982
979
975
974
975
974
975
972
966
966
971
973
972
972
970
967
969
972
970
967
965
965
971
972
974
972
972
972
974
974
975
974
972
971
971
976
978
979
976
973
975
980
982
981
979
976
979
981
984
984
978
978
978
983
981
985
985
985
985
986
988
983
980
978
976
979
983
983
978
978
981
987
989
989
985
989
987
990
991
995
998
999
1003
1004
1004
1002
999
999
998
1002
1003
1000
999
997
997
999
1000
999
995
993
993
990
991
991
987
989
988
990
994
994
995
994
991
997
993
989
984
979
981
982
984
984
976
977
978
981
981
981
980
976
978
980
983
980
977
969
966
966
962
964
970
985
1018
1059
1104
1159
1213
1261
1281
1267
1215
1130
1032
937
872
858
876
897
914
931
946
957
963
972
973
972
973
975
976
974
973
973
975
977
979
978
974
975
977
981
983
982
980
980
980
985
989
988
988
987
990
992
992
996
996
996
1000
1003
1007
1007
1005
1007
1009
1014
1021
1019
1022
1025
1024
1032
1033
1037
1039
1041
1043
1046
1048
1047
1047
1046
1049
1054
1054
1053
1054
1056
1056
1063
1061
1054
1055
1047
1049
1051
1052
1047
1042
1041
1037
1035
1034
1026
1019
1014
1015
1014
1015
1011
1002
997
1002
1004
1004
1000
997
995
996
997
998
997
994
992
995
996
997
996
993
993
995
998
995
995
992
992
994
999
1001
1001
1000
1000
1003
1004
1000
997
998
997
998
1001
1003
999
997
999
1000
1006
1009
1009
1008
1005
1006
1005
1010
1007
1005
1003
1005
1009
1011
1009
1008
1007
1007
1011
1014
1017
1015
1015
1018
1021
1023
1029
1025
1025
1027
1024
1024
1023
1019
1019
1022
1022
1023
1022
1019
1019
1018
1015
1013
1010
1006
1006
1007
1004
1010
1016
1017
1014
1016
1015
1015
1011
1005
1002
1000
1003
1003
1000
998
999
995
1001
998
996
994
991
996
997
998
997
995
993
995
997
996
992
983
980
985
992
1006
1025
1048
1086
1129
1181
1231
1271
1286
1269
1223
1153
1069
976
898
867
879
900
920
937
953
965
974
984
987
987
987
985
987
990
993
993
991
988
988
986
988
988
989
992
994
995
996
996
993
997
1000
1002
1002
1002
1000
1002
1006
1007
1009
1009
1009
1008
1014
1016
1019
1021
1022
1021
1022
1022
1025
1024
1028
1026
1030
1034
1039
1041
1043
1041
1043
1048
1051
1053
1055
1055
1057
1061
1061
1060
1061
1057
1057
1057
1059
1058
1056
1054
1054
1053
1053
1050
1046
1040
1039
1035
1034
1030
1020
1019
1014
1012
1014
1008
1005
998
997
999
997
995
997
1001
1004
1003
1005
1004
1006
1003
1003
1004
1001
1002
999
997
997
1000
1003
1004
1002
1002
1004
1003
1007
1003
1003
999
1000
1003
1006
1004
1003
1001
1000
1001
1001
999
1002
1001
999
1001
1003
1005
1009
1009
1010
1012
1012
1008
1007
1009
1012
1013
1016
1016
1016
1015
1015
1017
1015
1016
1018
1018
1020
1023
1023
1021
1019
1017
1021
1023
1026
1023
1022
1016
1015
1018
1020
1023
1020
1023
1025
1025
1026
1023
1017
1015
1018
1024
1025
1023
1017
1013
1017
1020
1020
1017
1013
1006
1003
1002
1004
1003
1001
1000
998
1000
998
998
995
992
997
1004
1005
1004
1003
1001
1004
1007
1006
1001
995
992
991
999
1009
1025
1047
1073
1114
1160
1211
1255
1276
1265
1229
1173
1101
1014
932
890
889
905
915
933
950
967
983
992
997
1000
1000
998
998
997
1001
1001
1003
1003
1003
1006
1008
1010
1006
1003
1002
1005
1008
1011
1010
1007
1010
1016
1017
1018
1013
1013
1018
1019
1020
1022
1022
1021
1019
1026
1024
1031
1032
1035
1033
1037
1039
1040
1044
1045
1058
1061
1066
1066
1066
1063
1067
1068
1073
1073
1071
1072
1074
1075
1075
1076
1079
1077
1075
1075
1076
1074
1072
1072
1073
1074
1073
1071
1065
1060
1054
1055
1053
1051
1044
1040
1035
1034
1031
1030
1032
1026
1030
1027
1025
1023
1019
1018
1021
1024
1026
1024
1019
1017
1017
1016
1017
1015
1011
1008
1012
1012
1013
1013
1013
1016
1017
1017
1019
1017
1012
1009
1010
1011
1017
1018
1022
1024
1026
1024
1023
1021
1020
1022
1022
1020
1020
1019
1016
1015
1015
1018
1018
1020
1019
1017
1018
1020
1020
1019
1017
1014
1016
1018
1020
1023
1020
1018
1014
1018
1025
1030
1033
1030
1029
1033
1038
1042
1040
1035
1031
1030
1028
1030
1026
1021
1023
1024
1026
1023
1023
1019
1017
1014
1015
1015
1016
1014
1014
1017
1016
1011
1012
1010
1008
1007
1003
1003
1003
1002
1002
1002
1004
1001
1001
999
1000
1003
1001
1000
999
996
995
997
997
996
990
984
980
980
989
1005
1030
1064
1107
1155
1206
1243
1256
1241
1202
1147
1073
981
909
885
890
903
915
929
948
960
969
970
973
975
978
979
979
979
980
983
980
984
986
989
993
993
991
991
993
995
995
997
994
990
994
995
1000
999
997
996
997
996
1000
1001
1001
999
1004
1009
1009
1012
1012
1010
1012
1016
1021
1020
1021
1024
1028
1036
1038
1037
1034
1036
1035
1041
1041
1049
1049
1049
1048
1051
1052
1050
1047
1047
1046
1042
1039
1038
1032
1029
1026
1031
1027
1023
1018
1012
1008
1005
1002
997
994
990
987
987
986
984
984
980
978
973
973
973
969
969
972
973
975
973
974
973
973
974
973
973
969
969
970
973
977
972
970
965
966
970
970
972
970
962
965
965
971
972
971
969
967
972
973
971
969
964
970
971
970
967
966
964
963
963
965
965
966
967
968
972
969
967
965
969
972
979
982
979
978
978
978
978
979
978
976
973
973
977
975
978
979
975
973
974
976
972
967
962
962
964
969
966
963
962
964
964
966
961
958
954
951
950
949
947
944
944
944
944
944
946
950
950
950
952
953
951
949
947
948
952
954
951
946
944
942
942
942
946
953
973
1003
1037
1080
1129
1176
1219
1247
1251
1216
1155
1075
988
896
835
821
836
854
878
900
916
928
931
935
939
939
940
945
939
941
940
945
946
947
946
944
942
945
948
950
947
947
948
948
948
951
953
952
952
955
959
961
958
958
957
955
961
967
971
971
973
975
978
982
986
985
986
986
991
996
1000
1000
997
1000
1006
1009
1011
1011
1012
1015
1019
1021
1017
1012
1011
1012
1015
1017
1015
1018
1016
1014
1012
1014
1012
1004
1003
1004
1003
1005
1000
993
988
985
980
979
974
968
965
965
970
970
968
965
961
960
962
961
958
956
956
955
957
957
954
953
952
954
959
961
958
959
957
960
963
967
967
964
963
962
964
964
966
964
960
959
963
966
965
964
962
964
965
964
965
962
960
959
962
962
962
957
955
958
961
963
965
961
962
961
968
971
974
970
974
976
977
982
978
980
978
982
984
987
980
982
977
978
981
980
981
982
980
975
972
972
973
970
971
973
977
979
977
979
978
973
973
972
970
967
963
963
966
965
964
962
964
963
967
971
969
968
966
964
969
972
969
969
968
967
963
960
956
952
958
963
981
1012
1053
1102
1152
1203
1247
1265
1241
1182
1102
1008
911
854
847
866
886
909
931
946
953
956
958
961
963
965
965
966
967
969
967
969
968
966
963
962
966
967
970
968
968
970
975
978
979
976
976
977
979
981
983
983
985
990
993
998
1002
1001
1001
1002
1004
1005
1006
1007
1010
1017
1017
1021
1021
1025
1025
1028
1035
1037
1035
1038
1041
1043
1045
1046
1043
1038
1040
1043
1047
1050
1052
1049
1049
1049
1053
1050
1041
1035
1033
1032
1035
1031
1026
1024
1019
1014
1012
1013
1010
1007
1004
1001
1001
1000
997
991
987
990
992
990
990
988
989
989
990
992
986
984
985
989
989
990
985
987
989
992
997
997
998
997
994
994
994
994
991
990
992
993
1000
1002
1002
1002
1000
1002
1002
1003
1002
1002
1000
998
999
1002
1001
998
996
998
1001
1001
999
998
1000
1005
1008
1013
1010
1006
1008
1012
1018
1019
1020
1018
1016
1018
1023
1022
1018
1017
1016
1021
1021
1023
1021
1020
1017
1018
1021
1021
1012
1005
1006
1011
1012
1014
1014
1013
1012
1013
1015
1011
1005
999
994
992
989
995
995
995
992
991
986
988
994
999
1002
1004
1004
1004
1006
1002
997
993
994
992
986
980
982
996
1020
1055
1096
1143
1188
1237
1265
1264
1233
1182
1114
1026
938
891
888
899
907
926
948
970
981
985
984
989
995
997
1000
998
999
1001
1004
1009
1007
1008
1004
1007
1007
1008
1014
1012
1012
1009
1011
1017
1019
1020
1017
1016
1019
1027
1030
1027
1026
1026
1028
1035
1038
1040
1039
1045
1053
1058
1059
1060
1059
1062
1069
1073
1075
1077
1079
1079
1083
1082
1081
1079
1080
1083
1083
1085
1083
1079
1080
1082
1083
1081
1079
1074
1073
1069
1065
1061
1059
1055
1049
1044
1042
1042
1045
1043
1040
1039
1036
1034
1028
1024
1024
1025
1028
1028
1027
1026
1022
1017
1016
1018
1016
1016
1011
1013
1013
1011
1015
1016
1018
1018
1024
1029
1026
1025
1022
1021
1025
1029
1029
1029
1026
1027
1029
1032
1036
1033
1026
1025
1027
1028
1027
1023
1020
1024
1026
1021
1023
1020
1021
1018
1021
1023
1026
1022
1022
1022
1025
1030
1031
1030
1029
1030
1034
1035
1037
1035
1036
1036
1041
1035
1037
1036
1036
1035
1038
1038
1038
1036
1034
1031
1031
1030
1027
1023
1020
1024
1026
1026
1027
1024
1023
1022
1021
1018
1009
1007
1006
1008
1008
1008
1006
1004
1003
1004
1007
1009
1012
1012
1013
1012
1011
1011
1007
1003
1002
997
992
989
990
998
1012
1036
1070
1111
1157
1207
1253
1277
1269
1228
1164
1081
988
917
893
900
912
921
940
960
976
988
992
988
989
996
998
1002
1000
999
999
1001
1001
1004
1004
1002
1000
1000
1001
1000
1000
1000
1001
1002
1005
1007
1008
1005
1007
1008
1012
1013
1012
1012
1010
1011
1018
1023
1027
1028
1026
1026
1031
1035
1036
1038
1037
1039
1046
1050
1050
1049
1049
1050
1055
1058
1056
1054
1055
1061
1065
1067
1061
1055
1053
1055
1059
1058
1056
1052
1052
1049
1047
1051
1047
1042
1036
1034
1034
1031
1027
1019
1016
1013
1014
1013
1015
1010
1007
1003
1001
1002
1000
998
998
994
1000
1001
999
997
993
993
995
998
997
996
992
989
992
998
998
999
997
999
1001
1003
1004
1000
999
1000
1002
1006
1003
1004
1001
1003
1004
1006
1006
1003
1001
999
1003
1007
1003
1001
997
999
1000
1001
997
995
993
997
997
998
999
1004
1005
1008
1011
1012
1011
1009
1004
1004
1005
1010
1012
1011
1008
1002
1007
1012
1012
1006
1001
998
997
999
998
996
994
994
993
995
994
990
989
989
988
988
981
974
970
974
977
982
981
979
977
976
979
983
982
983
978
979
985
985
982
973
966
965
963
967
979
1001
1033
1078
1129
1186
1238
1272
1268
1218
1140
1039
926
849
835
864
900
930
950
954
958
961
967
973
970
964
964
967
970
973
971
970
969
971
973
976
974
974
970
974
973
976
977
975
975
974
975
978
986
985
984
986
984
991
997
998
998
1001
1007
1012
1015
1012
1011
1013
1016
1023
1021
1020
1019
1021
1025
1029
1026
1025
1023
1022
1028
1029
1025
1021
1017
1018
1017
1016
1012
1005
1002
1000
999
999
994
986
980
978
978
977
975
970
967
964
967
967
963
959
957
959
961
960
958
958
956
955
958
961
959
956
953
955
959
958
954
950
948
952
955
953
948
950
948
951
953
956
954
950
951
951
952
953
953
950
947
951
955
957
957
954
955
954
955
953
954
952
951
946
950
954
954
952
949
950
949
955
957
959
959
959
961
963
967
964
963
962
965
962
961
957
956
957
954
958
958
956
952
949
951
951
951
949
948
946
950
950
951
947
942
940
941
939
937
931
927
927
929
932
930
928
925
925
929
930
927
924
923
923
925
928
928
924
924
922
917
913
915
919
934
958
995
1038
1088
1141
1190
1223
1230
1192
1116
1024
929
839
801
803
826
847
871
886
903
911
913
916
916
915
920
924
924
921
919
918
920
923
922
920
920
918
922
922
924
925
924
923
922
928
929
928
924
926
928
935
934
935
931
932
938
941
944
943
946
947
