952
947
947
949
952
956
956
955
954
958
960
962
962
962
963
964
967
969
970
969
968
970
970
971
971
970
971
974
976
975
974
973
973
975
980
980
979
980
979
979
981
983
982
981
980
980
981
981
980
982
983
986
984
984
981
983
981
984
987
987
983
982
983
985
986
988
989
987
987
988
988
988
990
988
984
986
985
986
985
983
982
979
982
983
983
982
982
980
984
985
985
981
982
981
986
987
985
987
983
985
989
989
989
986
986
988
991
991
989
987
986
990
987
990
988
989
987
990
992
995
994
991
989
991
994
994
994
991
989
990
994
996
992
988
988
986
984
987
984
986
981
988
988
988
986
985
985
987
995
1011
1037
1065
1097
1129
1167
1201
1226
1232
1219
1194
1158
1106
1046
1010
998
993
985
985
982
981
977
976
976
976
973
971
968
966
969
967
963
958
955
958
954
953
955
953
953
954
955
955
954
949
947
949
950
952
951
949
949
953
956
957
957
957
954
955
958
960
962
960
957
959
963
966
965
963
963
966
968
969
973
972
971
974
977
977
978
978
976
981
982
983
985
985
983
984
988
991
990
991
988
994
995
996
995
990
990
989
992
994
993
988
990
993
996
998
998
997
994
997
999
999
1000
999
995
998
1002
1002
1001
997
998
1001
1004
1006
1005
1003
1001
1005
1005
1005
1004
1001
997
998
1000
1000
1000
996
994
997
997
998
1000
998
997
998
999
999
1001
997
997
999
999
1000
997
997
994
999
1002
1004
1005
1003
1002
1003
1002
1004
1002
1002
1002
1000
1003
1004
1005
1002
999
1002
1003
1007
1006
1004
1004
1003
1006
1008
1008
1005
1005
1003
1005
1007
1002
1002
1001
1001
999
1000
997
995
992
995
995
995
994
991
991
994
997
999
997
996
994
992
992
1002
1011
1024
1044
1072
1096
1117
1138
1159
1186
1212
1234
1248
1254
1246
1232
1213
1191
1160
1113
1068
1035
1021
1018
1011
998
989
989
987
988
985
980
978
976
977
979
977
975
970
967
966
966
967
962
962
956
956
957
957
959
956
954
956
957
957
955
952
950
950
952
952
952
951
953
954
960
961
959
957
957
961
960
962
961
957
959
963
967
968
967
967
968
967
970
968
971
972
971
971
974
974
978
971
973
973
977
977
979
980
983
984
988
987
987
985
987
987
992
993
990
988
988
989
990
990
990
990
990
991
994
997
999
1000
999
1000
1002
1004
1002
998
999
1001
1003
1006
1004
1004
1004
1008
1011
1010
1006
1005
1005
1007
1008
1007
1006
1001
998
1000
1001
1004
1000
999
999
998
1001
1002
1001
999
998
995
997
995
995
993
993
993
992
995
995
994
994
996
998
998
995
996
996
995
995
995
992
989
990
992
997
1000
1003
1002
1000
1004
1006
1007
1006
1004
1003
1003
1003
1006
1003
999
996
998
999
1001
1001
996
997
999
1000
1000
999
995
997
998
997
997
997
996
996
996
998
999
995
998
1007
1024
1047
1067
1086
1102
1121
1140
1166
1193
1216
1231
1237
1237
1226
1210
1189
1152
1104
1061
1030
1017
1008
993
981
974
975
978
974
974
972
970
969
971
972
969
968
968
970
968
965
963
962
963
962
965
964
960
960
958
960
960
958
957
955
953
954
953
954
953
952
956
956
958
958
957
954
955
959
960
957
956
955
956
958
961
961
960
960
963
962
962
965
963
961
963
965
964
964
961
959
957
961
962
961
961
961
964
969
972
971
975
975
975
982
984
986
986
985
987
991
991
990
989
987
988
990
992
990
988
992
995
996
998
998
994
993
995
995
996
994
990
991
995
997
997
997
998
998
997
999
1000
998
996
993
996
997
996
993
988
987
985
986
989
990
988
986
987
991
994
991
993
991
989
990
992
992
990
989
988
991
996
995
993
994
994
995
997
996
996
995
996
997
995
996
994
993
995
1001
1001
1001
999
995
999
1002
1003
1001
997
995
994
995
994
991
990
988
988
991
990
988
985
986
990
988
991
992
991
990
992
993
991
988
988
989
991
993
995
995
993
993
990
995
996
997
993
991
992
995
995
995
993
989
991
994
998
995
995
998
998
1000
1001
1002
997
996
999
1000
1000
999
997
996
993
987
988
986
988
993
1007
1029
1049
1072
1090
1102
1128
1155
1180
1197
1213
1220
1221
1216
1200
1185
1163
1129
1090
1053
1031
1017
1006
994
982
980
978
976
974
969
972
972
970
966
966
967
968
968
971
969
967
965
965
964
965
963
958
958
956
956
955
955
951
949
947
947
947
947
945
945
946
948
949
944
946
947
947
949
949
950
948
945
948
949
950
951
951
949
952
954
956
956
955
955
958
963
963
959
957
957
962
963
967
967
967
966
968
970
974
973
976
977
979
982
983
984
980
980
979
981
982
980
978
976
979
983
985
985
982
980
981
978
982
983
980
980
980
982
983
983
980
978
981
982
981
978
980
980
980
983
987
985
984
981
984
985
984
988
987
987
986
991
993
994
992
991
991
993
991
992
990
990
992
992
993
990
989
987
987
990
990
988
986
985
988
989
989
988
985
983
984
985
983
983
981
979
979
980
979
982
979
980
979
982
982
980
982
981
980
985
985
985
980
983
984
987
990
988
989
990
990
990
992
992
987
984
984
987
990
989
988
987
986
988
989
990
985
984
983
982
984
985
982
979
980
979
981
981
981
979
981
983
984
983
981
980
982
984
984
983
981
982
992
1010
1036
1060
1081
1102
1129
1158
1188
1208
1221
1222
1214
1206
1187
1159
1116
1063
1024
1004
998
989
976
966
965
964
966
962
957
955
955
956
956
954
950
947
946
948
950
947
946
941
942
943
944
944
943
942
940
943
944
944
939
941
943
943
943
941
940
941
942
946
948
947
947
947
949
952
952
951
947
945
946
946
950
947
946
944
943
947
948
947
947
947
945
948
950
951
951
949
951
955
955
957
954
957
957
962
965
966
964
966
968
971
973
975
972
974
974
977
979
978
975
976
978
980
981
978
980
981
983
985
986
982
979
977
977
980
981
982
980
978
976
977
977
979
976
974
974
976
977
978
974
971
973
975
980
978
974
971
969
972
975
974
971
970
970
973
976
977
975
970
975
976
980
979
977
976
978
980
981
981
974
976
976
979
980
981
976
977
975
979
981
980
979
974
977
978
981
980
978
974
974
975
975
976
975
975
973
975
975
975
973
971
968
972
974
970
968
967
966
969
974
974
973
969
969
971
973
972
968
973
973
976
980
978
976
974
974
975
975
976
973
974
975
977
980
978
978
974
977
978
977
977
973
972
971
977
978
977
974
972
968
977
988
1007
1027
1051
1075
1100
1122
1151
1175
1196
1209
1212
1208
1194
1173
1141
1103
1057
1019
999
988
980
967
963
959
958
953
952
951
950
955
952
948
946
947
947
948
948
947
942
941
940
942
940
938
935
933
935
937
934
934
931
930
932
933
934
932
930
929
930
932
930
927
926
924
927
933
930
931
931
929
931
937
938
937
936
934
940
941
939
941
938
941
943
948
948
946
947
949
949
955
953
951
951
954
956
960
959
956
957
957
962
966
967
967
966
968
969
971
971
968
967
969
971
974
973
969
968
969
971
971
970
968
966
967
971
972
973
972
968
970
971
975
974
973
970
973
971
976
977
975
973
975
979
981
981
978
976
978
980
982
981
979
976
974
974
977
976
972
968
969
970
974
973
973
970
970
971
972
973
969
967
967
969
970
969
968
967
967
970
972
972
969
970
971
971
977
978
973
974
975
978
981
979
982
983
985
985
991
989
989
987
987
989
988
989
986
986
985
986
987
983
979
978
984
1001
1019
1044
1062
1083
1106
1133
1159
1185
1205
1216
1223
1222
1208
1188
1161
1129
1084
1036
1006
989
981
973
962
959
957
958
957
954
953
951
952
951
949
947
949
953
955
955
951
951
950
952
954
953
950
949
947
949
948
947
944
942
940
940
942
938
935
934
932
933
935
932
930
929
928
932
932
932
929
924
926
929
932
932
931
931
931
934
937
936
937
939
941
942
945
945
948
950
952
957
961
964
965
967
968
974
973
977
973
975
973
973
975
977
973
968
967
972
974
974
970
966
968
970
974
975
973
965
963
966
969
966
966
962
961
966
968
967
967
964
967
970
972
972
972
972
975
976
980
982
980
980
978
984
987
985
984
981
981
982
986
982
979
979
981
981
983
983
981
978
978
978
978
979
973
971
969
970
973
969
968
963
966
968
972
971
971
970
969
970
971
974
972
971
974
974
978
977
973
975
977
981
982
980
980
979
979
982
983
981
977
976
976
979
981
980
973
972
972
975
978
978
975
971
969
973
973
973
971
970
966
972
972
974
968
966
966
969
975
976
977
973
974
978
979
981
978
975
976
978
980
980
985
998
1020
1044
1071
1091
1109
1127
1153
1178
1197
1204
1201
1191
1179
1160
1131
1085
1037
1002
985
981
974
964
956
954
956
956
955
950
947
946
944
946
946
943
940
940
937
943
946
948
944
942
943
942
947
947
945
943
942
945
944
946
941
941
945
945
945
947
944
943
944
944
945
945
941
940
940
942
942
944
942
942
941
944
949
948
945
945
946
948
950
952
950
948
945
949
952
953
952
949
951
954
958
960
960
963
966
966
972
970
971
973
974
980
983
980
980
980
979
982
987
985
984
982
980
983
986
984
981
975
976
978
979
981
981
978
977
977
980
983
981
978
977
979
980
979
978
976
974
979
982
979
979
980
981
982
984
984
985
984
984
986
989
989
987
986
987
992
993
992
989
988
990
995
997
994
992
989
988
989
992
989
987
984
986
987
989
988
985
984
984
984
986
987
984
978
977
982
982
987
984
985
984
985
987
990
989
991
990
989
992
990
990
995
1014
1039
1068
1093
1115
1142
1175
1203
1229
1238
1237
1220
1198
1174
1136
1084
1035
1007
999
994
987
978
974
971
969
967
968
965
963
958
957
956
956
957
952
948
946
951
953
950
948
948
948
949
951
949
948
948
949
952
951
951
954
955
957
957
960
960
958
956
958
962
962
963
961
957
956
956
958
962
958
958
958
960
962
962
961
962
960
964
966
966
963
962
963
966
973
973
976
975
974
979
984
984
984
985
986
985
989
992
991
991
992
995
997
998
996
996
998
998
1001
999
995
997
993
995
995
994
991
990
988
993
997
997
991
989
990
995
997
995
993
993
991
993
996
997
994
995
997
999
1002
1001
996
997
997
999
999
1001
1001
999
1000
1002
1002
1002
1000
1002
1003
1004
1006
1006
1003
1004
1005
1008
1007
1008
1001
1003
1000
1002
1004
1003
1000
999
999
998
1003
1002
999
996
999
999
997
994
996
994
994
997
997
1000
1001
1002
1003
1002
1003
1003
1003
1003
998
1000
1002
1002
1001
997
998
1002
1005
1005
1002
1000
1002
1006
1007
1006
1004
999
998
1002
1003
1003
1000
1002
1000
999
1000
1003
1002
1000
1001
1002
1003
1002
1001
996
993
993
1000
1008
1029
1051
1075
1105
1130
1151
1181
1207
1230
1244
1247
1234
1214
1186
1142
1093
1053
1026
1015
1008
997
996
996
992
988
987
980
981
981
984
979
974
972
968
972
969
968
965
964
966
965
963
962
958
957
957
959
959
957
954
954
957
959
962
963
960
958
961
964
968
967
964
966
963
970
973
973
972
972
973
976
979
978
976
976
980
981
983
983
977
979
982
984
984
982
983
983
987
991
991
994
992
992
995
999
996
998
994
994
995
999
1001
999
995
997
999
1003
1003
1002
998
999
1000
1002
1003
1000
1001
999
1003
1006
1007
1003
1002
1001
1005
1008
1009
1007
1006
1004
1007
1007
1009
1007
1005
1003
1003
1005
1003
1002
1000
999
1004
1005
1002
1001
1001
1000
1001
1002
1003
996
994
993
998
1002
1000
1001
1000
998
1002
1006
1006
1007
1003
1003
1006
1009
1009
1007
1005
1002
1009
1008
1008
1009
1007
1005
1010
1012
1014
1012
1011
1008
1010
1014
1014
1010
1011
1008
1010
1008
1011
1008
1005
1004
1005
1006
1003
998
997
997
998
1002
1003
1001
996
996
995
999
1000
998
994
993
995
998
996
996
994
996
999
1002
1001
999
997
999
1003
1002
1007
1005
1003
1003
1005
1007
1007
1008
1008
1007
1010
1012
1013
1013
1012
1010
1013
1016
1016
1014
1010
1008
1011
1011
1013
1012
1010
1007
1007
1009
1005
1004
1001
1000
999
1001
999
995
994
993
996
1000
999
998
995
995
995
998
996
994
994
993
994
997
997
998
999
997
998
1003
1001
1001
1000
999
1004
1003
1004
1006
1004
1003
1006
1009
1011
1010
1006
1008
1010
1013
1014
1014
1014
1012
1010
1010
1007
1007
1008
1011
1027
1050
1071
1094
1111
1131
1159
1186
1208
1220
1225
1219
1210
1197
1178
1142
1097
1051
1023
1012
1011
1001
991
985
984
986
984
982
977
974
974
975
977
971
968
969
971
976
973
972
971
971
972
972
974
972
969
968
967
969
970
967
966
961
960
961
958
958
957
959
960
960
959
958
959
960
959
963
961
958
958
957
960
963
962
959
957
958
964
967
967
966
964
965
967
969
967
969
969
969
970
972
978
976
977
980
983
987
989
989
988
988
993
995
994
996
993
988
990
994
994
993
992
993
996
997
999
996
994
993
994
996
994
994
993
991
993
993
991
990
984
989
991
994
993
991
990
989
991
997
997
996
993
993
993
995
998
997
993
993
995
999
999
997
999
998
999
1002
1003
1001
999
999
1001
1000
1002
999
997
995
995
996
999
995
995
994
995
997
997
994
994
994
992
995
995
990
990
989
991
993
994
992
991
990
992
995
995
995
994
993
994
997
997
995
994
994
999
999
999
997
999
998
1000
1003
1004
1003
999
999
1001
1001
1005
1002
1002
1000
1001
1001
1000
997
996
994
996
999
997
993
994
991
993
998
995
992
991
987
991
992
991
989
987
986
986
985
989
988
987
986
987
987
986
986
984
985
990
990
988
989
989
990
993
996
997
996
992
992
994
997
1007
1022
1042
1063
1088
1114
1135
1159
1182
1206
1224
1237
1235
1222
1205
1187
1163
1131
1088
1046
1021
1007
1001
995
985
980
977
974
970
970
969
966
961
961
961
961
963
959
957
957
960
958
958
959
956
955
954
957
957
954
954
950
952
959
959
958
953
955
956
957
958
955
950
949
951
952
950
947
947
948
951
953
955
954
954
952
954
959
959
959
957
957
959
958
959
957
956
955
956
959
960
960
960
961
964
966
966
968
969
971
973
977
977
978
981
980
986
989
990
990
986
986
990
991
990
987
981
980
984
986
984
981
977
977
980
980
983
982
981
980
981
985
985
985
984
980
982
982
982
980
978
976
979
983
979
981
981
980
982
986
986
988
983
983
987
989
988
992
989
988
990
996
995
994
992
988
989
991
990
988
983
983
979
984
981
982
980
978
979
981
981
982
980
981
985
987
987
982
979
978
981
985
984
980
979
979
982
984
982
982
982
979
981
984
983
981
981
979
980
986
985
983
984
985
988
988
987
987
986
987
986
987
986
982
976
980
978
981
978
976
974
970
977
980
983
983
981
979
981
984
984
983
981
982
982
980
981
980
979
977
979
984
983
983
980
979
983
987
987
986
984
981
984
988
997
1014
1034
1056
1080
1103
1124
1149
1172
1198
1219
1229
1226
1217
1203
1186
1161
1127
1084
1041
1013
1000
994
989
979
970
970
965
970
968
965
963
960
957
959
959
960
956
953
953
953
956
953
952
947
945
944
948
947
949
949
950
948
949
949
946
944
945
947
948
950
948
946
947
950
955
953
955
954
953
955
957
958
954
952
950
949
953
954
953
949
948
952
955
956
957
954
953
954
958
959
959
958
956
958
961
961
960
962
962
967
971
974
972
972
973
976
979
982
981
980
981
983
986
988
985
987
985
987
992
993
993
994
992
994
995
995
994
989
989
993
995
989
988
986
987
991
992
991
989
985
986
989
992
990
988
985
983
985
987
986
984
983
982
985
986
986
987
985
983
984
986
986
986
983
987
988
990
992
988
986
986
992
993
996
993
992
991
995
997
997
999
994
992
993
993
992
990
985
987
985
989
987
987
987
984
986
988
989
985
982
982
984
987
984
982
979
977
978
982
983
982
982
980
983
985
986
983
985
983
984
987
988
985
985
985
987
992
993
992
989
988
994
996
1000
996
994
993
996
997
995
996
992
989
991
991
991
987
986
985
988
990
987
985
984
985
986
986
988
987
982
982
983
984
986
985
982
984
987
989
991
989
983
991
1005
1028
1053
1076
1098
1120
1147
1178
1204
1219
1224
1218
1212
1205
1184
1154
1109
1063
1030
1017
1010
998
983
975
972
972
972
971
964
962
963
964
961
959
957
956
959
959
959
956
954
952
954
956
954
952
949
949
953
955
957
953
953
949
950
952
952
952
951
950
950
956
956
956
955
955
958
960
962
962
961
962
961
962
960
958
954
956
956
957
957
958
955
955
957
959
960
961
960
960
965
966
970
968
965
964
969
972
971
974
973
974
979
982
986
981
983
983
985
990
989
990
989
989
989
993
992
996
995
996
996
997
994
994
990
990
991
993
991
988
987
986
988
993
991
988
987
988
988
991
991
989
986
984
985
986
988
987
983
983
986
989
992
990
988
987
986
989
989
993
986
986
989
993
992
993
990
993
993
996
996
995
993
992
994
993
993
994
991
990
990
990
992
989
987
988
990
992
992
990
989
986
988
991
991
990
985
984
982
985
987
988
986
984
986
986
989
987
986
985
985
988
