956
952
949
950
951
953
951
947
946
946
947
947
947
944
942
943
945
945
944
945
942
943
941
944
944
944
943
944
945
951
947
945
944
950
951
955
952
953
954
957
960
963
960
959
961
963
967
970
972
970
968
970
974
976
975
973
971
974
978
979
975
974
973
973
975
978
973
973
972
970
973
975
975
974
973
973
978
983
980
978
975
979
980
981
983
982
981
979
980
982
980
980
982
984
985
985
983
982
982
982
984
983
979
979
977
976
977
982
978
977
974
974
978
979
977
976
975
975
975
977
977
974
973
971
973
977
977
972
974
976
978
979
981
978
980
977
980
981
979
982
978
982
983
986
984
984
983
983
985
986
985
985
984
983
983
984
981
978
976
974
975
974
973
975
974
974
976
977
976
975
976
973
973
976
977
975
973
975
977
977
976
971
973
988
1011
1035
1059
1080
1103
1127
1154
1181
1195
1204
1198
1191
1179
1160
1137
1094
1050
1016
1001
994
985
972
967
964
965
966
961
958
952
952
952
953
952
951
947
949
948
949
949
944
944
943
942
943
941
939
938
936
939
939
939
936
935
933
937
938
937
933
933
934
936
938
937
939
935
939
941
945
946
944
942
942
946
949
949
950
946
948
950
953
951
951
949
949
952
955
957
957
956
958
961
963
964
965
962
964
968
969
970
970
969
971
975
976
978
976
975
974
979
980
978
977
975
977
978
982
980
980
979
982
984
986
984
980
979
980
983
987
984
982
979
976
978
979
978
978
978
977
980
979
982
979
979
978
978
980
979
978
977
976
978
980
978
977
976
977
980
982
981
982
979
981
984
986
987
986
986
986
988
990
991
989
984
988
989
988
988
988
983
983
983
987
984
983
980
980
983
985
983
979
978
978
979
979
978
976
973
976
979
979
979
977
979
978
981
983
983
979
979
983
984
987
987
988
987
987
990
992
991
988
986
986
987
990
992
990
987
986
987
989
987
984
983
978
986
989
986
986
983
979
983
990
999
1014
1036
1057
1084
1103
1128
1154
1178
1195
1207
1207
1198
1184
1167
1138
1099
1054
1020
1002
996
989
981
976
972
972
970
968
969
969
964
963
962
961
962
961
959
957
954
954
953
955
951
949
950
950
950
952
952
948
946
944
947
946
945
943
941
940
946
945
945
944
942
944
946
949
949
949
948
946
948
952
950
952
950
951
954
959
959
958
959
960
961
965
965
960
960
963
965
967
965
963
960
963
966
971
971
969
971
971
976
979
979
978
978
978
980
982
980
978
972
976
981
983
983
981
981
979
981
982
981
980
979
978
982
986
986
983
982
985
987
988
987
986
985
985
987
989
987
985
981
981
982
984
986
985
983
982
984
986
986
984
980
977
979
980
982
981
971
974
978
980
981
977
975
976
978
977
976
973
970
970
975
975
976
972
972
974
975
978
979
979
975
976
977
979
980
977
975
975
975
976
973
970
966
970
975
979
971
974
972
973
974
978
975
972
969
973
974
977
976
975
971
976
978
981
981
978
975
975
977
977
982
976
977
977
978
983
984
982
978
976
980
991
1006
1024
1048
1071
1095
1121
1148
1172
1191
1201
1204
1197
1179
1161
1141
1104
1062
1023
1000
987
977
970
963
964
963
958
951
951
951
949
950
949
946
946
948
949
949
947
946
945
943
947
946
942
940
941
943
948
946
945
946
946
948
950
949
947
946
946
948
951
951
948
945
943
947
949
948
947
947
947
948
950
949
948
947
947
945
946
947
947
942
944
944
946
946
945
944
945
945
951
948
948
951
952
956
960
960
960
962
964
966
970
973
974
972
975
976
980
980
977
975
976
977
977
978
976
973
974
974
977
975
974
973
971
972
977
978
974
972
971
971
971
973
973
970
971
974
979
978
977
974
975
977
980
984
979
978
980
983
984
984
982
980
980
982
985
985
980
977
974
980
982
979
976
974
973
976
978
978
976
973
974
974
977
976
973
972
971
974
975
975
974
973
973
976
979
979
976
976
976
980
982
982
982
978
981
982
987
982
983
982
982
984
988
987
986
982
980
982
982
983
979
979
979
983
985
984
981
979
983
993
1010
1033
1056
1080
1103
1130
1159
1186
1202
1206
1200
1189
1181
1158
1120
1068
1024
1002
992
984
974
965
965
966
968
966
961
959
955
959
962
960
956
955
954
956
958
955
952
948
948
949
952
950
949
946
947
948
947
949
948
947
946
946
947
947
941
941
940
942
943
944
942
941
942
944
946
943
945
943
940
945
948
945
948
946
948
950
952
955
955
953
954
957
959
960
958
955
958
961
963
965
961
961
962
966
968
972
972
973
974
977
982
982
980
981
981
983
986
984
981
977
981
978
979
983
981
978
979
981
984
983
983
980
979
981
984
986
984
982
981
985
987
986
988
985
985
988
992
992
990
989
989
989
993
993
991
988
987
989
991
989
988
981
980
981
983
984
981
982
982
985
985
987
982
984
983
984
984
982
979
977
975
977
980
980
977
978
977
978
982
980
982
979
978
981
984
982
981
979
980
983
987
985
984
983
983
984
985
987
983
982
985
986
988
988
983
984
981
983
984
984
983
982
981
984
985
985
984
984
997
1014
1039
1062
1083
1104
1129
1158
1183
1203
1215
1216
1207
1190
1179
1154
1107
1057
1016
995
990
982
975
967
965
966
966
968
965
963
960
961
962
961
957
955
955
954
956
953
951
946
948
949
950
948
945
942
942
944
946
946
943
941
942
941
941
941
940
937
934
936
935
936
938
935
935
939
940
939
938
934
936
939
938
938
937
938
938
941
945
947
945
944
946
950
951
952
951
951
950
953
956
958
955
956
957
961
964
967
965
966
968
973
975
974
975
976
977
978
980
982
980
977
978
979
980
979
977
973
973
973
973
974
969
973
973
971
973
973
973
972
971
974
978
976
974
972
973
975
978
978
975
977
979
981
983
983
982
982
983
982
987
985
982
980
980
979
983
979
979
979
979
981
984
985
980
981
982
982
984
983
982
979
975
979
980
981
976
975
974
974
977
979
977
977
977
976
978
979
977
976
976
976
980
980
978
975
973
977
979
981
979
979
976
979
981
980
979
977
977
979
981
982
978
976
975
978
980
981
977
975
974
975
976
976
972
971
973
973
978
978
977
978
977
980
980
979
978
975
972
975
978
978
976
978
979
979
982
981
980
979
980
981
982
981
979
980
977
981
984
985
982
981
982
983
987
986
983
983
981
984
986
987
985
985
983
985
986
985
981
979
979
980
982
983
980
980
976
977
980
981
979
978
977
979
982
981
980
980
981
982
983
980
976
978
988
1001
1021
1043
1060
1079
1099
1121
1149
1172
1190
1202
1203
1197
1191
1180
1162
1128
1087
1042
1013
1002
994
985
977
971
972
969
966
961
955
957
957
955
953
950
949
951
953
951
948
947
944
946
946
946
948
946
944
947
947
945
941
937
937
936
939
940
940
940
937
941
942
943
943
940
939
941
944
946
946
946
948
948
953
955
954
952
954
956
957
957
954
955
956
954
957
958
957
953
952
955
961
958
957
956
956
957
961
962
960
960
958
959
965
964
964
964
960
963
970
970
972
969
970
975
978
978
978
975
973
979
981
981
980
978
976
979
984
985
984
981
983
984
984
984
981
982
980
981
982
981
978
979
977
979
980
980
977
976
973
975
981
981
979
975
974
977
979
979
974
973
968
970
975
976
974
974
974
973
976
976
975
974
975
977
980
981
981
981
978
980
982
985
984
983
985
987
989
988
986
986
984
986
985
986
984
981
978
981
981
981
980
976
975
977
978
978
975
972
971
976
977
975
974
973
971
975
975
973
975
974
970
977
976
975
974
972
972
974
975
974
975
980
991
1016
1039
1065
1086
1107
1132
1162
1186
1207
1216
1214
1210
1199
1186
1160
1124
1079
1037
1011
1000
994
981
971
964
962
964
962
958
954
951
949
954
952
949
947
945
945
948
946
942
939
935
936
937
935
935
935
937
937
937
938
936
934
933
934
938
936
935
936
932
936
937
938
938
936
935
936
938
939
938
937
937
940
942
943
944
941
943
945
947
946
945
946
946
948
949
950
947
945
945
948
953
953
951
951
952
955
959
958
958
959
960
964
968
969
965
965
968
970
975
974
973
970
970
972
976
977
976
975
975
979
982
980
979
979
979
978
979
973
971
970
968
969
971
971
970
972
975
977
978
977
977
976
976
977
978
976
976
975
974
975
978
979
977
979
977
980
981
980
980
979
980
978
981
979
977
977
978
978
982
983
980
979
979
980
986
983
982
981
979
981
981
981
976
973
970
969
971
969
968
969
970
969
974
971
973
971
973
974
978
974
972
972
972
973
976
975
976
974
975
977
977
979
977
976
976
978
981
980
979
979
979
981
986
986
987
984
983
984
987
985
986
984
983
986
988
986
982
978
973
976
986
1001
1024
1049
1075
1101
1127
1153
1176
1195
1204
1202
1191
1176
1155
1124
1078
1034
1007
996
987
980
968
967
967
967
963
960
955
956
958
957
954
951
952
952
955
955
951
951
948
951
952
953
952
949
947
946
945
947
939
937
934
936
938
940
939
938
938
938
941
942
942
943
942
944
946
945
942
939
939
942
947
945
945
947
941
946
950
949
949
949
948
948
949
951
953
950
954
955
961
963
963
962
960
966
972
972
971
969
968
971
972
972
969
969
969
974
977
977
974
975
977
979
982
980
981
977
976
977
981
980
975
974
972
977
981
981
980
980
978
980
982
980
980
979
980
982
985
980
984
981
980
984
988
986
982
980
980
984
985
984
982
978
977
979
981
982
976
979
978
982
984
980
980
978
979
981
981
981
978
977
975
977
981
978
977
974
973
976
980
978
974
973
974
975
979
981
979
976
975
980
982
982
979
978
977
981
985
986
984
984
982
984
985
985
982
980
978
981
983
981
979
977
976
979
982
981
980
978
981
982
985
984
983
982
982
987
988
984
979
980
984
998
1018
1037
1060
1080
1098
1123
1153
1177
1194
1205
1207
1203
1195
1178
1155
1124
1082
1042
1015
998
993
984
975
971
972
970
966
962
960
959
961
956
955
947
948
951
951
949
948
946
942
947
950
948
948
946
946
947
947
946
946
942
940
942
941
942
941
936
937
938
942
941
942
939
939
940
943
944
942
939
941
944
946
948
945
948
946
950
953
955
954
950
949
951
952
952
951
950
950
950
954
952
952
951
954
958
964
961
964
965
966
971
973
976
975
975
975
976
979
979
976
977
976
977
979
976
975
973
974
977
980
981
979
974
975
977
977
982
980
978
979
978
981
982
983
981
982
984
985
986
984
981
979
983
985
986
982
980
977
979
983
978
980
980
982
982
984
984
983
983
977
979
983
982
979
978
975
978
981
979
978
979
977
979
979
981
979
978
977
979
983
984
979
977
977
980
982
981
982
982
980
982
986
983
980
981
980
981
983
983
976
979
977
977
978
980
975
974
973
977
981
982
980
978
976
979
980
981
980
976
974
976
979
979
977
975
972
978
980
980
977
978
976
979
980
982
980
976
976
978
984
982
982
983
977
985
987
988
987
986
983
985
986
987
984
982
981
981
982
982
979
976
977
977
980
982
979
977
979
981
983
984
980
977
976
977
981
981
978
976
975
977
981
983
980
980
979
982
984
986
984
984
981
985
986
987
990
997
1017
1045
1070
1094
1113
1138
1165
1193
1212
1210
1197
1184
1168
1142
1106
1057
1017
993
987
982
973
971
967
966
961
963
962
959
955
952
950
952
954
955
952
950
949
950
953
954
950
950
947
948
951
948
948
947
946
947
952
952
953
949
948
952
954
952
951
951
951
950
951
951
946
944
943
940
949
948
947
947
947
950
956
955
955
954
954
955
957
955
956
954
953
956
961
964
964
965
963
965
969
971
969
972
969
974
979
981
978
978
979
984
988
989
986
987
986
988
990
988
986
981
979
980
982
977
974
974
973
974
982
983
980
976
975
981
981
981
978
978
977
979
982
980
977
975
975
980
984
984
982
981
978
982
985
985
982
981
982
986
986
984
985
984
985
988
989
991
988
987
988
987
988
989
987
979
976
977
977
978
979
979
979
980
982
983
980
978
975
979
982
981
978
976
973
975
977
977
975
974
973
975
978
978
977
975
976
975
976
976
979
978
976
981
983
984
982
982
978
982
985
986
985
983
982
984
986
985
981
979
975
973
974
975
972
973
973
975
979
979
979
980
979
980
982
981
978
975
975
978
979
981
980
979
978
979
980
980
981
980
978
979
985
982
982
982
981
984
989
990
989
988
988
988
991
989
986
987
997
1018
1045
1071
1092
1114
1136
1167
1194
1209
1207
1192
1180
1164
1141
1098
1045
1010
990
985
980
974
966
964
961
965
963
962
960
959
956
958
961
959
957
953
953
955
956
952
949
951
948
953
955
956
954
950
952
951
952
953
949
945
945
944
949
951
947
946
944
949
952
949
948
949
946
946
949
950
950
948
948
950
954
956
955
952
951
954
957
957
954
954
955
959
963
963
967
968
968
975
979
976
978
977
978
982
981
983
981
979
980
980
981
982
980
979
978
981
983
984
983
980
976
979
983
982
980
977
974
977
981
980
980
978
979
979
983
985
983
979
980
985
987
988
987
987
985
987
992
994
991
983
989
988
990
989
985
982
981
981
982
980
979
976
978
978
979
980
977
975
976
977
981
980
978
978
975
978
978
980
978
976
977
979
984
983
982
980
980
983
985
983
983
985
982
986
986
987
988
988
989
990
992
993
990
988
988
990
993
991
990
988
986
987
987
989
985
986
984
983
987
991
1004
1022
1048
1074
1102
1125
1150
1173
1196
1212
1216
1206
1191
1169
1142
1103
1057
1018
998
991
980
974
972
972
970
967
964
966
966
967
961
957
958
959
958
960
955
952
951
952
953
954
954
946
948
950
954
952
951
949
947
948
950
951
944
945
944
943
945
947
942
941
943
946
947
951
947
943
946
948
951
953
953
951
956
957
962
960
961
959
963
964
967
968
966
966
965
970
973
975
970
973
972
976
978
979
979
980
976
980
981
982
981
979
976
978
983
981
977
977
977
979
978
982
979
979
978
979
983
982
981
980
980
983
990
988
988
986
987
989
989
991
988
987
985
986
988
988
983
983
982
986
985
988
985
983
982
982
983
983
982
980
979
982
987
986
981
980
982
984
985
985
982
980
981
984
984
983
984
980
981
983
984
989
986
984
983
988
990
992
991
988
989
989
991
991
987
984
982
984
984
985
984
982
981
984
985
983
983
982
982
983
984
983
981
979
975
979
983
982
980
978
981
982
985
985
984
982
981
982
983
985
982
983
983
983
986
988
989
988
986
989
994
991
990
989
988
991
992
991
988
982
985
986
989
986
984
981
980
981
983
984
984
983
981
981
988
987
984
981
979
987
999
1016
1038
1057
1079
1101
1126
1152
1175
1192
1206
1211
1208
1197
1187
1166
1140
1105
1063
1028
1010
1000
994
987
980
979
977
974
968
970
971
969
965
960
960
960
961
961
958
956
953
955
953
955
952
949
947
951
952
951
950
948
947
949
948
949
946
947
945
946
948
947
947
945
945
946
948
950
950
949
946
945
948
950
949
948
949
951
954
957
956
956
958
959
961
964
964
964
961
965
964
967
965
960
963
965
969
970
969
967
963
970
973
975
973
973
974
977
978
977
975
974
976
977
980
982
982
979
976
979
982
983
983
981
981
982
985
986
985
979
981
982
984
986
987
986
987
987
987
989
987
985
981
984
984
984
984
981
978
980
979
982
979
979
979
979
983
984
980
979
974
979
980
979
976
973
974
979
980
982
976
977
977
977
981
981
979
976
977
981
983
983
978
979
980
983
984
981
982
981
981
983
985
985
984
981
980
981
983
979
979
976
975
979
981
979
980
976
976
980
981
982
981
978
977
979
979
980
979
976
973
978
979
980
977
979
978
979
980
981
980
978
975
977
978
978
982
981
982
984
986
989
982
987
985
988
989
988
987
987
985
988
996
1006
1020
1040
1059
1081
1101
1122
1143
1167
1186
1200
1211
1206
1194
1182
1166
1148
1122
1085
1047
1018
1005
995
990
981
971
968
964
964
962
959
957
955
953
955
956
952
952
948
950
953
954
953
948
949
950
951
955
956
951
951
952
953
953
956
955
954
951
953
955
956
957
951
952
953
955
955
953
950
950
951
956
956
954
952
951
955
956
956
955
954
954
955
955
953
956
950
953
953
954
956
956
956
956
957
958
960
959
960
960
963
967
965
967
966
970
973
979
979
982
982
984
988
990
991
991
990
988
991
989
993
990
987
986
984
987
988
985
985
984
987
987
989
988
985
986
989
988
989
988
986
984
985
987
986
985
986
988
989
989
992
991
989
988
991
992
995
992
992
989
994
996
997
995
995
995
996
997
996
994
992
992
995
995
992
994
993
988
990
993
991
992
992
990
990
994
