1035
1039
1042
1042
1041
1041
1041
1044
1048
1049
1048
1045
1042
1047
1050
1045
1045
1045
1047
1046
1049
1051
1048
1046
1044
1043
1045
1042
1037
1036
1032
1032
1031
1029
1026
1024
1020
1023
1026
1023
1023
1018
1018
1021
1023
1024
1020
1020
1018
1022
1023
1023
1022
1019
1021
1023
1025
1026
1023
1021
1019
1021
1025
1022
1019
1014
1012
1016
1017
1019
1016
1017
1014
1017
1019
1016
1012
1009
1009
1012
1013
1012
1012
1009
1010
1012
1012
1010
1006
1006
1005
1008
1006
1007
1007
1007
1008
1006
1009
1009
1008
1006
1007
1009
1012
1009
1006
1003
1008
1009
1010
1007
1004
1000
999
1003
1004
1006
1000
996
996
1001
1002
1002
1000
998
997
999
1002
1002
1001
997
995
999
1001
1004
1002
996
997
1001
1001
999
996
995
998
997
1000
1000
998
1002
1002
1005
1005
1006
1000
1001
1002
1006
1008
1008
1005
1003
1001
1006
1012
1025
1043
1060
1084
1108
1133
1154
1178
1199
1210
1211
1205
1193
1176
1155
1118
1071
1037
1018
1011
1005
997
990
988
987
985
983
981
980
982
979
975
973
974
974
975
976
973
973
973
973
975
977
974
971
971
972
973
972
970
967
967
968
966
965
965
963
964
964
965
968
964
965
965
965
966
963
958
956
958
961
962
963
961
962
961
965
968
970
968
967
967
968
971
971
969
969
973
975
977
979
979
978
982
983
982
985
987
986
987
991
995
997
994
993
993
995
996
997
999
997
997
1000
1002
1002
999
1000
997
999
1003
1000
998
994
994
994
999
998
993
995
996
995
996
998
997
996
994
995
996
997
1000
999
1000
1001
1001
1002
997
999
995
999
1001
1000
1000
996
998
1000
1003
998
995
997
997
1000
1003
1000
998
997
997
998
1002
999
995
991
992
994
998
998
994
992
993
996
998
994
994
992
991
990
997
996
992
992
993
995
996
997
993
994
996
995
997
996
994
990
992
992
992
990
984
987
988
987
988
990
990
991
991
994
995
997
995
993
992
994
994
997
995
990
990
994
997
998
995
993
994
996
996
1001
996
996
994
999
1001
1000
999
999
999
1005
1005
1004
1001
1000
1000
1004
1006
1003
1000
998
995
998
998
996
994
990
992
1004
1022
1043
1065
1084
1104
1126
1158
1184
1203
1211
1212
1207
1194
1173
1147
1106
1060
1028
1015
1006
1000
990
980
983
981
981
975
972
973
975
977
975
971
969
970
972
973
972
970
967
967
967
966
967
964
958
955
954
952
952
951
951
951
954
957
956
955
956
954
956
958
957
954
955
955
959
961
956
954
957
959
963
967
966
962
962
962
966
969
971
966
964
968
970
973
974
973
974
974
976
980
980
982
978
982
984
988
987
986
986
987
986
988
985
986
985
987
990
992
991
991
988
990
992
995
993
991
987
982
986
991
990
988
986
990
990
994
994
992
989
994
993
995
996
994
992
995
997
998
999
996
994
995
997
999
999
998
995
995
998
999
994
988
988
986
987
989
989
987
985
984
989
991
994
993
989
985
986
988
987
986
982
983
986
988
991
989
986
986
989
991
990
990
989
991
990
996
995
993
992
993
996
997
997
994
992
997
1000
997
998
993
989
990
989
990
989
990
989
989
991
992
994
990
990
990
991
992
990
989
998
1015
1043
1065
1086
1108
1134
1166
1197
1215
1222
1214
1199
1178
1155
1116
1066
1025
1011
1003
997
989
984
978
977
977
974
974
972
968
965
960
964
962
959
956
953
951
953
951
951
948
946
944
950
953
954
947
945
945
949
950
950
947
945
944
947
952
952
945
947
947
952
953
952
950
949
949
954
952
954
956
955
960
961
964
964
963
960
961
962
965
964
963
961
961
960
966
966
965
965
964
964
971
974
973
972
971
974
979
979
980
978
979
980
982
982
982
979
981
985
988
986
986
985
983
988
990
988
984
984
985
986
992
993
990
989
989
990
994
994
989
989
988
988
990
987
985
984
982
982
980
980
981
981
979
981
984
982
980
976
978
979
981
978
974
972
976
980
984
983
982
981
983
984
988
988
985
983
981
982
983
985
983
981
982
984
987
986
984
982
982
984
984
984
984
981
983
986
984
982
975
972
974
976
977
973
970
970
966
974
978
990
1015
1046
1079
1114
1145
1177
1198
1212
1206
1192
1171
1140
1090
1033
998
989
983
973
963
960
960
961
964
961
954
949
948
949
952
951
947
941
938
939
939
940
936
935
928
930
935
934
932
931
929
930
933
933
928
925
925
929
928
928
926
922
923
928
935
934
933
933
933
936
941
936
932
935
934
938
942
939
939
936
941
945
947
948
944
945
944
948
952
952
954
954
952
954
955
957
955
955
958
961
962
961
961
960
961
964
966
967
965
964
961
967
969
970
969
965
966
970
973
978
975
975
975
977
974
977
976
976
973
973
979
980
978
977
975
982
985
986
981
981
981
982
985
985
982
977
976
977
979
978
976
970
968
972
975
974
973
971
969
971
973
971
967
965
965
968
970
972
970
968
968
970
975
977
974
974
976
977
979
976
977
977
977
978
979
979
978
975
976
979
983
984
980
977
978
981
984
982
982
980
981
979
979
980
978
976
972
975
977
976
972
972
973
977
976
974
972
971
969
971
972
972
969
965
964
966
969
967
967
967
968
972
975
975
975
972
972
979
981
982
979
977
979
981
985
987
984
982
980
984
987
993
997
1012
1032
1053
1076
1093
1109
1131
1154
1180
1195
1201
1200
1194
1183
1169
1152
1124
1082
1039
1009
997
989
981
971
960
958
957
960
955
949
947
946
947
950
949
945
944
943
945
948
948
948
946
943
946
949
947
947
943
943
945
944
945
944
945
944
949
952
951
949
948
949
951
953
954
951
949
949
951
952
953
947
942
945
942
948
948
947
944
945
945
947
948
946
949
947
949
949
949
948
947
948
950
951
953
952
953
954
958
961
964
964
962
962
968
970
974
974
972
973
978
981
984
983
985
984
984
986
985
986
983
982
983
982
979
979
978
976
980
984
982
980
975
976
979
981
980
979
976
976
978
982
981
981
974
977
980
985
986
983
983
982
984
987
990
988
985
985
986
988
989
989
989
989
989
990
989
989
987
986
990
990
990
986
984
983
985
984
984
982
977
977
981
982
982
982
980
980
980
981
982
978
975
974
977
978
980
978
975
977
982
983
984
981
979
980
982
986
985
982
980
979
984
988
989
988
987
987
988
991
990
985
988
987
990
990
990
988
987
985
989
996
1008
1025
1042
1062
1087
1107
1131
1152
1170
1188
1202
1210
1208
1199
1185
1167
1145
1114
1072
1032
1006
993
989
983
975
967
962
961
962
961
961
956
954
953
954
955
955
952
950
948
951
952
953
950
951
949
952
952
951
947
946
944
945
948
949
943
941
940
939
941
941
940
938
937
938
940
941
939
937
940
940
942
942
941
941
938
941
945
942
941
940
937
943
947
945
944
944
943
945
948
948
947
946
948
949
952
951
953
954
953
956
960
961
962
965
966
969
974
971
971
972
972
974
976
976
975
970
969
970
973
975
973
971
972
975
975
978
979
977
978
979
982
979
978
975
974
976
979
979
978
974
976
979
982
979
978
976
976
980
981
984
980
980
979
980
982
981
980
980
980
981
983
984
981
978
978
980
983
982
981
975
976
974
976
974
974
973
972
976
976
974
971
972
969
974
976
977
973
973
971
973
973
973
973
973
974
976
979
979
975
976
974
975
979
980
977
974
974
975
983
980
982
979
979
981
981
982
981
983
980
984
984
984
979
977
978
979
980
978
974
975
977
979
981
979
977
976
975
982
983
980
976
977
986
1003
1029
1055
1079
1103
1127
1158
1184
1204
1210
1206
1189
1175
1163
1135
1088
1034
1002
992
989
979
971
964
963
964
965
962
958
953
952
954
956
953
950
945
942
943
946
944
942
941
940
942
941
943
941
938
937
940
939
939
935
934
932
933
933
933
933
932
932
934
938
938
933
932
931
934
940
939
939
934
936
938
942
946
946
946
944
946
946
950
951
951
949
948
952
951
952
952
952
957
960
961
959
961
963
966
971
971
970
970
969
967
973
973
970
968
967
968
973
975
975
970
970
972
976
973
974
973
970
971
973
972
972
971
973
975
976
981
977
976
974
977
982
982
980
978
976
980
980
980
977
975
970
973
976
977
976
976
973
975
978
974
973
974
970
970
973
971
970
969
968
969
973
975
973
972
972
974
976
977
974
971
970
972
976
978
976
974
970
977
979
982
981
978
975
976
978
977
979
975
971
975
976
978
973
973
972
972
975
970
971
968
968
969
970
973
968
969
969
969
971
971
968
964
965
968
970
971
972
970
968
973
975
971
973
970
971
972
973
972
973
970
969
975
978
979
976
978
975
978
980
982
979
978
976
976
980
979
977
977
975
975
977
976
974
972
970
974
975
978
983
998
1018
1043
1065
1086
1104
1127
1149
1171
1187
1191
1189
1179
1168
1154
1132
1097
1051
1010
990
980
977
968
954
951
953
953
954
951
949
946
947
948
951
949
946
944
943
944
946
947
945
945
942
943
943
940
940
938
936
935
936
938
936
932
931
933
934
936
932
931
930
933
935
936
931
929
930
933
936
936
936
933
932
937
937
939
937
938
935
938
941
940
939
940
940
944
946
948
949
946
947
948
953
956
954
954
953
957
960
962
961
958
961
962
964
966
968
967
967
968
968
968
970
969
967
967
970
971
968
965
965
970
972
971
971
966
965
968
971
970
972
969
968
971
969
972
972
974
973
973
976
976
976
976
977
977
977
976
971
971
973
975
975
975
972
969
969
972
973
972
974
972
973
972
971
973
972
972
970
972
974
973
970
968
967
971
973
971
969
971
968
975
974
975
971
971
969
970
973
974
972
972
969
969
973
975
976
974
975
975
975
974
974
971
967
971
974
974
971
970
969
969
969
971
968
966
964
967
968
969
967
964
966
967
969
969
964
962
963
965
968
965
965
964
963
965
965
971
970
968
969
971
970
973
972
973
971
973
973
976
972
973
974
975
980
981
979
976
978
980
983
984
982
982
979
984
984
981
978
977
977
987
1000
1022
1040
1060
1081
1109
1132
1155
1175
1190
1199
1199
1193
1180
1158
1134
1094
1048
1013
995
988
975
966
964
962
961
961
958
951
952
952
953
948
947
947
951
951
950
946
945
942
947
950
948
949
945
942
943
944
943
940
938
935
937
938
935
933
934
936
937
939
938
938
938
938
939
940
941
937
935
936
940
939
939
937
935
935
939
945
943
942
939
941
945
950
948
947
947
947
951
954
956
956
957
957
959
961
965
966
965
964
966
968
969
968
971
970
971
976
979
976
978
980
979
981
979
979
977
975
979
980
979
977
977
972
974
979
979
978
978
974
974
976
979
978
974
973
973
975
976
978
976
975
975
978
980
980
977
976
978
981
983
980
981
982
981
984
980
977
975
975
977
979
978
975
974
973
976
978
979
975
972
971
972
974
974
972
973
973
972
971
974
972
970
970
970
974
973
970
974
975
973
976
975
975
976
975
979
980
981
978
976
978
980
984
985
982
978
978
979
979
980
978
977
977
978
979
981
978
977
976
976
979
974
973
973
973
976
976
976
973
972
971
977
980
980
976
976
978
980
984
981
977
976
977
978
981
992
1007
1028
1052
1078
1102
1123
1147
1173
1197
1214
1220
1217
1199
1185
1165
1130
1083
1037
1003
988
981
975
969
962
955
954
952
951
951
950
948
942
941
944
945
945
942
941
940
942
945
943
945
941
940
944
945
943
940
942
941
947
948
947
944
943
945
947
949
951
948
946
945
947
950
948
945
941
940
942
944
946
944
943
945
947
950
950
951
949
948
948
949
948
948
950
949
950
952
951
954
956
959
962
966
966
964
968
970
973
975
976
974
975
977
980
981
980
978
975
975
976
981
982
979
976
976
975
978
979
975
974
971
973
979
979
978
976
976
979
979
980
978
976
975
978
979
980
979
979
977
980
984
983
980
978
975
977
981
981
980
981
980
982
983
982
980
980
979
981
983
982
980
978
973
976
979
979
975
974
971
973
976
975
976
972
969
974
975
976
976
977
974
976
980
977
979
977
977
978
977
980
979
976
975
979
978
978
978
978
977
980
982
981
981
978
978
979
981
982
979
978
980
981
983
981
978
973
971
974
979
977
975
973
971
974
977
979
978
976
974
976
978
979
976
976
972
972
974
979
977
975
975
976
978
977
977
975
975
974
978
979
977
976
977
981
983
981
980
979
980
983
985
984
981
979
978
983
984
981
979
978
975
977
981
993
1012
1033
1056
1083
1107
1131
1155
1178
1196
1201
1198
1187
1171
1155
1126
1088
1044
1010
996
986
979
972
971
965
962
960
958
960
960
960
957
951
952
954
955
956
953
949
948
947
951
950
946
945
942
942
942
940
940
939
940
941
941
941
941
938
942
946
946
945
947
945
944
947
944
949
945
947
947
949
950
952
950
949
948
952
956
956
954
953
951
954
959
963
958
958
957
958
962
964
963
962
963
965
966
970
969
967
966
970
973
977
975
975
975
974
978
976
975
975
970
977
978
978
977
976
978
979
984
979
983
982
981
982
986
985
981
979
979
982
985
987
985
981
981
984
988
990
988
986
986
988
987
989
986
983
978
981
981
981
981
979
976
975
979
977
977
977
976
975
977
975
975
972
975
977
977
977
976
976
977
978
980
980
978
978
975
979
980
983
980
979
980
984
989
991
988
986
983
986
989
989
989
987
982
983
985
982
983
980
980
983
983
986
980
979
974
973
980
986
996
1017
1041
1068
1096
1119
1146
1170
1194
1209
1213
1201
1186
1165
1137
1091
1047
1013
993
984
976
970
970
969
969
966
961
961
960
961
957
956
953
952
956
955
951
949
948
947
948
947
946
943
944
946
945
945
941
940
938
938
939
937
934
930
929
932
935
937
936
936
937
938
940
942
943
940
941
944
945
945
944
945
942
947
949
952
951
950
952
953
955
954
953
953
955
958
959
960
957
955
961
963
967
969
968
965
965
968
969
969
970
969
970
971
975
974
974
974
975
978
979
981
980
978
979
980
983
983
982
980
981
983
982
983
980
981
980
983
987
987
986
984
984
986
988
989
987
984
978
980
981
982
978
976
974
977
976
980
978
976
976
977
978
979
979
978
972
974
977
977
974
973
976
977
979
982
979
977
977
981
984
985
983
982
981
983
984
987
984
979
976
976
977
977
973
972
969
971
977
977
973
971
972
975
978
975
974
971
970
974
978
979
979
974
974
977
981
980
979
976
976
977
978
979
981
979
978
982
982
986
986
982
982
983
988
988
986
985
981
981
982
984
989
1003
1028
1054
1082
1102
1122
1145
1170
1192
1204
1202
1187
1175
1155
1130
1092
1043
1003
983
977
971
965
962
961
957
953
953
954
956
953
952
948
950
951
950
949
948
946
948
949
949
946
943
943
944
947
947
946
944
940
944
947
945
944
941
939
941
942
947
946
943
942
944
947
948
946
943
942
944
946
947
944
943
942
945
948
949
948
948
947
951
953
954
954
951
950
951
952
955
953
956
956
958
960
966
965
964
965
970
975
976
977
975
976
976
979
977
976
976
976
980
981
983
980
975
977
978
983
983
980
978
974
976
974
977
974
973
971
970
975
974
973
973
973
976
978
977
976
975
973
977
974
978
978
976
978
976
981
984
983
984
982
983
983
983
984
982
980
981
983
986
982
982
980
980
984
982
981
979
979
980
982
981
979
978
977
977
976
976
973
972
971
972
973
975
970
969
972
973
977
977
973
972
972
975
977
978
976
976
975
976
979
981
980
979
978
978
983
984
979
981
977
981
982
983
982
981
979
982
981
978
977
975
974
972
976
975
972
970
967
969
972
974
973
971
971
972
972
972
971
971
969
972
971
975
975
976
973
975
977
979
991
1009
1033
1060
1085
1110
1133
1161
1187
1206
1219
1216
1204
1188
1166
1138
1096
1053
1016
999
990
982
970
966
964
961
957
955
955
954
952
947
945
946
945
948
945
942
939
938
940
943
941
937
933
934
937
939
940
938
935
938
939
939
939
938
935
938
938
937
939
935
935
941
944
943
945
942
942
943
945
948
945
941
943
943
946
945
944
943
941
942
944
944
943
942
942
946
946
948
948
946
947
949
950
951
949
945
947
949
952
956
958
956
956
959
965
966
968
967
964
971
972
974
973
971
965
972
977
979
979
973
975
978
980
982
982
981
980
979
979
982
980
979
978
977
979
978
975
971
971
971
974
975
971
967
967
968
970
973
970
969
968
966
968
967
966
964
965
966
970
968
968
966
966
970
974
975
973
972
967
971
972
974
972
972
971
972
975
976
975
975
974
976
979
979
977
974
974
978
980
978
978
977
975
975
975
975
975
973
971
973
969
971
968
964
965
965
969
971
969
969
967
965
969
969
967
963
961
964
965
963
965
965
966
966
969
967
968
967
966
968
971
970
965
967
966
967
970
972
972
971
969
972
973
970
971
966
971
972
973
974
976
972
970
971
971
971
969
964
964
962
964
968
968
966
965
966
968
968
970
968
