970
973
969
973
973
974
973
974
978
978
977
976
973
978
980
980
977
978
978
982
985
984
981
979
977
980
981
985
984
980
978
978
980
978
977
973
972
970
970
971
973
970
971
971
973
972
969
968
968
969
970
969
968
967
971
972
976
976
973
974
972
976
980
980
979
973
976
980
980
982
980
977
977
979
982
983
983
984
981
982
984
984
982
982
980
977
981
980
977
974
974
974
979
978
977
971
973
975
976
977
974
973
967
973
973
972
973
968
969
972
975
976
977
977
978
977
981
979
980
977
976
977
981
982
981
981
980
983
989
989
987
981
985
986
987
990
1001
1021
1047
1077
1101
1127
1154
1177
1192
1199
1193
1177
1154
1118
1065
1021
995
986
981
967
963
962
964
966
962
961
957
957
959
957
954
955
951
953
954
954
953
950
949
951
952
955
953
951
951
952
956
952
951
949
949
950
951
949
946
945
942
944
948
950
950
946
943
946
948
950
946
947
944
946
946
949
947
947
947
951
953
954
953
950
952
956
959
959
955
955
953
956
961
963
962
962
957
964
968
972
969
968
971
972
976
979
974
976
977
976
978
977
976
973
974
978
981
979
978
976
975
978
983
985
981
982
981
984
986
984
983
982
978
981
979
982
980
981
981
983
985
984
983
983
984
987
991
987
985
984
984
985
989
992
991
988
987
985
989
989
988
985
984
987
985
982
979
980
980
980
983
981
982
978
976
980
982
979
977
977
977
977
981
981
979
978
976
979
983
981
978
978
979
983
986
986
984
980
979
983
984
987
984
982
979
982
985
985
984
982
981
985
989
987
987
984
984
988
989
988
986
984
982
982
984
984
979
977
974
975
977
975
977
977
979
982
984
981
977
976
977
980
982
981
981
977
975
978
980
979
980
977
977
980
983
981
982
982
981
985
983
988
985
983
985
986
989
988
987
985
989
989
991
994
990
992
991
993
994
994
992
990
988
991
994
1003
1013
1031
1054
1077
1099
1118
1139
1159
1181
1204
1219
1224
1215
1204
1193
1182
1161
1134
1091
1048
1020
1008
1003
995
979
971
968
971
969
970
968
964
962
961
962
960
958
958
962
962
964
962
958
955
956
957
960
958
957
953
952
956
958
957
955
953
953
954
956
954
951
949
945
946
945
945
944
943
945
945
950
951
947
948
949
952
956
954
953
953
949
952
956
955
955
955
956
957
958
958
957
957
958
959
963
964
961
959
959
963
966
971
968
965
967
973
979
979
978
978
980
981
985
984
986
986
986
987
987
987
984
980
982
985
987
985
986
985
983
988
992
994
991
985
986
988
990
991
987
988
986
988
991
991
991
991
989
992
994
992
991
992
990
987
992
994
992
990
990
994
997
997
993
993
993
996
1000
997
990
990
988
988
991
989
985
984
982
984
986
988
988
987
987
987
987
988
985
985
985
989
990
988
984
983
984
987
989
990
988
984
985
988
990
993
990
988
987
991
992
993
994
991
991
993
994
996
994
994
996
997
998
997
992
993
993
994
994
995
992
989
987
989
992
991
988
987
984
987
987
989
987
987
987
989
990
989
985
984
982
987
985
988
988
986
986
990
991
993
990
989
986
988
989
992
991
992
991
996
997
996
997
996
999
998
1002
1007
1014
1029
1049
1074
1099
1122
1140
1165
1189
1211
1228
1228
1221
1209
1196
1180
1155
1113
1064
1028
1013
1007
1002
990
981
973
968
975
974
971
967
964
962
961
963
963
960
958
958
962
963
961
961
956
958
959
963
961
957
956
956
960
962
961
961
960
958
960
962
958
958
959
960
961
963
960
960
958
958
962
962
960
957
955
955
957
961
959
962
958
955
957
961
963
961
959
959
961
962
962
960
960
960
960
965
965
964
963
964
970
973
974
973
975
976
981
984
985
987
986
985
989
993
995
993
994
995
998
1001
998
997
994
994
998
998
996
993
989
988
988
990
993
991
988
987
987
992
991
988
989
988
990
989
986
989
988
987
986
986
987
987
985
985
991
994
995
993
988
993
993
999
998
999
996
997
1000
1003
1001
1004
1006
1005
1005
1003
1004
1002
1001
1001
1003
1003
1003
998
998
996
995
998
996
991
989
989
989
992
991
989
986
988
989
988
990
986
986
984
983
987
987
991
989
989
992
993
994
995
994
994
998
997
997
996
998
997
1001
1002
1004
1001
999
999
1006
1006
1006
1004
1003
1002
1001
1005
1004
1001
998
998
995
999
999
997
995
995
995
995
990
992
994
995
995
995
994
990
988
1000
1017
1042
1069
1094
1120
1146
1172
1204
1225
1234
1231
1219
1207
1191
1163
1117
1066
1030
1018
1014
1006
994
988
987
986
985
983
979
975
974
978
974
974
971
967
966
967
964
964
961
957
955
959
960
962
960
958
958
960
963
963
962
957
954
956
958
959
960
960
958
958
960
962
960
957
958
959
961
960
957
957
961
962
966
965
965
965
966
966
971
972
971
971
967
968
972
973
973
968
968
971
972
971
973
976
975
978
983
981
983
983
984
991
992
993
988
986
986
990
992
993
992
991
990
992
995
995
996
994
993
996
996
997
997
995
995
997
999
996
996
997
997
1000
1001
1001
1000
997
997
1000
1003
1003
999
998
997
998
1002
1000
997
998
998
1001
999
999
998
996
996
999
1000
998
995
993
988
990
994
995
993
993
993
995
998
998
996
995
994
996
999
999
997
995
994
999
1001
1002
999
997
995
1002
1005
1003
1003
1000
999
999
1002
1006
1003
1002
1000
1000
1004
1004
999
1000
997
998
1000
998
998
994
991
994
998
996
995
992
993
994
996
993
991
988
987
989
992
991
992
990
990
992
994
995
995
992
992
994
997
998
996
996
997
1000
1005
1001
1005
1001
1001
1005
1009
1006
1007
1003
1002
1003
1008
1008
1009
1006
1003
1004
1005
1006
1003
1003
1002
1003
1004
1002
1000
998
1002
1005
1006
1004
1002
1000
1000
1001
1003
1002
996
997
995
1000
1000
1003
1001
997
995
1002
1016
1033
1052
1072
1095
1118
1141
1163
1188
1209
1230
1238
1235
1226
1214
1196
1173
1136
1090
1054
1030
1019
1012
1005
998
995
991
985
983
985
984
982
973
975
973
972
977
974
972
969
969
970
971
970
970
965
963
965
966
969
967
965
964
966
965
963
966
965
964
966
968
967
966
961
962
966
968
968
965
965
966
970
971
976
975
973
968
973
975
976
976
975
970
975
975
976
976
974
975
981
981
981
979
976
976
980
982
982
978
976
977
978
983
982
981
981
981
984
992
995
992
991
994
999
998
1000
1000
998
999
1001
1001
1003
1003
1002
1002
1005
1009
1009
1008
1007
1007
1007
1009
1008
1007
1003
1003
1006
1006
1006
1004
1001
999
1001
1003
1004
1002
1001
1001
1000
1003
1005
1004
1000
1002
1002
1003
1004
1001
999
998
1001
1002
1001
998
995
992
999
1003
1005
1003
1001
998
998
1001
1001
1001
1000
1002
1000
1004
1003
1001
1002
1001
1005
1010
1009
1006
1004
1002
1004
1008
1007
1007
1002
1003
1004
1007
1006
1005
1001
1002
1003
1004
1004
1003
1003
1002
1005
1006
1005
1001
998
994
997
999
999
996
998
997
997
999
1000
1000
999
998
994
998
997
999
998
997
998
997
1000
998
996
998
998
1002
1000
1001
1000
998
1000
1005
1007
1006
999
1001
1003
1006
1005
1006
1000
999
1002
1003
1002
1002
999
1001
1002
1004
1005
1006
1000
998
999
1005
1017
1034
1054
1082
1109
1136
1160
1187
1212
1228
1239
1236
1228
1207
1177
1141
1093
1050
1025
1014
1007
995
987
987
989
987
984
981
979
979
978
975
972
971
972
970
969
969
965
965
966
966
965
961
962
958
963
965
964
962
958
958
960
961
961
959
952
952
955
959
961
960
958
955
957
960
961
961
962
961
963
961
962
963
966
966
967
968
970
974
970
973
973
976
977
975
973
974
973
978
976
978
977
977
981
984
986
986
983
981
987
990
992
993
989
986
987
991
992
989
987
984
989
992
994
994
993
993
994
995
995
996
995
996
998
1001
1001
997
997
995
998
1005
1005
1003
1000
999
1000
1004
1006
1001
999
997
998
1000
999
996
994
993
994
997
996
995
995
992
991
995
992
991
988
987
990
989
987
988
987
987
991
993
994
991
990
990
991
994
995
993
988
989
992
995
996
997
994
992
993
998
999
998
995
995
996
997
994
993
989
991
992
994
993
992
989
989
994
994
992
988
986
987
992
994
994
990
987
983
985
987
989
988
988
986
988
992
992
991
990
989
988
992
990
990
990
990
992
993
992
992
990
990
995
996
994
992
990
992
993
995
997
992
990
987
987
990
992
990
989
987
991
993
993
993
990
989
988
990
991
990
989
991
988
994
994
995
993
991
998
1008
1025
1049
1073
1098
1124
1148
1182
1206
1222
1226
1225
1216
1202
1178
1135
1082
1041
1019
1012
1004
989
981
981
982
981
975
970
966
968
967
965
963
964
959
959
960
961
959
957
956
958
957
957
956
954
953
954
954
954
952
951
951
953
959
956
955
952
954
957
960
960
958
957
959
963
965
965
960
962
961
962
966
966
966
958
960
962
962
966
967
966
962
966
970
973
971
968
964
964
968
973
973
970
972
976
980
982
982
983
983
984
986
988
988
986
989
990
991
994
992
990
992
995
997
997
997
996
995
997
992
994
992
987
988
989
989
987
987
987
986
986
988
987
987
986
984
989
987
987
982
979
980
983
988
987
989
986
983
987
990
994
993
992
991
993
995
996
997
998
997
998
1000
1002
999
999
997
1001
1000
999
1000
994
995
995
995
995
995
990
991
992
997
995
993
992
993
995
996
992
989
989
994
1013
1041
1064
1089
1110
1135
1164
1195
1216
1234
1236
1230
1216
1201
1180
1146
1096
1049
1021
1008
1005
993
985
984
983
982
979
975
971
971
973
973
971
964
963
960
963
962
963
961
956
954
954
956
956
957
954
954
955
958
957
954
952
952
952
948
951
951
952
952
953
954
956
952
954
953
953
954
956
954
953
954
956
963
964
963
961
959
961
965
968
966
962
964
967
970
973
969
971
970
974
979
981
983
983
982
988
991
992
991
989
987
987
990
990
988
987
988
989
993
995
994
991
990
990
992
992
989
991
990
991
994
995
994
994
995
998
998
998
997
993
992
995
1002
1000
995
992
989
995
996
998
997
997
995
996
1000
999
1001
997
993
995
997
995
997
992
990
993
997
999
996
995
995
996
1000
998
997
997
996
998
1000
998
998
997
999
1001
1001
999
1000
999
998
1001
1006
1005
1003
999
994
998
1000
1002
998
993
994
994
999
1001
998
994
994
995
997
999
994
992
994
994
997
994
993
993
992
997
1002
1000
998
997
998
1001
1003
1005
1000
998
999
1004
1006
1006
1004
1002
1006
1019
1036
1063
1086
1107
1130
1155
1183
1209
1230
1238
1238
1230
1216
1196
1165
1122
1078
1040
1021
1012
1004
992
985
984
985
982
978
973
967
969
970
970
963
963
964
964
967
968
967
962
962
962
964
968
965
963
961
964
965
966
967
966
968
967
966
967
965
963
964
965
969
967
964
963
962
962
965
965
963
960
958
963
966
966
966
964
967
966
968
967
966
966
964
965
970
970
969
970
968
974
976
981
981
980
982
984
988
991
991
992
992
997
1002
1003
1003
998
996
998
1003
1004
1003
999
997
995
996
999
998
995
994
992
997
995
993
993
991
991
993
993
991
990
987
989
989
988
989
989
989
994
995
995
991
994
993
995
998
999
1000
996
992
995
1003
1006
1002
1000
999
1003
1004
1005
1001
999
994
995
998
998
996
993
994
990
992
996
994
994
992
992
994
994
994
992
991
992
994
995
992
994
995
994
995
993
991
995
994
995
996
997
995
992
994
998
1000
1001
999
995
996
995
999
1000
999
995
995
995
999
996
995
992
990
989
989
993
993
988
990
993
994
993
993
993
992
992
991
991
989
988
987
989
993
992
991
988
991
994
997
998
995
994
992
996
1000
1000
1000
998
1009
1030
1054
1076
1099
1119
1140
1164
1192
1216
1228
1232
1227
1218
1204
1187
1153
1104
1062
1033
1021
1015
1004
991
982
978
980
980
975
973
969
971
969
967
967
963
962
960
961
959
960
957
957
957
959
958
954
952
952
955
957
955
955
952
952
954
958
956
957
956
956
961
964
964
964
958
960
961
963
964
961
959
960
960
962
962
961
958
957
958
961
961
963
961
960
959
961
962
964
961
961
963
966
964
962
959
958
962
962
963
963
962
962
962
969
969
969
970
971
974
978
980
981
977
978
983
987
986
987
987
986
991
995
997
996
994
991
992
992
997
996
995
994
993
994
990
993
991
986
989
991
991
991
986
986
990
991
994
989
985
983
984
984
986
985
983
981
981
982
980
982
979
982
981
986
986
984
980
980
984
988
989
988
987
989
992
990
996
994
991
989
990
994
994
994
990
989
987
989
988
988
986
986
987
986
983
984
981
979
980
981
982
979
978
980
980
983
982
980
981
977
980
984
985
983
981
980
979
984
985
983
982
982
983
985
988
987
980
986
988
989
989
988
988
991
990
991
992
998
1006
1022
1052
1075
1098
1119
1138
1165
1191
1212
1221
1219
1207
1192
1179
1155
1122
1073
1027
1006
997
992
982
973
967
967
966
970
967
961
955
955
953
956
960
955
952
948
949
950
954
949
950
945
947
946
951
950
949
949
951
953
952
950
950
946
946
950
953
953
949
946
946
946
945
947
948
945
945
947
949
948
945
943
946
949
951
947
941
944
945
946
948
947
944
943
943
946
946
946
944
944
947
952
950
953
950
949
950
953
956
955
954
955
961
965
970
972
972
972
973
975
978
981
983
985
984
987
987
986
983
982
985
986
988
982
977
979
978
980
983
983
982
980
981
982
983
982
980
977
976
976
978
977
974
973
973
978
976
975
974
975
975
975
983
981
980
978
978
982
983
984
980
980
983
985
985
986
984
984
990
994
997
995
992
991
993
993
996
994
992
990
991
990
992
989
988
987
984
991
989
988
982
981
984
987
988
986
984
981
979
979
980
979
978
980
978
980
980
982
979
981
979
984
985
985
983
984
984
989
991
989
984
985
987
989
989
990
988
989
994
995
995
994
990
992
995
999
994
993
992
991
992
993
995
994
991
987
986
989
991
993
990
989
990
989
992
991
988
989
989
991
989
986
982
982
986
990
993
992
991
987
991
993
995
995
994
993
994
993
992
995
994
991
991
996
1006
1017
1038
1060
1086
1113
1135
1159
1183
1205
1223
1230
1228
1216
1200
1177
1145
1101
1054
1021
1007
1002
991
981
977
977
975
969
968
967
966
965
960
959
957
960
961
960
959
957
961
960
960
957
956
952
953
957
959
957
952
951
951
955
957
959
956
953
955
957
956
958
957
958
959
961
961
963
960
958
956
959
961
964
963
961
964
967
969
968
965
963
964
965
965
964
965
962
963
967
970
971
968
966
967
972
976
977
977
976
980
982
985
985
984
985
987
991
993
991
991
989
994
998
997
999
997
997
996
998
1001
1001
994
995
995
998
997
999
998
998
995
994
999
996
996
994
993
994
996
992
989
988
989
993
993
992
987
988
991
992
995
993
993
991
993
994
995
992
992
992
993
995
994
993
992
992
996
998
999
997
993
993
994
997
1000
999
995
992
993
992
995
992
990
992
991
993
994
994
991
988
991
993
991
989
988
983
984
984
989
987
985
982
983
984
988
988
986
986
986
985
989
987
985
988
987
991
991
992
993
992
993
998
998
999
996
995
997
996
1001
998
996
993
995
996
994
997
995
992
992
989
988
987
985
986
984
988
987
984
982
980
982
982
983
980
977
975
975
979
981
980
976
980
981
985
987
985
984
984
984
987
991
992
988
986
989
997
1003
1019
1039
1061
1087
1113
1134
1157
1181
1201
1219
1232
1231
1222
1209
1186
1158
1120
1072
1031
1008
999
993
987
975
972
970
970
966
965
964
961
956
948
951
951
949
949
947
946
945
951
951
949
946
944
942
944
947
947
944
942
942
944
950
945
945
943
947
949
948
948
949
948
947
949
950
949
948
948
948
945
946
945
944
944
944
951
952
948
948
947
949
952
952
951
946
944
946
949
951
952
949
951
954
956
962
962
962
962
963
967
972
973
972
971
974
974
977
979
979
981
978
982
984
981
978
978
979
979
982
977
974
971
976
978
976
973
972
973
976
978
976
970
967
967
969
972
975
973
972
969
972
974
979
976
973
973
970
973
976
975
972
973
974
978
979
980
978
973
976
978
984
981
980
980
978
981
982
981
979
978
977
979
977
977
972
970
972
972
971
967
965
964
965
967
968
967
962
962
964
967
967
967
964
963
963
967
972
972
965
963
967
971
972
970
970
971
971
972
975
975
973
971
970
971
974
974
972
971
972
975
976
974
969
966
964
965
969
969
968
968
966
970
972
969
966
962
963
965
965
966
962
960
958
961
961
963
960
963
964
965
965
965
965
962
966
968
968
970
967
969
967
972
976
974
970
971
971
972
976
980
990
1010
1036
1061
1086
1107
1126
1149
1173
1190
1194
1188
1175
1162
1145
1120
1087
1044
1007
988
982
977
967
962
953
952
951
952
949
948
946
941
943
946
942
943
940
939
939
941
942
942
936
938
939
941
941
940
940
939
937
942
942
939
934
935
935
939
940
941
938
934
934
933
938
937
938
938
939
943
942
945
943
