1003
1002
999
994
993
1000
1012
1030
1054
1084
1114
1142
1173
1200
1221
1229
1227
1217
1198
1173
1131
1079
1034
1012
1005
995
987
975
976
979
979
974
970
968
968
967
966
962
964
963
964
965
969
967
963
961
964
965
967
966
963
963
961
963
962
959
954
951
954
954
955
953
953
949
950
952
949
952
949
948
951
955
952
954
950
949
955
957
958
958
957
958
961
963
963
962
961
961
962
967
970
968
970
972
975
982
984
981
983
985
987
992
994
992
991
989
990
991
992
989
987
985
987
988
987
985
981
980
983
990
990
987
986
982
986
984
986
986
983
983
986
989
987
986
986
986
985
989
988
988
989
987
990
993
994
994
995
994
995
997
998
998
997
996
996
994
992
989
987
988
989
991
992
989
988
987
989
987
989
990
987
985
987
987
987
988
987
988
986
991
988
989
986
988
989
991
994
992
990
990
993
994
995
995
993
991
993
997
997
996
992
988
993
993
995
994
993
994
994
995
997
991
987
990
991
993
993
990
988
989
992
993
993
986
988
988
989
992
993
991
990
990
991
994
993
993
990
991
991
993
994
993
991
992
993
998
1000
998
995
995
996
999
998
999
996
997
996
1001
999
999
996
994
994
992
994
999
1013
1029
1055
1081
1103
1123
1147
1169
1196
1220
1235
1237
1229
1215
1203
1180
1149
1101
1054
1024
1014
1009
998
987
981
980
979
981
979
974
971
970
969
972
973
970
970
968
969
969
972
971
967
964
967
967
967
964
962
961
959
960
960
959
954
956
958
959
959
956
955
952
957
958
960
960
956
955
957
958
960
957
956
956
959
963
965
964
963
962
965
967
970
968
968
966
964
967
968
971
970
970
971
974
978
978
977
979
980
984
986
987
986
985
989
991
990
992
990
987
989
994
994
994
992
992
994
997
999
995
993
992
992
994
995
995
992
989
991
993
995
993
994
994
993
994
998
996
995
994
994
996
1000
996
997
996
995
997
999
998
995
996
999
1002
1002
1001
1000
995
1001
1001
1002
1002
999
995
999
999
1001
998
998
995
995
997
998
997
996
995
994
995
997
998
995
995
994
998
996
994
996
996
995
999
999
998
997
996
995
999
1000
1000
998
996
996
1000
999
1000
998
991
997
999
999
998
996
994
996
997
1001
1000
998
996
996
1000
998
999
994
996
994
996
997
995
993
990
987
990
992
990
988
987
990
994
992
988
987
988
988
990
993
992
989
989
990
992
993
991
988
990
992
994
997
997
993
995
995
999
997
997
994
993
994
999
1000
999
997
995
999
998
1001
1001
997
996
999
1000
1000
999
996
993
993
995
999
998
994
990
988
991
998
1005
1019
1039
1063
1088
1114
1135
1159
1186
1209
1228
1239
1237
1225
1213
1194
1168
1127
1076
1034
1016
1006
1003
994
984
980
979
978
977
975
973
970
970
967
968
974
972
970
969
969
970
970
969
967
966
965
966
965
965
962
960
961
960
960
957
956
955
958
961
962
958
957
956
958
963
964
962
959
958
956
959
958
961
958
956
959
961
966
966
963
964
963
968
967
969
966
964
967
971
972
972
971
969
974
976
978
979
978
976
979
985
985
984
982
984
986
987
987
991
988
988
988
991
992
992
988
992
991
995
998
997
995
995
994
995
997
997
994
992
993
994
996
993
991
992
991
993
995
995
993
995
996
997
997
998
993
993
994
997
997
998
996
997
997
1002
1002
1002
999
997
998
1000
999
997
993
993
994
993
994
992
989
989
991
996
996
992
990
991
990
992
998
996
993
990
989
990
993
994
990
990
989
991
993
993
992
990
988
993
993
990
991
989
991
990
992
989
991
989
989
994
997
998
995
996
996
1001
1001
1001
998
996
998
1001
1001
998
995
995
993
994
994
992
987
988
988
992
993
995
1001
1014
1033
1059
1083
1103
1128
1146
1171
1200
1221
1234
1241
1239
1232
1220
1207
1183
1151
1104
1060
1025
1008
1003
993
984
974
973
970
968
967
966
963
963
963
961
958
957
958
958
958
960
957
955
955
956
957
956
952
952
945
945
944
944
942
944
945
948
947
948
945
945
947
949
950
949
946
941
943
943
946
947
944
942
941
944
947
949
944
945
948
951
954
953
951
949
950
953
957
958
954
957
959
962
963
965
963
965
968
969
975
978
973
973
977
975
976
975
973
973
976
976
984
984
983
981
984
986
988
987
984
984
982
986
986
983
983
982
981
985
987
988
986
985
983
986
989
988
984
983
984
988
989
991
988
987
991
994
996
997
993
992
993
993
990
988
982
979
982
984
987
987
986
986
989
988
990
989
988
988
988
989
988
986
984
985
986
986
988
988
987
987
987
989
992
990
989
986
986
989
991
992
991
992
993
997
998
995
993
992
991
994
995
996
990
991
989
989
987
981
979
979
978
981
982
981
981
981
982
983
988
987
988
984
987
989
989
986
985
983
985
989
991
990
987
986
988
990
992
991
987
986
988
992
993
992
991
989
990
994
993
993
991
989
991
993
997
996
993
990
990
990
993
987
983
982
981
983
986
985
985
982
983
987
989
989
985
986
986
988
988
986
985
982
985
987
987
986
985
984
986
989
992
992
990
987
988
991
994
994
991
991
993
995
996
997
997
998
998
1001
1002
1002
1000
995
1000
1000
1002
999
996
994
992
995
993
991
989
988
989
992
994
995
995
994
996
1000
1003
1000
999
1002
1016
1036
1061
1088
1105
1124
1149
1178
1206
1226
1235
1233
1227
1212
1191
1158
1108
1057
1022
1010
1009
1000
992
985
986
987
986
981
981
975
978
977
977
976
971
970
969
965
964
962
959
957
959
961
963
963
961
963
961
965
966
963
962
959
959
960
962
962
959
956
961
962
964
965
961
957
961
964
966
966
968
966
967
968
973
974
972
973
976
980
982
981
979
977
980
984
981
978
974
972
975
974
974
976
976
975
979
981
986
987
987
989
993
995
997
996
990
989
992
991
994
996
995
994
996
1000
1001
996
996
995
993
1002
1001
998
998
997
1000
1001
1006
1003
1002
1002
1002
1001
1000
1001
1001
1000
1001
1001
1000
999
995
993
991
998
995
997
994
994
994
997
999
997
995
994
993
995
997
993
992
992
992
995
995
997
998
995
996
999
1000
999
998
995
998
999
1003
1003
1000
1000
1002
1001
1004
1002
1001
999
998
999
1002
1003
1001
999
1000
1001
1004
1003
1000
996
996
998
999
999
998
997
998
1000
999
996
996
997
1010
1028
1050
1074
1095
1117
1140
1170
1200
1222
1238
1246
1249
1243
1228
1210
1185
1143
1096
1054
1029
1014
1007
994
988
984
986
984
981
977
974
977
976
973
971
969
968
969
970
970
966
963
963
963
963
963
959
956
956
959
960
958
955
955
955
956
955
956
954
950
951
953
952
954
950
948
950
950
957
957
956
954
955
954
959
959
958
957
958
961
964
965
964
962
967
969
968
970
967
968
969
976
978
980
977
976
981
981
986
985
985
985
988
989
995
996
993
993
994
995
997
995
993
993
993
993
994
995
992
989
992
996
998
996
994
993
994
996
996
995
995
995
995
997
1000
1001
999
997
999
1004
1006
1009
1006
1005
1005
1007
1006
1005
1005
1001
1004
1005
1007
1007
1003
1003
1002
1003
1004
1003
1001
996
996
996
1000
1000
999
998
999
1001
1003
1005
1003
999
1000
1001
1002
1003
1001
999
1001
1004
1007
1008
1009
1009
1008
1010
1011
1011
1011
1009
1008
1012
1011
1011
1009
1005
1005
1006
1007
1008
1002
1000
1001
1003
1006
1006
1001
1000
999
1003
1004
1002
1000
999
998
1001
1004
1004
1002
1002
1002
1002
1006
1007
1006
1002
1002
1003
1001
1002
1002
1005
1006
1010
1012
1015
1012
1009
1012
1014
1015
1014
1013
1014
1012
1014
1016
1014
1012
1011
1009
1010
1014
1020
1034
1055
1079
1106
1132
1153
1181
1204
1227
1241
1244
1234
1220
1205
1180
1143
1096
1055
1029
1018
1009
1002
996
993
991
988
989
986
984
985
981
978
980
982
984
983
980
979
980
981
981
980
977
974
973
976
977
971
969
969
967
967
968
970
968
964
967
967
970
968
966
964
965
970
970
972
968
967
964
969
969
968
968
967
969
972
974
974
973
974
976
980
980
979
979
981
984
984
987
990
990
990
993
997
1001
1001
997
998
999
1001
1002
1005
1001
1001
1002
1000
1004
1007
1003
1001
1004
1004
1007
1006
1004
1002
1001
1004
1006
1002
998
998
999
1001
1005
1003
1003
1003
1002
1004
1007
1007
1004
1006
1008
1008
1009
1008
1008
1005
1006
1006
1013
1015
1014
1014
1012
1013
1018
1019
1016
1009
1010
1011
1012
1011
1008
1008
1006
1008
1010
1011
1005
1004
1004
1006
1005
1005
1002
1000
999
1000
1002
1001
998
999
1000
1003
1004
1003
1000
998
1001
1001
1004
1005
1002
997
1002
1003
1008
1008
1011
1009
1010
1011
1012
1010
1010
1007
1008
1012
1011
1011
1007
1004
1005
1006
1005
1005
1003
1002
999
1005
1007
1005
1002
1000
1000
1001
1004
1002
998
998
997
1001
1003
1002
1001
1000
999
1002
1004
1003
998
995
999
1003
1004
1003
1002
1002
1003
1006
1011
1012
1010
1009
1008
1012
1015
1015
1013
1011
1011
1014
1017
1011
1010
1008
1010
1022
1042
1064
1086
1110
1133
1158
1189
1216
1231
1240
1241
1232
1223
1203
1178
1136
1084
1044
1025
1016
1008
996
988
988
989
987
983
980
980
979
980
977
975
971
972
976
980
978
977
977
976
978
980
982
980
978
977
980
981
978
975
970
970
971
971
972
969
968
967
970
974
972
970
967
968
969
972
972
966
965
966
965
969
967
967
963
966
971
975
973
971
972
970
971
975
974
973
973
972
977
982
983
981
984
985
989
993
995
997
995
998
1003
1003
1004
1001
999
1001
1003
1007
1006
1002
1003
1001
1003
1003
1005
1004
1002
1001
999
1005
1002
999
999
996
997
1001
1002
1000
1000
1000
1002
1004
1003
998
998
999
1000
1001
1001
1002
1002
1001
1004
1010
1008
1004
1003
1004
1006
1008
1010
1007
1004
1005
1005
1008
1006
1004
1002
1003
1005
1007
1005
1003
999
1002
1004
1005
1003
1000
998
997
998
1001
1000
999
999
998
1002
1003
1002
1003
1002
1001
1001
1004
1004
1003
999
1002
1002
1007
1009
1006
1006
1005
1007
1009
1007
1008
1007
1002
1006
1009
1007
1004
1003
1000
1003
1003
1003
1001
1003
999
1002
1004
1004
1004
1002
1000
1002
1005
1003
1002
996
995
1001
1011
1030
1054
1075
1104
1134
1164
1192
1220
1241
1252
1259
1251
1235
1212
1179
1130
1081
1046
1030
1021
1011
1000
1002
1001
998
993
986
983
983
983
981
977
973
971
971
972
971
967
966
964
967
970
966
963
961
961
962
964
961
960
959
960
962
964
963
961
960
959
964
966
964
963
963
966
967
971
970
972
972
972
974
978
978
973
972
976
980
981
980
979
974
973
973
976
977
981
979
980
984
989
988
989
987
991
990
997
996
994
994
993
996
999
1000
1000
997
997
1001
1004
1004
1002
1001
1002
1002
1005
1007
1004
1004
1001
1002
1007
1008
1007
1006
1004
1005
1008
1005
1003
1000
998
1000
1003
1005
1002
1003
1001
1004
1007
1006
1001
1001
1002
1004
1005
1003
1002
1001
1000
1001
1004
1005
1003
1000
1001
1003
1007
1005
1005
1002
1004
1005
1008
1005
1002
1004
1004
1008
1005
1008
1006
1005
1005
1007
1011
1010
1007
1006
1004
1006
1007
1003
998
998
996
996
998
999
997
998
999
1002
1006
1006
1004
1001
1000
1009
1027
1048
1077
1104
1126
1155
1188
1218
1240
1258
1262
1256
1240
1218
1182
1130
1069
1032
1016
1008
997
989
985
987
989
985
983
980
977
976
979
974
972
964
960
961
959
960
957
957
957
957
960
961
960
956
958
956
961
958
958
955
956
961
963
962
961
959
958
961
963
962
962
960
961
967
972
971
972
970
968
972
977
977
977
977
976
980
981
982
982
981
979
983
989
986
987
988
990
994
996
998
997
996
996
997
999
999
998
997
996
999
1002
1003
1000
995
995
998
1003
1002
998
995
997
1000
1001
1002
1002
997
998
1001
1007
1007
1007
1005
1004
1005
1008
1007
1004
1002
1001
1000
1000
996
995
993
992
996
997
1001
999
997
1001
1002
1002
1002
1002
999
999
1000
1003
1004
1001
1001
1001
1000
1003
1005
1004
1003
1001
1003
1004
1007
1002
1003
1003
1007
1009
1012
1009
1007
1004
1008
1009
1009
1007
1005
1003
1004
1007
1006
1000
995
994
996
999
998
995
992
992
995
997
999
996
995
995
995
999
999
1000
996
997
999
1003
1003
1001
1000
1001
1002
1004
1001
999
1002
1001
1003
1005
1004
1006
1006
1004
1008
1013
1011
1009
1009
1008
1008
1011
1010
1009
1005
1006
1004
1006
1010
1020
1040
1063
1091
1118
1140
1162
1188
1213
1230
1239
1234
1219
1202
1184
1160
1118
1072
1036
1019
1011
1006
999
991
989
982
984
983
980
979
975
972
971
972
976
975
972
970
971
971
975
975
971
968
966
969
969
970
969
964
964
963
967
964
963
959
956
957
960
959
958
955
953
956
958
961
958
956
956
961
964
964
963
962
962
965
968
972
970
969
971
971
975
973
974
973
974
974
976
978
975
973
974
979
982
985
987
987
987
989
995
995
996
995
995
999
1002
1002
997
998
997
998
996
999
998
994
994
997
1000
998
996
994
993
996
997
995
993
990
987
991
992
992
988
989
989
994
996
996
996
992
996
995
999
1000
999
998
998
1001
1002
1003
1001
996
999
1006
1007
1008
1007
1003
1003
1001
1004
1009
1007
1004
1003
1003
1007
1004
1001
999
999
998
1001
1002
999
997
995
1000
1001
1000
998
995
991
990
995
993
989
989
986
990
994
998
995
993
993
993
996
994
992
988
987
986
988
992
990
991
993
996
1000
1003
1003
1000
1000
1005
1009
1007
1007
1004
1004
1008
1008
1007
1005
1003
1001
1003
1006
1005
999
999
999
1000
998
1002
1000
997
996
997
998
997
995
992
993
995
996
997
997
993
992
993
993
995
995
992
999
1015
1038
1061
1086
1108
1127
1152
1178
1207
1229
1242
1245
1242
1229
1217
1199
1170
1129
1083
1047
1027
1016
1008
996
990
988
984
986
981
979
979
978
975
971
968
965
969
970
970
968
964
963
963
965
963
963
959
958
956
957
958
957
953
952
954
953
956
953
951
952
954
955
955
953
951
951
953
955
953
952
951
951
952
952
951
954
954
954
957
958
958
957
958
953
961
961
962
960
956
957
961
960
962
960
959
960
962
966
967
965
965
966
968
970
971
972
971
972
971
977
979
979
976
978
978
983
983
980
980
981
985
987
989
989
988
987
988
993
993
993
990
987
990
992
993
992
988
986
992
996
996
997
993
992
992
994
992
990
988
988
987
991
986
985
983
983
983
988
991
987
985
985
985
991
991
991
990
988
988
991
991
988
988
987
989
989
989
990
988
988
990
990
990
990
989
991
991
993
992
993
989
990
989
993
992
996
992
993
993
996
997
993
993
990
992
994
993
989
988
983
984
986
985
983
981
981
983
986
987
986
984
984
986
990
990
988
988
985
987
987
987
988
987
987
986
991
992
992
989
986
988
992
993
989
985
987
991
993
994
993
994
993
991
994
995
997
995
994
996
996
998
995
993
991
990
992
991
989
986
985
998
1018
1045
1068
1091
1112
1138
1167
1197
1218
1231
1233
1229
1218
1203
1180
1143
1097
1052
1022
1012
1003
991
980
978
978
978
975
968
964
965
965
966
963
960
961
961
962
962
960
959
956
956
959
960
957
954
954
952
950
948
946
941
939
937
941
944
943
940
944
945
949
950
950
944
947
949
950
950
951
950
952
950
954
956
955
955
954
957
959
959
959
959
959
962
961
962
963
964
965
967
969
973
973
972
970
977
979
981
982
982
978
981
984
986
985
979
981
981
981
983
983
982
984
984
986
987
986
987
985
991
990
992
990
986
983
985
987
988
986
985
985
986
990
989
987
986
989
988
991
990
988
988
986
989
992
993
993
989
989
989
991
991
994
990
992
993
995
993
995
994
993
993
993
994
991
989
987
989
988
993
992
991
988
989
991
992
990
989
988
989
992
990
988
986
986
987
988
989
988
985
985
987
992
993
994
990
989
992
993
993
994
992
989
992
994
993
996
996
994
993
995
996
996
996
997
996
997
999
996
992
993
991
994
995
994
992
992
991
994
994
989
991
990
990
993
995
994
991
991
989
988
992
996
1009
1030
1058
1085
1115
1139
1165
1193
1221
1243
1250
1246
1231
1213
1192
1158
1108
1053
1017
1005
998
986
982
978
974
968
970
968
969
966
962
961
957
959
959
955
955
953
955
954
956
955
952
951
950
950
952
947
946
945
946
949
948
947
947
946
949
951
950
951
950
950
950
953
952
951
951
952
951
955
958
958
956
957
961
965
966
967
964
962
963
966
966
965
965
963
965
968
970
972
970
973
975
978
982
983
982
980
983
987
986
987
984
986
989
993
990
990
993
991
989
992
990
990
986
985
985
987
990
988
986
987
989
991
991
991
990
989
990
992
988
987
985
985
984
985
987
987
985
984
985
986
988
987
983
983
985
986
986
987
984
980
985
986
989
988
988
987
988
989
993
992
992
990
990
992
993
993
990
990
990
994
996
996
995
991
987
993
994
992
991
990
993
994
996
992
990
985
985
987
989
987
986
985
988
988
990
988
988
983
986
991
990
989
984
984
984
989
997
1016
1040
1063
1090
1120
1147
1176
1202
1225
1239
1248
1244
1229
1212
1186
1149
1101
1055
1024
1011
1002
992
984
979
976
971
969
969
967
965
963
960
956
956
956
958
955
950
949
946
947
948
945
944
943
940
944
947
945
939
939
939
941
943
942
942
940
939
942
943
940
942
940
944
946
946
945
943
944
950
951
952
953
953
955
956
958
959
959
956
958
959
961
963
962
958
956
958
961
965
967
968
968
970
974
977
976
978
977
977
