978
971
970
976
987
989
982
977
974
974
973
975
977
974
974
972
965
956
956
965
973
972
969
966
972
973
975
975
977
975
974
972
971
972
976
975
972
969
968
971
972
976
973
974
973
975
977
979
975
971
972
979
989
990
990
986
986
988
982
974
971
977
1002
1027
1043
1052
1063
1076
1099
1131
1165
1191
1201
1191
1169
1153
1128
1097
1051
1011
989
985
977
966
961
963
970
977
972
959
943
926
924
942
969
988
1001
1004
987
956
925
909
912
926
937
946
949
944
939
933
927
931
935
944
943
940
934
931
930
926
924
927
934
939
943
947
951
952
957
962
954
937
927
921
925
939
948
949
945
944
947
951
952
940
926
923
930
940
940
933
935
952
964
963
956
952
962
971
969
966
965
966
975
981
985
979
973
966
960
962
965
977
987
983
965
947
948
958
972
968
961
953
954
962
972
980
980
974
964
964
967
978
977
978
974
971
967
958
956
961
968
971
972
968
962
959
957
961
973
992
1002
992
973
963
968
978
980
974
971
979
989
978
958
944
950
967
978
984
988
989
984
976
961
952
952
957
963
965
965
966
969
969
967
974
978
979
969
958
956
961
967
965
956
948
950
958
968
981
987
985
977
971
963
949
937
933
946
964
978
988
994
991
986
978
977
973
967
961
958
964
970
968
963
957
963
977
981
982
980
977
963
949
938
936
945
960
972
975
972
965
961
963
963
969
975
976
973
961
947
942
948
955
965
980
988
997
1000
1008
1023
1049
1082
1110
1130
1141
1154
1164
1171
1173
1169
1156
1133
1106
1065
1018
975
949
930
929
931
944
952
952
944
938
934
940
940
930
922
920
919
921
922
922
918
913
908
898
897
903
905
901
898
897
898
894
891
896
900
912
917
912
910
917
927
932
924
909
902
901
906
921
925
923
912
896
884
883
890
898
903
905
904
904
904
900
901
907
902
895
889
890
897
902
900
897
901
904
903
897
885
882
889
895
895
893
893
898
902
904
899
899
898
902
900
892
884
884
896
913
923
915
904
894
892
902
913
921
920
920
919
922
926
925
924
917
905
902
906
912
906
895
886
892
903
915
919
915
909
905
904
906
910
909
898
885
879
879
885
893
897
900
903
900
895
891
888
892
901
903
901
899
902
907
910
910
910
911
914
920
926
924
924
919
918
920
924
927
936
955
965
960
938
909
882
876
883
891
890
886
883
886
893
903
909
905
901
899
900
900
902
903
901
898
897
899
903
905
906
904
909
913
913
910
905
904
906
912
920
917
906
895
898
915
929
934
928
917
907
902
908
916
927
928
929
935
937
933
925
919
925
932
936
929
926
925
930
936
932
916
899
888
890
901
909
913
915
912
911
919
934
953
969
984
997
1021
1049
1081
1114
1137
1153
1161
1161
1151
1132
1104
1062
1014
970
941
927
918
909
904
905
908
907
900
895
898
899
899
895
886
884
886
890
893
892
889
891
894
901
909
913
914
897
882
875
866
867
865
859
859
865
870
876
879
876
871
869
868
874
876
881
884
885
882
880
881
879
881
882
880
873
870
870
882
893
897
894
891
890
894
899
900
898
896
890
889
890
895
898
905
905
909
911
909
905
908
911
919
926
922
916
910
904
903
908
914
915
923
925
921
913
910
902
900
900
904
913
916
912
911
909
914
916
917
920
922
923
924
926
926
924
922
918
925
925
923
924
928
929
930
924
921
911
906
910
916
919
919
917
916
918
917
916
911
910
907
904
906
911
912
909
910
909
912
917
920
914
917
916
922
926
921
923
927
926
928
926
926
926
926
923
926
931
933
931
931
927
927
924
924
922
920
918
920
924
922
923
923
922
919
922
922
921
919
919
923
925
923
920
918
921
920
921
920
917
920
924
934
942
943
938
930
924
926
937
959
982
1006
1030
1059
1087
1116
1147
1172
1189
1198
1196
1181
1160
1132
1092
1042
1001
967
954
948
937
930
923
919
916
909
907
909
910
910
905
903
900
903
900
903
900
894
893
894
895
895
893
892
889
891
893
898
899
898
897
895
897
897
895
894
892
895
896
894
895
894
897
897
898
897
898
894
894
897
899
899
900
898
898
901
901
902
902
899
901
903
903
901
904
905
904
910
912
904
905
901
905
906
910
910
913
914
916
918
924
926
925
923
923
927
928
930
931
929
930
933
935
935
932
932
932
934
938
938
937
935
937
939
939
937
938
934
936
932
933
931
930
933
932
930
932
932
931
928
929
930
931
931
931
927
927
930
933
936
934
931
935
938
944
943
943
941
941
944
946
946
943
942
942
945
948
951
951
948
947
946
947
947
947
945
945
946
946
945
945
942
940
941
942
942
938
938
936
937
937
938
937
936
934
936
940
940
940
937
937
940
943
943
942
940
943
944
944
946
944
946
947
950
952
953
952
946
949
953
955
954
953
951
951
954
958
957
954
950
951
963
980
1008
1034
1057
1080
1109
1141
1163
1184
1189
1184
1171
1156
1128
1086
1040
996
969
958
955
948
942
940
940
938
938
934
929
930
929
930
929
928
927
927
927
928
925
925
925
926
926
927
925
925
918
918
918
917
918
916
915
916
915
917
919
916
916
914
916
917
914
912
916
914
915
914
912
913
912
911
918
920
921
918
918
920
925
929
929
927
926
922
927
931
932
933
935
936
939
940
943
943
946
946
951
954
951
952
955
955
959
958
961
961
957
953
956
960
964
963
960
956
960
962
962
962
955
954
957
954
954
954
954
955
959
957
961
962
960
957
959
962
961
959
960
961
961
963
965
962
962
962
968
971
968
970
971
970
973
970
960
961
963
969
973
974
972
967
965
962
966
971
971
967
963
960
961
965
966
964
962
963
963
966
969
966
966
964
965
968
965
966
967
968
970
973
974
973
973
971
974
972
972
973
974
973
972
972
971
973
969
970
971
975
971
970
970
971
972
976
977
975
973
971
974
977
976
972
969
967
976
988
1005
1031
1052
1074
1101
1138
1166
1193
1210
1219
1214
1205
1187
1161
1120
1072
1029
1008
997
993
979
971
971
969
966
962
958
956
956
959
957
955
950
953
955
953
953
946
946
945
949
949
947
946
942
939
942
945
944
943
939
940
943
946
949
946
946
948
948
951
955
952
950
950
950
955
956
955
957
957
959
962
961
958
960
961
965
969
967
964
960
961
964
969
969
967
962
968
969
975
975
975
978
977
981
984
986
981
978
981
988
987
987
984
984
986
987
992
989
988
990
992
993
994
996
994
990
991
996
996
997
993
994
995
999
1001
1002
1001
999
999
1001
999
998
996
997
995
998
998
999
999
996
996
996
1001
1000
997
993
994
997
997
994
992
991
993
998
999
997
995
993
997
997
998
998
999
995
995
997
1002
1002
1001
1000
999
1001
1004
1002
1001
1002
1002
1004
1006
1005
1002
1003
1004
1006
1009
1008
1002
999
1002
1001
1002
1005
1003
1001
1001
1004
1007
1006
1005
1000
997
1001
1000
998
1001
1000
1003
1003
1006
1007
1004
1002
1002
1003
1007
1005
1004
1004
1005
1006
1011
1011
1012
1011
1010
1014
1017
1016
1014
1013
1015
1014
1013
1011
1017
1026
1046
1073
1101
1129
1155
1183
1204
1224
1235
1233
1223
1203
1178
1143
1093
1056
1032
1020
1012
1003
999
997
998
994
992
992
992
989
989
986
985
984
990
987
985
983
984
986
989
987
984
979
981
987
985
983
980
979
976
979
980
981
980
978
978
981
985
984
982
978
980
980
979
978
979
980
981
983
983
986
985
985
987
991
990
990
988
991
994
995
998
1000
1001
998
1001
1003
1010
1011
1012
1010
1009
1011
1013
1013
1014
1011
1010
1010
1016
1017
1013
1011
1011
1012
1015
1016
1014
1011
1008
1010
1011
1011
1014
1014
1012
1013
1015
1014
1014
1014
1015
1018
1016
1015
1019
1015
1014
1014
1015
1017
1016
1015
1012
1012
1016
1017
1018
1017
1016
1018
1019
1018
1017
1017
1015
1015
1016
1016
1015
1013
1012
1013
1016
1015
1012
1010
1008
1011
1016
1016
1013
1009
1009
1011
1015
1016
1010
1009
1008
1010
1014
1015
1012
1013
1010
1009
1012
1012
1014
1013
1012
1014
1014
1011
1012
1011
1010
1011
1015
1013
1010
1009
1009
1008
1013
1013
1012
1011
1009
1010
1011
1009
1011
1006
1006
1006
1008
1007
1004
1003
1000
1005
1006
1004
1002
1001
998
1006
1009
1008
1006
1003
1001
1003
1007
1006
1003
1005
1004
1006
1008
1011
1010
1008
1004
1008
1007
1007
1009
1007
1008
1010
1013
1010
1008
1003
1007
1011
1012
1015
1014
1011
1012
1014
1018
1019
1014
1010
1011
1010
1015
1013
1012
1010
1012
1020
1036
1054
1074
1093
1116
1137
1158
1180
1202
1215
1224
1225
1219
1206
1183
1152
1106
1067
1037
1024
1016
1003
997
995
993
994
990
985
982
982
986
982
985
984
981
982
983
983
980
980
978
979
983
982
980
976
975
980
980
980
978
976
972
974
976
978
974
973
972
974
971
971
969
969
967
971
969
970
966
965
967
968
971
971
969
968
968
974
976
972
969
972
968
974
974
975
975
974
973
978
980
981
982
981
981
984
989
989
991
988
989
994
998
1000
996
992
993
995
1000
1004
1004
1001
1002
1004
1006
1006
1007
1005
1006
1008
1008
1007
1007
1002
1003
1005
1007
1007
1004
1000
1000
999
1006
1007
1007
1006
1004
1002
1004
1005
1006
1006
1003
1002
1004
1003
1001
1002
1001
1003
1007
1005
1007
1004
1003
1004
1008
1008
1009
1008
1008
1010
1009
1008
1007
1005
1000
1003
1007
1007
1005
1002
1005
1008
1009
1008
1004
1004
1003
1006
1006
1005
1004
1002
998
1001
1004
1004
1006
1002
1003
1003
1007
1003
1002
999
1000
1003
1006
1003
1004
1000
997
1000
1007
1008
1003
1004
1006
1007
1008
1009
1008
1009
1008
1013
1015
1015
1014
1014
1016
1017
1017
1017
1010
1009
1006
1007
1014
1022
1034
1048
1072
1093
1115
1134
1155
1181
1205
1228
1242
1248
1243
1233
1219
1205
1184
1153
1110
1068
1036
1023
1020
1013
1003
994
993
992
989
990
984
981
979
982
985
983
979
977
976
980
984
981
979
978
976
976
979
979
980
979
975
978
980
979
976
974
970
971
971
971
970
968
967
970
975
974
971
968
965
967
971
973
970
970
966
968
970
971
971
968
968
972
974
973
972
971
972
975
979
977
976
973
974
978
983
984
988
985
987
992
998
1001
1001
1000
1006
1009
1011
1013
1010
1014
1011
1014
1014
1015
1012
1012
1012
1012
1011
1013
1012
1013
1012
1017
1015
1019
1018
1017
1012
1012
1015
1011
1010
1008
1003
1005
1005
1010
1005
1007
1007
1009
1010
1011
1011
1007
1008
1010
1012
1012
1012
1011
1012
1017
1022
1021
1019
1016
1017
1019
1024
1022
1021
1018
1016
1019
1019
1019
1017
1012
1015
1014
1019
1016
1012
1010
1009
1014
1017
1017
1016
1010
1008
1010
1009
1009
1008
1009
1004
1008
1009
1013
1012
1010
1010
1011
1013
1014
1012
1010
1008
1013
1016
1015
1015
1012
1014
1015
1017
1016
1017
1017
1016
1017
1020
1021
1018
1016
1013
1017
1017
1016
1015
1012
1011
1014
1018
1018
1016
1012
1013
1010
1013
1015
1014
1012
1011
1011
1010
1010
1010
1009
1007
1012
1015
1014
1014
1013
1013
1016
1020
1021
1018
1015
1015
1019
1022
1021
1020
1020
1020
1022
1028
1027
1027
1026
1025
1027
1033
1046
1067
1089
1110
1136
1159
1185
1204
1227
1242
1246
1247
1233
1214
1185
1154
1113
1075
1046
1031
1023
1011
1004
998
997
997
993
989
989
990
990
991
988
985
985
987
988
984
981
986
986
988
988
986
985
984
987
987
987
989
986
987
985
986
991
989
987
983
985
986
986
987
985
982
983
985
984
983
981
982
982
986
984
981
981
983
984
986
987
984
983
981
983
985
988
987
987
986
987
991
992
991
989
991
995
996
998
997
997
997
1002
1006
1010
1007
1009
1008
1015
1020
1021
1020
1019
1018
1020
1022
1023
1019
1019
1020
1018
1015
1018
1019
1018
1018
1018
1020
1022
1019
1012
1014
1017
1019
1019
1017
1015
1014
1013
1017
1017
1015
1016
1011
1012
1015
1019
1017
1014
1013
1012
1014
1013
1012
1013
1011
1013
1014
1015
1012
1012
1012
1011
1016
1016
1012
1012
1011
1015
1017
1017
1012
1011
1010
1011
1015
1013
1010
1008
1010
1010
1014
1011
1013
1012
1011
1009
1013
1010
1009
1006
1006
1008
1008
1008
1007
1008
1007
1010
1012
1012
1011
1008
1008
1012
1014
1012
1009
1008
1008
1013
1014
1014
1015
1014
1013
1015
1017
1015
1012
1010
1010
1010
1014
1015
1014
1014
1014
1015
1015
1017
1014
1015
1012
1015
1016
1013
1011
1009
1017
1029
1048
1071
1091
1112
1131
1156
1185
1210
1231
1243
1244
1236
1224
1204
1176
1135
1085
1053
1035
1027
1017
1006
995
997
998
994
990
989
990
990
988
987
982
978
977
979
980
978
972
970
968
967
968
974
971
970
967
968
971
971
968
966
964
967
967
970
965
960
962
963
963
962
960
959
960
961
964
965
962
963
965
968
970
971
969
967
967
971
977
974
975
971
975
975
980
981
977
977
976
978
982
984
985
984
986
988
992
991
995
997
999
1000
1001
1002
1004
1003
1002
1005
1007
1005
1000
1001
1000
1002
1002
1002
1002
999
999
1003
1008
1006
1002
1003
1002
1008
1008
1008
1005
1000
1003
1005
1007
1008
1006
1000
1001
1003
1005
1002
1003
1003
999
1002
1001
1000
1002
999
999
1001
1004
1004
1004
1004
1007
1005
1006
1008
1003
1004
1002
1005
1007
1007
1003
1002
1001
1003
1009
1009
1006
1004
1006
1006
1009
1010
1010
1008
1008
1008
1008
1008
1006
1005
1007
1007
1011
1011
1008
1006
1006
1008
1011
1008
1005
1003
1000
1004
1005
1004
1000
996
995
996
1002
1004
997
996
991
997
1001
1004
1005
1005
1001
1003
1004
1007
1008
1007
1005
1007
1009
1007
1010
1008
1008
1011
1022
1036
1057
1077
1100
1126
1149
1177
1201
1222
1241
1251
1256
1246
1229
1208
1180
1141
1098
1063
1040
1029
1021
1010
1002
996
993
985
983
981
981
981
978
975
973
973
976
976
974
970
970
973
973
974
969
970
971
975
979
980
981
978
976
977
980
980
983
985
984
975
960
951
954
966
978
983
985
983
980
979
981
979
982
981
984
978
978
979
981
982
979
980
980
980
979
982
983
985
996
1004
1008
1001
985
970
970
984
1002
1008
995
983
982
992
1004
1009
1002
990
982
979
992
1006
1012
1015
1020
1025
1025
1022
1021
1018
1019
1020
1022
1021
1019
1015
1018
1025
1032
1035
1033
1029
1025
1026
1034
1045
1048
1034
1020
1008
1005
1003
997
996
1009
1028
1041
1032
1010
995
997
1005
1007
1005
1002
1007
1010
1015
1015
1016
1015
1014
1015
1015
1017
1023
1031
1037
1035
1022
1007
1000
1005
1022
1035
1044
1052
1050
1040
1025
1009
1002
1013
1028
1038
1040
1032
1025
1018
1018
1021
1030
1038
1039
1032
1025
1023
1028
1033
1025
1009
992
993
1009
1022
1025
1025
1024
1023
1026
1020
1004
992
993
1003
1020
1037
1041
1033
1016
997
990
1000
1020
1033
1035
1038
1036
1022
1008
1005
1017
1029
1028
1022
1018
1025
1039
1052
1052
1035
1012
1005
1010
1019
1025
1032
1041
1047
1042
1029
1010
1007
1014
1025
1030
1028
1024
1024
1028
1029
1020
1013
1011
1015
1024
1024
1011
999
992
1001
1015
1023
1023
1011
1005
1014
1045
1079
1106
1122
1138
1160
1191
1216
1231
1234
1234
1225
1216
1198
1164
1112
1064
1043
1045
1047
1039
1029
1017
1015
1015
1010
996
983
983
992
1006
1011
1007
999
989
986
987
991
995
994
998
993
977
962
962
980
988
986
979
978
980
980
980
977
978
976
975
975
980
983
981
977
978
985
988
985
974
971
985
996
997
984
984
991
997
995
994
991
992
996
998
999
999
995
992
993
992
990
985
986
1000
1008
1005
1000
998
1001
1003
1000
1005
1008
1014
1021
1029
1024
1009
993
987
1002
1017
1026
1022
1009
1003
1005
1013
1018
1016
1013
1013
1018
1021
1022
1014
1006
1003
1009
1025
1032
1030
1018
1009
997
1000
1016
1026
1023
1013
1010
1016
1019
1018
1010
1009
1006
995
989
1001
1015
1015
1002
1000
1009
1017
1011
992
984
998
1017
1023
1019
1010
1005
998
992
993
1000
1010
1020
1021
1017
1008
998
999
1010
1018
1027
1025
1013
998
994
1002
1016
1028
1029
1026
1015
997
991
1001
1018
1034
1041
1022
992
975
984
1010
1028
1034
1027
1024
1022
1010
989
971
977
998
1010
1015
1011
1014
1006
996
984
988
1004
1015
1020
1018
1014
1005
995
994
998
1003
1009
1010
1007
1008
1011
1012
1010
1005
1010
1015
1008
995
993
1003
1017
1028
1029
1011
990
974
980
997
1020
1040
1053
1068
1087
1114
1135
1145
1153
1173
1203
1240
1257
1256
1238
1213
1185
1153
1112
1063
1023
1000
988
995
1006
1003
995
990
989
984
972
965
963
969
980
983
979
978
983
982
976
967
959
960
965
967
968
967
968
966
965
960
958
958
962
961
962
962
962
964
964
965
964
959
954
946
942
953
967
967
968
969
973
969
962
953
953
960
966
973
976
982
984
982
971
961
964
976
983
986
985
987
990
992
991
989
989
986
982
979
984
995
1009
1013
1010
1002
996
990
987
994
997
1004
1005
1004
1005
1005
1001
991
986
991
1000
1005
1005
1000
998
1000
1002
1011
1013
995
972
973
996
1015
1016
1007
1000
1005
1003
995
989
995
1005
1013
1016
1012
1009
1008
1003
992
984
983
987
996
1009
1019
1018
1016
1010
1006
1002
1004
1000
994
990
991
1001
1011
1014
1012
1003
996
988
988
1000
1010
1011
1007
1003
1002
1005
1003
1006
1007
1007
1008
1012
1011
1011
1017
1018
1003
981
980
1002
1023
1029
1025
1020
1018
1007
991
983
986
995
1001
1004
1003
1005
1008
1001
992
986
988
1000
1010
1014
1009
1004
1003
1003
1000
995
1000
1007
1011
1011
1008
1005
1002
1002
1001
1002
1007
1006
1011
1011
1008
1004
995
1003
1017
1023
1023
1017
1015
1014
1008
1001
992
990
1001
1007
1012
1012
1004
999
998
1003
1006
1003
999
999
1004
1008
1011
1011
1004
993
984
988
1005
1013
1013
1011
1011
1012
1014
1016
1013
1003
997
1002
1012
1021
1025
1030
1036
1034
1023
1004
995
1006
1017
1028
1030
1029
1026
1029
1026
1023
1022
1020
1022
1041
1067
1090
1114
1135
1157
1184
1207
1213
1197
1185
1188
1193
1184
1154
1106
1058
1031
1025
1017
1004
1000
1005
1009
1004
998
996
998
998
993
985
982
985
990
990
990
993
992
994
989
