981
979
979
978
980
983
984
983
981
981
984
986
985
982
982
981
985
985
984
983
979
979
979
981
979
980
979
981
982
986
984
981
979
978
981
985
983
982
982
983
986
989
987
986
983
983
988
990
988
987
984
983
986
984
986
987
986
983
985
987
985
982
982
982
984
985
985
983
981
981
982
986
985
982
976
974
977
982
981
980
981
978
981
983
981
979
978
978
980
983
982
981
982
980
984
987
989
986
984
985
988
988
987
986
983
980
985
986
985
984
982
984
988
988
984
984
984
984
986
989
986
986
984
982
987
990
989
986
983
984
984
986
986
984
981
981
986
995
1010
1033
1057
1077
1104
1130
1156
1176
1199
1217
1230
1231
1220
1206
1188
1164
1127
1081
1042
1013
1000
992
981
974
967
961
960
961
960
958
957
952
951
951
950
950
951
951
947
946
945
947
948
946
944
943
943
944
946
942
941
939
938
938
942
942
939
939
939
942
942
942
941
941
944
944
944
942
944
944
947
950
949
946
947
949
953
956
957
957
951
952
953
955
954
954
952
949
949
950
949
951
953
953
955
958
961
956
960
960
964
968
967
969
966
968
970
972
973
973
972
970
973
978
979
979
978
978
978
980
983
982
979
979
981
984
986
984
983
980
984
988
988
987
986
987
986
988
987
985
985
985
984
984
984
982
981
981
982
985
986
985
983
982
985
986
986
984
982
980
984
986
985
982
980
975
979
979
982
978
975
975
979
983
983
977
978
977
981
983
985
983
981
980
982
985
985
981
983
984
982
986
988
987
984
984
986
988
988
987
987
984
984
985
983
979
978
976
977
980
980
979
980
980
981
983
987
981
982
982
983
982
985
983
982
981
979
986
984
982
981
980
984
985
986
984
981
982
984
986
982
982
979
981
985
986
988
987
987
986
987
989
990
987
987
986
987
988
990
987
988
985
985
985
985
979
974
975
978
980
982
981
981
979
984
986
986
985
983
982
984
986
986
984
982
981
981
983
984
984
983
982
985
987
986
985
984
979
982
986
987
984
984
984
987
990
991
990
988
988
991
995
993
992
992
990
992
994
993
992
988
986
983
987
983
980
975
977
980
983
981
983
981
980
981
985
988
985
985
984
985
988
988
986
982
983
983
987
990
986
984
985
986
990
990
988
986
986
987
987
991
987
987
988
990
992
992
992
990
992
991
994
995
995
993
992
994
995
996
994
990
989
990
990
989
985
981
984
984
988
991
990
987
986
990
990
993
990
995
1005
1023
1046
1063
1079
1097
1115
1138
1165
1186
1196
1199
1196
1191
1183
1169
1141
1102
1058
1022
1003
1000
990
982
973
973
976
977
976
969
968
968
971
968
965
964
962
958
962
961
957
952
949
951
951
953
950
949
948
951
954
951
954
950
950
952
950
952
950
948
946
946
947
950
952
952
951
952
954
953
953
951
951
952
955
958
957
959
955
963
965
966
966
964
964
968
971
970
970
969
967
967
969
970
968
965
964
967
969
972
970
971
972
975
978
982
982
982
982
984
988
988
987
983
984
986
987
992
990
988
986
990
992
990
989
987
987
989
993
993
991
988
987
988
992
992
990
987
987
988
990
992
989
987
985
984
987
987
986
983
983
984
987
987
986
983
983
984
987
986
985
983
982
982
985
984
985
983
982
985
988
988
985
986
984
988
989
989
986
986
983
986
988
988
988
988
988
989
991
989
988
985
985
985
984
986
985
982
983
981
983
982
981
976
974
978
980
983
980
976
975
977
977
979
979
976
977
978
979
980
978
976
977
979
981
983
980
979
981
982
985
987
983
984
984
984
989
990
988
988
987
990
989
990
990
989
988
989
993
993
993
991
989
991
994
993
988
984
986
984
989
998
1011
1028
1051
1078
1104
1125
1149
1172
1196
1213
1217
1215
1202
1186
1165
1136
1095
1047
1019
999
992
983
978
970
968
966
962
964
963
963
960
957
960
961
961
962
961
957
956
958
959
959
955
954
951
954
954
954
950
946
945
945
948
949
948
945
946
946
949
948
948
946
947
947
950
949
946
944
945
947
945
946
947
946
946
949
953
954
951
953
954
957
959
956
957
955
958
962
961
964
963
964
966
969
972
975
974
973
972
976
978
980
976
973
975
974
977
980
979
977
977
978
979
979
975
978
974
972
978
977
975
972
970
974
976
976
978
974
974
974
977
980
980
978
978
981
983
985
984
983
985
985
987
988
986
985
984
986
987
982
977
976
974
976
976
978
974
971
968
972
973
976
973
971
969
971
974
973
971
967
969
972
972
973
971
970
969
969
970
969
972
971
972
973
974
977
976
973
976
976
977
979
980
977
976
975
977
979
975
971
970
971
971
970
967
969
968
970
973
972
970
969
967
969
970
970
969
966
966
970
974
973
974
968
969
970
973
976
975
969
971
973
977
978
976
977
977
979
980
980
979
978
978
979
980
980
977
976
976
977
979
975
975
975
972
974
978
978
976
974
974
979
979
980
975
972
976
988
1010
1033
1057
1079
1103
1129
1158
1184
1201
1209
1212
1204
1192
1175
1146
1101
1055
1017
999
990
982
975
971
970
972
970
962
958
956
960
961
958
956
950
951
948
952
948
946
943
944
945
944
945
944
941
942
940
942
942
939
934
935
937
938
939
938
937
939
940
942
945
942
943
942
945
947
945
946
944
945
947
950
953
949
950
953
955
956
956
956
955
953
956
957
959
958
955
954
957
960
963
965
964
964
967
971
972
973
970
971
974
976
977
976
975
974
976
981
983
982
979
979
982
985
983
978
979
982
984
987
987
987
987
988
988
988
992
991
989
988
989
989
989
986
984
982
982
983
983
984
982
982
985
986
984
986
980
981
979
983
981
978
978
977
979
983
986
981
982
979
981
982
985
984
982
982
982
985
985
984
981
981
984
985
986
984
980
979
982
984
984
982
979
978
980
977
974
976
974
975
977
978
979
978
972
972
975
978
977
973
973
973
976
977
980
978
979
978
980
983
981
981
980
980
982
984
987
985
985
985
988
991
990
988
990
989
989
993
992
992
987
987
990
991
991
985
982
980
983
982
983
982
980
978
982
982
981
982
980
978
979
981
979
976
976
978
995
1020
1043
1067
1091
1110
1139
1165
1191
1207
1216
1213
1207
1196
1184
1156
1113
1064
1024
1008
1000
989
979
972
971
972
972
964
963
960
960
960
959
955
951
951
951
952
948
947
944
945
946
946
945
942
939
939
939
940
939
939
938
940
940
942
940
941
941
942
942
943
942
941
940
940
943
944
946
944
944
945
951
951
953
952
951
950
951
956
958
957
953
955
957
959
958
956
951
955
955
960
961
961
960
960
964
967
969
970
971
970
973
976
973
976
973
975
979
980
980
978
978
974
978
983
981
980
977
977
980
982
983
981
981
980
980
982
983
980
979
979
981
978
980
979
973
974
972
977
977
977
974
974
977
978
979
977
975
971
974
976
976
975
974
974
977
979
979
975
974
974
977
979
979
979
977
977
978
979
983
983
980
981
983
983
983
981
980
981
982
983
983
982
975
975
977
977
980
979
976
975
976
976
980
980
977
975
973
975
978
984
997
1023
1053
1085
1114
1138
1169
1196
1220
1232
1231
1218
1199
1178
1145
1096
1044
1009
994
987
978
973
970
967
964
961
961
961
963
959
955
955
953
954
954
950
946
944
945
948
947
945
941
940
942
942
942
938
935
934
934
937
938
937
936
934
933
934
935
936
935
934
936
940
942
945
946
946
951
953
952
953
951
951
954
954
959
959
955
956
958
960
960
961
960
958
962
967
971
972
968
972
972
974
978
976
974
974
976
975
976
978
975
971
975
975
979
976
973
968
974
977
976
974
973
973
976
975
976
974
973
976
977
977
982
982
981
979
983
987
987
987
984
982
988
989
989
989
982
984
984
985
985
982
981
983
985
985
983
981
982
978
980
982
981
976
977
976
977
977
978
977
975
975
976
977
976
974
971
969
971
974
976
973
972
974
974
975
977
978
978
976
981
985
984
982
980
980
986
987
988
987
983
980
982
984
985
984
982
981
984
983
985
984
981
979
982
983
981
980
978
974
977
981
981
980
978
977
978
979
979
976
976
974
976
977
980
975
976
973
975
980
980
983
984
983
987
985
989
990
993
1005
1027
1053
1082
1104
1123
1147
1172
1199
1215
1220
1215
1203
1191
1175
1152
1112
1066
1027
1007
999
995
984
971
964
965
967
966
960
954
954
954
953
951
950
950
946
948
949
947
943
943
941
943
947
944
945
942
941
944
948
947
944
943
944
946
948
945
946
943
944
948
949
950
950
946
945
948
949
949
949
948
947
950
953
953
952
951
949
952
953
956
956
952
952
952
951
955
955
950
952
954
957
961
959
962
961
957
964
966
964
963
962
965
969
971
974
972
971
973
981
981
983
982
983
985
986
986
983
984
984
985
988
989
986
985
983
984
985
987
987
985
982
983
985
987
983
982
981
982
985
986
984
979
977
977
977
982
978
976
979
978
983
981
982
977
977
980
979
985
982
979
974
975
981
985
985
985
982
985
987
989
987
986
986
989
990
994
994
988
986
990
992
993
990
988
986
985
987
989
987
985
984
984
985
985
986
983
981
981
981
983
981
979
980
977
978
984
981
979
977
979
981
981
981
976
979
983
982
981
980
978
976
978
981
983
983
982
979
984
986
987
985
985
984
986
986
989
988
986
982
985
986
988
984
983
980
982
985
986
984
982
982
982
985
988
986
982
981
979
981
987
1001
1016
1040
1069
1093
1121
1144
1168
1194
1215
1228
1223
1211
1198
1176
1146
1107
1062
1023
1001
993
985
978
973
970
967
964
962
962
961
960
956
953
954
955
951
950
949
946
944
948
949
948
946
944
944
946
947
947
945
943
943
943
943
943
938
937
941
942
944
939
939
940
941
943
946
944
942
943
945
947
948
948
946
947
950
952
958
956
956
954
956
956
953
954
953
954
956
957
955
956
955
951
952
957
959
960
961
961
963
969
970
970
970
968
973
976
976
973
972
973
975
975
976
977
975
974
975
978
978
976
975
975
975
980
983
981
977
977
975
981
985
984
981
982
983
988
989
987
984
983
983
986
986
984
984
984
981
983
983
981
980
979
979
981
983
982
979
977
979
980
980
981
977
973
974
976
977
974
974
973
972
974
975
976
970
971
971
974
977
975
973
973
974
979
981
981
980
976
982
984
990
988
987
986
985
985
985
987
983
979
984
983
986
985
979
979
977
977
979
980
978
974
976
979
980
977
978
975
976
978
978
978
974
973
975
974
974
976
977
976
975
978
980
979
978
977
978
982
983
984
978
978
979
983
984
986
985
985
988
990
991
991
986
987
988
990
991
990
990
986
989
988
991
989
986
987
986
988
988
988
985
981
983
988
989
988
983
982
983
986
995
1006
1025
1046
1069
1092
1117
1136
1159
1185
1208
1217
1217
1210
1196
1185
1167
1136
1090
1044
1009
996
993
986
977
973
970
969
966
966
964
962
960
957
955
958
958
956
954
952
953
953
955
952
948
949
951
951
951
951
949
947
947
951
952
950
946
944
943
947
946
947
945
943
944
949
951
950
948
946
948
952
952
954
952
951
954
957
958
961
959
961
962
964
966
965
962
961
962
965
965
961
964
961
961
964
967
968
967
969
974
978
981
981
978
982
982
983
986
986
984
980
983
984
985
982
983
983
985
987
988
987
987
983
986
989
991
989
989
986
988
992
991
994
991
991
994
995
995
994
990
992
990
993
991
989
989
988
986
984
986
987
986
982
985
987
988
988
987
987
987
990
992
989
986
987
986
984
984
985
986
984
986
988
992
989
986
986
985
990
990
989
988
985
990
991
993
994
991
992
994
995
995
995
991
989
991
989
990
989
986
985
985
985
987
986
986
985
985
988
988
989
986
984
987
988
987
985
983
982
983
985
987
987
983
984
986
986
986
985
986
984
986
987
988
988
987
984
986
989
987
990
992
989
991
994
993
995
994
991
994
996
997
995
993
989
987
988
994
1004
1024
1048
1076
1100
1125
1149
1172
1195
1216
1231
1232
1226
1211
1192
1170
1136
1091
1045
1018
1005
1000
991
981
978
974
974
973
973
971
968
965
966
964
966
965
964
964
963
961
964
967
965
963
961
962
963
963
960
958
955
954
951
954
951
950
947
952
951
955
956
954
952
955
957
957
958
956
954
954
954
955
955
955
954
957
957
960
959
960
958
958
961
961
963
959
959
961
964
968
967
969
969
973
976
977
979
978
978
982
986
986
987
986
983
984
988
990
991
989
990
990
991
993
993
991
991
991
993
992
993
991
989
989
992
993
992
990
987
986
989
991
991
991
988
989
992
991
991
989
985
987
991
992
993
992
988
993
990
995
995
994
991
990
995
997
993
992
990
989
991
992
990
986
987
989
988
993
991
991
988
991
990
993
993
988
988
989
991
994
994
991
991
991
990
993
994
994
990
989
992
992
991
990
988
989
991
992
993
990
989
992
993
994
996
994
994
995
996
998
996
994
992
993
994
993
994
991
988
989
990
992
989
991
987
990
993
993
991
989
986
994
1010
1033
1056
1080
1104
1127
1150
1179
1201
1221
1231
1232
1227
1216
1201
1177
1142
1092
1049
1024
1015
1005
997
987
984
987
985
978
976
975
974
975
975
972
969
968
970
970
968
966
966
962
962
963
960
958
953
954
952
956
957
952
952
953
954
954
953
950
948
949
952
953
952
952
951
951
953
954
958
956
955
956
958
958
957
956
960
958
960
962
964
962
962
964
966
969
969
969
968
970
972
973
975
974
973
977
975
979
978
980
977
978
978
984
984
982
982
982
983
987
984
984
985
983
988
987
987
986
983
986
988
990
990
986
987
988
990
991
992
990
989
986
992
993
993
989
991
990
990
993
993
991
992
993
993
996
996
992
990
996
997
998
998
997
996
996
998
997
993
989
988
987
991
990
990
988
986
986
987
988
986
986
985
984
986
987
986
985
984
984
987
988
989
987
988
984
986
987
991
989
988
983
983
989
988
988
988
986
987
991
990
987
984
986
986
988
989
988
984
984
985
985
982
979
979
976
978
981
981
980
975
975
980
981
978
977
977
976
977
979
979
978
978
980
982
986
986
982
983
981
985
990
989
986
985
987
989
990
989
984
986
986
989
992
992
990
986
987
990
994
995
989
986
982
984
987
997
1011
1034
1062
1089
1113
1140
1166
1188
1208
1217
1211
1193
1178
1155
1123
1077
1034
1005
994
987
979
973
970
969
967
964
961
961
963
961
958
958
956
957
960
960
957
955
954
956
955
956
955
950
950
950
952
950
945
943
940
941
940
939
937
937
937
939
944
942
940
934
940
943
944
941
939
939
941
944
949
947
947
948
947
949
952
953
954
952
952
956
956
957
953
955
955
959
964
967
965
966
968
971
975
973
972
972
972
974
979
975
975
973
973
978
978
975
973
972
970
974
974
973
972
968
968
970
972
971
969
971
972
975
978
980
978
974
975
978
982
980
979
977
977
978
979
980
976
978
979
980
986
986
983
981
981
981
986
983
981
981
979
976
978
979
976
973
975
977
980
977
974
972
970
972
974
973
971
969
970
971
973
972
972
972
974
977
980
980
981
979
981
985
985
986
983
981
982
984
987
987
987
985
986
985
988
987
986
984
985
987
988
986
983
983
981
982
982
981
980
977
978
979
982
983
980
979
977
979
975
974
976
986
1006
1033
1062
1087
1111
1140
1171
1202
1222
1225
1216
1202
1186
1162
1121
1071
1025
1003
994
989
983
975
973
970
970
968
968
965
961
958
958
958
958
955
951
948
947
948
947
948
945
943
943
945
944
944
943
943
943
943
943
941
939
939
940
943
946
946
949
946
947
950
953
954
953
952
955
956
959
958
958
957
958
961
964
963
960
960
961
966
967
966
963
964
965
968
970
973
974
974
973
977
982
982
980
978
978
980
980
983
981
980
984
984
987
986
987
984
984
985
987
986
987
984
984
989
993
990
986
988
989
991
992
988
986
985
983
987
990
987
985
984
982
982
984
985
984
982
984
986
986
986
982
981
983
986
988
985
983
982
983
987
991
991
990
989
989
992
995
996
994
990
993
992
997
996
994
994
995
995
995
996
994
993
993
995
996
997
995
990
990
991
995
993
988
987
988
993
994
993
990
990
990
990
992
993
991
985
986
989
992
988
990
989
990
992
994
994
991
991
990
994
994
994
993
990
990
993
995
997
996
996
997
1002
1005
1004
1002
999
1001
997
1008
1018
1037
1061
1089
1116
1140
1166
1190
1213
1228
1232
1225
1212
1192
1164
1121
1073
1036
1018
1004
993
984
977
978
973
972
969
968
968
969
966
965
963
962
965
967
965
963
959
962
961
966
967
965
962
963
965
968
967
964
962
962
965
967
963
963
959
960
961
963
963
963
960
961
962
962
967
965
964
964
965
966
966
965
963
965
966
