991
990
991
988
990
991
990
990
990
992
990
992
994
994
993
991
992
991
991
995
992
989
988
991
994
991
992
992
988
988
989
988
987
986
981
983
984
985
983
981
979
979
986
987
987
985
985
986
984
987
984
987
986
987
988
988
988
987
987
989
991
995
995
993
991
991
992
996
995
993
991
994
995
993
996
994
992
992
992
995
992
991
988
992
993
997
992
989
991
998
1014
1031
1052
1073
1093
1115
1134
1161
1183
1203
1217
1226
1227
1223
1210
1193
1175
1149
1111
1067
1030
1010
999
993
987
978
977
972
971
970
970
969
969
968
965
965
965
967
964
961
960
961
964
961
961
959
953
953
954
957
955
953
952
951
954
952
953
952
952
952
952
957
955
952
951
953
954
954
951
949
945
945
950
951
950
948
948
946
951
951
952
952
951
955
957
955
952
953
955
956
961
960
959
961
961
962
963
964
963
965
967
967
969
971
970
968
970
972
977
977
979
978
975
979
981
985
986
986
984
983
985
986
988
985
986
987
986
987
989
985
985
983
988
989
988
985
989
990
992
993
992
992
989
992
994
994
994
995
994
994
995
997
996
995
995
996
997
1000
1000
994
993
996
998
998
998
993
990
989
990
992
992
992
989
990
992
994
991
987
984
989
991
989
986
983
982
978
986
989
988
984
986
985
988
992
993
990
986
989
990
992
990
988
989
990
993
994
994
993
993
995
996
996
996
995
994
991
996
997
994
992
991
989
992
992
990
985
985
985
988
987
987
984
982
985
987
988
987
985
982
984
984
987
982
982
981
984
986
987
989
990
986
989
991
992
994
991
989
989
992
997
995
993
993
995
999
999
1000
998
998
1000
1002
1002
1002
999
997
994
997
997
994
993
988
989
991
995
994
993
990
990
991
992
991
988
989
989
999
1013
1033
1054
1076
1099
1124
1148
1172
1196
1214
1224
1225
1216
1204
1187
1163
1123
1075
1036
1017
1008
999
991
986
985
986
984
979
976
975
975
973
968
967
966
969
970
968
964
960
960
963
964
962
960
957
957
961
962
961
958
958
957
961
962
961
958
957
958
960
960
957
954
954
955
957
958
957
958
956
956
958
964
963
960
958
957
961
965
967
964
964
965
964
968
969
968
967
970
971
972
973
972
972
972
974
973
976
974
973
977
981
984
985
985
987
988
990
993
989
989
990
990
991
992
992
989
985
986
991
995
994
993
990
991
992
995
996
990
989
993
993
995
994
993
990
991
993
994
996
997
994
996
998
999
997
993
994
995
996
998
998
993
990
994
993
1000
999
998
995
993
995
996
995
994
993
991
994
994
992
992
987
990
992
989
991
990
992
992
995
997
995
993
991
994
994
997
998
997
993
997
1000
1000
1001
999
995
996
997
1002
999
999
996
998
1000
999
997
995
990
992
992
995
992
992
988
990
993
993
992
989
986
987
986
991
990
989
985
986
990
992
992
989
988
987
992
996
997
995
992
994
995
999
1000
997
999
999
1000
1000
1000
1001
1000
1000
1001
1004
1000
999
997
996
1001
1001
998
995
992
989
996
997
995
992
994
994
998
997
997
990
989
989
991
992
993
992
988
992
994
996
997
997
992
994
996
999
996
995
999
1001
1001
1004
1004
1003
1002
1003
1006
1007
1005
1000
1000
1000
1003
1003
999
999
996
996
996
1001
999
997
993
993
995
998
1000
993
994
992
996
998
997
996
993
995
996
998
999
997
995
994
996
999
1000
998
995
996
997
1001
1002
1002
1003
1003
1006
1009
1009
1004
1004
1008
1010
1011
1009
1011
1018
1035
1061
1081
1100
1115
1131
1155
1180
1200
1212
1214
1205
1195
1187
1171
1137
1090
1044
1017
1008
1004
997
990
983
981
983
985
980
977
975
976
978
978
975
972
968
971
971
974
974
973
971
970
972
974
975
972
970
969
971
972
973
967
967
963
964
963
962
961
958
963
964
965
963
961
961
962
965
967
966
962
962
962
965
967
968
967
966
965
968
971
970
969
969
968
967
975
975
972
972
973
974
976
977
977
978
980
982
987
988
987
986
987
990
996
995
994
992
992
995
998
995
995
996
996
999
1002
1003
1000
998
999
1000
1003
1001
1001
996
993
996
1000
997
997
998
1000
1000
1003
1002
1002
1002
1003
1004
1005
1004
1002
1002
1004
1006
1007
1009
1008
1007
1008
1011
1013
1012
1007
1001
1000
1005
1006
1007
1003
1002
1000
1000
1004
1002
998
998
997
1000
1002
997
996
993
992
995
997
995
994
989
991
995
995
995
993
992
995
996
997
996
994
994
995
998
999
1000
999
998
999
1001
1004
1003
1000
1000
996
1001
1003
1004
1001
997
996
997
1000
999
995
995
996
999
1000
1002
1001
1000
1001
1002
1001
995
994
994
995
996
997
995
993
992
992
995
995
996
995
993
994
997
998
998
997
995
996
999
1002
1000
999
998
998
999
999
998
999
999
997
1001
999
1000
995
994
992
993
996
996
995
994
996
998
998
998
995
991
994
997
999
998
995
993
992
993
995
996
996
995
994
995
998
996
997
996
996
996
998
997
998
998
999
999
1006
1004
1005
1001
1004
1007
1006
1003
1005
1009
1022
1045
1068
1090
1107
1124
1144
1170
1195
1210
1219
1215
1206
1195
1184
1162
1121
1073
1033
1012
1003
997
985
977
977
978
979
976
975
971
969
971
970
969
968
967
963
967
970
971
967
964
965
968
970
971
969
968
965
969
971
971
969
966
965
968
967
967
964
963
962
963
965
966
963
960
959
964
966
964
957
956
954
957
958
954
952
952
951
957
961
961
961
960
960
964
968
968
966
965
966
968
971
970
971
972
975
979
983
983
983
982
987
990
993
991
992
989
988
991
993
995
993
991
993
994
994
993
994
991
991
994
996
994
987
984
982
983
985
986
985
979
981
984
989
990
987
985
985
989
990
992
992
989
992
995
997
998
998
997
995
1000
1000
997
998
995
992
992
996
995
993
990
991
994
993
991
989
988
989
989
993
990
984
982
982
982
983
986
981
979
980
985
988
989
990
986
986
988
989
991
991
985
986
989
992
994
992
989
988
992
993
994
991
986
988
992
994
991
988
986
987
988
990
991
990
987
989
989
989
988
988
986
986
987
991
988
984
983
982
984
987
987
985
984
984
986
989
989
989
985
987
990
990
993
992
992
993
994
995
996
992
992
994
994
996
997
991
989
991
992
994
991
987
987
985
992
995
995
992
987
989
989
992
989
989
997
1012
1034
1062
1088
1107
1129
1158
1187
1212
1224
1228
1223
1210
1200
1185
1154
1107
1055
1024
1012
1009
1000
989
981
979
983
983
980
974
971
971
969
972
973
968
965
964
965
965
963
962
956
956
956
961
961
955
957
957
960
962
963
958
957
952
950
954
952
950
947
947
947
950
952
954
949
951
954
956
960
959
958
957
960
964
964
964
962
966
969
970
972
970
972
971
971
976
974
973
971
969
972
973
973
973
972
971
976
980
983
985
983
985
988
991
990
986
985
981
981
984
981
982
982
982
985
987
987
985
985
983
989
991
990
988
988
990
993
996
995
993
991
992
998
1000
1001
998
996
995
995
998
998
994
992
990
990
995
996
993
994
994
995
999
999
997
995
992
992
993
993
989
989
986
988
993
990
987
987
989
990
993
992
991
988
985
988
991
994
991
988
989
992
997
997
994
994
995
996
997
996
991
993
994
996
997
995
991
991
985
988
992
990
990
989
988
992
996
995
994
990
987
990
991
990
987
984
984
987
991
992
991
993
991
992
994
993
991
989
989
993
996
994
995
992
992
994
997
997
994
992
993
994
998
1000
999
995
993
996
995
998
998
994
994
996
999
1000
999
998
995
999
1007
1021
1043
1071
1104
1134
1167
1198
1226
1240
1233
1216
1194
1155
1095
1042
1014
1005
1000
996
988
985
985
984
985
980
978
974
973
975
976
973
971
969
967
968
968
968
963
960
955
960
962
960
961
959
956
958
958
957
956
956
956
955
961
959
958
957
957
961
963
964
963
961
961
963
967
965
965
963
962
964
970
967
969
970
969
970
977
977
973
972
970
974
977
978
975
974
974
978
982
979
980
976
975
977
980
981
983
981
978
983
985
985
986
984
984
986
989
989
987
985
983
989
990
990
989
988
991
992
998
997
996
996
997
999
1001
1001
996
998
1002
1004
1006
1005
1004
1003
1002
1002
1007
1007
1004
1001
1001
1004
1006
1006
1003
1002
996
1000
1001
999
996
991
988
992
990
993
993
990
989
989
991
991
989
987
989
992
994
996
994
994
993
995
1001
1001
1000
1000
999
1001
1005
1007
1004
1001
999
998
1003
1001
1000
1000
998
1003
1005
1004
1003
1002
998
1002
1007
1005
1003
998
996
998
998
998
994
992
992
992
995
994
989
989
989
992
989
987
986
988
1001
1025
1055
1082
1105
1131
1159
1191
1220
1239
1250
1249
1239
1224
1211
1185
1142
1093
1046
1023
1017
1012
1000
991
986
986
986
982
977
974
970
969
971
971
970
967
966
967
968
967
962
958
953
959
961
962
960
958
956
956
957
955
954
952
946
948
949
947
944
944
947
952
956
956
953
954
952
954
957
956
955
956
952
956
962
961
961
960
960
960
964
965
960
962
961
964
965
964
960
962
958
962
963
965
965
965
967
971
978
979
977
979
978
982
985
985
986
987
986
987
989
990
987
985
986
987
990
990
989
987
986
992
995
996
992
991
990
996
998
997
995
995
993
997
998
1000
996
998
997
999
1001
1000
997
996
996
999
999
998
997
991
991
996
997
997
997
995
994
997
999
997
996
994
994
992
995
996
994
993
991
991
992
996
993
991
987
992
994
993
989
988
989
991
994
992
989
987
986
990
992
995
994
996
994
994
996
993
991
990
988
990
994
992
990
986
987
987
989
990
987
984
985
987
989
993
991
988
990
992
991
993
991
990
989
988
990
990
990
988
987
990
994
993
990
991
990
994
996
997
996
996
995
996
1000
1000
998
997
998
1002
1004
1004
1002
1001
999
1000
1002
998
995
996
1002
1018
1043
1067
1092
1112
1135
1162
1188
1211
1227
1232
1232
1222
1206
1190
1161
1116
1068
1030
1014
1008
997
985
977
975
975
974
971
966
966
966
971
969
966
963
962
964
964
965
964
961
962
964
966
965
966
963
962
963
962
963
960
957
956
956
958
955
952
952
950
953
955
952
954
955
956
961
960
961
960
956
954
958
960
959
960
956
955
955
958
959
957
957
957
961
962
964
963
963
963
967
970
971
970
966
969
971
978
982
981
983
987
989
994
993
993
993
992
995
996
997
995
992
991
993
994
994
992
993
991
995
1000
996
998
992
993
995
998
995
994
988
986
987
987
986
987
984
982
986
988
990
990
985
988
989
993
992
991
990
988
992
995
996
993
993
995
996
1001
997
998
995
993
995
997
999
997
996
991
996
994
996
993
993
992
994
996
998
996
994
992
994
995
997
996
991
991
992
993
993
988
987
985
985
992
992
992
990
990
990
993
994
991
988
990
991
990
991
992
991
993
995
997
995
995
992
992
995
998
997
994
993
994
994
995
993
988
984
982
981
984
984
985
986
989
992
993
994
992
991
988
991
993
990
990
984
983
987
989
991
989
987
984
987
990
989
990
988
985
988
992
994
992
990
989
993
997
996
995
993
994
997
1000
999
996
993
991
996
1000
999
996
993
993
991
992
992
991
988
988
989
990
989
992
992
989
994
994
994
993
990
989
990
995
995
993
991
992
993
997
999
995
990
992
1002
1022
1045
1067
1087
1109
1134
1163
1188
1212
1226
1234
1231
1222
1209
1184
1151
1102
1059
1030
1019
1010
997
988
981
980
978
975
969
967
969
969
970
969
967
962
962
963
965
963
962
958
958
959
961
957
953
952
950
952
954
949
948
946
948
950
952
951
948
948
950
952
950
951
949
949
952
953
957
957
955
955
957
960
962
963
959
959
959
963
964
963
960
962
962
963
960
962
961
962
965
969
968
967
965
965
968
970
974
974
971
970
973
978
978
977
972
970
974
977
980
979
978
978
982
984
983
985
984
984
986
989
989
990
990
988
991
996
996
995
997
995
997
1000
1000
998
997
996
999
1000
999
1000
995
994
995
994
996
995
992
991
992
996
998
997
995
993
991
996
996
994
991
987
990
991
991
990
986
984
986
989
991
993
991
991
989
990
992
993
990
992
991
991
992
991
993
990
990
995
997
996
995
996
998
999
999
999
998
997
998
1000
999
999
996
994
995
994
994
991
988
987
989
994
995
995
994
992
992
995
997
996
993
992
990
991
992
989
988
988
990
992
994
989
990
990
992
992
994
992
990
992
994
993
993
991
990
989
993
998
998
996
994
993
996
999
1000
999
999
997
997
998
998
997
992
994
1004
1020
1036
1056
1076
1100
1122
1150
1174
1198
1218
1231
1240
1235
1229
1213
1197
1173
1138
1092
1052
1022
1008
999
992
983
977
973
973
969
970
971
969
967
963
959
963
964
963
962
958
958
957
960
962
962
958
957
958
962
962
960
958
954
960
960
959
957
955
953
955
955
954
953
953
953
956
958
960
960
957
957
956
959
959
959
955
954
956
956
955
956
956
956
955
961
959
960
960
962
965
966
968
964
960
963
966
971
972
970
971
974
980
983
987
985
987
986
989
992
996
993
990
988
986
986
989
988
986
985
987
988
990
989
987
986
988
989
986
985
980
979
982
982
981
982
981
984
990
993
994
995
991
991
992
996
996
994
995
994
995
996
1000
1000
1001
1000
1000
999
1002
999
999
994
999
999
999
994
994
992
991
994
997
994
989
988
988
992
993
991
991
989
988
986
986
983
982
979
980
981
983
983
983
980
984
986
989
989
986
989
991
994
995
995
995
997
1000
1004
1003
1003
999
1001
1001
1004
1006
1005
999
998
996
1001
1000
998
995
995
994
997
997
997
997
996
995
996
998
1007
1021
1045
1068
1096
1121
1139
1163
1186
1210
1226
1232
1225
1211
1194
1175
1146
1106
1059
1023
1004
996
990
980
974
971
971
967
967
965
965
966
962
963
966
966
968
967
967
967
969
972
967
964
960
960
960
959
960
954
953
953
957
957
957
953
955
956
958
955
952
953
950
952
955
953
952
945
944
949
952
954
953
952
949
951
955
957
957
955
954
953
959
957
960
958
960
962
965
967
965
965
962
963
968
970
970
970
971
974
978
981
983
982
983
983
987
990
989
987
987
990
992
991
991
987
986
989
992
992
990
986
983
983
986
988
988
987
987
985
986
988
986
985
985
983
984
988
987
988
987
989
988
992
991
987
989
989
989
990
988
987
984
984
990
992
991
991
989
993
995
996
996
994
992
993
995
995
996
993
989
985
988
992
992
989
990
991
991
994
993
993
990
992
993
993
993
991
992
991
995
996
999
996
996
997
995
996
996
1007
1025
1053
1081
1108
1129
1155
1185
1214
1234
1240
1233
1214
1190
1163
1117
1062
1019
1001
992
982
977
973
971
969
964
961
961
962
962
962
957
959
957
958
956
954
951
953
955
954
955
955
956
955
954
957
957
956
955
953
957
959
953
952
950
950
949
944
944
944
943
948
953
954
955
953
955
958
960
960
958
956
956
954
957
958
957
958
960
961
965
967
966
967
968
972
974
978
979
982
983
984
989
991
993
994
993
994
997
998
997
995
995
995
995
995
991
990
988
986
986
988
987
984
984
987
990
993
990
990
989
990
992
995
994
990
991
992
993
997
997
994
993
991
993
996
996
995
994
990
995
998
998
997
996
998
1000
1000
1001
995
997
1001
1001
1001
1001
997
998
997
998
997
994
990
987
986
989
992
990
989
988
989
990
992
992
988
991
992
994
993
997
996
995
995
997
997
996
995
996
997
998
998
998
997
994
998
999
1004
1002
999
997
998
996
1001
1003
998
995
997
997
999
998
993
991
987
988
986
987
984
984
986
990
989
989
991
989
992
992
992
992
988
988
992
1006
1026
1050
1077
1101
1129
1156
1186
1211
1227
1235
1228
1220
1208
1180
1141
1086
1047
1023
1013
1006
992
984
984
986
984
980
974
972
971
969
968
965
960
957
956
956
955
957
956
953
956
956
956
957
953
952
952
954
953
952
949
947
950
954
955
955
953
951
952
955
959
957
948
948
953
957
959
962
962
960
962
966
969
969
968
968
967
968
970
968
967
964
965
965
968
968
968
968
972
971
978
980
976
979
982
983
987
987
983
983
982
988
990
990
987
985
990
989
995
995
989
989
991
990
993
995
993
991
989
992
997
997
995
994
994
997
997
994
995
991
988
993
990
989
989
987
991
991
992
989
987
987
989
992
992
990
986
988
985
989
989
988
988
988
990
993
996
996
993
993
993
995
997
997
996
995
995
997
997
997
998
996
996
999
999
997
997
994
992
997
994
993
991
989
989
989
990
989
987
984
984
989
989
990
985
984
984
989
989
986
987
982
984
987
986
990
987
987
988
992
992
991
990
989
992
994
993
992
991
990
990
993
994
994
992
992
992
993
997
997
995
992
991
993
993
994
992
989
987
986
987
988
986
986
988
990
990
989
985
986
987
988
988
989
985
985
983
987
988
988
985
986
987
992
993
992
991
990
988
995
996
997
994
993
995
995
1001
999
995
997
998
998
1000
998
997
997
995
996
994
994
991
989
