982
982
983
981
979
981
981
983
979
983
982
984
986
986
983
982
980
984
989
989
987
987
988
990
991
988
993
989
990
992
993
996
993
988
990
992
991
992
989
990
989
987
989
990
986
985
985
988
989
991
988
987
984
987
989
989
987
982
980
984
986
986
985
983
982
986
985
988
985
984
983
986
989
988
987
985
984
986
990
990
990
989
992
993
993
994
995
995
993
990
994
996
992
993
991
989
994
994
991
990
989
991
991
991
989
989
988
990
989
988
989
985
984
987
988
987
986
986
984
988
992
992
990
987
988
993
1004
1020
1039
1059
1084
1108
1131
1156
1186
1210
1226
1227
1226
1216
1198
1168
1127
1083
1040
1018
1010
998
990
980
980
978
974
971
968
966
968
967
965
960
957
960
961
961
957
953
955
954
954
955
956
954
950
953
957
960
955
957
954
954
956
956
955
953
951
952
955
955
954
955
953
956
960
961
957
957
957
957
959
960
957
956
953
955
957
959
959
957
956
960
962
962
963
960
962
963
967
968
969
965
965
967
968
972
972
972
972
975
980
983
983
983
981
985
984
989
988
987
989
989
991
992
992
990
990
992
994
995
995
991
989
988
992
994
990
989
987
987
989
988
986
984
983
984
987
987
988
983
981
983
984
987
985
983
982
981
982
982
980
982
981
978
982
984
984
982
984
986
987
987
987
983
981
984
988
990
988
988
987
987
993
995
992
990
987
989
991
995
992
989
988
988
987
985
987
985
984
984
986
986
984
982
982
984
986
988
987
985
982
982
986
984
982
980
980
979
983
983
983
983
981
982
985
986
985
984
983
985
987
989
986
987
985
985
987
987
986
984
985
986
986
990
989
988
986
987
987
987
986
984
986
985
989
988
988
985
983
984
984
984
983
980
978
982
983
983
979
980
981
983
982
984
982
979
979
981
984
981
981
983
983
983
986
989
991
988
988
992
994
993
995
992
993
992
994
994
995
992
990
990
988
989
999
1011
1037
1064
1088
1109
1129
1153
1174
1194
1198
1195
1183
1172
1150
1119
1071
1029
1003
989
984
977
973
967
968
968
964
963
963
965
962
959
959
961
963
963
962
958
954
954
957
958
958
954
955
952
954
953
953
950
948
947
951
950
947
944
945
946
949
949
949
946
944
946
948
947
948
946
948
950
950
953
951
949
952
954
957
958
957
955
955
959
963
965
965
962
964
963
966
967
969
967
970
968
974
971
972
973
971
975
978
981
980
978
975
980
982
986
984
981
980
980
981
980
979
977
978
975
981
983
982
978
975
979
981
981
980
978
980
980
982
983
981
979
979
983
984
984
986
983
982
982
983
984
985
981
980
978
983
985
982
980
980
980
982
985
982
983
980
980
980
982
981
977
977
976
978
980
978
979
975
976
976
980
979
979
979
980
983
983
981
979
980
980
984
986
986
984
986
986
988
988
987
984
984
984
986
987
986
982
976
977
979
979
979
979
978
979
984
981
980
977
977
979
980
978
978
975
974
978
981
984
981
980
978
982
985
985
984
981
981
983
983
986
986
984
984
987
990
990
990
985
986
986
990
989
986
984
982
981
980
984
982
984
978
982
985
999
1021
1042
1071
1096
1123
1150
1177
1197
1213
1214
1207
1191
1166
1129
1079
1030
1007
999
991
980
973
970
971
970
967
961
958
960
962
961
957
957
954
955
960
959
958
955
954
954
954
954
952
949
945
948
950
950
948
947
946
946
951
951
949
947
944
945
946
949
947
945
945
946
950
949
948
948
946
948
950
951
951
950
950
954
958
959
960
962
960
961
964
966
969
965
968
970
974
974
973
973
973
975
978
980
977
975
975
979
982
981
979
979
979
980
979
983
979
978
979
979
982
984
984
982
979
979
983
986
984
983
982
984
986
987
987
988
987
988
992
992
990
986
987
988
992
990
987
986
981
983
985
985
982
981
978
981
982
984
983
981
981
983
981
982
982
977
973
976
979
980
983
978
978
979
982
985
984
983
980
981
985
988
989
989
987
989
991
990
990
986
985
986
987
990
988
985
985
985
988
989
987
987
985
985
983
988
999
1016
1039
1062
1085
1113
1136
1160
1184
1205
1218
1223
1219
1207
1191
1168
1140
1097
1049
1015
999
995
986
976
972
969
969
969
967
966
962
960
958
957
958
961
957
956
954
953
957
956
955
951
948
946
950
948
947
943
942
943
944
944
942
937
938
939
941
939
939
937
935
936
938
940
938
937
938
940
943
942
940
943
944
944
946
948
948
947
946
949
948
953
952
952
953
956
958
960
960
959
959
961
964
968
969
968
964
970
972
974
973
970
970
972
979
981
981
978
977
978
978
981
981
979
976
978
980
980
978
976
974
975
977
980
975
976
974
976
980
982
981
976
978
979
980
979
978
977
977
979
982
982
982
982
983
980
985
985
984
983
983
980
984
986
985
982
979
979
983
984
983
983
983
983
983
985
985
983
982
982
984
985
984
982
980
979
983
983
982
977
976
979
982
983
983
980
979
980
982
983
982
979
978
981
983
985
981
980
979
981
983
985
983
982
984
983
987
984
986
986
984
983
987
986
982
982
980
982
981
983
980
979
979
979
979
979
979
980
978
978
980
981
981
979
978
977
979
982
982
979
978
979
981
981
984
982
979
978
980
983
982
980
981
979
983
984
985
982
981
984
986
989
988
988
981
986
988
991
989
987
988
989
992
995
993
992
987
987
990
991
987
988
987
986
988
989
990
996
1001
1020
1044
1063
1079
1098
1110
1133
1160
1183
1200
1206
1212
1207
1198
1187
1165
1139
1103
1060
1027
1012
1003
993
984
978
974
973
971
969
967
967
966
966
966
964
962
962
964
963
962
959
959
958
958
962
962
959
955
956
957
959
956
954
952
952
952
953
952
949
947
948
950
948
948
946
947
946
949
950
948
944
944
944
945
947
947
944
943
944
947
949
953
947
949
949
952
955
957
953
951
955
955
960
961
960
957
959
964
967
969
969
967
968
971
973
974
974
973
973
977
978
979
979
978
978
983
985
985
983
982
984
986
988
987
988
986
986
987
987
988
986
983
983
985
986
983
983
983
981
985
988
985
984
980
983
984
986
987
984
984
986
984
987
986
987
987
989
993
996
997
989
990
994
997
1000
996
992
991
991
991
991
991
990
990
990
992
994
994
989
989
987
991
994
991
989
988
990
990
992
989
988
987
989
990
993
992
988
984
987
987
990
988
986
984
987
988
992
991
988
986
987
988
990
990
990
989
990
992
996
995
993
991
989
992
993
994
992
989
990
993
996
993
993
990
990
991
991
993
992
989
990
989
988
987
987
985
985
987
988
984
988
985
988
992
993
993
991
988
987
986
991
996
1012
1028
1050
1073
1099
1121
1143
1164
1187
1210
1221
1227
1214
1202
1183
1166
1140
1101
1059
1026
1012
1005
1000
991
982
977
977
976
974
972
966
964
964
963
962
963
960
957
958
957
958
957
956
952
949
950
956
957
959
957
952
954
956
954
955
952
953
955
955
954
953
953
953
953
956
959
957
954
954
956
957
960
961
958
960
959
962
959
956
955
956
956
956
956
956
956
956
959
960
960
957
958
955
960
961
962
961
959
962
962
965
964
965
963
967
971
976
977
976
974
977
981
984
985
985
983
983
987
990
989
989
988
988
991
991
993
990
992
991
993
996
995
991
991
989
990
992
990
988
989
986
988
989
989
986
987
988
989
989
988
986
982
985
987
992
988
985
982
983
989
990
992
988
988
988
988
992
991
992
991
993
995
995
997
994
993
993
996
997
996
996
994
992
998
1002
1002
999
996
995
996
999
1001
998
995
990
994
994
994
994
993
991
993
996
993
992
991
992
993
996
995
993
990
991
992
994
994
988
984
986
988
993
993
990
989
989
990
994
992
991
992
991
993
995
994
991
993
996
998
1001
997
996
997
998
999
1003
1002
1001
998
998
1001
1003
1000
999
1005
1020
1044
1072
1096
1117
1135
1163
1190
1213
1224
1225
1215
1201
1181
1158
1117
1067
1028
1009
1004
997
988
982
978
975
977
979
975
972
965
964
968
971
968
964
964
967
968
969
968
964
961
964
965
968
966
962
961
960
960
962
961
960
958
959
960
963
962
962
960
959
961
962
959
957
954
956
958
957
956
956
958
959
963
966
965
965
962
967
966
970
969
965
964
968
972
975
974
976
975
975
981
985
985
987
992
991
996
998
998
996
996
995
997
997
994
993
996
993
996
999
997
995
994
995
995
996
994
993
992
990
991
994
993
989
990
989
993
993
996
994
992
994
997
999
998
997
995
996
999
1003
1001
1000
997
997
999
1002
1003
1003
1004
1003
1005
1005
1003
1004
1001
1004
1003
1004
1002
999
998
999
1000
1004
1003
998
996
995
998
1000
999
997
995
994
994
997
995
994
994
993
994
997
996
992
994
993
996
998
996
992
995
994
994
999
1000
998
996
995
998
1001
1000
998
998
996
998
1002
1000
999
996
998
1003
1003
1003
997
997
996
1000
1001
1000
996
995
996
995
1001
997
994
992
993
996
999
998
996
993
991
993
994
996
996
994
995
995
997
998
995
995
992
995
997
995
996
996
997
1002
1004
1003
1001
998
998
1000
999
999
997
998
1000
1003
1006
1003
1003
1002
1001
1002
1004
1003
1008
1026
1048
1077
1104
1126
1148
1171
1194
1215
1226
1223
1213
1197
1176
1145
1100
1052
1022
1009
1004
996
987
982
978
976
976
975
973
972
971
970
971
972
973
972
967
967
965
970
970
968
966
962
960
960
966
964
963
963
963
963
963
965
962
959
961
964
965
964
960
960
960
957
959
960
959
960
958
965
964
965
962
965
966
968
970
964
965
965
967
972
975
972
973
973
972
977
980
982
980
977
977
984
989
990
988
988
989
991
993
992
995
994
996
997
1001
1000
997
996
998
1000
999
1001
1000
996
996
997
998
999
996
995
996
998
1001
1000
998
995
996
999
998
998
995
993
993
998
996
994
991
990
991
996
1000
999
998
995
995
999
1002
1002
1001
998
998
997
999
1002
997
998
997
997
1000
1001
1002
1000
1000
1003
1004
1003
999
997
998
996
1001
1001
998
992
992
995
998
996
997
995
995
996
996
999
994
993
996
995
997
995
995
992
992
995
1000
999
997
993
992
995
997
998
997
996
995
997
998
1000
996
998
997
999
997
998
996
997
997
998
1000
998
999
998
996
997
1001
999
995
991
993
1002
1017
1039
1067
1088
1110
1136
1169
1197
1220
1230
1230
1217
1206
1185
1150
1099
1049
1022
1010
1003
995
986
982
982
980
977
974
967
969
970
969
966
964
960
964
965
968
967
965
963
963
967
970
970
965
961
960
960
964
962
957
957
956
958
963
963
961
957
955
956
958
957
958
955
954
956
961
960
962
963
963
962
965
967
966
965
964
965
964
965
962
961
965
968
972
973
971
970
975
981
985
986
986
986
988
992
994
996
993
991
989
990
991
994
993
991
991
994
997
996
995
994
993
995
997
997
993
990
994
997
996
998
997
997
998
999
1001
1001
996
992
989
994
997
993
990
987
986
988
992
993
995
993
988
994
998
998
998
998
995
994
997
993
994
993
996
997
1000
996
997
997
996
995
1000
999
995
994
996
998
1000
996
999
997
997
997
1001
1000
1001
998
997
998
998
1002
998
996
998
997
995
996
994
993
991
993
994
994
991
989
990
991
996
992
993
990
990
994
997
996
993
985
988
990
996
1000
996
994
993
994
997
997
995
991
994
992
998
996
994
994
993
999
1003
1000
996
995
993
997
1005
1003
1001
999
999
1000
997
997
1001
1011
1028
1052
1076
1098
1120
1139
1166
1194
1214
1218
1216
1205
1190
1174
1145
1100
1054
1019
1007
1007
999
988
982
980
979
978
976
975
972
971
969
969
972
972
971
967
963
967
970
973
968
965
964
964
966
965
964
963
962
965
966
960
956
954
956
959
963
961
959
958
959
961
964
964
961
958
960
960
962
965
961
960
957
959
966
966
966
965
961
965
968
970
969
968
968
971
975
976
978
978
979
983
987
986
988
986
988
990
994
994
991
990
988
991
994
995
990
992
993
998
999
1000
999
997
996
998
999
1001
997
993
993
993
994
996
994
992
990
995
994
999
996
993
995
999
1000
999
1000
999
1000
1002
1002
1000
1000
1000
996
999
1003
1001
997
993
995
1001
1003
1002
998
995
993
997
998
1001
1000
998
995
996
999
998
996
993
991
992
997
995
993
991
989
994
995
994
993
993
993
996
1000
999
995
992
995
995
1002
1002
1000
996
997
1001
1004
1001
998
999
995
1000
1003
1004
1000
1002
999
1000
1008
1020
1042
1066
1091
1115
1138
1163
1189
1211
1228
1234
1233
1219
1202
1182
1152
1109
1065
1029
1011
1001
992
984
979
978
979
975
973
970
972
972
966
965
964
962
964
965
963
961
959
965
966
962
962
956
958
959
962
960
958
955
954
956
960
957
954
947
945
951
952
953
955
951
951
950
955
954
954
952
951
951
956
954
952
951
950
952
954
955
955
953
953
957
960
958
959
957
959
962
962
963
966
969
969
974
977
980
983
986
986
992
996
996
995
994
994
995
996
992
990
989
988
992
993
992
988
987
989
991
994
992
990
988
982
985
987
986
986
982
979
984
986
988
988
987
985
985
989
990
989
988
989
990
989
990
989
989
989
991
995
995
992
992
993
997
999
1000
998
994
993
996
999
999
995
994
991
994
997
997
995
993
990
993
995
994
992
988
985
990
992
992
990
989
987
989
991
990
988
988
986
986
988
989
987
987
990
992
994
995
993
992
994
998
997
996
996
994
989
992
1000
995
993
992
991
992
997
996
993
994
990
995
997
998
997
995
993
994
995
993
990
988
990
992
995
996
998
997
991
997
1003
1019
1040
1064
1089
1114
1138
1167
1193
1215
1228
1233
1226
1211
1188
1153
1108
1063
1030
1015
1006
994
983
982
981
979
975
969
967
969
968
970
968
964
961
962
965
963
960
958
956
957
956
955
957
956
956
956
958
959
956
955
956
955
957
956
955
955
954
957
960
962
959
958
956
960
963
964
960
958
958
961
963
963
962
959
959
961
964
966
965
964
961
964
966
967
968
966
966
969
970
969
970
969
972
976
978
977
980
979
982
986
990
992
991
988
989
989
995
996
994
993
992
994
997
999
999
999
998
1001
1003
1001
1000
998
998
1001
1001
998
993
991
990
994
996
995
991
991
988
993
995
997
991
990
989
991
993
989
989
988
990
992
996
992
992
990
990
996
997
998
993
994
995
999
1002
1002
1000
998
997
1001
1002
1003
999
1003
1001
1002
1003
1003
1000
996
995
996
996
994
992
992
991
993
994
992
991
990
989
992
990
989
988
986
985
988
990
992
991
989
987
988
990
991
991
990
988
989
990
992
993
992
991
993
997
997
996
997
995
1000
1001
1002
1003
999
999
1000
1003
1003
996
996
994
999
999
999
998
994
994
996
998
996
999
1011
1031
1057
1084
1110
1128
1149
1179
1205
1226
1231
1226
1209
1194
1169
1130
1081
1037
1014
1005
1001
993
987
982
982
980
980
980
973
973
969
966
968
969
967
963
964
961
963
964
965
962
960
957
961
962
960
960
955
955
958
961
960
958
955
951
953
956
956
955
951
954
956
955
958
957
952
956
955
958
958
956
952
956
959
963
966
964
964
966
966
971
970
968
964
968
969
970
973
972
972
972
973
975
980
979
978
979
981
984
986
985
984
987
988
992
991
988
988
986
989
991
989
992
987
983
985
989
991
991
989
985
986
990
990
992
991
991
993
993
993
994
992
998
996
999
997
995
994
993
994
995
992
990
988
985
986
991
991
991
992
991
992
995
995
995
992
990
991
991
991
990
990
986
989
988
990
986
990
988
991
992
992
990
989
990
992
993
992
990
988
989
991
991
997
998
997
994
991
999
999
997
998
996
997
999
998
994
992
986
986
988
986
982
981
981
988
989
992
991
987
989
991
992
996
995
989
988
991
993
993
993
992
991
994
994
993
994
991
991
995
996
994
994
990
992
996
999
999
997
994
994
996
997
998
997
998
998
998
996
999
997
995
991
995
995
993
986
987
985
986
986
987
987
984
985
988
991
992
990
991
990
991
993
990
991
991
987
989
990
992
991
991
991
995
996
994
992
988
988
995
996
995
992
994
994
995
997
999
999
1000
997
1000
1002
1002
999
999
1002
1003
1002
1004
1001
999
998
997
997
994
989
988
987
991
993
995
994
990
993
1002
1017
1036
1056
1074
1095
1111
1131
1150
1169
1184
1199
1213
1218
1213
1205
1193
1174
1149
1111
1071
1034
1015
1007
1002
996
988
984
983
982
982
978
980
976
974
972
973
975
974
972
969
967
967
970
968
966
961
959
961
960
960
960
956
956
956
958
957
954
950
950
951
958
954
955
950
951
953
953
957
956
954
955
956
957
961
961
960
959
960
961
964
962
957
958
963
964
966
964
962
964
966
965
970
971
970
973
973
974
973
975
974
975
978
976
979
977
972
971
974
975
977
977
976
978
980
982
983
982
980
980
983
987
988
985
983
984
985
988
990
988
985
986
992
993
995
995
991
992
992
995
998
997
998
996
997
995
996
999
997
996
