1007
1003
1001
1004
1005
1008
1005
1004
1003
1002
1004
1004
1004
1002
1004
1006
1010
1009
1009
1006
1005
1008
1010
1011
1011
1011
1010
1011
1014
1016
1017
1014
1013
1016
1015
1016
1013
1015
1013
1014
1014
1014
1015
1010
1006
1012
1013
1013
1011
1009
1009
1010
1014
1015
1014
1012
1009
1008
1010
1012
1008
1009
1006
1008
1007
1013
1012
1010
1012
1013
1014
1011
1011
1013
1016
1030
1049
1072
1089
1107
1127
1156
1181
1207
1225
1235
1237
1232
1225
1214
1198
1170
1132
1094
1065
1047
1037
1027
1017
1011
1010
1009
1004
1000
997
998
999
998
994
990
987
989
989
992
988
986
984
980
985
984
984
981
983
979
983
984
983
980
981
980
983
985
984
981
980
981
986
986
986
984
983
985
987
989
988
987
983
984
990
990
989
990
987
987
991
993
992
990
988
989
995
995
996
993
994
995
996
997
997
997
995
1000
1002
1006
1009
1010
1010
1017
1018
1020
1019
1017
1017
1019
1021
1023
1020
1019
1021
1022
1027
1031
1026
1024
1023
1026
1029
1032
1028
1028
1023
1025
1028
1027
1026
1023
1018
1021
1025
1023
1024
1023
1022
1023
1025
1026
1023
1020
1021
1021
1023
1022
1022
1023
1022
1026
1026
1027
1027
1026
1026
1027
1030
1030
1031
1028
1027
1028
1030
1034
1034
1030
1030
1030
1031
1033
1032
1031
1030
1029
1030
1030
1029
1026
1025
1026
1027
1025
1024
1023
1021
1021
1028
1026
1024
1023
1019
1023
1025
1027
1027
1023
1021
1022
1024
1026
1026
1026
1023
1026
1030
1032
1032
1026
1027
1030
1029
1030
1029
1023
1025
1027
1030
1032
1031
1028
1028
1030
1034
1036
1035
1028
1028
1029
1033
1033
1034
1032
1027
1027
1029
1029
1027
1027
1025
1027
1027
1029
1026
1027
1023
1027
1033
1043
1055
1074
1095
1115
1139
1161
1183
1204
1222
1240
1251
1258
1250
1239
1221
1204
1177
1145
1101
1070
1052
1042
1033
1022
1013
1010
1008
1006
1006
1006
1002
1000
998
998
1002
1002
998
997
994
994
997
998
998
996
995
996
996
996
993
988
988
991
990
993
991
988
987
989
990
994
991
987
984
985
987
987
987
982
981
983
984
985
985
984
983
985
986
989
987
986
985
987
992
989
986
989
990
991
994
999
999
1000
997
999
999
1006
1005
1005
1003
1006
1010
1009
1013
1013
1014
1015
1019
1022
1023
1021
1021
1021
1023
1026
1022
1021
1017
1021
1023
1024
1022
1021
1018
1017
1022
1023
1022
1018
1017
1019
1022
1023
1026
1025
1022
1023
1023
1025
1026
1026
1024
1026
1028
1029
1029
1027
1025
1030
1030
1032
1031
1024
1024
1023
1028
1029
1026
1023
1021
1023
1027
1030
1028
1025
1022
1021
1025
1026
1026
1022
1020
1021
1021
1022
1020
1019
1020
1023
1023
1022
1025
1022
1020
1022
1023
1025
1024
1021
1021
1022
1025
1023
1022
1020
1023
1022
1024
1026
1025
1022
1024
1023
1027
1027
1025
1022
1019
1019
1022
1023
1023
1021
1018
1022
1023
1024
1023
1020
1018
1018
1021
1019
1019
1017
1017
1018
1019
1015
1012
1014
1014
1014
1018
1018
1017
1016
1014
1017
1020
1019
1019
1016
1016
1019
1023
1024
1024
1021
1021
1022
1023
1025
1023
1021
1023
1025
1025
1027
1025
1023
1020
1022
1023
1021
1017
1013
1012
1015
1022
1023
1023
1020
1020
1022
1025
1027
1028
1029
1036
1046
1068
1092
1113
1128
1148
1172
1195
1221
1232
1236
1232
1227
1217
1198
1170
1130
1088
1056
1044
1036
1029
1016
1008
1008
1005
1012
1008
1003
998
996
998
998
996
993
992
993
993
992
991
986
982
982
979
981
976
975
974
976
977
982
982
981
979
980
980
982
982
977
977
978
978
978
978
978
976
977
977
976
976
975
975
977
979
980
982
979
979
982
982
983
986
983
984
985
986
987
986
986
985
983
985
988
986
983
981
980
983
985
989
988
989
994
997
997
997
996
999
1002
1005
1007
1003
998
1000
1003
1006
1007
1006
1002
1002
1004
1006
1008
1008
1004
1005
1005
1007
1008
1005
1002
1004
1006
1007
1008
1007
1006
1008
1011
1010
1011
1009
1005
1004
1004
1006
1006
1003
999
1000
1000
1003
1006
1004
1006
1003
1003
1006
1008
1004
1002
1000
1003
1003
1004
1001
998
999
999
1001
1004
1004
1004
1004
1006
1008
1008
1005
1004
1006
1006
1009
1011
1010
1008
1007
1008
1012
1015
1011
1010
1008
1011
1013
1014
1014
1012
1007
1006
1007
1009
1003
1002
1000
1001
1004
1006
1007
1007
1004
1005
1006
1007
1009
1004
1005
1003
1004
1007
1007
1006
1005
1007
1010
1011
1010
1008
1009
1007
1009
1010
1010
1006
1006
1007
1012
1016
1015
1014
1014
1013
1017
1022
1021
1019
1017
1017
1020
1031
1043
1059
1078
1102
1127
1151
1178
1200
1215
1225
1224
1214
1198
1177
1145
1108
1072
1046
1028
1015
1008
1002
998
999
997
991
989
988
991
991
992
987
987
988
989
992
989
985
984
988
990
991
992
989
989
987
989
990
987
986
985
985
985
986
984
982
980
980
981
981
982
978
980
980
979
980
977
976
974
977
978
977
976
973
973
974
978
980
981
978
980
982
985
984
988
986
990
991
996
997
999
1000
1001
1002
1003
1009
1012
1013
1016
1015
1021
1023
1022
1020
1020
1019
1023
1023
1020
1019
1014
1017
1017
1023
1019
1017
1013
1012
1015
1013
1013
1011
1006
1004
1006
1007
1009
1006
1003
1003
1007
1009
1008
1008
1010
1011
1013
1015
1015
1015
1016
1017
1019
1022
1023
1020
1019
1024
1026
1029
1026
1023
1022
1023
1027
1028
1027
1025
1023
1023
1024
1023
1023
1021
1018
1018
1022
1023
1021
1020
1018
1017
1016
1016
1015
1010
1007
1007
1007
1007
1005
1007
1007
1008
1013
1013
1013
1012
1010
1011
1016
1016
1015
1010
1013
1017
1019
1020
1022
1019
1017
1017
1022
1024
1022
1018
1019
1020
1021
1023
1021
1018
1015
1013
1017
1019
1018
1018
1014
1016
1016
1016
1016
1016
1015
1015
1015
1016
1013
1012
1011
1014
1012
1012
1011
1011
1010
1012
1012
1013
1013
1008
1010
1013
1014
1018
1023
1033
1052
1080
1111
1139
1161
1182
1208
1231
1244
1251
1245
1229
1208
1177
1141
1100
1063
1042
1031
1022
1012
1008
1004
1003
999
997
995
995
993
988
989
987
987
986
985
983
982
984
986
985
983
981
979
980
981
984
978
974
976
976
980
979
980
979
975
977
979
980
979
975
973
971
978
981
982
981
977
977
979
983
982
982
981
983
983
982
985
985
985
983
986
985
989
988
987
987
991
993
995
996
999
1000
1003
1006
1008
1008
1008
1009
1012
1015
1011
1012
1015
1014
1017
1019
1016
1017
1014
1015
1018
1020
1017
1014
1011
1012
1014
1017
1015
1013
1011
1012
1014
1015
1012
1012
1009
1010
1013
1011
1012
1008
1009
1008
1011
1013
1015
1014
1010
1011
1013
1014
1014
1015
1013
1013
1015
1017
1016
1015
1017
1019
1020
1020
1020
1017
1016
1017
1016
1016
1016
1011
1013
1013
1015
1019
1016
1012
1012
1014
1018
1019
1016
1014
1011
1012
1013
1015
1016
1014
1012
1011
1014
1014
1014
1014
1013
1011
1014
1014
1014
1014
1013
1016
1015
1017
1014
1011
1012
1015
1017
1018
1015
1014
1014
1015
1018
1020
1017
1016
1014
1016
1018
1020
1018
1015
1010
1007
1010
1009
1008
1006
1006
1007
1007
1009
1012
1010
1009
1013
1012
1014
1012
1012
1011
1011
1012
1013
1011
1012
1009
1013
1014
1017
1016
1011
1010
1015
1015
1016
1017
1016
1013
1011
1018
1019
1021
1021
1020
1019
1022
1023
1023
1022
1021
1020
1020
1021
1020
1017
1015
1014
1014
1010
1012
1010
1008
1010
1015
1016
1016
1013
1011
1017
1019
1021
1020
1018
1016
1018
1019
1021
1022
1019
1029
1050
1073
1095
1119
1136
1157
1183
1207
1228
1240
1236
1233
1223
1208
1183
1144
1096
1061
1041
1034
1027
1019
1010
1003
1006
1004
1001
997
993
989
988
988
988
987
983
983
982
984
987
985
984
983
983
983
986
985
983
978
981
983
984
981
982
983
982
984
985
983
980
982
981
985
985
985
982
983
985
987
991
991
984
986
989
991
992
992
989
984
988
989
994
990
988
986
987
990
992
991
988
988
988
993
999
1001
999
1000
1003
1004
1009
1007
1008
1007
1010
1015
1016
1016
1016
1015
1016
1020
1023
1023
1021
1020
1020
1018
1023
1022
1023
1019
1022
1024
1025
1024
1022
1022
1021
1022
1021
1020
1020
1020
1019
1019
1020
1015
1010
1010
1015
1019
1018
1018
1015
1013
1015
1016
1019
1011
1013
1012
1013
1014
1018
1017
1017
1017
1020
1022
1020
1019
1021
1017
1018
1021
1022
1018
1016
1015
1013
1019
1024
1022
1016
1016
1019
1021
1023
1024
1019
1013
1016
1018
1020
1018
1014
1014
1015
1016
1017
1015
1014
1013
1011
1016
1016
1015
1012
1012
1011
1012
1012
1015
1014
1014
1015
1017
1018
1018
1016
1013
1012
1013
1017
1018
1014
1014
1014
1019
1020
1019
1018
1018
1016
1016
1018
1018
1013
1010
1015
1019
1021
1021
1019
1017
1017
1017
1020
1019
1014
1014
1014
1018
1025
1037
1053
1074
1100
1124
1150
1174
1197
1215
1229
1234
1233
1218
1201
1177
1145
1106
1069
1044
1031
1019
1008
1004
1002
998
997
994
994
995
995
993
992
989
992
993
992
993
988
982
984
988
989
988
984
980
979
980
981
978
974
972
975
978
980
979
975
977
975
979
979
978
978
976
976
977
979
976
974
975
978
980
981
978
980
980
982
984
986
985
983
983
988
991
992
993
992
995
995
995
1003
1003
1002
1001
1003
1009
1012
1012
1012
1009
1011
1012
1012
1012
1012
1013
1016
1018
1015
1016
1016
1014
1013
1014
1014
1012
1012
1012
1012
1015
1014
1014
1014
1016
1016
1018
1020
1018
1017
1014
1016
1017
1020
1020
1018
1018
1019
1020
1024
1027
1028
1024
1026
1027
1029
1029
1029
1028
1027
1026
1029
1026
1025
1023
1024
1027
1028
1026
1022
1024
1021
1026
1027
1027
1025
1021
1021
1023
1024
1024
1024
1023
1022
1024
1027
1025
1027
1026
1024
1026
1027
1025
1024
1025
1026
1026
1027
1029
1028
1026
1027
1033
1035
1031
1028
1030
1031
1032
1034
1030
1031
1029
1029
1032
1034
1032
1030
1030
1030
1029
1031
1028
1027
1028
1028
1031
1031
1031
1027
1027
1029
1032
1028
1030
1025
1025
1026
1029
1030
1029
1029
1027
1028
1032
1038
1048
1062
1079
1105
1128
1150
1172
1197
1218
1243
1260
1266
1261
1249
1235
1214
1188
1152
1109
1075
1056
1047
1040
1034
1028
1024
1016
1015
1015
1014
1011
1007
1004
1005
1001
1001
1001
1001
997
999
998
1001
1000
996
997
996
997
997
995
993
991
992
995
995
993
992
991
992
994
993
991
991
992
990
994
994
991
990
990
991
995
996
997
996
996
997
999
1003
998
1001
997
1000
1001
1002
1002
999
998
998
999
1002
1001
1000
999
1003
1006
1008
1008
1006
1006
1011
1015
1018
1017
1014
1014
1015
1018
1022
1023
1021
1020
1018
1026
1027
1025
1024
1026
1027
1029
1033
1031
1030
1026
1026
1030
1034
1032
1028
1030
1032
1036
1038
1037
1035
1034
1033
1035
1039
1036
1031
1028
1026
1030
1032
1032
1027
1026
1023
1026
1031
1028
1025
1022
1024
1025
1025
1023
1021
1020
1023
1025
1026
1024
1022
1021
1021
1026
1027
1025
1024
1023
1024
1029
1032
1030
1029
1027
1027
1030
1033
1034
1033
1032
1031
1034
1035
1033
1032
1033
1032
1033
1034
1029
1029
1025
1027
1028
1032
1029
1028
1027
1025
1027
1026
1026
1024
1023
1023
1023
1024
1024
1020
1020
1020
1024
1025
1025
1021
1020
1021
1025
1027
1023
1023
1024
1024
1024
1026
1024
1026
1025
1027
1031
1028
1030
1028
1028
1025
1028
1027
1026
1024
1023
1024
1024
1024
1022
1021
1022
1023
1026
1026
1027
1026
1024
1022
1026
1027
1027
1025
1021
1024
1025
1026
1027
1025
1023
1023
1025
1027
1026
1031
1038
1054
1072
1096
1119
1139
1162
1188
1215
1238
1250
1254
1252
1244
1235
1220
1188
1143
1102
1066
1052
1044
1034
1022
1012
1008
1007
1007
1005
998
996
993
991
992
993
988
988
992
992
990
988
988
985
987
989
984
985
984
980
982
983
982
984
984
981
983
986
983
983
984
981
982
979
983
981
981
980
982
985
988
987
984
985
985
987
990
990
986
985
987
988
991
991
986
981
981
982
984
988
986
985
987
992
994
995
995
995
999
999
1001
1004
1000
1002
1005
1008
1011
1011
1010
1011
1011
1015
1020
1020
1018
1018
1018
1022
1024
1024
1021
1019
1019
1022
1023
1025
1021
1022
1022
1025
1027
1026
1021
1020
1018
1018
1020
1017
1011
1012
1012
1014
1016
1014
1012
1014
1016
1018
1020
1017
1016
1014
1015
1016
1020
1018
1014
1013
1013
1015
1017
1018
1017
1017
1011
1021
1023
1020
1020
1018
1021
1020
1021
1023
1022
1022
1023
1025
1027
1025
1026
1027
1026
1029
1030
1026
1020
1018
1018
1023
1023
1021
1017
1014
1016
1022
1033
1045
1063
1084
1108
1134
1160
1184
1211
1224
1239
1246
1245
1236
1221
1201
1171
1133
1089
1057
1034
1025
1016
1010
1006
1003
998
996
995
996
995
993
988
988
989
992
994
993
991
987
988
989
991
990
988
984
982
982
982
979
979
975
974
977
978
974
974
976
975
977
978
977
975
972
971
974
975
975
972
970
970
972
975
974
973
970
971
974
976
976
976
976
978
976
980
978
979
979
981
983
989
989
991
991
993
997
1000
1001
1003
1003
1002
1003
1006
1011
1009
1010
1006
1008
1010
1011
1011
1013
1013
1014
1016
1011
1009
1010
1011
1012
1017
1014
1014
1009
1007
1011
1016
1014
1012
1012
1011
1013
1015
1015
1014
1011
1015
1016
1017
1018
1015
1014
1016
1017
1022
1021
1017
1016
1018
1020
1022
1021
1021
1017
1016
1018
1022
1024
1023
1021
1021
1020
1020
1019
1017
1016
1016
1019
1020
1018
1017
1014
1015
1017
1020
1020
1015
1013
1011
1014
1015
1017
1015
1013
1015
1015
1018
1020
1015
1012
1012
1013
1017
1015
1015
1015
1014
1014
1019
1017
1013
1015
1019
1019
1023
1023
1024
1023
1024
1025
1027
1026
1022
1020
1020
1022
1025
1021
1017
1017
1015
1017
1019
1017
1017
1014
1013
1013
1018
1017
1016
1015
1014
1013
1015
1014
1012
1010
1014
1015
1017
1014
1009
1012
1012
1015
1017
1019
1015
1013
1015
1019
1022
1022
1021
1021
1024
1027
1026
1027
1028
1026
1024
1030
1030
1030
1027
1024
1026
1027
1027
1025
1024
1022
1030
1043
1062
1087
1111
1137
1160
1185
1207
1222
1233
1234
1224
1210
1189
1152
1106
1067
1045
1036
1026
1019
1009
1004
1004
1005
1004
1000
998
997
998
999
1003
1000
998
995
995
995
1000
998
997
992
993
995
997
996
993
990
989
986
989
989
988
986
985
987
985
990
987
986
986
988
988
988
986
982
985
986
990
990
989
990
990
994
996
998
994
994
996
999
1002
1000
1002
999
999
1004
1008
1007
1006
1006
1007
1009
1015
1015
1014
1014
1015
1016
1019
1019
1018
1018
1021
1023
1026
1026
1023
1021
1022
1024
1027
1025
1021
1021
1022
1024
1027
1027
1025
1022
1024
1026
1029
1031
1030
1028
1027
1028
1031
1031
1026
1027
1029
1030
1029
1031
1030
1028
1028
1031
1033
1033
1033
1032
1032
1031
1033
1035
1034
1032
1028
1031
1032
1030
1030
1027
1026
1027
1030
1028
1027
1028
1024
1029
1028
1027
1025
1024
1023
1026
1028
1028
1027
1025
1024
1028
1029
1030
1028
1025
1025
1025
1030
1030
1031
1029
1026
1025
1026
1032
1029
1030
1033
1035
1037
1037
1035
1031
1035
1038
1037
1036
1033
1034
1036
1038
1039
1036
1035
1031
1027
1032
1040
1052
1070
1089
1114
1133
1157
1181
1208
1226
1246
1255
1250
1235
1220
1193
1158
1111
1069
1043
1031
1021
1015
1010
1008
1009
1005
1001
1000
1001
1004
1003
1001
1000
1002
1006
1006
1005
1001
999
999
1001
1001
999
1001
997
997
996
996
998
996
994
992
994
995
994
991
989
990
990
990
989
988
988
988
989
988
987
985
982
978
985
987
987
986
981
984
987
990
990
992
992
990
991
993
996
997
997
1002
1005
1009
1014
1017
1017
1019
1020
1025
1025
1023
1021
1023
1025
1027
1027
1027
1025
1024
1028
1032
1030
1028
1026
1027
1028
1031
1030
1028
1024
1023
1025
1025
1024
1022
1021
1021
1023
1024
1023
1021
1021
1022
1021
1022
1024
1022
1023
1022
1026
1030
1029
1030
1028
1029
1032
1036
1037
1035
1035
1035
1037
1038
1038
1036
1035
1034
1036
1037
1033
1032
1034
1035
1034
1036
1035
1031
1032
1031
1033
1037
1032
1029
1027
1027
1030
1030
1033
1029
1027
1030
1030
1032
1031
1031
1030
1032
1032
1029
1031
1028
1025
1028
1029
1031
1030
1028
1026
1031
1036
1037
1036
1032
1033
1032
1035
1040
1037
1034
1031
1034
1033
1036
1032
1032
1030
1029
1031
1033
1032
1029
1029
1031
1030
1033
1032
1030
1029
1028
1029
1028
1028
1024
1023
1025
1026
1030
1030
1029
1028
1029
1032
1033
1034
1032
1030
1030
1034
1037
1036
1035
1036
1035
1038
1040
1040
1038
1037
1038
1041
1042
1041
1039
1040
1038
1039
1044
1039
1035
1035
1036
1037
1041
1041
1040
1038
1036
1037
1040
1039
1037
1041
1048
1066
1087
1111
1128
1150
1171
1196
1221
1242
1250
1253
1248
1237
1223
1199
1162
1119
1085
1064
1055
1046
1033
1023
1021
1024
1022
1021
1014
1013
1010
1009
1010
1011
1005
1005
1003
1009
1010
1009
1004
1001
999
1001
1001
999
1000
997
998
1000
998
998
994
996
995
996
997
994
992
994
993
996
999
996
997
996
996
1000
1003
1001
999
998
1000
1006
1006
1006
1006
1003
1007
1008
1012
1009
1009
1008
1011
1013
1017
1018
1017
1018
1015
1017
1019
1019
1021
1023
1023
1028
1031
1032
1029
1032
1033
1035
1035
1034
1031
1031
1032
1032
1036
1037
1036
1034
1035
1038
1040
1039
1038
1037
1036
1040
1040
1040
1037
1035
1035
1038
1042
1038
1041
1035
1033
1036
1042
1042
1039
1038
1037
1035
1037
1040
1037
1036
1036
1039
1041
1039
1040
1039
1039
1037
1042
1041
1038
1035
1038
1038
1036
1034
1035
1033
1032
1034
1038
1037
1033
1031
1036
1037
1039
1038
1034
1033
1037
1037
1041
1038
1037
1036
1036
1040
1038
1039
1037
1035
1033
1036
1034
1036
1034
1032
1032
1028
1032
1034
1031
1033
1034
1033
1032
1034
1031
1028
1032
1033
1031
1033
1029
1025
1027
1030
1031
1031
1029
1027
1028
1029
1031
1035
1032
1031
1032
1034
1037
1038
1037
1034
1035
1039
1041
1042
1045
1042
1041
1046
1057
1076
1097
1116
1137
1162
1187
1212
1231
1248
1250
1248
1238
1217
1187
1150
1108
1078
1059
1048
1035
1022
1017
1014
1016
1010
1009
1000
1002
1005
1005
1003
1002
998
995
996
999
1001
998
996
995
993
999
998
998
997
998
998
1001
999
999
997
996
997
998
994
991
988
991
994
994
994
991
988
991
993
997
996
994
991
994
996
1001
1000
996
991
993
995
998
994
995
996
996
1000
1003
1004
1002
1003
1004
1010
1013
1013
1012
1015
1013
1018
1019
1022
1025
1024
1028
1033
1029
1030
1025
1025
1026
1025
1029
1027
1021
1016
1021
1022
1025
1023
1022
1021
1023
1025
1026
1024
1023
1021
1019
1019
1021
1023
1022
1019
1016
1022
1023
1027
1025
1023
1020
1025
1026
1028
1026
1023
1024
1029
1027
1029
1027
1029
1029
1031
1035
1033
1033
1030
1030
1032
1035
1033
1028
1024
1025
1025
1027
1025
1024
1020
1022
1023
1025
1025
1021
1020
1022
1024
1023
1023
1019
1018
1019
1021
1024
1026
1023
1020
1021
1025
1026
1027
1028
1039
1057
1081
1110
1138
1165
1194
1223
1248
1263
1267
1261
1247
1226
1196
1158
1113
1071
1045
1033
1023
1016
1009
1006
1002
1002
998
997
992
989
985
987
988
988
988
984
982
979
979
981
978
977
975
976
980
982
980
977
974
975
977
980
980
976
976
975
981
984
984
983
981
978
981
984
984
983
983
979
981
981
