984
986
984
982
980
983
982
984
986
986
986
986
989
991
992
990
988
989
989
994
989
987
986
988
990
992
994
991
992
992
996
997
996
994
992
992
993
995
994
989
988
986
986
988
992
989
987
988
987
990
989
986
986
985
987
989
989
988
987
987
991
994
995
993
994
992
997
999
999
997
996
995
999
1002
1003
1002
1002
1001
1002
1006
1006
1003
999
1004
1013
1029
1053
1073
1095
1119
1148
1179
1203
1222
1232
1236
1228
1212
1191
1155
1106
1059
1026
1010
1005
991
982
977
978
978
976
972
971
970
973
975
974
970
967
966
969
972
969
967
963
965
966
971
969
968
967
968
969
972
972
969
966
964
968
969
967
964
962
961
959
961
960
960
957
957
960
961
962
958
959
958
960
960
964
963
961
962
965
970
971
969
970
970
974
981
984
983
982
984
989
992
993
995
996
1000
1000
1004
1007
1007
1007
1006
1010
1012
1014
1010
1010
1008
1008
1010
1008
1005
1004
1000
1002
1004
1002
1003
1000
999
998
1003
1000
1000
997
998
1000
1002
1001
998
998
999
1001
1006
1006
1006
1002
1004
1006
1008
1010
1006
1005
1008
1008
1011
1013
1010
1010
1010
1014
1016
1019
1016
1012
1011
1014
1018
1014
1015
1011
1007
1008
1010
1008
1005
1003
1002
1005
1006
1006
1003
1000
1000
1004
1004
1003
997
998
998
998
1004
1005
1006
1006
1004
1003
1010
1008
1009
1008
1007
1011
1012
1009
1008
1008
1011
1013
1017
1018
1016
1013
1013
1017
1019
1017
1017
1016
1013
1016
1016
1017
1014
1012
1010
1010
1011
1011
1007
1006
1008
1009
1012
1012
1012
1010
1009
1011
1013
1011
1009
1007
1013
1025
1045
1070
1093
1112
1134
1162
1191
1219
1241
1252
1254
1246
1226
1198
1159
1110
1063
1038
1034
1027
1016
1005
996
998
1003
1000
995
992
989
989
989
987
985
981
977
977
979
978
974
973
972
969
971
971
968
969
968
969
969
969
967
965
964
967
971
970
972
971
971
974
974
976
974
971
973
973
975
977
975
975
975
977
981
981
983
982
981
984
984
987
988
986
985
989
990
989
988
986
986
986
988
987
987
991
992
994
994
996
996
999
999
1002
1003
1004
1003
1003
1001
1004
1006
1011
1010
1009
1013
1012
1014
1018
1016
1015
1013
1014
1016
1014
1013
1011
1009
1013
1015
1017
1015
1011
1007
1013
1014
1014
1013
1012
1007
1008
1009
1010
1004
1005
1000
999
1001
1002
998
997
996
998
999
998
998
999
996
999
1000
998
996
996
997
999
1002
1002
1005
1003
1001
1005
1006
1007
1008
1005
1004
1004
1008
1011
1009
1006
1005
1008
1012
1011
1009
1008
1008
1010
1012
1011
1008
1006
1005
1006
1007
1005
1001
998
996
996
997
996
996
993
990
990
994
994
992
992
992
996
996
996
990
991
992
996
1000
1000
997
996
995
998
1004
1002
1003
1000
997
997
999
1000
1003
1000
1000
1001
1006
1003
1004
1003
1002
1003
1005
1006
1004
1002
1001
1003
1004
1003
1003
999
998
1000
998
999
993
994
989
992
997
1004
1017
1039
1061
1087
1111
1129
1151
1176
1197
1213
1219
1215
1206
1193
1177
1150
1109
1060
1029
1011
1004
996
988
983
978
976
973
976
971
970
969
969
967
969
971
970
971
965
964
962
966
965
964
960
960
961
961
960
954
953
951
952
954
954
954
947
947
949
953
953
953
950
950
952
956
954
951
950
948
951
955
957
952
953
954
954
959
959
958
956
953
957
961
961
963
961
962
965
968
971
970
969
969
973
973
975
975
971
975
976
979
980
978
977
979
983
985
985
985
982
984
984
986
987
986
987
983
986
988
987
985
984
983
985
989
992
989
986
985
990
990
992
991
989
989
993
994
991
992
991
991
995
995
996
995
993
994
997
1000
998
995
992
992
993
993
994
994
991
990
992
995
995
993
991
990
995
993
993
991
991
989
989
989
993
992
989
985
990
993
990
991
992
991
993
992
994
991
992
987
991
996
1000
998
995
994
1000
1001
1000
997
997
997
996
997
998
996
991
990
991
994
993
990
989
987
992
992
991
988
988
989
992
994
993
990
987
986
990
990
992
991
990
990
992
995
995
995
992
993
996
997
999
995
996
994
997
999
1001
1002
1001
1001
1004
1006
1004
1004
1003
1001
1002
1004
1004
1001
999
998
996
1000
1000
997
995
997
998
1000
998
996
998
996
997
999
1002
1000
996
993
998
1004
1015
1036
1063
1090
1120
1149
1181
1207
1227
1235
1226
1208
1176
1130
1068
1029
1015
1014
1009
1000
992
988
987
988
987
982
979
976
973
976
974
971
966
965
966
968
967
967
963
961
961
965
965
960
961
957
960
960
960
959
957
955
958
963
963
963
962
960
963
968
966
966
967
966
968
967
969
970
968
969
972
975
978
977
978
976
980
982
984
979
981
984
986
987
986
983
980
979
980
983
982
985
987
985
988
990
990
989
989
990
994
996
998
997
996
996
999
999
999
1001
999
1000
1002
1005
1003
1000
1000
1000
1001
1003
1003
1004
1005
1002
1002
1006
1010
1009
1007
1007
1011
1012
1012
1010
1010
1008
1008
1009
1008
1008
1002
1003
1002
1005
1006
1004
1003
1000
1002
1003
1005
1001
1000
997
996
998
1000
997
995
996
997
999
1003
1000
998
998
999
1001
1002
1002
999
1001
1005
1008
1008
1007
1008
1007
1009
1012
1012
1009
1009
1006
1009
1012
1013
1011
1008
1006
1005
1004
1006
1007
1005
1004
1006
1005
1005
1003
1002
1001
1004
1002
1004
1002
997
999
999
1000
1001
998
997
997
1005
1025
1048
1069
1089
1113
1140
1166
1192
1217
1233
1245
1246
1237
1222
1199
1161
1115
1066
1034
1021
1012
1003
991
990
989
988
982
976
974
973
975
972
971
966
964
966
967
967
962
963
959
962
963
961
959
956
956
957
960
960
958
955
955
955
960
959
959
956
956
958
961
963
961
959
959
963
963
964
962
963
964
966
968
966
965
967
966
969
970
969
969
964
964
965
968
968
967
966
966
970
975
976
978
975
975
978
982
984
983
982
981
985
987
989
987
984
982
985
988
987
986
984
985
989
989
987
987
984
985
985
987
989
987
987
986
988
990
994
990
988
987
988
991
989
987
984
983
985
989
989
987
984
982
984
985
982
984
983
983
982
984
986
987
984
983
985
986
986
986
984
981
984
985
985
983
984
984
987
985
986
980
978
978
980
978
980
979
979
976
981
986
988
987
981
979
986
989
994
990
988
987
987
986
988
985
980
978
984
1000
1023
1046
1066
1087
1117
1148
1179
1202
1213
1220
1218
1209
1189
1165
1127
1076
1031
1002
992
987
973
965
964
964
962
958
952
949
951
952
953
947
947
946
947
947
945
946
942
940
943
942
943
940
935
935
936
936
935
929
926
927
930
934
933
931
929
928
931
929
931
927
926
926
929
931
933
930
928
928
929
930
933
931
931
932
935
938
940
937
936
938
942
942
946
945
945
945
950
954
960
958
962
963
966
969
969
969
970
967
968
975
975
974
971
970
971
971
972
972
971
970
972
973
975
975
970
969
970
972
975
973
971
969
970
970
967
970
965
967
970
976
976
976
974
971
974
977
978
976
974
974
976
980
980
980
977
974
979
982
986
986
984
985
986
987
989
986
986
985
986
983
986
984
980
978
980
984
982
981
979
978
979
980
980
977
975
974
978
979
975
973
972
972
975
977
973
974
974
974
976
979
976
977
975
975
978
978
978
977
974
975
976
979
980
982
982
980
984
986
989
987
985
985
987
987
990
988
985
986
987
990
990
989
986
983
984
988
988
985
987
983
987
988
987
988
986
985
983
983
984
990
1000
1018
1039
1063
1089
1107
1127
1151
1175
1198
1210
1216
1207
1196
1178
1155
1120
1074
1034
1009
1001
995
989
978
972
972
969
971
971
966
962
961
962
962
960
958
956
953
952
951
950
952
950
949
948
952
951
949
945
946
944
944
944
943
941
939
942
941
945
945
942
943
946
946
950
949
946
947
951
951
952
951
953
952
956
958
961
960
959
959
960
963
961
965
966
962
965
968
968
967
966
966
968
973
976
975
974
975
976
976
980
980
979
979
979
982
983
983
981
980
983
987
986
988
986
983
983
986
985
989
986
983
987
989
991
989
988
987
988
993
992
993
992
993
995
995
997
996
992
992
992
993
991
992
988
989
990
994
992
992
987
986
987
989
991
989
985
984
985
987
985
986
981
979
983
985
988
984
983
981
987
988
989
986
987
986
990
989
993
990
988
988
991
994
997
996
997
994
997
999
998
996
994
995
996
997
996
995
993
991
991
991
991
990
987
987
991
996
993
991
989
990
990
993
991
990
988
984
986
987
989
990
987
988
988
991
991
988
987
988
989
990
992
990
989
988
991
992
994
992
992
994
995
998
999
998
996
996
999
1008
1026
1044
1061
1079
1105
1125
1146
1166
1187
1203
1219
1224
1220
1211
1193
1175
1148
1111
1068
1034
1014
1006
997
989
981
975
971
969
967
967
965
964
962
960
961
961
963
959
959
956
958
958
955
953
952
953
953
954
958
955
954
955
957
957
960
958
956
956
956
958
960
957
955
955
953
951
951
946
944
943
940
945
950
948
949
947
947
951
956
955
953
954
958
959
961
960
957
957
959
961
962
965
964
963
966
968
968
970
973
970
973
977
978
981
982
981
983
984
991
991
990
989
993
994
996
992
992
990
992
993
992
989
984
983
984
987
985
983
982
983
979
983
989
986
983
981
984
984
986
983
982
980
981
985
985
984
986
984
986
989
990
990
986
985
985
988
988
989
986
985
990
992
993
993
991
989
991
993
995
992
990
988
985
986
985
985
983
982
983
986
986
987
984
982
985
985
987
986
981
982
980
983
986
984
981
980
983
986
987
987
986
984
985
986
989
984
984
984
986
987
991
991
987
985
989
990
994
992
989
988
991
990
994
991
989
988
986
988
988
987
984
983
985
984
987
987
985
982
987
985
986
987
985
985
986
986
989
997
1010
1030
1055
1085
1104
1126
1146
1172
1196
1217
1227
1224
1210
1194
1176
1149
1106
1058
1024
1009
1000
994
987
979
974
972
970
974
971
969
965
963
962
963
960
958
956
955
950
953
951
949
948
945
947
948
952
950
948
949
948
950
954
952
947
946
944
947
946
945
939
936
940
943
944
946
945
944
944
943
946
944
942
944
945
947
949
948
949
949
948
950
953
954
952
953
954
957
957
959
954
952
953
956
958
956
955
956
959
960
961
964
964
964
968
970
975
975
974
975
978
979
981
978
975
975
975
974
975
977
977
975
975
979
980
978
977
973
976
978
979
976
975
974
977
977
977
977
975
971
973
977
978
975
972
970
969
973
976
974
972
970
968
969
969
969
968
969
966
967
969
969
969
968
970
973
976
970
969
967
967
971
973
970
966
967
968
972
971
967
969
968
969
970
968
969
966
966
970
973
974
974
971
970
968
971
973
972
969
967
968
969
968
968
965
963
966
967
967
963
963
963
964
965
965
966
963
961
961
961
964
963
959
958
961
962
965
963
962
962
962
965
967
964
962
960
961
964
966
966
966
966
967
968
972
972
970
968
968
970
970
968
967
964
964
963
967
964
961
962
963
969
970
972
969
968
968
971
971
974
983
998
1021
1045
1071
1092
1111
1138
1164
1182
1192
1186
1177
1164
1146
1120
1075
1027
992
977
971
968
961
954
953
952
951
950
949
950
946
941
941
945
945
942
939
936
935
933
929
926
921
921
922
925
929
928
926
925
927
931
934
929
928
927
931
929
930
925
927
927
927
930
933
934
930
930
929
933
937
936
934
929
936
936
941
941
940
940
943
947
946
944
944
946
946
950
952
952
951
948
951
954
956
956
955
953
951
955
956
957
955
959
961
963
965
965
963
961
964
967
966
967
966
966
968
969
968
971
968
965
968
970
971
970
967
968
969
974
975
973
973
974
973
976
976
976
974
971
971
972
973
972
968
967
966
968
967
969
964
964
966
966
968
968
965
965
965
965
968
966
967
968
970
975
977
975
974
972
974
975
976
976
975
972
974
974
977
977
974
972
976
977
981
981
976
976
977
981
981
980
977
976
976
976
974
971
968
971
973
976
974
973
970
969
969
971
972
972
969
967
966
969
973
973
972
974
975
978
976
977
976
975
975
980
981
980
979
980
981
982
988
986
982
981
981
985
985
984
981
977
978
977
978
975
973
970
974
975
977
976
973
973
974
973
975
975
973
969
969
971
973
972
970
971
970
975
974
974
973
971
972
974
982
976
977
978
980
980
979
984
984
983
985
986
988
987
986
981
982
985
986
982
980
978
980
981
980
980
979
977
984
1002
1025
1050
1073
1093
1118
1147
1177
1198
1209
1206
1196
1178
1151
1113
1059
1013
992
987
984
976
967
964
963
964
964
960
960
960
959
961
962
961
959
953
953
955
957
956
951
947
949
949
949
948
945
941
945
946
946
945
938
943
942
945
948
946
945
944
942
946
946
947
947
943
945
946
946
947
945
945
947
951
954
952
952
950
954
956
960
960
961
959
963
967
968
968
965
966
969
971
975
975
975
973
976
979
981
982
981
979
980
981
984
984
983
983
984
985
987
985
984
982
980
986
987
988
984
985
985
985
986
981
983
980
981
983
985
985
984
981
985
987
989
989
987
986
985
987
988
988
985
986
986
985
986
982
980
979
978
982
985
983
983
983
985
986
989
988
986
984
985
987
988
987
980
983
983
988
989
988
986
986
988
989
991
990
987
987
988
992
993
994
993
989
991
991
992
991
990
986
987
989
993
991
988
986
985
987
987
986
983
981
985
986
988
988
986
986
987
990
990
992
988
986
985
989
991
990
985
985
985
989
989
991
987
989
989
990
991
990
987
987
988
989
993
993
991
994
992
994
998
997
992
989
988
1000
1012
1029
1049
1072
1098
1123
1145
1170
1191
1212
1224
1228
1218
1206
1183
1155
1118
1073
1034
1013
1001
991
985
978
972
977
971
968
969
971
971
971
967
965
962
962
967
967
961
959
959
960
962
960
960
959
960
961
963
963
957
958
960
962
961
961
957
958
957
959
962
959
958
957
959
962
961
959
960
955
957
958
962
963
961
960
961
963
962
962
960
958
961
964
964
965
964
969
969
971
972
972
970
968
974
978
982
983
982
985
988
989
992
992
992
992
992
994
997
998
999
995
995
998
997
998
995
991
990
995
995
994
990
990
988
991
994
994
993
990
989
989
987
988
982
983
986
990
994
993
989
987
988
991
991
993
988
989
988
988
991
991
989
990
992
994
997
999
1000
999
997
999
1000
999
997
995
996
998
1002
1001
1000
996
997
998
1000
998
995
995
993
996
997
997
997
994
993
995
996
994
994
992
991
995
997
998
996
995
996
998
999
999
998
997
999
1002
1003
1004
1001
999
1001
1004
1006
1004
1003
998
1003
1005
1005
1002
1003
1001
999
1002
1002
1003
999
997
997
999
1004
1003
1001
998
999
1003
1005
1004
1000
997
999
1009
1025
1044
1060
1078
1101
1126
1152
1180
1200
1220
1232
1237
1230
1219
1208
1186
1157
1114
1073
1041
1025
1015
1005
1000
1000
997
997
991
989
989
987
985
982
983
979
982
983
979
977
976
974
974
972
972
970
970
968
971
972
969
970
970
969
969
971
970
967
966
964
968
968
970
968
969
966
970
968
968
968
968
969
969
972
973
973
971
974
979
981
982
978
978
980
981
982
984
980
983
980
986
986
986
988
985
986
990
995
995
997
996
994
1000
1004
1005
1003
1004
1003
1006
1008
1008
1006
1001
1001
1003
1008
1007
1004
1003
1006
1006
1010
1010
1009
1008
1005
1008
1008
1013
1013
1008
1007
1010
1013
1012
1011
1009
1012
1012
1015
1014
1011
1009
1011
1012
1013
1011
1010
1007
1008
1012
1011
1011
1008
1006
1008
1010
1012
1013
1012
1008
1007
1009
1013
1011
1009
1009
1008
1011
1013
1012
1014
1011
1011
1013
1016
1014
1012
1006
1004
1010
1014
1016
1011
1010
1011
1016
1020
1020
1019
1015
1017
1018
1019
1021
1017
1015
1014
1016
1018
1016
1015
1012
1011
1013
1014
1015
1012
1012
1011
1014
1016
1014
1011
1011
1012
1016
1014
1013
1010
1007
1006
1008
1010
1009
1009
1010
1012
1013
1017
1014
1014
1012
1012
1013
1017
1018
1013
1014
1013
1014
1019
1020
1020
1016
1021
1022
1023
1024
1022
1020
1020
1023
1025
1025
1026
1022
1022
1023
1025
1023
1021
1021
1020
1019
1019
1021
1024
1035
1053
1075
1101
1120
1138
1157
1180
1207
1227
1243
1249
1245
1237
1226
1208
1180
1137
1091
1055
1037
1033
1024
1013
1002
1000
999
1004
1000
995
992
990
993
994
994
993
991
989
996
998
996
994
994
992
992
994
995
993
990
989
990
987
987
985
982
981
983
987
988
988
985
982
986
989
987
988
986
983
984
987
986
984
980
981
986
988
988
987
987
986
990
991
991
994
991
992
993
997
1000
998
996
999
1005
1006
1006
1006
1005
1005
1009
1013
1015
1013
1012
1013
1016
1020
1020
1018
1019
1020
1023
1027
1028
1027
1024
1023
1026
1027
1028
1024
1021
1023
1025
1025
1024
1025
1021
1021
1022
1026
1027
1025
1024
1021
1023
1026
1027
1025
1022
1023
1026
1028
1028
1026
1025
1022
1027
1028
1028
1027
1024
1023
1024
1025
1024
1025
1023
1021
1021
1023
1020
1019
1018
1020
1020
1023
1022
1022
1022
1023
1023
1026
1024
1026
1023
1021
1023
1025
1024
1024
1024
1021
1025
1026
1029
1026
1022
1023
1026
1027
1027
1026
1025
1023
1024
1029
1030
1026
1024
1024
1025
1029
1027
1025
1024
1022
1026
1027
1023
1024
1022
1018
1021
1022
1020
1018
1019
1017
1017
1021
1020
1018
1016
1016
1017
1020
1019
1018
1013
1016
1018
1022
1022
1019
1019
1019
1021
1024
1026
1020
1023
1023
1024
1029
1027
1021
1023
1023
1027
1028
1029
1026
1031
1032
1030
1036
1032
1034
1033
