931
931
934
935
936
934
929
928
930
934
936
934
927
927
930
933
934
931
933
933
933
933
933
932
931
929
931
933
934
933
932
927
931
932
929
928
928
928
933
935
932
932
929
926
930
937
939
935
932
929
930
933
933
934
933
930
933
938
942
942
942
940
941
946
949
950
949
954
957
958
959
960
959
961
963
966
968
964
962
962
965
968
966
963
960
958
961
963
964
961
958
957
958
957
959
960
956
956
955
955
956
956
953
951
950
953
954
952
953
954
956
958
959
955
956
955
959
959
961
959
957
957
959
964
968
966
963
962
964
967
966
967
965
961
961
964
962
959
957
956
957
957
959
957
954
955
957
959
958
956
953
952
954
958
954
953
950
947
949
952
953
955
953
952
952
954
955
954
951
950
954
953
955
956
956
954
958
959
960
960
960
960
961
966
967
967
966
965
964
963
965
963
964
965
962
965
964
963
959
958
960
963
965
964
960
960
960
961
962
963
960
960
961
960
959
956
954
953
956
965
976
991
1009
1030
1054
1076
1098
1121
1144
1166
1184
1197
1199
1189
1175
1158
1131
1100
1058
1019
992
979
977
969
961
950
945
943
945
944
945
943
942
937
938
939
936
937
935
931
931
930
929
928
926
926
926
929
928
926
923
921
922
923
926
924
919
918
918
920
919
917
917
917
916
918
919
916
914
917
918
917
919
919
916
915
917
920
923
923
920
918
922
922
926
925
923
922
925
927
931
931
930
931
933
934
932
931
932
933
936
939
942
942
941
943
942
948
951
949
948
948
950
951
953
953
952
948
947
951
954
952
949
950
951
953
953
951
952
953
955
952
953
950
952
951
954
957
956
957
954
953
956
957
955
956
952
955
955
956
956
957
954
954
955
957
957
957
956
956
956
958
959
954
955
955
958
960
959
955
952
952
955
957
955
958
956
958
956
960
962
962
961
960
962
962
958
958
957
958
960
962
965
961
958
957
960
962
962
962
959
958
958
957
959
960
955
952
952
953
952
953
952
953
953
954
955
952
950
950
953
954
953
950
952
950
950
953
954
952
951
950
952
955
955
955
958
956
958
957
957
956
956
955
959
964
962
960
956
960
964
965
966
965
962
963
964
966
968
968
965
963
964
967
967
965
961
959
960
968
984
1002
1023
1042
1064
1089
1112
1136
1158
1176
1193
1198
1189
1179
1159
1136
1104
1062
1018
987
976
967
960
953
948
945
943
940
938
938
937
941
939
937
938
939
940
940
937
937
936
941
941
940
936
934
935
937
936
931
927
924
927
929
930
929
928
925
929
928
928
926
925
928
928
930
929
929
926
922
927
927
925
925
926
924
928
930
931
932
932
930
933
935
936
937
935
935
937
940
939
940
938
940
941
947
950
948
948
947
948
952
955
956
956
957
957
957
959
961
962
962
962
964
964
965
965
963
965
968
968
967
962
962
964
966
969
966
962
962
962
962
962
963
963
964
966
966
965
965
965
967
967
967
963
965
966
965
965
965
968
966
964
966
967
970
973
967
964
963
966
967
970
970
968
965
965
967
970
972
970
966
967
970
969
970
969
965
964
966
966
966
963
965
966
968
968
967
967
966
967
969
969
972
969
967
967
971
974
972
971
969
974
977
981
980
978
976
977
979
977
979
978
978
977
976
977
974
972
970
971
973
972
973
973
972
976
978
980
976
975
972
973
976
982
991
1005
1027
1053
1081
1107
1133
1159
1180
1202
1210
1210
1196
1179
1156
1123
1078
1033
1007
996
988
981
976
972
972
969
969
970
969
968
964
962
959
960
961
961
959
955
953
955
957
958
953
950
950
950
952
952
951
946
947
947
948
948
951
947
948
948
950
949
950
947
949
950
952
953
950
949
947
950
954
956
953
951
953
957
956
960
960
961
960
962
966
967
966
965
963
965
966
969
970
968
969
971
972
976
978
978
978
981
983
986
983
980
983
984
986
987
984
979
977
981
982
986
982
979
980
980
980
981
983
980
979
978
982
986
984
984
985
986
990
991
988
986
988
990
992
994
993
990
989
992
995
995
993
989
988
991
994
995
994
991
990
992
995
997
993
994
990
990
988
990
993
992
991
995
997
997
995
993
993
996
997
998
998
994
993
997
1000
1000
998
998
995
1000
1000
1003
1001
999
998
999
1002
1003
1003
1000
996
996
998
1000
1003
998
998
999
1002
1004
1002
1002
1003
1005
1007
1005
1004
1007
1023
1045
1071
1098
1121
1147
1175
1207
1235
1254
1260
1252
1237
1218
1188
1142
1088
1043
1021
1014
1009
1001
996
993
989
989
991
991
990
986
984
983
985
983
984
979
977
976
978
979
979
977
976
977
978
977
977
975
971
970
970
969
967
965
966
968
969
971
970
970
966
972
973
971
970
969
966
968
972
971
972
973
974
977
982
986
984
984
982
984
987
990
991
989
989
992
995
998
1001
1000
1002
1004
1008
1010
1011
1014
1014
1013
1014
1014
1015
1016
1014
1016
1014
1016
1015
1012
1012
1013
1015
1018
1015
1015
1014
1017
1020
1018
1017
1016
1015
1018
1023
1024
1023
1021
1021
1022
1026
1027
1025
1023
1023
1022
1023
1025
1025
1021
1020
1022
1023
1023
1024
1022
1020
1022
1023
1023
1024
1019
1019
1020
1020
1020
1019
1018
1018
1018
1020
1022
1021
1020
1021
1021
1026
1027
1026
1022
1022
1023
1027
1025
1029
1025
1025
1026
1027
1031
1030
1026
1023
1023
1026
1028
1027
1028
1023
1025
1024
1024
1022
1020
1019
1019
1021
1022
1020
1020
1020
1023
1025
1024
1024
1020
1020
1022
1026
1026
1025
1023
1023
1026
1029
1029
1027
1024
1025
1027
1029
1032
1029
1029
1029
1028
1031
1033
1035
1035
1035
1033
1034
1032
1034
1038
1050
1067
1089
1112
1135
1153
1178
1205
1233
1250
1259
1251
1241
1228
1204
1168
1117
1072
1047
1042
1033
1025
1013
1007
1005
1007
1006
1007
1004
1001
999
999
999
1000
999
998
996
996
995
998
998
998
994
995
996
998
999
996
995
996
993
997
994
989
990
991
993
992
989
989
989
992
994
996
993
995
994
996
999
1000
997
993
994
994
997
999
996
994
994
993
999
1003
1002
1001
999
997
1003
1007
1005
1006
1007
1011
1013
1019
1018
1016
1019
1020
1025
1025
1022
1024
1023
1028
1031
1034
1034
1030
1026
1028
1030
1032
1031
1026
1025
1025
1031
1032
1030
1028
1026
1027
1028
1027
1028
1023
1022
1022
1024
1023
1023
1021
1020
1022
1024
1026
1024
1021
1020
1022
1027
1028
1024
1023
1021
1023
1026
1030
1026
1025
1024
1025
1028
1029
1031
1029
1029
1027
1030
1031
1032
1029
1030
1029
1031
1031
1029
1028
1024
1026
1025
1028
1025
1023
1019
1020
1026
1027
1023
1020
1018
1019
1021
1021
1022
1018
1019
1023
1025
1024
1026
1023
1025
1024
1026
1025
1024
1024
1021
1022
1024
1023
1024
1025
1024
1024
1029
1028
1026
1025
1023
1026
1030
1030
1028
1026
1023
1023
1024
1025
1025
1020
1019
1018
1019
1023
1023
1018
1016
1015
1016
1019
1019
1025
1036
1057
1082
1105
1127
1147
1172
1202
1229
1243
1252
1248
1236
1222
1204
1176
1130
1080
1045
1036
1032
1026
1018
1011
1007
1006
1008
1007
1003
1001
997
997
997
998
995
991
990
990
988
987
986
985
981
982
984
984
979
976
974
974
974
981
980
977
973
973
972
973
976
973
971
969
973
975
973
976
973
974
975
975
976
973
969
973
975
977
974
975
975
977
980
983
983
984
980
982
981
985
984
984
983
985
989
987
984
984
985
987
989
993
993
992
991
995
996
1001
1002
998
997
999
1003
1004
1002
1001
998
999
1000
1002
999
999
998
1002
1005
1005
1004
1001
1000
1000
1002
1002
1001
1002
995
997
999
1000
1005
1003
1002
1005
1008
1009
1006
1004
1004
1007
1010
1010
1010
1008
1008
1008
1010
1010
1010
1005
1004
1005
1008
1010
1008
1006
1002
1004
1008
1009
1009
1007
1004
1001
1005
1005
1008
1005
1001
1003
1007
1010
1009
1006
1002
1003
1005
1006
1004
1001
1000
1004
1009
1013
1008
1008
1012
1013
1014
1015
1016
1012
1011
1010
1012
1011
1013
1006
1003
1007
1009
1011
1014
1009
1009
1010
1011
1012
1009
1006
1003
1001
1005
1022
1038
1060
1078
1105
1129
1152
1174
1198
1216
1229
1234
1231
1216
1199
1178
1143
1101
1062
1037
1023
1014
1006
999
998
997
993
991
984
987
986
984
984
983
981
981
979
979
977
976
977
980
981
976
974
972
974
978
979
974
973
971
971
973
974
974
970
969
968
970
974
973
972
972
971
971
971
974
972
969
970
976
977
975
973
974
976
982
985
980
979
977
977
980
982
981
978
975
974
976
977
978
979
976
977
985
989
992
992
993
997
1001
1002
1004
1001
1000
1002
1001
1003
1005
1000
998
999
1001
1004
1004
1006
1004
1004
1003
1006
1006
1005
1005
1008
1007
1007
1005
1003
1002
1005
1004
1006
1007
1006
1007
1009
1011
1014
1016
1011
1010
1010
1012
1013
1011
1007
1007
1003
1006
1007
1004
1003
1001
1004
1006
1008
1008
1004
1002
1004
1008
1011
1011
1011
1008
1007
1009
1009
1010
1007
1007
1008
1009
1009
1008
1008
1007
1008
1010
1013
1009
1007
1004
1005
1010
1012
1009
1009
1009
1009
1012
1014
1015
1014
1012
1014
1013
1015
1014
1009
1009
1012
1015
1014
1011
1008
1004
1003
1005
1006
1006
1000
1002
1002
1002
1007
1008
1006
1007
1008
1010
1012
1008
1006
1006
1006
1009
1008
1009
1008
1007
1010
1012
1010
1011
1009
1007
1008
1010
1013
1011
1009
1008
1009
1011
1012
1016
1013
1014
1014
1015
1018
1015
1015
1013
1015
1019
1018
1015
1013
1010
1011
1013
1010
1008
1003
1001
1001
1003
1005
1006
1005
1003
1003
1004
1007
1007
1010
1007
1007
1008
1011
1011
1008
1009
1012
1013
1012
1011
1011
1010
1011
1013
1015
1012
1011
1009
1008
1013
1017
1018
1016
1012
1015
1018
1019
1022
1020
1018
1018
1019
1022
1023
1018
1019
1017
1017
1013
1010
1008
1005
1007
1009
1015
1029
1049
1074
1098
1125
1150
1177
1201
1224
1236
1238
1228
1211
1180
1136
1089
1049
1030
1023
1012
1000
994
996
997
995
989
988
985
987
991
990
988
985
982
984
983
984
984
979
980
980
982
978
972
968
970
967
968
964
965
965
967
969
967
967
966
965
967
969
971
969
967
964
966
966
971
971
967
967
967
969
972
973
975
972
974
974
976
977
978
979
979
983
984
986
984
984
986
990
992
992
991
990
990
992
999
997
995
994
995
994
999
1000
1000
999
998
1001
1002
1003
1001
1004
1003
1003
1004
1004
1003
1002
1002
1003
1005
1002
1000
1002
1004
1006
1009
1011
1007
1006
1005
1007
1008
1008
1005
1003
1001
1005
1005
1005
1005
1005
1004
1008
1006
1007
1004
1002
1003
1003
1005
1003
999
999
996
996
999
996
993
994
995
996
1000
999
998
998
1000
1002
1004
1001
999
1000
1001
1002
1006
1002
1002
999
998
1001
1003
1002
1004
1000
999
999
1002
1004
1004
1003
1003
1003
1005
1002
1003
1003
1004
1005
1008
1009
1006
1004
1003
1003
1005
1004
1002
999
1001
1003
1003
1005
1003
999
999
1000
1004
1003
1001
1002
1002
1002
1001
1003
1000
997
1000
1003
1002
999
995
993
993
996
999
999
993
993
996
999
1002
1002
1000
996
996
999
1003
1002
1003
1002
1002
1003
1006
1006
1005
1006
1004
1003
1002
999
999
1000
1000
1002
1003
1002
998
999
1006
1021
1042
1062
1083
1105
1127
1153
1180
1203
1220
1227
1224
1213
1201
1183
1152
1107
1061
1027
1009
1004
996
986
981
979
980
979
975
973
972
974
975
970
965
966
969
969
969
973
969
967
966
966
969
967
966
961
961
962
962
961
960
960
957
959
961
959
956
957
957
961
961
958
956
955
958
958
958
957
955
953
954
957
958
957
955
953
954
955
957
958
959
960
960
964
963
962
961
960
962
967
967
968
969
970
971
972
974
976
978
980
980
981
984
986
984
987
991
990
993
993
992
989
990
993
994
993
995
993
995
997
997
995
993
994
994
996
995
995
990
990
991
991
988
987
983
984
985
990
992
990
986
985
984
987
991
991
987
987
985
986
989
990
989
987
986
989
993
993
992
991
990
990
993
993
992
990
992
993
994
992
992
989
990
991
992
994
994
995
995
995
996
996
994
992
993
994
996
997
989
991
989
990
991
988
988
987
989
987
990
990
987
988
989
991
991
990
989
987
991
993
993
993
991
989
991
995
995
995
992
997
1007
1025
1051
1073
1095
1117
1144
1171
1197
1217
1230
1233
1229
1219
1200
1174
1137
1089
1043
1017
1005
999
988
974
971
969
970
966
961
956
953
958
959
958
957
953
953
954
955
951
949
949
951
951
950
947
948
946
950
952
952
948
948
948
949
952
953
953
951
949
947
949
950
949
946
943
944
947
952
949
951
947
946
946
952
950
948
945
945
943
951
947
948
947
945
946
952
951
949
951
957
960
960
962
962
964
966
969
973
974
972
971
974
976
981
982
982
981
981
982
983
983
979
978
979
981
982
980
978
975
975
978
978
978
975
973
977
981
981
977
976
970
974
976
975
976
972
972
971
977
982
981
977
975
973
977
980
981
980
979
976
980
986
987
985
986
988
990
992
992
986
988
989
993
992
992
991
988
988
990
992
991
986
983
984
988
991
992
989
987
985
986
988
988
986
986
984
985
988
988
986
985
986
985
983
986
979
979
981
983
986
986
980
980
978
979
983
985
983
980
982
984
986
984
985
985
987
987
990
989
984
987
984
990
991
988
986
984
983
984
987
985
982
981
982
983
986
985
984
984
980
982
981
984
980
981
982
985
986
983
980
982
981
986
989
987
985
984
983
985
988
990
988
988
987
998
1009
1027
1048
1070
1091
1112
1136
1161
1182
1200
1212
1216
1214
1202
1187
1164
1133
1093
1052
1021
1004
998
986
978
977
977
975
970
970
968
968
967
964
961
957
959
956
956
953
951
951
953
956
953
951
951
951
953
956
954
950
946
946
947
946
948
943
944
942
943
947
948
949
951
953
955
956
953
953
953
951
953
955
953
951
951
952
957
960
957
952
957
955
956
960
962
963
958
959
961
964
966
963
962
962
967
968
970
972
971
974
977
979
979
976
979
981
981
985
986
984
987
988
992
993
994
994
992
990
994
996
995
994
989
989
993
993
992
989
987
989
988
992
992
990
989
990
991
995
994
992
990
990
991
992
992
987
983
983
987
988
990
991
990
991
989
992
992
991
992
991
996
997
994
993
993
994
998
999
1000
999
998
998
1002
1005
1004
1002
997
998
998
1001
999
997
995
994
993
996
995
991
991
992
994
997
996
994
991
992
993
998
997
993
985
984
986
991
992
989
988
989
993
993
994
992
990
990
990
995
993
991
991
992
996
997
997
997
997
997
999
1001
1000
997
996
996
997
1002
1000
998
995
994
996
993
994
994
992
992
997
996
995
994
993
995
997
998
995
990
989
995
1014
1032
1053
1072
1093
1113
1139
1167
1196
1216
1229
1232
1231
1222
1206
1184
1148
1101
1058
1028
1011
1004
991
982
982
980
977
976
970
967
968
973
970
965
962
961
961
962
959
955
954
950
952
952
951
949
949
948
950
951
950
947
946
947
947
950
949
943
944
943
944
944
947
944
942
942
946
948
949
947
946
945
946
948
950
948
946
946
951
951
951
949
950
951
954
955
955
953
953
953
957
961
960
956
953
956
960
967
969
969
968
971
976
979
983
981
978
978
984
988
988
987
985
984
984
983
987
986
984
983
990
990
989
987
983
983
989
989
986
983
982
983
984
985
988
984
983
985
986
990
988
986
984
985
984
987
988
981
982
981
984
987
989
988
984
983
987
990
990
986
983
982
983
983
986
984
984
984
985
986
987
984
982
983
983
984
986
984
982
984
986
989
987
986
986
988
988
989
991
991
988
988
993
990
990
986
985
984
985
987
990
985
982
982
986
990
986
983
982
979
983
983
981
982
980
979
978
983
985
982
979
980
980
984
984
984
981
982
986
989
988
988
988
989
990
992
991
989
989
990
991
994
995
991
987
988
988
991
995
1003
1021
1046
1075
1100
1121
1143
1168
1191
1208
1215
1209
1193
1171
1147
1111
1063
1020
996
988
980
970
965
963
961
959
958
958
958
956
953
953
954
955
958
957
956
954
954
958
962
962
958
956
957
954
957
958
953
951
949
950
950
950
947
946
947
946
946
946
943
940
943
945
947
944
940
937
935
939
940
939
937
937
940
943
947
946
943
941
942
947
951
950
951
947
950
952
960
963
963
965
967
968
975
977
977
977
978
981
984
984
983
981
979
983
987
985
985
982
983
986
987
986
981
979
975
979
982
978
974
971
970
970
974
973
973
970
972
972
974
974
975
975
974
974
977
982
981
978
982
983
987
987
986
984
986
986
988
987
985
984
986
984
986
985
983
980
983
985
987
988
984
980
980
984
987
984
981
977
977
981
981
980
979
977
976
978
982
978
980
976
976
978
982
984
981
980
980
983
987
990
986
981
983
984
986
988
987
985
984
984
985
985
981
981
982
983
983
982
983
993
1008
1039
1065
1091
1113
1136
1166
1193
1209
1216
1207
1194
1178
1155
1118
1066
1019
997
989
984
976
971
967
964
963
964
963
960
957
953
955
953
958
955
955
951
949
951
951
952
948
944
943
942
945
943
941
942
939
939
939
940
939
934
934
935
935
935
933
933
933
935
936
938
937
935
936
939
940
939
939
937
938
939
940
942
942
939
940
948
952
953
953
951
952
955
956
961
962
960
962
966
970
971
968
970
972
972
974
972
971
974
972
975
974
975
972
972
972
971
974
973
968
967
969
970
976
975
970
970
971
973
977
977
975
972
973
976
979
977
977
979
977
979
981
980
979
977
979
979
982
982
977
980
980
980
981
979
979
976
977
978
980
978
975
974
975
977
978
977
971
971
973
974
981
980
977
975
975
977
979
981
978
975
974
975
978
980
