993
994
994
996
994
994
993
993
995
995
994
992
990
991
995
997
996
995
997
996
1001
1002
1001
996
995
994
996
998
997
994
990
989
992
992
989
987
985
985
985
986
986
984
981
980
983
983
985
983
981
982
984
986
986
983
984
986
987
990
991
988
988
987
987
994
995
994
988
991
994
996
995
993
991
994
993
995
992
990
992
991
993
993
992
990
985
985
987
990
990
989
984
983
985
985
986
988
985
986
989
990
989
988
989
989
990
991
990
991
991
992
994
996
996
994
993
995
997
997
997
996
996
996
999
1009
1020
1035
1056
1079
1101
1124
1145
1166
1186
1208
1223
1228
1220
1205
1187
1164
1131
1092
1049
1021
1007
998
993
987
981
976
973
972
971
972
971
968
966
966
967
970
966
965
964
964
964
966
966
960
958
960
961
960
963
961
958
959
958
961
955
951
949
947
949
952
951
950
947
948
949
952
953
953
950
951
953
955
955
954
952
950
956
957
958
959
958
961
962
966
966
966
963
966
971
971
969
968
967
966
967
964
964
962
963
966
971
972
976
974
974
975
979
985
985
984
981
984
986
988
987
986
986
985
986
991
987
986
984
985
984
984
981
979
977
978
979
982
983
982
981
984
986
987
988
984
982
983
984
986
987
988
986
986
989
991
989
987
985
985
988
990
988
987
985
984
988
989
989
986
985
984
983
987
986
983
983
982
982
985
983
982
980
979
981
984
984
984
982
983
980
982
982
985
982
984
984
985
983
983
983
983
981
986
985
982
981
981
977
982
981
977
976
977
978
978
980
979
979
978
981
983
983
981
978
979
982
985
986
984
981
983
988
989
988
986
983
985
988
989
988
990
997
1013
1036
1064
1089
1110
1131
1160
1186
1208
1222
1221
1212
1196
1179
1155
1116
1065
1023
998
993
985
975
966
964
962
961
962
960
958
954
954
955
954
950
951
949
948
949
948
946
946
947
950
951
952
952
950
949
947
949
952
950
947
943
944
947
947
946
945
943
943
942
939
945
939
939
938
942
945
947
946
945
945
947
949
951
949
945
947
949
951
951
950
944
946
949
953
959
957
956
958
958
963
964
965
965
966
969
972
973
973
972
974
976
976
977
975
975
977
977
982
981
979
976
978
982
981
981
976
977
977
981
983
980
978
977
977
980
982
980
979
979
978
979
980
980
979
976
978
980
980
980
977
978
978
979
981
980
980
977
980
984
985
985
985
984
987
988
989
991
987
986
988
989
990
988
988
985
986
988
990
988
986
981
984
984
987
986
983
982
983
984
987
987
984
983
986
987
989
989
989
987
987
989
988
988
987
985
987
991
994
992
989
985
984
991
1000
1017
1035
1056
1080
1105
1132
1160
1187
1207
1224
1240
1247
1241
1226
1203
1181
1152
1115
1070
1032
1011
1002
994
986
981
978
975
975
974
973
973
969
966
963
962
961
963
962
956
958
956
954
958
953
953
951
953
954
952
950
947
947
952
951
953
953
948
953
955
956
953
953
951
952
952
950
949
952
950
949
952
955
958
955
951
954
958
960
960
960
959
961
964
966
966
965
965
966
968
970
971
967
967
967
971
975
974
973
973
977
981
985
985
986
986
985
989
989
993
989
988
988
990
993
993
994
989
989
991
993
995
995
993
990
995
995
998
997
995
995
998
997
998
996
993
993
997
998
998
996
996
994
995
998
997
997
996
998
999
1002
1000
999
997
993
1002
1004
1000
998
997
997
998
1000
1000
995
993
990
994
996
997
995
992
993
995
1000
1000
998
997
997
1000
1002
1002
1000
998
999
1000
1002
1002
1001
1000
1000
1002
1005
1002
1002
1000
998
1000
1002
1002
1003
1002
1000
1002
1004
1004
1000
998
999
1001
1003
1002
999
996
994
994
996
996
990
988
992
994
993
996
996
993
995
1001
1001
1005
1002
1001
1002
1004
1006
1003
1001
1002
1000
1000
1002
1002
999
996
995
998
1000
995
998
996
997
997
999
1001
998
994
995
997
998
995
990
990
991
994
997
994
995
994
998
1004
1004
1004
1001
999
998
1005
1017
1037
1055
1075
1100
1122
1148
1172
1197
1220
1237
1244
1240
1231
1209
1180
1144
1097
1055
1029
1015
1005
992
987
984
982
977
974
969
971
972
971
967
963
963
966
967
969
965
962
961
964
968
967
964
963
964
966
967
967
963
958
955
959
959
958
956
956
956
958
959
958
955
953
954
957
960
959
957
954
958
961
963
962
959
958
961
963
968
969
966
964
968
973
974
977
972
970
972
973
976
977
974
978
980
983
989
990
990
988
990
995
995
992
989
991
996
998
1000
999
996
994
994
994
999
997
995
995
993
997
996
995
994
993
993
993
995
994
992
992
990
994
996
994
989
988
989
993
996
993
991
992
991
994
994
992
992
991
990
993
997
993
993
993
993
993
997
994
993
992
993
995
996
996
995
993
991
993
995
997
994
992
989
991
994
993
990
987
989
990
996
996
996
994
995
995
998
997
995
992
995
994
995
995
991
989
988
992
995
992
992
990
991
992
993
996
993
992
991
996
997
996
993
990
988
991
992
989
988
982
982
988
992
992
988
986
989
992
993
992
990
987
986
988
992
993
990
987
987
990
994
993
988
985
986
990
992
993
992
991
990
992
996
993
991
990
990
993
997
997
996
994
992
992
998
994
989
993
1006
1027
1055
1078
1100
1120
1142
1170
1196
1216
1224
1219
1208
1200
1179
1153
1107
1055
1022
1005
1001
992
983
974
971
974
974
972
966
960
955
957
961
960
957
955
952
955
956
957
954
950
951
948
951
951
950
948
947
950
952
949
947
944
943
948
951
952
949
946
943
945
951
949
949
948
944
947
952
952
947
947
948
949
954
954
952
953
952
955
958
957
957
953
956
960
962
962
962
960
962
965
969
967
967
964
969
968
974
971
972
969
969
975
979
978
972
969
971
976
980
979
977
975
974
975
977
979
979
976
974
978
978
978
977
974
974
974
979
980
974
973
974
976
977
976
971
972
970
970
973
971
967
971
971
972
973
972
972
974
974
975
977
976
977
976
974
977
981
980
976
974
976
975
980
982
981
977
976
975
977
976
975
973
973
977
978
979
980
977
974
977
978
979
974
974
974
975
980
980
979
978
977
979
981
979
978
978
975
977
981
978
981
977
978
982
983
982
978
976
974
976
981
981
980
981
982
981
981
980
984
995
1011
1039
1066
1092
1116
1140
1168
1192
1208
1211
1204
1191
1173
1152
1119
1074
1026
1000
995
987
983
972
967
966
962
960
961
962
955
954
952
955
956
952
954
954
956
956
959
956
955
954
953
956
956
958
956
952
951
953
952
954
949
947
947
951
951
952
951
946
948
949
950
949
946
947
946
950
950
952
952
950
949
950
955
953
955
954
954
958
960
961
963
964
963
967
969
970
968
969
970
975
976
974
973
978
975
978
977
979
980
976
976
980
984
987
987
983
982
986
988
988
987
984
985
985
988
989
989
989
986
986
993
994
993
992
990
989
992
990
991
988
987
990
992
992
990
985
985
990
994
992
989
991
986
992
993
997
993
990
989
992
995
995
994
993
993
994
995
996
994
993
993
996
998
996
993
990
990
991
992
994
990
990
990
994
994
994
989
987
987
990
992
992
990
989
989
992
992
994
993
992
991
992
995
997
993
991
990
992
994
990
992
989
988
989
989
987
988
986
991
992
994
992
991
988
988
991
991
993
991
990
989
996
997
997
996
995
1000
1014
1040
1067
1090
1111
1134
1163
1195
1220
1237
1244
1238
1226
1205
1173
1124
1072
1031
1014
1006
997
987
977
977
980
980
978
973
968
969
971
972
972
967
966
960
964
963
963
963
955
955
956
957
956
954
953
952
953
952
952
951
952
951
952
955
957
957
954
954
952
957
953
954
951
949
955
959
958
957
954
954
958
961
963
960
959
959
959
967
965
966
965
964
969
971
974
975
975
976
980
983
985
986
986
988
991
994
994
989
990
991
992
993
993
991
992
989
987
988
993
992
990
990
989
992
993
993
991
992
994
995
996
992
991
991
993
994
994
992
991
990
991
994
992
992
990
989
993
992
993
994
990
987
988
991
991
992
988
986
986
985
983
983
984
985
989
993
994
992
993
992
994
992
994
992
993
994
995
997
998
997
995
995
997
995
997
996
991
988
991
994
994
990
985
979
985
987
986
983
981
980
984
986
989
987
985
985
987
988
990
990
987
985
987
988
989
989
984
984
990
989
988
990
988
987
991
993
996
994
992
990
990
994
989
990
988
987
990
987
984
986
984
984
985
990
992
988
986
986
989
993
992
992
990
989
994
996
996
994
994
992
989
993
998
1011
1029
1050
1079
1102
1121
1143
1167
1191
1212
1222
1221
1211
1194
1175
1153
1112
1062
1024
1001
994
985
977
972
971
968
969
969
969
968
966
968
963
965
965
963
961
958
958
960
963
960
959
956
954
956
958
958
955
954
953
953
958
952
949
948
949
950
953
952
948
943
946
946
950
949
945
943
943
948
951
952
948
947
946
952
956
960
962
962
960
961
963
964
963
962
961
965
965
963
964
962
962
965
968
970
967
971
972
971
977
978
978
979
979
982
984
984
985
985
985
988
993
991
990
989
986
987
989
990
988
986
987
990
992
992
991
989
985
987
989
990
988
986
985
985
988
987
989
988
988
989
989
992
989
987
984
989
988
992
989
990
989
990
992
994
993
991
990
991
992
994
991
992
990
990
990
990
990
985
991
992
997
995
995
994
991
994
995
996
996
995
995
999
1001
1001
998
995
996
999
1000
998
998
995
994
997
998
998
996
992
993
993
996
996
995
990
992
995
994
993
992
989
993
995
996
996
996
995
994
999
1000
1000
999
998
998
1001
1003
1004
1003
999
998
1002
1012
1025
1043
1066
1083
1112
1134
1159
1185
1203
1218
1233
1240
1234
1217
1204
1183
1154
1115
1069
1033
1018
1005
993
988
984
983
983
979
979
980
978
976
971
970
970
974
973
968
970
966
967
969
967
965
962
962
963
963
966
964
961
960
964
968
968
965
965
963
966
966
966
964
963
962
962
963
964
961
959
959
963
963
964
963
959
958
962
963
965
963
962
962
966
971
971
970
968
970
973
975
977
978
976
976
978
982
984
982
983
983
988
993
992
993
991
990
996
1000
1002
1001
1001
1000
1001
1003
1000
1001
1001
1002
1006
1008
1009
1008
1005
1003
1005
1008
1008
1007
1004
1004
1007
1006
1007
1005
1003
1001
1001
1003
1003
1001
1001
998
996
999
1002
1000
1001
999
1003
1006
1006
1004
1001
1000
1002
1003
1004
1001
1000
1000
1000
1001
1003
1003
1002
1001
1001
1005
1005
1005
1004
1004
1009
1009
1009
1008
1007
1008
1008
1011
1010
1009
1006
1005
1008
1010
1008
1007
1003
1003
1008
1008
1008
1006
1004
1001
1005
1008
1007
1004
1003
1006
1006
1007
1006
1003
1000
997
996
999
1001
1000
998
1000
1003
1004
1006
1006
1003
1001
1003
1006
1004
1004
1002
1000
1004
1006
1006
1007
1005
1003
1007
1009
1008
1006
1008
1008
1011
1012
1011
1009
1004
1004
1012
1029
1049
1068
1083
1103
1126
1145
1173
1195
1213
1234
1245
1246
1241
1225
1202
1175
1139
1097
1055
1032
1022
1013
1005
998
994
991
987
984
980
982
976
975
975
972
973
975
973
975
972
969
971
974
972
970
965
965
966
965
966
964
961
956
960
962
962
965
964
964
965
966
961
959
955
956
959
958
960
962
960
959
961
963
963
963
961
957
964
967
967
967
966
963
967
970
972
970
971
969
970
972
972
973
971
970
972
976
976
980
981
984
990
992
993
992
993
993
991
996
998
998
997
997
999
1003
1002
1000
997
998
999
1002
1001
999
998
997
998
1000
999
998
996
995
997
996
998
996
997
995
995
997
996
995
995
993
991
993
994
988
988
988
988
987
987
990
990
988
992
990
991
989
990
987
994
994
994
993
994
992
993
994
995
996
995
995
998
996
998
996
995
995
996
995
997
995
993
989
992
990
989
988
984
989
990
992
994
991
988
988
989
993
994
990
988
984
983
985
988
985
984
983
984
987
988
987
985
984
988
991
994
992
989
986
992
998
997
995
992
988
991
994
993
993
990
984
987
990
989
989
990
988
990
990
991
990
987
987
986
989
992
988
986
986
986
989
992
990
986
986
986
985
989
987
988
986
985
988
988
983
982
983
989
1006
1030
1051
1072
1094
1114
1142
1167
1191
1207
1211
1208
1206
1196
1182
1160
1127
1086
1045
1015
1005
995
990
983
979
980
978
975
974
972
971
973
969
966
964
965
964
964
961
961
958
958
955
956
954
953
953
955
955
955
953
954
952
946
952
951
947
942
939
941
938
940
941
940
942
945
948
949
951
950
951
955
957
958
956
954
955
956
957
961
958
958
958
960
961
966
965
961
964
963
964
966
962
961
959
963
966
967
969
968
969
970
973
972
975
977
978
980
984
987
988
985
986
989
992
992
990
989
986
986
987
988
989
988
990
992
992
993
994
994
993
995
995
997
996
994
993
993
994
995
994
992
990
993
991
992
993
992
990
992
994
997
995
995
994
994
995
1000
999
995
995
998
999
1001
1003
999
997
1000
998
1000
999
997
995
994
997
998
996
994
990
995
998
1001
1002
998
997
998
1001
1001
999
995
993
996
1001
1003
999
1000
998
999
1000
999
999
999
998
997
1001
1003
1003
1001
1000
998
1002
1004
1003
1002
1000
1003
1003
1004
1003
1001
999
997
1001
1002
1002
1000
998
997
1001
1001
1010
1019
1039
1063
1091
1115
1137
1158
1185
1213
1234
1245
1245
1234
1218
1193
1162
1115
1067
1035
1022
1014
1008
999
994
992
989
986
987
985
982
978
976
977
974
974
970
970
966
969
967
967
964
960
957
959
955
955
956
954
952
956
957
960
960
958
956
960
964
967
965
963
962
966
969
972
970
969
967
967
973
973
974
971
972
973
974
976
975
976
974
975
979
976
976
975
976
978
979
977
977
977
977
977
983
985
984
986
986
988
993
994
993
989
992
993
994
991
993
995
997
1003
1004
1007
1006
1004
1002
1002
1005
1006
1005
1001
1002
1003
1005
1004
1004
1003
1002
1004
1002
1003
1002
1001
995
999
1001
1000
998
995
994
993
996
997
994
991
989
992
994
999
995
993
991
994
996
998
994
996
996
998
1002
1004
1004
1004
1003
1005
1006
1007
1006
1001
1004
1003
1007
1004
1004
1004
1000
1002
1005
1006
1005
1004
1003
1004
1003
1005
1004
999
995
999
1004
1003
1003
1001
1003
1000
1004
1003
1002
994
992
993
997
997
999
996
996
1000
1001
1003
1002
996
996
997
997
998
998
995
992
994
994
997
996
994
994
993
994
1000
999
998
997
996
1004
1006
1003
1002
1002
1002
1004
1003
1002
1007
1022
1041
1065
1089
1112
1127
1148
1177
1205
1226
1240
1241
1233
1222
1206
1180
1142
1091
1047
1022
1016
1008
998
987
977
977
978
979
976
970
967
966
969
969
966
964
961
963
966
966
962
961
957
957
956
961
958
957
956
955
959
960
961
954
954
955
960
962
963
960
960
964
966
963
964
961
958
962
964
963
961
958
956
957
959
961
961
960
960
962
964
965
966
962
963
963
968
971
972
968
968
968
972
977
977
974
976
978
983
988
990
986
987
988
989
991
991
990
989
991
994
996
992
990
989
989
992
995
996
996
990
991
993
993
989
987
985
987
991
991
992
989
986
988
988
991
990
989
986
988
990
990
988
988
987
988
991
994
994
995
989
992
993
995
994
992
991
991
992
994
992
992
990
990
991
993
993
991
992
994
996
997
994
992
990
992
993
996
994
992
993
991
993
995
996
992
989
992
992
994
995
996
997
996
997
998
998
995
993
994
996
995
994
994
991
993
994
994
990
992
988
991
993
997
993
991
989
993
997
994
994
993
995
996
999
998
995
995
1000
1015
1037
1067
1090
1110
1130
1158
1189
1213
1226
1225
1218
1206
1193
1174
1138
1092
1047
1023
1013
1005
993
982
978
978
981
979
977
973
971
971
968
969
968
965
963
961
965
963
965
961
961
961
963
961
959
959
957
959
960
963
965
963
961
963
962
964
965
961
962
962
963
963
963
959
957
955
959
959
960
956
957
959
962
963
962
963
963
963
968
969
969
967
968
970
972
973
975
975
977
979
983
989
986
986
988
991
993
997
996
993
991
994
997
999
996
995
994
994
994
1001
998
997
993
994
999
1000
1001
1001
995
994
995
998
998
994
994
996
997
1002
1000
996
995
995
995
999
998
996
993
996
999
1001
999
999
996
997
996
997
999
996
994
995
999
1000
1000
999
997
998
999
1003
1001
999
996
997
999
1002
1000
998
1001
1000
998
999
1000
1000
998
999
1000
999
1000
998
997
997
999
1000
998
997
997
996
998
998
998
997
994
994
996
997
996
992
992
993
993
993
997
995
997
995
1000
1001
1001
999
997
999
999
1003
1000
1001
997
998
1000
999
1001
995
997
999
999
1001
1002
995
995
997
1001
1002
1001
997
999
999
1002
1001
1001
997
996
997
1010
1026
1045
1068
1093
1114
1139
1166
1192
1213
1231
1239
1240
1231
1220
1197
1167
1128
1079
1041
1017
1008
999
988
980
979
979
973
971
972
970
973
970
965
966
966
966
967
965
960
959
959
963
962
960
961
959
958
958
960
958
957
951
954
958
958
957
952
951
954
959
961
960
959
957
958
961
957
957
957
956
957
961
963
959
958
955
958
963
965
964
962
958
965
965
967
968
970
969
971
971
971
969
