979
979
977
975
972
972
977
975
975
969
970
972
973
971
972
973
972
972
976
976
973
973
972
974
975
974
975
975
976
978
980
981
982
982
984
990
994
993
995
996
996
1002
1006
1009
1005
1004
1007
1011
1011
1014
1012
1009
1011
1010
1013
1012
1009
1008
1006
1011
1011
1010
1007
1007
1008
1011
1012
1008
1007
1005
1005
1006
1009
1009
1007
1002
1003
1005
1005
1008
1004
1002
1003
1005
1009
1010
1007
1008
1007
1010
1012
1012
1009
1007
1010
1014
1014
1014
1013
1010
1012
1017
1019
1016
1014
1009
1012
1012
1013
1014
1010
1006
1005
1010
1011
1011
1009
1005
1004
1004
1006
1004
1004
1002
1003
1003
1006
1002
1000
998
998
1002
1004
1001
999
1000
1000
1002
1004
1004
998
999
997
996
1002
1002
1000
999
999
1001
1002
1004
1005
1003
1004
1005
1007
1007
1005
1004
1003
1004
1005
1001
999
997
996
1000
1002
1002
999
998
999
1002
1002
1003
1001
998
995
996
999
999
999
998
996
997
998
997
992
995
993
995
997
998
996
995
994
995
1001
1002
1000
997
997
1000
1005
1006
1005
1006
1006
1006
1010
1009
1008
1009
1008
1008
1009
1007
1005
1005
1003
1004
1005
1002
1000
1005
1016
1038
1062
1081
1104
1118
1141
1169
1191
1204
1203
1201
1187
1179
1166
1144
1110
1068
1033
1016
1008
1001
989
984
981
980
980
977
975
971
972
975
974
973
969
966
965
969
972
972
969
969
967
970
969
970
969
965
966
967
967
966
960
958
957
957
960
958
954
954
955
957
959
959
958
955
954
958
959
961
959
955
955
955
958
959
957
958
957
961
965
963
962
959
960
966
969
969
966
967
967
970
974
975
976
974
976
980
985
986
984
987
987
987
992
994
993
994
993
994
994
995
992
992
992
995
995
995
990
991
988
992
994
995
992
990
990
991
993
992
990
990
988
991
995
994
991
991
992
993
995
995
994
989
993
992
998
998
998
994
993
998
1001
1003
1000
1002
1002
1001
1003
1005
1002
1001
1001
1003
1004
1000
997
996
994
997
997
995
996
994
991
994
998
996
995
994
990
993
995
995
995
991
992
992
992
990
989
989
988
993
995
992
992
990
990
992
995
995
994
993
991
992
997
996
992
995
996
998
999
998
998
996
995
999
999
999
995
993
993
993
998
996
994
991
989
992
996
995
994
992
989
992
994
995
992
990
987
989
991
989
986
987
986
989
992
990
990
989
990
993
996
996
995
991
992
992
995
995
996
996
994
994
999
998
999
997
999
998
1002
1008
1020
1033
1049
1077
1100
1121
1141
1163
1185
1204
1216
1219
1212
1198
1181
1159
1127
1084
1045
1021
1008
1000
995
983
978
972
971
971
968
965
960
959
958
962
963
959
955
953
956
958
961
960
958
956
954
955
960
959
960
955
958
959
960
960
963
962
959
959
965
962
960
962
960
961
962
961
960
960
959
964
965
961
960
961
961
962
963
964
960
961
958
962
963
963
962
959
959
960
968
969
970
970
970
973
977
977
977
976
975
980
982
984
987
990
991
994
995
998
996
992
994
999
1001
1000
995
994
993
995
997
997
996
993
992
994
996
994
992
991
990
993
994
995
993
992
990
989
991
992
989
990
990
992
993
992
992
992
992
993
998
997
994
997
995
999
1003
1002
1002
1001
999
1001
1002
1004
1001
1002
1001
1004
1006
1004
1004
1000
998
998
996
1000
998
999
996
998
999
998
997
997
995
997
997
997
993
994
991
997
998
997
997
997
995
999
1001
1000
998
993
992
995
1001
1005
1001
1002
1001
1004
1009
1007
1007
1006
1005
1006
1004
1009
1011
1018
1034
1058
1081
1100
1123
1145
1167
1190
1213
1224
1224
1212
1201
1187
1167
1135
1090
1049
1022
1015
1010
998
989
982
978
977
977
976
972
971
970
970
972
969
971
969
967
969
970
968
967
967
967
969
970
972
972
966
970
971
976
976
976
974
973
972
973
973
971
971
967
970
970
968
967
967
965
970
971
970
966
967
966
968
969
969
967
965
965
967
969
971
967
967
968
969
973
974
974
972
973
978
981
983
983
982
983
990
992
993
990
993
991
997
1001
1000
1000
997
1000
1002
1005
1007
1006
1004
1003
1005
1007
1004
1004
1002
998
1000
1006
1004
1003
1002
1000
1000
1000
1000
998
999
997
995
998
998
997
999
999
1002
1002
1001
1001
1000
1002
1002
1004
1005
1003
999
999
1002
1005
1005
1001
1003
1001
1006
1008
1010
1007
1006
1007
1010
1013
1013
1010
1009
1008
1008
1009
1008
1007
1004
1003
1008
1010
1010
1005
1006
1002
1000
1006
1004
1006
1002
1004
1006
1006
1006
1005
1004
1006
1006
1009
1008
1008
1006
1005
1008
1010
1010
1008
1005
1008
1006
1011
1010
1009
1014
1027
1055
1082
1106
1130
1150
1178
1205
1226
1234
1228
1212
1194
1172
1135
1092
1051
1026
1015
1010
1000
993
990
987
983
983
984
983
981
977
974
978
978
979
976
974
973
974
972
974
972
973
970
971
973
971
972
970
972
970
977
974
973
970
972
971
977
974
973
971
973
976
978
978
975
974
971
975
978
976
973
971
969
973
975
981
977
975
975
978
982
982
980
980
980
984
988
989
990
991
994
996
999
1001
1003
1001
1006
1009
1011
1008
1009
1007
1006
1010
1011
1009
1008
1008
1008
1009
1014
1014
1011
1007
1007
1008
1012
1013
1009
1006
1005
1007
1009
1007
1008
1002
998
1003
1007
1008
1006
1003
1004
1005
1006
1007
1008
1006
1004
1005
1009
1011
1009
1010
1011
1010
1013
1016
1015
1013
1011
1015
1018
1019
1016
1015
1013
1016
1016
1018
1015
1012
1010
1011
1013
1013
1009
1008
1006
1008
1010
1009
1006
1004
1003
1001
1002
1000
1001
1000
999
1003
1007
1002
1003
1002
1001
1002
1007
1003
999
999
1000
1004
1008
1008
1007
1006
1006
1010
1012
1013
1013
1012
1010
1012
1017
1014
1012
1009
1005
1009
1009
1009
1009
1006
1004
1008
1005
1005
1006
1006
1006
1004
1004
1000
1000
999
1000
1003
1003
1003
1005
1006
1006
1008
1010
1008
1007
1011
1023
1045
1070
1094
1116
1137
1166
1196
1221
1231
1227
1216
1201
1178
1143
1096
1056
1034
1025
1016
1008
1002
995
990
986
986
987
987
982
978
973
975
979
976
974
973
970
970
972
970
967
968
967
969
973
969
969
967
967
970
973
969
965
967
966
971
975
976
974
971
970
974
977
978
975
973
972
975
978
979
974
969
970
971
974
975
972
974
971
974
977
979
978
976
976
979
982
977
978
977
979
982
986
987
988
989
989
994
996
999
996
996
997
1002
1004
1005
1002
1002
1001
1007
1011
1012
1012
1010
1008
1009
1010
1011
1010
1008
1003
1007
1006
1005
1003
998
998
997
1001
1002
998
995
995
999
1002
1003
999
997
996
1000
1004
1001
999
996
995
997
1000
999
1000
1001
999
1000
1002
1001
1000
1002
1003
1007
1008
1008
1006
1006
1006
1010
1009
1010
1006
1004
1005
1007
1008
1007
1001
997
999
1001
1001
1000
998
994
992
995
1000
1000
996
995
995
995
997
998
993
992
990
991
995
995
993
994
993
995
996
994
992
993
994
997
1000
999
996
997
998
1002
1002
1002
1000
1000
999
1000
1001
1004
1001
999
996
998
1001
1000
999
996
994
996
999
997
996
992
992
993
996
998
995
995
993
994
996
996
997
994
990
993
994
1000
998
997
997
1000
1002
1001
1003
1002
1003
1005
1007
1006
1005
1006
1008
1008
1010
1010
1019
1032
1055
1079
1104
1127
1148
1170
1192
1210
1213
1205
1188
1169
1143
1109
1066
1034
1016
1005
996
992
989
985
979
975
974
973
974
974
971
967
964
969
967
972
968
962
965
964
964
967
969
966
965
967
973
973
974
971
972
970
974
974
972
970
969
973
974
972
969
965
966
970
970
969
968
965
966
969
973
975
970
966
964
966
968
970
967
966
964
966
970
970
971
967
969
973
978
979
980
981
982
984
990
991
994
993
995
1004
1002
1006
1006
1005
1006
1008
1010
1008
1005
1003
1004
1004
1003
1005
1005
1003
1000
1000
998
1002
1000
996
994
995
994
992
994
993
993
992
997
999
999
997
998
1001
1000
1002
1000
997
999
1003
1005
1007
1007
1005
1006
1009
1010
1009
1009
1007
1005
1006
1009
1011
1005
1004
1002
1001
1004
1002
1005
1001
1003
1003
1001
1002
1001
1000
998
999
999
997
996
993
993
993
998
997
997
994
995
997
998
1000
996
996
994
995
997
999
999
993
995
997
1000
1002
1003
1000
998
1000
1002
1003
1001
1002
1001
1001
1002
1001
998
997
997
996
999
996
995
993
992
994
997
999
995
993
992
994
997
997
995
992
991
991
991
991
989
990
992
995
997
998
998
995
994
996
997
998
997
994
999
1001
1005
1004
1001
1003
1011
1029
1054
1081
1102
1124
1151
1177
1205
1220
1221
1209
1196
1179
1154
1114
1068
1032
1010
1003
999
990
984
976
972
971
972
970
970
966
965
963
964
966
962
963
963
964
962
962
962
959
957
957
964
965
963
962
958
958
962
965
963
960
959
961
962
963
963
960
960
959
960
958
957
957
956
958
959
961
961
959
957
961
962
961
960
957
958
960
960
959
961
957
956
958
961
963
964
963
963
966
966
967
971
973
975
975
978
978
980
983
983
986
988
990
991
989
992
995
997
998
995
994
993
996
997
999
995
998
993
996
994
997
995
991
994
995
995
994
992
988
989
991
991
991
991
987
986
987
990
989
987
986
984
984
985
988
988
989
985
985
987
990
989
983
983
985
988
988
990
988
989
992
995
995
998
994
992
996
996
997
998
996
996
995
997
998
997
995
994
995
996
997
992
990
989
992
995
994
991
988
987
987
988
990
986
984
983
982
985
986
983
981
980
980
985
986
984
983
983
982
988
989
989
986
986
987
990
994
995
996
995
996
999
1000
998
996
996
998
999
999
995
993
994
994
999
999
996
991
991
991
995
991
996
991
990
990
991
990
989
986
985
985
984
982
983
982
982
986
985
987
988
989
1002
1025
1046
1067
1087
1106
1124
1149
1179
1201
1214
1218
1215
1208
1197
1182
1154
1116
1074
1044
1024
1015
1005
994
986
985
986
986
981
975
970
968
971
970
967
965
962
961
961
960
957
953
951
950
952
954
951
947
949
949
948
948
946
945
944
945
947
950
948
948
948
950
950
953
953
948
948
950
956
958
957
956
955
956
960
960
962
961
960
961
962
966
964
963
962
962
964
963
961
961
960
963
965
968
967
966
965
967
970
974
972
971
972
972
976
978
979
976
976
979
981
985
985
981
982
984
986
987
985
983
984
985
990
990
990
988
988
992
994
994
994
990
987
992
990
993
989
988
984
985
988
986
988
986
984
984
987
987
981
983
983
983
984
984
982
978
976
981
983
983
979
979
977
977
979
983
983
981
978
979
984
983
982
982
980
983
984
986
987
987
987
985
986
987
985
983
987
985
985
988
985
982
982
983
983
985
982
976
976
979
984
984
981
979
979
980
981
981
980
977
975
973
976
977
977
975
976
976
981
980
979
977
979
980
983
984
980
976
978
981
983
985
984
983
985
984
988
985
985
981
984
986
989
987
987
985
987
989
988
987
991
995
1012
1031
1057
1082
1102
1120
1143
1166
1189
1197
1197
1190
1177
1165
1150
1125
1085
1045
1017
1001
997
987
975
965
963
964
967
965
962
957
955
956
959
960
955
955
954
954
956
957
957
952
954
956
954
956
957
957
955
956
957
957
954
954
952
953
957
955
953
947
949
950
954
954
952
950
947
946
950
953
952
949
946
948
948
946
945
942
943
945
945
948
948
948
949
952
954
955
955
955
953
955
960
963
962
961
965
967
973
979
979
979
978
980
984
987
988
989
988
986
987
987
987
985
986
986
988
988
987
983
985
986
988
985
984
982
981
983
984
985
982
980
979
980
986
986
985
982
983
984
988
989
988
985
987
986
990
989
987
990
988
992
992
994
994
994
991
992
994
994
993
990
988
990
991
992
990
986
986
988
991
989
987
985
984
985
985
988
988
983
980
982
984
986
988
986
984
985
984
989
986
985
983
984
986
989
988
987
985
989
990
995
994
991
992
993
996
996
995
992
988
993
995
995
995
991
989
990
993
994
992
991
989
992
995
997
994
993
987
987
990
1000
1013
1031
1053
1079
1102
1128
1152
1175
1194
1211
1217
1212
1202
1185
1164
1141
1104
1063
1030
1014
1005
997
988
985
982
979
976
974
976
974
971
968
963
963
964
962
960
957
956
955
956
957
956
954
952
952
953
954
952
950
945
948
951
949
948
945
942
945
949
951
950
947
945
950
952
955
952
950
950
951
956
959
959
958
957
959
963
968
967
964
965
966
968
969
969
966
967
971
974
974
974
972
970
970
976
979
980
976
976
979
982
983
985
979
980
979
984
981
981
982
977
976
978
980
980
980
977
981
986
987
988
987
985
992
995
994
995
992
989
991
995
996
998
996
994
994
997
999
996
996
992
993
993
994
991
990
987
990
987
992
989
988
985
987
988
987
987
983
984
982
987
987
984
983
982
980
984
985
986
987
986
986
989
989
988
989
987
989
988
991
990
988
988
990
993
992
993
990
991
992
994
995
993
992
991
992
991
996
992
988
986
987
986
989
990
988
985
981
982
984
987
984
982
981
983
982
983
981
980
980
983
984
983
980
979
980
984
986
986
984
983
985
988
992
990
989
987
989
994
1002
1008
1029
1049
1071
1095
1120
1143
1166
1184
1200
1207
1204
1192
1175
1154
1123
1082
1044
1018
1003
992
984
976
971
966
964
960
959
956
957
956
951
948
947
951
950
947
947
945
945
946
949
948
947
945
942
943
946
947
946
944
947
949
953
953
952
950
948
950
952
949
949
947
950
951
952
950
947
945
943
948
949
950
951
949
948
948
950
951
950
949
953
950
951
951
947
947
948
950
952
953
951
952
956
959
961
963
962
963
966
968
973
973
971
968
971
978
980
980
978
981
981
986
987
985
980
981
981
985
986
981
976
977
978
980
985
983
980
978
980
982
984
982
977
979
977
982
982
980
978
973
975
977
978
977
973
972
972
975
978
978
977
975
977
976
979
980
977
978
979
980
981
978
981
979
980
983
984
982
982
982
984
986
986
986
983
980
980
979
978
977
976
976
977
977
977
977
978
980
980
984
980
982
979
979
980
980
982
981
989
1003
1025
1049
1072
1094
1114
1139
1165
1191
1207
1214
1211
1203
1188
1169
1137
1092
1044
1011
998
990
980
971
964
964
963
964
964
961
955
953
952
953
955
951
944
941
939
941
940
940
938
937
935
936
939
937
938
936
936
938
938
937
933
932
934
937
933
929
926
925
928
933
937
936
933
932
933
933
937
936
936
932
932
938
938
940
939
937
938
941
945
942
944
939
941
942
946
947
946
948
952
957
958
961
957
959
960
968
970
969
968
967
971
973
976
975
970
968
971
972
975
971
969
967
970
973
975
974
973
971
968
972
974
973
971
971
973
975
970
973
971
971
971
976
977
975
973
975
978
979
978
975
972
971
973
976
976
973
972
972
975
976
978
976
974
971
971
970
973
972
969
966
966
967
970
973
971
971
971
973
973
973
973
971
973
974
978
978
977
977
983
984
984
984
983
981
982
983
982
980
981
987
1003
1026
1050
1074
1094
1116
1146
1173
1192
1202
1197
1189
1172
1150
1121
1075
1026
995
983
977
966
960
957
952
952
952
954
953
948
946
947
947
944
942
941
943
943
944
946
944
941
942
941
945
947
942
941
936
937
938
939
935
933
931
932
933
937
937
935
934
933
937
938
938
935
936
938
937
938
937
932
933
932
935
933
932
933
934
937
938
940
940
935
937
937
944
947
950
947
946
950
957
960
958
956
962
963
964
965
966
966
965
966
967
970
970
969
967
967
969
969
967
965
967
970
970
974
972
970
969
969
971
971
970
967
965
968
965
969
967
965
964
966
970
974
973
972
970
970
972
974
974
972
974
974
974
975
974
975
976
976
980
978
976
973
973
974
973
976
977
973
973
973
975
978
975
973
971
972
971
976
973
972
972
968
972
971
971
972
972
969
974
975
975
971
969
971
972
972
973
969
968
973
974
972
973
973
971
975
976
975
974
975
975
976
977
979
978
974
971
971
972
971
969
964
963
967
968
974
974
971
970
973
976
978
977
977
974
974
974
977
979
979
976
975
976
982
989
1002
1022
1048
1076
1101
1123
1149
1175
1197
1209
1209
1198
1178
1150
1111
1066
1028
1002
991
981
977
970
965
962
956
951
950
950
949
945
941
938
939
938
940
940
938
936
939
938
944
940
939
935
939
940
943
941
940
937
937
939
942
943
940
937
938
941
944
945
941
941
943
945
948
947
945
944
945
945
949
948
946
944
945
946
948
946
945
944
947
949
952
950
950
951
955
957
959
960
961
960
965
968
969
972
973
972
975
978
979
981
979
977
978
979
981
983
982
978
978
983
986
987
985
984
984
985
986
984
984
980
979
979
979
976
971
971
973
975
975
972
970
968
969
972
974
972
969
968
967
971
972
973
972
969
971
975
977
979
977
977
977
979
981
981
979
978
980
979
978
980
981
980
980
982
983
980
980
981
980
982
981
979
976
973
975
974
974
974
972
971
971
976
979
976
974
972
970
971
976
976
974
974
974
981
1002
1021
1043
1066
1090
1113
1142
1168
1190
1204
1214
1209
1197
1176
1145
1101
1052
1013
997
989
978
965
964
962
960
957
953
950
948
948
953
947
939
937
935
936
940
939
933
930
932
935
936
934
931
929
929
931
930
931
930
927
929
932
931
932
930
930
931
931
931
932
932
932
931
932
934
935
935
935
939
941
943
940
939
940
939
945
946
943
945
944
946
947
951
953
952
950
954
960
963
965
962
961
964
