945
947
950
950
951
950
951
949
948
952
950
954
957
956
952
949
951
955
954
955
951
951
951
952
955
954
952
952
952
954
957
958
957
958
958
959
964
963
963
965
966
970
971
973
973
971
972
975
976
975
971
971
971
975
977
976
973
972
972
975
978
981
979
978
979
982
981
983
981
977
980
978
978
976
974
972
973
974
973
970
972
971
970
970
970
968
966
965
967
966
968
967
966
965
965
966
968
968
969
968
968
971
975
975
976
973
974
975
975
979
976
977
978
979
980
978
978
979
982
984
986
982
980
975
978
977
980
980
979
976
975
976
978
977
976
973
972
972
974
974
970
971
971
974
975
977
975
974
971
973
973
973
973
971
970
971
969
975
974
973
977
977
981
980
978
976
979
982
984
981
981
981
983
986
985
982
979
980
980
980
981
979
979
981
977
978
976
985
999
1022
1051
1076
1102
1123
1152
1175
1194
1197
1188
1172
1149
1118
1071
1026
1000
990
985
977
975
973
973
971
968
967
965
966
965
962
961
960
961
961
961
958
955
954
954
953
954
954
949
947
947
949
948
949
944
944
944
951
951
952
949
947
947
947
951
951
949
946
943
946
947
949
947
950
952
953
958
958
958
958
960
959
962
964
965
964
964
966
967
968
969
968
973
976
976
976
976
975
977
980
981
982
981
983
984
985
990
990
989
988
987
991
993
993
992
991
988
989
990
988
987
986
986
990
989
989
991
991
992
994
995
996
996
996
997
998
998
997
997
996
997
999
999
998
994
992
993
995
993
993
991
987
984
987
989
987
986
985
986
989
990
989
994
992
992
994
995
997
995
996
996
994
994
991
990
991
990
993
996
994
995
994
995
999
1000
1001
999
997
997
999
1001
1001
1000
1002
1000
1001
1001
1001
999
999
998
997
997
997
994
992
993
993
994
992
989
987
987
990
992
995
988
990
993
995
994
993
996
992
995
999
1000
1001
998
1000
997
1000
1001
1003
1000
999
1001
1005
1005
999
998
994
996
998
1003
1004
1003
1000
1000
1002
1007
1007
1006
1005
1005
1006
1006
1006
1004
1001
997
1000
1011
1025
1043
1063
1087
1109
1134
1155
1183
1205
1222
1232
1229
1215
1191
1162
1121
1073
1039
1021
1012
1004
996
991
992
993
990
987
982
985
986
984
980
979
978
979
978
978
975
967
970
975
975
973
968
968
968
972
973
969
966
961
962
964
963
963
960
957
956
961
964
961
963
961
961
961
966
965
966
966
965
968
968
968
966
964
968
971
973
969
969
972
974
979
980
982
976
977
979
982
984
983
983
979
979
983
990
988
990
987
989
992
995
994
995
995
995
997
1000
997
995
995
992
994
998
998
995
993
993
994
1001
1000
999
996
995
997
1001
1002
1001
998
997
1000
1001
1001
999
999
998
1001
1005
1004
1001
1002
1004
1005
1006
1007
1004
1003
1001
1002
1003
1003
1001
1001
999
1001
1002
1001
997
998
1000
1000
1002
996
994
993
995
997
998
999
992
990
988
993
994
995
990
993
992
995
997
997
995
994
997
999
1000
1000
998
996
994
994
1000
1000
998
996
995
998
1003
1002
1003
998
998
999
1003
1003
1003
1002
1002
1002
1007
1003
1001
1001
999
999
1002
1001
998
997
997
996
1002
1000
997
993
991
994
993
994
990
991
992
995
998
998
994
992
995
997
1000
999
996
995
998
1009
1029
1050
1067
1087
1107
1128
1154
1179
1201
1220
1232
1230
1218
1206
1185
1155
1113
1070
1037
1021
1012
1003
992
986
988
987
980
977
973
973
975
971
967
961
960
961
963
961
957
956
950
954
954
954
955
954
952
954
958
956
955
953
955
955
955
956
952
950
953
955
957
954
955
949
953
957
960
960
957
954
954
957
961
962
960
955
955
960
965
965
962
960
960
958
958
957
956
955
957
961
964
961
960
961
965
969
974
974
975
971
974
975
978
981
980
976
976
982
986
986
982
980
981
984
985
986
982
985
984
982
984
985
984
984
982
987
990
990
988
986
983
986
987
989
983
980
979
980
984
983
979
976
975
974
978
980
976
974
975
974
980
979
981
979
978
980
982
981
982
981
982
986
989
986
982
980
979
982
986
983
984
980
984
985
990
991
986
986
984
989
991
991
992
990
987
986
988
990
987
985
985
982
983
981
978
975
979
980
979
979
976
976
976
977
978
979
981
980
978
980
982
983
983
982
982
985
986
985
982
984
982
988
989
989
986
984
986
987
990
991
988
987
987
990
992
990
989
989
990
990
993
992
994
993
992
997
998
997
996
991
990
993
993
988
987
985
985
995
1015
1035
1055
1071
1091
1108
1131
1154
1176
1193
1199
1203
1201
1190
1179
1163
1138
1103
1065
1029
1012
1003
994
985
978
976
976
974
973
971
973
971
967
968
966
966
971
970
966
960
959
964
967
965
966
963
960
959
965
966
962
958
958
960
957
957
955
951
948
944
949
950
948
948
945
950
952
950
947
949
950
951
954
954
953
953
951
954
956
961
958
958
956
957
961
961
958
962
963
964
967
967
966
969
967
971
977
979
975
977
981
983
989
989
988
987
985
989
992
992
989
989
986
983
987
985
982
983
983
984
986
986
987
986
986
992
992
992
990
988
988
991
995
995
991
992
988
992
993
997
994
990
991
990
996
997
997
994
992
995
997
998
996
996
994
999
997
997
996
992
995
996
995
995
994
990
987
988
992
990
990
988
986
987
989
990
989
987
987
990
991
991
992
992
990
993
997
994
993
994
995
996
999
997
995
993
993
995
998
997
997
996
994
997
1000
1000
1001
999
1001
1001
1000
1002
997
995
996
999
999
996
992
990
991
994
995
995
992
991
986
991
1000
1009
1021
1036
1055
1078
1098
1118
1140
1161
1185
1206
1223
1227
1221
1208
1189
1169
1143
1101
1055
1024
1008
1003
998
989
984
979
978
977
978
974
974
972
972
971
971
968
969
965
965
969
969
968
965
963
962
960
963
960
955
952
953
952
954
952
952
948
946
947
950
948
945
948
946
950
951
951
950
952
949
952
958
956
954
952
950
952
957
961
959
956
954
955
960
963
963
961
963
965
967
969
968
968
970
972
980
981
977
979
981
984
988
988
988
989
988
989
991
992
990
989
990
988
990
990
987
987
986
985
988
990
983
983
983
987
986
990
990
984
984
983
990
991
988
990
988
990
989
989
988
988
988
986
989
992
990
991
986
993
995
998
994
994
994
996
1000
1002
998
994
994
998
999
998
998
996
994
997
1000
1000
997
994
991
989
994
992
990
986
987
989
991
992
988
986
984
989
992
992
990
988
988
991
994
991
991
990
986
989
994
994
994
989
990
992
995
995
994
992
995
995
998
996
995
995
996
997
999
996
997
993
994
995
999
998
994
991
990
991
995
991
991
987
985
989
994
1003
1018
1038
1060
1085
1111
1136
1161
1181
1204
1222
1233
1227
1211
1190
1161
1125
1077
1037
1015
1007
997
992
987
983
979
978
975
977
975
973
966
963
963
965
965
965
960
960
955
958
960
959
952
949
948
951
951
951
949
948
946
946
948
951
948
944
944
946
950
948
947
948
946
949
951
949
948
947
949
950
954
955
952
951
952
954
958
961
959
956
957
961
963
965
964
966
965
966
969
968
971
968
971
973
971
972
970
970
971
973
976
976
974
973
972
976
981
980
980
978
978
983
983
987
983
983
981
983
983
987
984
981
980
981
984
987
985
985
986
986
986
985
983
984
985
989
992
990
985
986
986
987
991
987
985
981
977
978
977
978
977
975
972
973
975
977
976
976
975
979
980
983
983
983
980
985
984
982
982
981
983
984
986
985
984
979
980
984
987
990
987
983
979
984
987
987
985
983
983
984
985
986
985
983
981
984
984
985
981
980
977
977
978
973
971
965
965
967
970
971
968
967
968
969
975
978
977
973
972
975
980
980
980
979
977
977
978
981
977
982
980
981
980
982
978
979
978
982
984
984
985
982
983
985
986
985
982
979
981
982
984
983
982
979
975
978
977
977
970
966
963
967
966
968
970
971
973
977
979
981
979
978
980
987
1002
1025
1047
1071
1093
1115
1144
1172
1192
1202
1199
1193
1181
1162
1126
1080
1037
1006
997
992
980
974
970
967
969
969
965
962
960
960
958
958
954
948
945
942
948
945
942
937
933
936
936
939
942
941
941
941
944
943
945
946
942
941
945
945
946
941
944
946
947
947
946
945
947
948
953
952
950
949
951
955
958
957
952
956
953
958
960
958
954
956
956
958
958
958
957
953
949
952
958
960
961
962
964
970
972
975
975
977
978
979
981
980
983
981
981
981
982
983
982
982
978
983
988
987
986
985
988
990
990
990
988
986
985
987
990
993
988
987
986
983
987
987
982
977
971
973
974
976
975
972
973
973
976
984
983
983
980
983
985
988
989
988
988
991
990
991
990
990
986
989
993
993
995
992
991
993
996
997
997
993
991
992
997
995
994
992
991
989
992
992
992
991
988
987
987
986
987
980
976
978
978
980
980
981
983
986
986
990
990
986
985
991
995
992
995
1000
1015
1035
1060
1084
1107
1127
1154
1184
1210
1226
1230
1225
1212
1193
1171
1135
1085
1038
1011
1005
1002
992
981
980
978
976
976
975
972
967
965
963
964
958
954
948
947
945
943
945
944
943
944
948
949
950
949
945
945
950
953
954
955
950
948
950
954
954
954
952
953
955
955
955
956
954
955
959
959
961
963
960
961
962
964
965
966
961
963
966
968
966
965
961
959
964
965
964
965
963
958
960
965
969
968
968
970
974
977
980
981
981
980
984
984
985
986
985
987
989
987
990
989
988
991
992
994
993
991
992
991
991
995
997
994
992
991
992
997
997
996
994
992
992
992
993
992
989
986
982
986
985
985
981
981
982
983
981
980
979
984
987
988
988
988
988
991
994
996
996
993
992
992
995
995
996
994
993
993
994
996
998
998
996
994
996
999
999
1000
998
997
997
999
998
999
995
995
995
996
996
991
988
987
988
985
987
982
977
976
981
981
983
982
981
982
983
983
985
989
988
984
985
989
990
989
989
992
992
993
995
996
995
996
996
997
996
996
995
995
998
1000
999
1000
996
994
995
1000
1000
996
996
994
994
998
995
995
992
991
989
988
989
985
984
985
985
986
985
981
983
987
997
1016
1036
1056
1077
1098
1121
1146
1176
1200
1217
1225
1226
1221
1211
1191
1165
1125
1079
1041
1020
1013
1004
996
988
986
986
983
981
978
977
977
977
973
970
967
970
971
969
968
963
961
958
961
960
957
950
947
947
949
952
948
946
947
948
951
953
951
950
948
953
957
957
956
954
953
956
957
960
960
958
955
956
962
963
964
963
961
965
964
967
966
969
970
971
974
974
972
972
971
974
975
978
976
973
972
974
976
979
975
973
975
977
981
983
979
978
978
981
986
990
989
987
986
987
992
993
996
997
995
994
996
994
996
994
992
994
995
999
997
996
995
999
1001
1002
1001
997
998
998
1001
1001
1001
998
997
995
1001
1003
999
998
994
991
989
991
988
983
983
984
988
989
990
990
989
992
991
991
991
991
994
991
997
999
997
996
996
998
1000
999
998
998
999
1000
1001
1002
1001
998
1001
999
998
999
1000
998
997
997
997
996
995
994
988
991
991
987
986
986
987
985
988
990
993
994
995
995
993
996
998
1004
1016
1037
1068
1088
1114
1135
1160
1190
1217
1234
1238
1227
1214
1194
1167
1130
1080
1037
1017
1011
1008
998
991
987
983
981
980
980
977
974
971
970
970
966
964
962
958
958
957
955
955
955
954
954
960
959
959
955
953
953
957
959
958
957
954
955
956
958
958
956
955
955
958
961
958
957
960
958
959
963
964
962
962
964
967
968
966
965
962
966
969
971
972
968
967
968
968
972
969
970
967
966
969
971
972
970
971
973
977
979
980
982
982
987
989
991
989
988
988
990
994
994
994
992
987
990
994
997
995
994
993
995
995
996
994
995
995
996
997
997
995
993
994
994
996
997
996
992
989
991
995
997
995
990
988
988
990
991
989
988
982
983
984
986
986
980
984
989
993
994
993
991
994
994
998
1001
997
995
992
994
997
1000
1001
997
994
998
1001
1003
1004
1003
999
1000
1000
1002
1001
1002
1001
999
1002
1000
999
1000
998
1001
1002
1001
1000
998
996
997
997
997
993
989
988
989
989
987
989
989
989
990
992
992
990
990
989
994
1001
1016
1033
1054
1078
1105
1127
1151
1178
1202
1221
1232
1234
1231
1215
1195
1173
1135
1088
1048
1024
1014
1006
996
990
987
986
984
977
978
977
975
975
970
968
968
964
965
962
958
955
957
957
955
956
951
952
955
956
959
956
953
953
952
954
956
957
954
951
951
955
959
957
956
960
962
962
963
962
961
963
962
966
965
966
965
967
968
970
972
970
969
968
970
970
972
972
970
970
970
974
976
976
974
973
975
978
980
982
981
981
984
985
987
990
987
988
990
990
994
994
992
993
996
997
1000
1000
999
997
997
999
1005
1001
999
1001
1002
1007
1009
1008
1005
999
1000
1005
1007
1005
1002
1001
999
1003
1004
1000
1002
999
997
996
998
996
995
993
994
995
995
996
996
997
999
1001
1002
1001
998
997
998
1004
1007
1007
1003
1000
1002
1006
1009
1011
1008
1008
1005
1007
1012
1012
1010
1011
1008
1009
1011
1015
1011
1013
1012
1012
1015
1015
1011
1011
1013
1016
1013
1012
1008
1009
1007
1008
1009
1008
1005
1004
1001
1002
1000
1001
998
997
1000
1003
1002
1004
1000
1002
998
1002
1006
1007
1003
1002
1003
1006
1010
1009
1008
1008
1008
1009
1013
1012
1012
1012
1015
1016
1019
1013
1011
1012
1014
1017
1018
1019
1016
1015
1016
1018
1020
1018
1018
1014
1012
1013
1015
1014
1010
1011
1008
1007
1004
1005
1004
1001
1003
1001
1006
1004
1004
1004
1008
1009
1012
1010
1008
1008
1011
1015
1019
1017
1017
1015
1016
1020
1033
1047
1067
1088
1111
1134
1153
1173
1200
1220
1235
1242
1239
1228
1212
1189
1159
1116
1073
1044
1033
1025
1017
1010
1005
1000
999
993
989
986
987
985
981
978
977
978
976
974
972
974
974
977
977
975
973
969
973
976
976
977
975
975
976
980
981
982
980
978
979
980
984
982
982
983
980
983
982
984
982
984
984
984
988
987
985
982
986
986
989
987
985
984
984
985
985
985
981
979
978
979
981
982
979
977
978
982
988
991
990
990
992
991
996
1000
999
1005
1005
1010
1012
1012
1009
1010
1012
1013
1019
1022
1020
1019
1018
1020
1024
1025
1021
1021
1022
1021
1020
1020
1017
1017
1019
1021
1021
1016
1016
1013
1015
1019
1020
1019
1015
1011
1011
1013
1012
1010
1004
1006
1001
1001
1004
999
1000
1003
1004
1006
1009
1008
1008
1005
1004
1010
1013
1011
1010
1009
1010
1013
1017
1019
1019
1017
1016
1018
1023
1023
1022
1022
1021
1024
1024
1025
1022
1023
1022
1021
1025
1023
1022
1020
1019
1019
1020
1022
1019
1017
1015
1017
1017
1016
1014
1013
1009
1005
1006
1006
1002
1000
1000
1005
1004
1004
1002
1004
1003
1009
1011
1008
1006
1006
1007
1013
1016
1015
1013
1010
1012
1014
1016
1019
1018
1018
1018
1020
1021
1020
1017
1019
1019
1022
1025
1021
1017
1019
1020
1022
1024
1023
1022
1020
1017
1019
1019
1020
1020
1020
1018
1016
1019
1016
1015
1008
1009
1008
1007
1008
1014
1027
1052
1079
1106
1124
1145
1170
1194
1221
1237
1240
1235
1221
1201
1176
1140
1093
1055
1036
1025
1024
1015
1009
1005
1002
1001
1000
998
997
996
995
995
995
998
994
990
986
987
989
991
988
986
983
981
982
981
981
975
971
968
967
970
969
968
966
963
966
970
969
966
963
964
966
972
971
972
971
972
975
978
977
974
978
977
984
984
984
983
984
985
988
991
988
987
986
988
991
995
994
993
993
993
997
1000
1004
1001
999
998
999
1000
1001
1000
998
997
998
1000
1001
997
995
1001
1002
1003
1003
999
999
1002
1006
1008
1007
1003
1001
1005
1008
1013
1012
1005
1006
1009
1010
1014
1011
1012
1012
1011
1013
1016
1017
1016
1013
1010
1014
1016
1015
1015
1013
1014
1016
1014
1010
1008
1004
1002
1003
1002
1003
998
996
997
999
1002
1003
998
997
999
999
1002
1002
1001
1000
1000
1002
1002
1005
1005
1002
1004
1006
1009
1007
1009
1007
1010
1013
1013
1014
1010
1012
1011
1011
1018
1016
1015
1012
1010
1011
1014
1014
1012
1012
1011
1011
1010
1009
1009
1006
1005
1004
1003
1002
999
997
996
997
1001
1002
999
996
998
999
1003
1003
1003
1002
1001
1002
1003
1005
1004
1001
1000
1005
1007
1005
1007
1004
1006
1012
1013
1013
1010
1009
1010
1010
1013
1012
1012
1011
1010
1014
1015
1015
1014
1010
1013
1013
1014
1013
1009
1009
1009
1009
1015
1011
1009
1004
1004
1004
1005
1005
999
996
990
996
994
998
996
997
1000
1001
1003
1000
1001
999
1000
1008
1009
1005
1002
999
1005
1011
1028
1053
1076
1100
1124
1149
1178
1202
1225
1235
1237
1232
1224
1209
1181
1144
1095
1055
1034
1028
1021
1011
1002
995
996
997
992
988
985
983
980
976
974
972
970
971
971
968
967
965
965
965
969
966
966
965
965
968
970
972
968
964
965
967
969
971
971
969
970
974
975
973
975
975
974
976
977
979
977
976
977
979
980
981
976
975
975
978
978
979
977
972
972
973
976
976
970
968
968
973
976
979
978
978
978
980
985
988
987
991
987
991
996
995
995
995
995
1000
1002
1006
1003
1002
1002
1006
1006
1011
1008
1005
1004
1006
1007
1008
1008
1007
1008
1009
1010
1008
1004
1006
1004
1004
1004
1005
1000
1001
999
998
999
996
991
987
984
986
987
992
990
987
986
985
988
991
989
988
990
991
993
994
992
992
995
997
995
999
998
995
996
1000
1004
1006
1003
1004
1004
