979
976
980
980
983
983
992
1014
1039
1064
1088
1107
1127
1155
1182
1202
1207
1200
1187
1172
1152
1123
1078
1032
1003
988
983
975
966
964
960
957
957
955
953
950
948
945
945
949
947
944
939
938
941
941
942
939
937
936
937
940
940
940
939
939
943
947
946
944
941
941
944
946
946
944
941
940
940
942
944
943
943
941
943
946
945
945
943
944
943
944
948
948
945
944
948
950
951
949
947
946
947
951
953
955
953
953
957
958
959
959
957
962
964
969
972
971
972
972
975
977
981
980
978
975
980
982
983
980
977
976
979
979
979
978
976
975
976
976
978
975
973
974
975
975
978
976
974
973
975
976
977
976
976
974
977
978
981
979
978
978
982
981
985
982
982
983
986
988
987
985
983
980
984
984
982
979
978
975
974
977
977
975
973
974
973
975
978
971
972
971
972
971
971
970
969
972
976
977
981
980
978
977
981
984
982
982
981
981
984
984
983
982
981
982
986
985
985
987
985
984
984
985
987
984
983
983
983
983
982
983
981
980
982
982
983
981
977
979
983
994
1014
1035
1058
1084
1110
1138
1164
1186
1202
1205
1198
1187
1169
1136
1096
1048
1018
1003
993
982
973
966
967
968
966
963
959
958
960
959
959
957
951
951
952
954
952
950
949
947
949
950
948
948
944
940
943
943
946
947
942
944
940
944
942
940
937
938
941
943
944
942
941
943
943
947
948
947
947
946
948
949
949
951
950
951
953
957
958
958
956
956
960
963
966
964
962
965
969
971
971
972
972
971
974
979
979
979
980
980
981
982
983
981
981
981
980
983
981
979
978
975
977
978
980
978
977
977
977
979
982
979
979
979
980
982
980
979
977
976
981
984
984
984
983
981
985
988
989
987
984
985
986
986
987
983
980
981
981
984
983
979
977
980
979
981
982
981
978
980
979
980
980
980
978
975
975
980
982
981
977
976
980
982
981
980
979
978
981
983
983
981
979
981
981
982
985
983
984
984
988
989
987
987
984
984
988
988
989
986
982
982
983
986
985
982
978
977
979
981
983
980
975
975
977
981
979
976
974
975
973
976
977
974
974
972
974
976
980
976
977
976
978
984
983
984
980
984
988
991
992
990
988
988
988
990
991
996
1008
1026
1047
1075
1095
1115
1132
1157
1182
1202
1216
1216
1207
1195
1184
1170
1147
1109
1065
1026
1006
998
989
978
967
959
961
963
959
954
949
949
947
949
949
946
943
943
945
948
948
947
946
944
947
948
948
947
944
943
946
948
948
949
946
949
950
952
951
951
945
944
950
949
948
948
948
945
947
948
949
947
945
942
946
949
950
948
947
946
948
952
951
952
949
947
949
951
950
948
947
943
947
947
950
951
950
951
954
960
960
960
961
963
963
969
971
970
968
971
975
978
982
982
981
983
984
987
987
986
982
981
984
987
987
984
983
982
984
985
985
983
982
983
984
986
982
981
980
980
983
984
983
980
979
978
978
980
980
979
975
975
975
975
979
979
977
977
980
981
982
980
980
978
981
983
985
983
983
985
987
989
989
988
986
987
990
990
992
990
988
987
990
991
989
990
989
988
988
988
989
986
984
982
984
986
988
985
984
984
983
984
984
983
981
979
980
981
983
981
981
981
983
982
985
985
983
984
986
987
986
987
982
983
983
983
986
982
980
979
982
983
983
981
982
984
986
987
989
987
985
985
985
986
985
982
984
985
986
987
989
985
981
978
981
983
980
981
974
980
981
980
982
982
977
977
981
983
983
980
977
977
979
981
981
979
979
976
979
983
984
984
980
983
984
987
989
989
988
984
988
991
993
993
993
994
992
994
995
992
987
989
993
1008
1024
1045
1066
1087
1110
1130
1152
1175
1196
1207
1214
1208
1196
1183
1167
1133
1094
1050
1018
1003
994
984
976
969
967
965
961
958
958
957
957
953
952
953
952
955
956
955
954
951
953
956
955
954
955
953
958
958
958
956
952
952
955
954
955
953
951
951
948
949
951
949
946
944
947
949
951
948
946
944
946
950
952
952
951
951
953
951
951
952
951
950
951
952
955
953
954
955
956
959
960
957
957
960
962
965
968
968
968
970
974
977
979
979
979
978
983
985
985
986
984
982
983
988
988
985
982
983
983
986
986
983
983
982
984
986
986
986
982
982
983
983
982
980
977
976
978
978
978
976
977
976
979
982
983
982
975
978
978
980
979
979
977
977
981
984
984
984
984
981
987
989
990
989
985
987
989
991
991
986
983
981
982
986
985
983
983
982
983
986
986
983
983
980
982
983
985
984
979
980
979
980
980
978
974
970
973
977
979
978
977
975
977
979
978
978
976
976
976
980
981
980
979
978
980
984
987
985
982
985
988
991
989
987
987
987
987
989
991
989
986
985
985
985
986
986
983
983
983
987
987
986
985
981
983
982
982
986
986
1000
1017
1040
1064
1085
1105
1126
1149
1179
1200
1213
1215
1208
1198
1187
1171
1146
1105
1063
1026
1004
997
992
982
971
968
966
969
970
963
961
962
964
964
959
959
955
958
956
958
955
952
949
949
950
950
948
946
945
946
947
944
945
941
941
943
945
942
942
936
935
938
940
943
938
937
935
937
941
939
942
939
939
942
944
945
945
943
942
944
950
953
949
949
951
954
957
959
958
957
957
959
961
962
962
961
959
963
964
967
967
966
967
968
976
977
973
974
974
976
980
980
979
976
974
975
978
978
977
973
972
975
979
978
978
973
973
978
977
980
975
976
975
976
979
980
979
977
978
979
983
982
982
980
980
981
980
983
981
976
974
975
977
980
978
978
976
976
978
979
978
977
974
974
977
976
976
972
973
974
975
980
978
977
974
977
975
978
975
974
971
975
977
978
978
977
978
981
982
984
982
979
980
983
987
990
986
982
980
981
983
982
979
975
973
976
978
976
975
974
973
973
974
975
974
973
972
974
976
977
975
971
968
974
979
978
978
976
975
976
979
980
980
976
976
979
981
983
981
979
978
981
983
981
981
977
978
977
979
982
981
976
979
979
983
984
983
980
978
979
981
981
982
977
978
977
981
979
976
976
973
972
977
978
976
975
974
978
979
981
977
977
977
978
981
981
979
977
978
979
981
981
983
981
982
981
985
984
981
980
979
979
981
983
981
979
978
979
983
983
981
980
981
983
986
985
985
979
980
981
984
983
981
978
978
977
979
977
980
976
975
978
983
982
981
979
978
980
983
986
984
981
981
985
998
1015
1035
1059
1081
1097
1120
1145
1170
1188
1198
1196
1190
1180
1162
1137
1093
1045
1011
997
988
981
973
966
964
964
964
958
957
954
954
953
952
950
949
947
948
949
948
947
946
947
946
949
948
947
943
944
947
948
947
946
945
948
951
954
953
951
951
951
955
957
955
953
950
950
955
958
957
956
954
954
958
960
959
957
956
958
960
961
960
955
956
957
959
959
955
955
957
958
960
962
961
962
962
964
969
970
969
970
969
972
976
976
978
978
981
982
985
987
983
981
981
981
982
984
983
981
981
981
982
984
982
979
979
980
984
983
981
980
979
980
982
981
977
977
974
975
978
976
977
977
975
977
982
983
982
981
981
982
984
983
984
981
983
983
984
984
985
985
982
985
985
984
983
980
979
980
982
981
981
974
978
978
980
980
983
980
978
982
984
983
978
979
978
980
981
980
979
978
976
975
977
979
980
976
976
977
979
980
980
976
976
978
978
979
978
978
977
978
983
984
985
982
980
981
982
983
978
976
973
974
974
977
977
973
971
974
976
976
974
973
973
975
978
980
977
974
975
975
976
980
976
973
972
972
973
976
975
973
970
974
975
978
976
973
974
974
978
980
976
976
977
978
979
981
983
981
979
983
984
984
984
979
974
975
979
979
975
970
972
975
977
976
977
976
975
974
978
978
979
976
975
973
976
976
974
973
970
973
974
976
973
974
975
973
978
978
977
975
972
976
978
981
981
979
977
981
983
985
984
982
983
982
981
983
978
977
974
972
974
975
973
971
971
973
977
979
974
977
976
976
979
979
978
974
971
971
975
978
977
976
973
975
977
977
976
973
973
975
976
982
981
979
978
978
982
985
984
982
981
981
984
986
982
980
979
980
981
980
977
974
974
974
975
979
980
978
979
978
982
985
981
979
980
981
982
983
984
981
980
980
994
1011
1032
1051
1071
1088
1111
1135
1160
1176
1184
1186
1180
1173
1161
1134
1095
1045
1011
994
989
981
972
968
967
967
963
960
954
954
953
954
950
945
946
944
947
949
947
946
944
945
946
946
946
942
941
941
943
942
941
939
938
940
942
942
941
940
938
942
945
944
944
940
941
942
947
951
950
950
950
950
953
956
956
954
950
954
957
956
957
955
953
954
952
954
954
953
951
951
955
957
958
954
957
959
960
961
959
957
958
959
962
963
964
965
962
966
968
971
973
971
971
972
974
978
976
973
972
976
978
979
979
978
977
977
981
980
981
976
976
976
979
980
978
976
972
971
970
972
972
970
969
970
972
974
973
971
970
967
971
970
970
970
968
970
973
975
976
972
973
974
978
980
978
975
974
974
976
975
976
975
975
975
977
979
980
977
978
979
981
981
982
980
976
975
977
977
973
971
968
968
972
976
975
973
969
970
972
975
975
973
971
970
973
975
974
974
974
973
975
977
980
976
976
977
979
979
978
978
977
977
978
982
981
982
980
982
983
984
983
978
978
979
982
984
979
979
976
975
975
975
972
973
972
975
974
979
977
972
974
978
996
1019
1041
1064
1086
1108
1132
1164
1187
1203
1212
1212
1202
1190
1171
1143
1100
1054
1018
1003
994
983
971
968
969
970
965
963
961
961
960
961
960
955
952
951
954
956
951
949
945
945
945
948
946
942
944
944
944
945
947
942
945
943
942
944
944
941
940
942
943
946
946
941
942
942
943
946
946
941
944
942
945
948
946
945
944
948
951
954
955
956
955
959
960
962
960
959
958
957
960
965
964
964
961
962
962
966
969
966
968
970
974
973
974
976
974
976
976
979
978
974
974
976
976
977
979
976
975
976
978
980
978
977
977
977
978
980
980
980
978
977
980
982
981
980
980
981
984
981
981
982
981
979
980
982
982
978
976
974
977
975
976
976
973
974
977
980
978
977
977
976
979
979
979
973
974
974
977
978
977
975
972
974
977
977
980
978
975
976
976
980
977
975
975
975
978
978
980
979
979
978
982
982
981
979
979
981
980
981
980
978
977
977
978
977
975
972
971
968
970
971
969
968
967
967
969
972
974
970
968
969
973
975
972
971
970
971
974
977
978
977
975
975
977
980
980
978
976
976
980
979
980
980
979
981
984
983
985
982
983
981
983
986
985
985
983
984
982
986
983
980
978
976
980
981
977
974
981
997
1025
1053
1083
1110
1135
1171
1198
1207
1194
1172
1137
1083
1022
988
978
970
961
960
963
964
960
958
956
957
955
956
954
953
951
952
951
952
950
948
947
944
947
947
947
947
946
943
942
946
945
941
939
940
938
939
940
938
936
936
938
942
942
942
941
940
943
946
946
947
947
949
949
953
951
953
953
953
956
959
961
960
957
961
963
965
968
965
965
965
968
971
968
970
969
970
972
978
978
976
976
973
977
978
978
976
975
973
973
977
976
974
972
972
973
972
974
972
972
972
975
976
976
973
973
976
977
978
980
982
981
981
984
986
987
987
985
986
988
990
990
988
985
986
989
990
988
984
980
980
980
983
983
981
979
979
979
980
981
977
977
976
975
979
977
975
974
971
975
977
978
975
974
977
976
977
972
973
970
972
972
973
973
972
973
973
976
979
979
979
979
979
983
985
986
984
985
986
986
989
987
987
983
981
980
983
980
980
977
978
978
982
979
974
975
974
977
977
978
971
972
973
974
975
976
974
972
970
974
977
975
971
969
974
973
976
975
972
970
971
973
977
978
976
976
980
980
984
983
982
979
979
984
984
986
984
983
984
988
988
987
984
981
982
990
1002
1020
1040
1062
1087
1112
1133
1159
1182
1203
1213
1213
1206
1193
1176
1151
1112
1063
1023
999
990
982
971
964
962
960
957
953
953
954
954
953
952
949
951
952
954
953
953
948
951
953
954
953
951
952
952
955
956
955
952
949
947
947
948
950
949
948
948
948
946
950
947
948
948
949
951
947
944
947
946
945
950
950
949
946
949
952
953
953
952
951
954
955
958
956
955
956
955
958
961
962
964
963
966
968
974
977
976
974
975
979
980
979
979
974
977
981
983
983
984
982
981
980
984
984
981
979
981
981
982
982
979
976
976
976
979
977
975
978
978
981
982
983
980
978
979
982
985
983
984
983
983
989
991
992
991
988
990
992
994
993
992
989
990
987
989
987
985
984
982
983
984
985
982
978
978
981
983
980
976
973
971
970
974
973
972
971
971
973
976
976
976
974
971
977
977
980
977
977
978
982
985
985
983
986
987
991
991
988
988
987
986
988
990
991
986
986
983
984
986
985
983
980
982
984
985
982
983
979
978
984
983
981
982
980
977
976
982
980
975
975
976
993
1017
1039
1066
1088
1111
1136
1163
1186
1202
1212
1213
1212
1203
1192
1176
1152
1117
1074
1037
1013
1001
995
984
979
974
973
970
968
964
965
966
963
960
956
955
956
954
952
950
946
947
950
950
949
945
942
939
942
945
943
941
938
935
939
938
940
938
935
933
935
939
941
939
939
940
942
945
944
941
940
943
943
948
946
948
945
948
951
955
954
953
954
955
959
959
958
957
958
958
959
962
962
958
955
953
956
958
957
958
958
960
960
963
963
964
963
967
969
972
971
968
971
972
971
974
973
970
968
974
978
978
980
976
974
976
979
983
982
980
981
979
983
986
987
983
983
985
988
991
988
987
984
986
988
989
988
986
982
983
982
982
982
980
976
972
978
983
976
979
976
976
979
985
984
980
981
978
982
980
983
979
976
977
980
982
983
982
982
983
985
987
986
984
983
984
987
986
984
984
980
981
984
986
987
987
985
985
988
991
989
986
984
985
988
989
989
984
982
980
980
982
978
975
974
973
975
977
975
972
974
975
978
979
980
975
973
971
977
975
978
974
973
975
979
979
980
978
977
977
979
981
982
979
978
978
981
982
983
981
980
978
984
986
986
983
984
983
987
989
988
986
982
985
987
991
988
986
984
983
983
986
985
983
978
978
981
980
978
977
978
976
977
982
982
981
980
978
980
980
980
978
977
979
982
983
982
981
981
979
982
992
1004
1020
1038
1060
1086
1109
1127
1148
1172
1196
1215
1222
1221
1208
1198
1184
1167
1135
1091
1043
1016
1007
1002
995
984
973
971
968
968
966
964
961
958
955
959
960
958
953
953
951
955
956
955
954
950
949
949
950
948
948
946
945
947
947
943
944
943
946
945
948
947
945
942
943
950
949
951
948
945
946
949
952
952
951
951
951
956
958
956
956
956
955
959
961
960
959
957
959
962
963
963
961
959
960
962
962
962
961
962
964
967
968
969
966
964
964
966
968
968
967
964
967
969
970
971
970
970
974
973
980
982
980
979
980
984
987
985
984
982
983
984
989
989
984
984
985
988
990
988
986
986
988
990
990
990
987
987
989
989
993
990
989
987
987
990
993
991
989
986
985
989
991
991
989
987
986
985
987
986
983
982
980
982
983
981
984
983
984
985
987
986
985
983
984
985
986
987
987
986
986
985
988
990
987
985
985
987
985
990
990
986
984
987
991
989
989
985
985
987
986
989
989
986
985
987
988
990
986
985
986
982
985
984
982
980
978
980
984
984
981
981
981
984
986
986
984
981
982
981
984
984
983
979
979
982
986
985
983
979
981
986
988
990
985
986
987
992
995
992
988
987
988
998
1010
1036
1061
1085
1108
1134
1160
1184
1206
1220
1223
1217
1206
1189
1166
1130
1081
1037
1011
998
991
982
972
968
968
968
963
961
959
957
959
954
952
949
949
954
954
955
953
951
953
957
957
958
957
955
955
957
956
957
954
952
950
953
955
953
948
950
951
953
957
954
955
952
953
954
956
954
949
950
949
951
952
952
947
948
948
951
954
954
952
951
950
952
955
953
954
951
955
961
964
965
962
964
966
971
974
973
972
975
977
981
984
985
984
981
981
984
984
987
984
982
983
986
988
987
985
985
983
985
987
986
982
977
978
979
979
978
977
971
973
976
978
980
978
975
977
979
985
987
984
983
983
985
989
990
988
988
987
991
994
992
991
991
989
990
995
996
993
991
990
991
993
990
987
984
987
986
987
985
981
982
983
984
986
985
984
981
981
979
983
982
978
977
977
980
985
984
984
982
979
982
987
988
985
984
981
985
988
987
988
988
988
988
992
991
988
988
988
989
993
993
991
989
985
990
990
989
984
983
982
985
986
985
984
981
980
982
986
985
986
983
982
979
981
987
998
1016
1043
1075
1104
1130
