982
982
981
982
986
983
983
984
982
982
981
981
980
978
978
975
979
982
979
977
978
978
980
980
981
979
979
983
985
985
983
982
981
984
988
988
987
985
987
991
995
995
994
989
989
992
997
1008
1023
1042
1064
1086
1107
1124
1140
1161
1183
1197
1207
1209
1201
1192
1181
1167
1143
1110
1065
1026
1004
997
992
983
975
966
966
968
966
964
961
957
954
956
959
957
956
952
950
953
955
952
953
948
946
947
950
950
951
948
944
947
951
952
952
949
947
948
953
954
954
951
951
953
955
954
954
951
951
952
956
955
954
954
953
955
958
957
958
953
952
958
959
956
953
953
952
953
954
955
954
955
957
956
959
958
956
956
956
956
963
962
961
960
961
966
967
969
972
972
971
975
977
979
983
981
984
985
989
987
987
984
984
987
987
989
988
988
988
988
991
989
987
986
985
985
986
985
984
982
979
982
984
985
983
984
983
986
988
987
986
985
984
988
990
992
988
990
988
992
992
994
993
992
991
993
997
995
992
990
990
991
994
993
991
987
986
989
990
991
989
986
985
989
991
992
988
982
983
983
986
986
985
981
984
984
988
989
987
984
986
986
989
989
988
986
983
988
993
991
990
989
991
993
995
994
993
993
992
994
996
996
993
990
991
993
994
993
991
989
989
989
992
991
991
988
987
986
989
987
988
984
985
986
989
985
986
986
984
985
984
987
993
1001
1019
1044
1071
1093
1110
1135
1158
1187
1214
1235
1244
1243
1237
1225
1206
1182
1143
1098
1051
1027
1020
1013
1001
989
983
982
981
982
977
969
968
966
965
963
963
957
956
957
961
960
956
954
950
953
955
955
952
949
949
952
952
951
949
946
946
949
948
949
948
947
946
948
949
949
950
947
947
951
951
954
953
948
951
952
955
956
957
954
951
955
957
958
959
958
958
958
958
962
961
960
959
957
962
964
960
958
956
960
964
964
964
965
964
967
970
970
970
969
970
974
976
978
977
978
976
979
982
982
982
983
984
985
988
989
987
985
988
990
992
990
989
987
987
990
993
992
989
989
989
992
996
997
996
994
992
995
997
996
995
993
988
993
994
994
990
990
989
989
993
993
991
988
984
989
990
990
987
986
980
984
984
984
983
981
980
982
986
988
987
984
984
987
990
990
990
987
984
987
990
991
993
992
992
995
996
997
995
993
992
993
997
996
995
993
990
988
991
989
987
988
984
987
989
988
985
984
984
984
987
988
985
984
982
985
986
988
985
980
982
983
987
989
988
987
986
987
988
989
988
989
990
992
994
994
993
994
1002
1020
1044
1069
1090
1110
1133
1162
1189
1214
1232
1243
1241
1230
1216
1194
1162
1120
1068
1031
1015
1005
996
983
975
974
973
973
967
962
960
958
960
957
955
951
949
950
950
950
948
948
947
947
952
953
951
951
949
950
953
952
949
945
946
948
952
952
949
949
949
953
956
955
952
950
950
951
956
955
952
953
953
953
956
954
955
949
950
952
957
959
959
955
954
956
955
959
955
950
951
951
956
954
953
952
952
956
960
963
965
964
966
971
974
979
981
981
980
982
981
985
982
984
982
985
987
990
988
989
989
989
991
993
989
989
988
988
990
985
987
986
986
985
988
987
986
981
984
984
985
980
981
980
979
980
983
982
982
979
978
975
981
979
979
980
980
981
985
988
985
984
984
985
989
993
991
988
987
990
994
993
992
990
989
990
997
997
999
992
994
994
995
993
992
990
988
991
992
991
990
984
983
984
983
984
982
979
979
979
983
985
982
981
977
979
978
977
979
978
978
977
980
983
981
982
982
980
984
986
983
981
979
982
987
989
987
985
984
989
992
991
991
991
992
992
990
993
992
991
991
986
987
987
985
982
981
982
983
980
983
982
981
984
986
987
987
985
984
983
988
984
982
981
987
1000
1026
1051
1076
1095
1118
1149
1183
1210
1232
1240
1235
1222
1203
1175
1133
1082
1037
1014
1004
998
987
979
976
976
977
975
973
968
964
960
962
961
954
951
950
951
952
953
952
951
948
950
951
950
949
947
945
947
948
949
946
943
942
943
949
949
948
945
943
943
946
947
947
945
945
946
952
954
954
953
952
953
956
958
953
952
954
954
957
957
956
951
947
951
955
959
958
958
960
964
968
971
972
973
974
977
979
980
981
980
978
982
983
983
985
981
982
984
991
991
990
986
987
989
989
989
989
985
983
986
987
988
989
988
986
989
991
994
993
991
992
990
993
995
993
989
989
991
991
993
992
989
989
991
992
995
992
992
990
992
989
990
993
991
988
988
992
994
995
992
990
993
997
994
994
991
992
992
995
994
993
989
990
992
997
1000
997
995
994
996
1000
1001
1001
999
997
1000
997
998
998
995
994
995
996
998
997
993
994
996
997
997
996
992
994
993
992
994
993
990
988
990
993
996
991
991
990
991
994
998
998
997
996
998
1002
1001
998
1000
1002
1000
1005
1005
1006
1003
1003
1003
1005
1008
1004
1003
1011
1028
1054
1077
1099
1122
1147
1174
1203
1228
1242
1244
1233
1218
1199
1169
1120
1067
1029
1011
1004
999
987
979
974
977
978
977
975
971
966
966
970
967
969
962
963
965
971
969
969
966
968
969
970
970
968
966
965
965
969
970
967
967
963
962
964
963
962
960
959
958
962
961
963
960
959
962
963
965
961
959
957
958
959
958
957
960
959
963
965
969
967
965
966
970
974
976
976
977
979
982
988
992
995
996
996
998
998
1000
1002
999
997
995
996
998
997
996
995
994
998
998
998
995
994
992
995
996
990
987
986
986
989
987
984
983
984
987
989
989
991
988
987
991
992
991
989
989
990
994
995
998
998
999
1002
1001
1003
1002
1001
1000
996
998
1002
1002
1001
997
994
995
996
998
996
991
990
990
994
994
991
988
986
985
988
989
987
982
982
986
988
990
987
989
989
990
994
995
990
988
992
995
998
1000
1002
999
1002
998
1003
1004
1002
1000
997
1001
1005
1005
1004
1001
1000
1000
1000
996
998
994
993
995
998
999
997
993
993
999
1016
1036
1064
1085
1114
1143
1172
1201
1225
1240
1241
1231
1218
1197
1163
1115
1063
1028
1013
1008
995
985
979
979
978
976
975
970
968
968
969
967
967
965
963
958
961
961
961
956
954
954
953
954
951
951
949
949
950
951
953
952
949
949
952
952
950
949
947
949
951
954
953
952
953
956
956
957
956
957
956
958
959
960
959
956
957
960
963
964
960
963
962
960
963
970
967
967
966
971
974
977
979
977
979
978
986
983
986
985
985
989
991
987
988
989
988
986
989
992
990
986
986
988
988
991
991
991
991
992
992
991
993
991
991
992
989
992
990
990
988
985
989
992
992
991
989
987
990
992
995
992
991
990
993
992
993
990
988
988
989
992
992
991
988
990
988
994
992
989
986
989
989
991
990
988
985
986
988
989
988
987
984
984
990
989
988
989
987
987
991
993
989
988
988
991
996
996
996
994
991
991
992
993
992
991
987
986
989
991
988
985
985
983
985
985
985
984
980
982
982
986
983
983
980
982
982
984
982
981
978
977
980
981
980
982
977
983
983
984
984
983
981
983
981
988
987
985
985
988
991
995
996
994
992
991
997
999
997
994
992
994
1003
1015
1032
1051
1070
1095
1120
1142
1168
1189
1208
1221
1226
1221
1210
1190
1166
1134
1090
1045
1015
999
992
980
972
968
967
965
963
962
963
963
958
956
956
957
955
956
955
953
952
955
952
952
954
954
951
949
953
955
953
952
951
952
954
954
951
951
945
945
948
949
945
941
938
939
940
942
942
940
940
941
942
944
943
941
940
939
943
944
942
940
942
942
944
949
951
948
949
953
955
956
955
958
961
965
971
974
974
972
972
974
974
977
977
974
975
975
978
980
978
975
970
971
972
976
977
973
972
974
976
978
976
974
972
973
973
973
973
971
967
968
970
971
969
971
973
975
976
978
974
976
975
978
978
979
977
978
976
976
978
980
979
980
980
980
986
986
987
984
984
982
984
984
982
982
978
975
980
980
981
980
977
977
976
976
977
973
974
973
973
974
973
972
968
971
974
975
973
976
976
979
980
985
981
981
981
980
981
982
984
984
981
984
985
990
990
988
984
986
988
990
989
987
985
988
988
988
986
982
981
981
983
981
985
983
979
976
981
984
983
979
980
978
978
980
978
975
975
977
977
980
979
980
978
981
983
983
981
981
980
981
979
986
986
985
986
991
994
999
999
999
999
999
1000
1007
1018
1035
1058
1083
1109
1134
1155
1180
1205
1224
1236
1235
1222
1206
1184
1153
1112
1063
1025
1005
996
987
980
974
973
966
961
961
964
963
960
959
956
956
955
957
956
952
952
955
956
956
958
954
957
960
960
962
963
961
960
963
966
969
969
967
965
968
970
969
971
966
966
967
965
966
967
966
963
963
963
967
963
962
958
957
962
964
960
957
954
954
954
954
953
952
950
953
955
953
957
957
958
957
960
965
965
965
966
969
972
977
978
979
982
982
987
991
993
995
994
996
999
1001
1003
997
999
1000
1002
1003
1003
999
997
996
1001
1002
998
1000
997
997
1001
1001
1000
1000
996
995
996
997
995
993
993
991
992
994
992
988
985
983
989
989
989
989
984
988
989
993
993
988
987
993
993
997
994
993
992
994
996
998
1000
997
999
1000
1003
1003
1001
1001
999
1000
1001
1002
1002
999
997
995
998
999
999
998
998
996
996
998
997
996
995
994
998
997
994
992
993
990
994
996
994
994
994
995
999
1002
1001
1001
997
999
998
1001
999
1001
1008
1026
1053
1079
1103
1127
1151
1182
1214
1241
1259
1265
1261
1252
1233
1207
1177
1125
1073
1032
1017
1010
999
987
978
978
980
975
973
970
969
968
969
969
964
962
961
959
961
963
958
955
954
955
958
959
958
957
953
954
956
958
958
956
953
954
955
956
956
954
956
955
960
960
958
956
955
954
956
959
960
959
958
958
958
960
962
959
958
960
963
969
966
964
961
966
968
973
975
973
972
972
976
980
978
978
981
984
985
988
990
989
989
990
989
993
993
992
988
989
992
993
991
993
992
991
996
998
999
996
996
996
1000
997
998
996
992
993
993
995
993
991
990
991
993
995
993
989
992
993
991
994
995
994
992
993
992
995
996
990
991
994
995
998
1000
995
992
995
998
999
999
996
996
995
996
998
999
997
995
994
998
997
1001
1000
998
999
1000
1003
1003
1000
999
998
999
1001
998
995
994
992
995
995
995
995
991
993
995
992
993
991
988
993
992
993
991
988
988
987
990
991
990
987
983
985
987
988
992
991
988
990
992
994
994
992
992
989
993
996
996
992
994
996
998
999
997
997
996
997
1002
1002
1000
999
997
998
1000
1001
999
995
994
994
992
998
997
995
992
995
994
999
995
994
996
1002
1019
1039
1061
1081
1100
1127
1152
1179
1204
1223
1234
1236
1231
1222
1203
1175
1134
1087
1046
1026
1013
1002
993
985
981
980
980
977
975
972
974
974
973
971
969
970
971
971
969
969
965
964
962
964
959
957
957
957
958
958
959
961
959
958
959
960
958
957
952
953
954
955
953
952
950
953
955
959
956
956
957
957
962
963
967
965
964
964
966
971
971
971
970
971
974
974
974
973
974
975
976
981
980
978
977
979
980
980
982
980
979
980
986
991
990
988
987
986
989
994
993
992
987
989
990
990
990
986
986
987
991
994
995
994
992
995
996
1000
1000
996
995
996
999
1000
1001
999
997
999
1003
1006
1003
1003
998
1001
1001
1001
999
997
994
995
996
998
996
994
993
992
994
992
995
992
991
990
991
996
993
993
988
988
991
992
992
990
987
990
988
992
992
993
993
993
994
995
996
990
991
991
994
995
993
993
992
994
997
998
997
997
996
995
996
998
999
996
995
996
996
997
997
993
992
991
990
993
992
991
989
988
991
993
992
989
986
986
985
986
983
983
984
985
989
991
992
990
988
989
993
996
998
996
994
994
995
993
994
991
991
990
996
999
998
998
995
998
998
1001
1005
1015
1030
1049
1076
1099
1121
1140
1164
1188
1214
1233
1244
1242
1231
1219
1204
1185
1153
1105
1061
1030
1012
1006
996
985
977
974
976
978
973
967
965
963
963
962
961
959
956
957
958
960
960
958
955
955
960
960
961
958
956
955
956
957
953
952
956
954
954
956
957
953
953
953
958
960
956
956
954
952
954
955
957
951
952
951
951
956
957
957
957
954
958
957
959
954
953
954
955
957
957
955
954
955
957
963
965
964
961
962
963
970
975
974
975
975
978
983
984
981
980
982
987
989
990
989
988
989
989
991
990
988
986
983
986
984
985
984
982
982
984
985
981
979
977
980
981
983
980
977
970
971
975
977
976
976
976
975
980
982
982
982
980
982
985
988
987
987
985
988
988
992
992
988
986
987
987
989
990
989
984
984
986
988
986
984
983
981
983
985
984
981
980
978
981
981
979
977
976
971
973
976
973
974
970
972
974
978
980
979
974
976
980
980
979
978
975
975
979
979
983
980
983
982
985
988
990
988
986
988
987
991
990
990
985
987
991
992
992
987
986
984
985
989
990
987
986
983
986
988
988
986
984
984
985
986
986
983
978
978
976
979
980
976
977
976
978
980
980
978
977
979
981
982
983
980
979
981
982
985
984
983
986
986
989
990
991
991
986
987
991
993
993
991
990
993
993
995
994
990
988
989
988
992
990
987
987
986
990
990
989
987
985
985
986
988
985
984
984
987
998
1020
1042
1063
1087
1102
1124
1149
1174
1197
1212
1220
1218
1214
1205
1191
1169
1126
1084
1045
1019
1007
1004
993
985
981
980
978
976
970
972
973
970
967
964
959
960
959
957
955
954
952
953
953
954
952
952
950
953
953
952
947
945
944
946
947
945
945
944
946
948
946
949
949
950
947
952
953
953
952
954
956
958
960
958
961
960
960
961
965
964
964
962
963
964
967
966
962
958
960
963
965
966
963
963
964
965
968
967
966
969
967
973
976
974
972
971
970
973
973
976
975
975
976
981
984
984
981
980
982
985
987
988
985
984
987
989
991
993
990
988
991
992
996
995
992
991
989
990
994
991
991
989
988
989
991
993
989
988
989
989
992
991
988
985
986
987
989
989
985
981
977
982
983
982
983
983
983
986
988
988
986
985
985
984
988
987
981
983
984
987
989
991
987
988
987
990
990
991
986
986
984
987
989
988
986
985
986
987
990
988
984
983
982
984
986
987
984
982
981
983
983
986
982
980
979
979
978
979
976
976
975
977
980
981
979
979
977
980
982
982
981
978
977
980
984
985
981
980
982
986
988
988
986
982
982
985
990
989
989
985
988
987
991
990
988
989
990
987
991
993
991
991
987
989
992
994
993
992
990
994
993
992
990
987
984
985
992
1000
1016
1036
1062
1087
1109
1132
1154
1180
1202
1225
1232
1230
1220
1207
1189
1165
1129
1083
1039
1013
1004
999
994
981
978
975
974
971
971
969
962
962
960
959
959
958
956
951
952
956
956
955
951
951
949
954
955
952
950
948
946
945
949
946
945
945
943
944
947
948
945
942
942
941
946
947
946
946
944
948
951
951
951
953
952
956
957
960
957
956
958
959
958
958
958
957
955
960
960
960
961
963
963
967
966
970
972
971
972
976
981
979
979
979
977
980
982
982
980
980
983
985
985
988
986
983
984
984
988
986
986
986
985
991
989
991
988
986
986
988
991
990
987
987
986
986
989
987
984
983
981
983
985
985
984
981
977
979
985
985
984
982
979
979
983
984
983
983
981
986
987
989
987
987
984
987
990
987
988
988
982
985
991
990
986
990
988
991
992
992
989
989
986
987
988
988
986
981
983
984
985
986
985
984
982
983
985
985
982
982
980
980
981
982
982
979
979
983
985
987
986
981
984
986
988
986
987
985
983
984
987
984
983
986
985
990
994
993
992
989
989
994
997
997
995
995
993
994
996
996
992
989
986
990
1001
1018
1039
1063
1090
1119
1147
1175
1198
1219
1226
1225
1217
1197
1174
1134
1082
1037
1012
1002
990
983
973
975
977
975
969
967
966
967
969
966
965
963
963
965
966
966
964
963
962
963
963
964
958
956
955
957
955
955
954
952
951
956
955
953
952
949
946
948
949
949
948
946
942
942
944
947
944
945
946
950
955
958
956
956
957
962
961
963
962
962
964
968
970
974
974
973
976
977
981
984
985
984
985
986
988
988
988
987
987
988
990
988
985
983
982
985
986
988
982
982
982
983
982
983
981
982
979
984
984
989
989
988
987
991
989
991
993
991
989
994
994
994
996
991
993
996
999
1000
998
994
994
995
998
996
997
996
995
994
994
992
992
988
986
988
990
988
986
984
985
986
988
989
985
982
982
983
983
989
985
984
983
985
991
991
990
989
988
989
994
994
993
992
988
992
995
997
994
992
991
995
995
994
993
993
994
990
995
992
988
988
984
984
985
986
983
983
983
985
984
987
988
987
983
987
984
989
985
985
984
988
991
994
994
993
992
995
995
997
993
992
993
993
996
996
995
994
995
996
1002
1000
1001
998
996
1003
1003
