934
934
932
935
942
948
948
949
949
955
961
966
966
971
973
973
977
984
981
981
976
972
970
968
957
949
942
937
937
937
932
922
924
922
925
926
923
920
917
915
917
918
917
918
917
919
923
923
920
918
919
922
926
931
931
930
933
936
942
954
968
993
1029
1076
1131
1187
1226
1245
1230
1175
1096
1016
944
896
880
885
894
891
881
872
866
860
859
857
858
855
853
849
848
848
847
845
847
858
871
880
885
890
896
913
926
942
951
953
953
955
961
966
966
969
967
970
976
979
981
978
975
976
984
989
989
990
987
992
993
997
995
993
993
995
1003
1006
1008
1006
1006
1009
1015
1020
1023
1025
1027
1030
1034
1040
1041
1042
1043
1047
1051
1059
1060
1060
1061
1059
1062
1067
1065
1064
1062
1063
1065
1064
1056
1051
1046
1042
1041
1040
1035
1032
1023
1020
1020
1017
1011
1007
1002
1002
1001
1001
997
993
986
981
984
985
980
981
978
980
982
984
977
976
971
970
973
978
978
979
978
979
979
979
979
977
976
979
979
984
982
981
980
975
979
983
984
981
980
982
984
986
984
982
982
978
981
987
986
983
984
982
985
985
984
979
979
982
985
985
982
978
973
975
977
982
980
981
981
981
980
983
980
979
976
975
980
983
981
984
985
986
994
999
1000
1002
1004
1006
1015
1018
1020
1017
1020
1027
1032
1035
1037
1035
1031
1026
1030
1027
1021
1018
1010
1002
1000
997
987
980
979
977
978
977
979
975
970
969
970
971
969
963
962
963
967
972
970
966
964
962
965
971
972
971
969
972
975
981
984
990
1004
1026
1059
1103
1155
1204
1243
1275
1284
1253
1184
1093
1010
945
917
914
922
921
916
907
903
897
893
887
885
886
888
888
884
880
877
877
886
895
902
909
912
924
937
951
965
975
979
982
984
989
989
988
988
992
1000
1003
1002
997
997
1000
1003
1008
1008
1009
1006
1010
1012
1011
1012
1011
1010
1015
1021
1026
1024
1025
1023
1024
1030
1031
1035
1033
1038
1043
1047
1050
1052
1052
1054
1058
1062
1067
1068
1069
1070
1069
1073
1075
1075
1073
1071
1071
1071
1073
1063
1058
1053
1051
1049
1048
1044
1036
1031
1023
1022
1019
1016
1008
1003
998
999
996
990
986
983
982
984
985
978
976
974
972
972
972
972
973
971
972
974
978
969
966
964
968
970
974
976
974
971
972
972
974
971
971
972
974
977
978
977
974
972
971
973
977
977
975
974
972
975
976
972
971
971
971
973
978
978
975
974
971
972
974
975
974
972
974
974
974
972
971
968
969
969
976
974
972
967
969
970
975
979
979
982
986
989
997
998
995
997
1002
1009
1016
1021
1022
1020
1021
1021
1023
1019
1019
1014
1010
1008
1004
996
985
977
973
974
970
968
967
966
960
963
963
960
954
953
952
956
959
955
953
949
950
951
958
958
959
959
960
964
967
961
960
962
973
989
1010
1034
1071
1114
1167
1219
1259
1274
1250
1185
1096
1006
942
910
907
911
912
910
906
896
885
878
873
874
876
876
872
870
866
868
870
874
879
883
890
905
918
929
938
949
960
966
973
974
974
976
979
984
987
982
979
983
981
985
992
994
992
989
989
990
992
994
993
992
995
1000
1003
1005
1003
1000
1003
1009
1015
1014
1016
1016
1019
1020
1024
1024
1028
1030
1034
1041
1045
1044
1042
1040
1042
1049
1052
1053
1053
1052
1051
1050
1051
1044
1039
1035
1031
1032
1028
1022
1015
1011
1006
1003
1002
1001
995
990
985
982
976
976
970
963
966
966
967
963
957
956
955
957
957
955
954
951
951
954
955
954
950
949
951
953
956
955
951
948
949
951
953
953
950
952
954
955
955
952
947
950
950
955
959
958
954
948
947
948
952
951
949
948
947
949
951
946
944
939
943
946
948
946
942
942
943
943
947
945
945
945
945
947
949
946
946
949
957
959
967
969
967
964
972
978
985
988
991
992
994
992
992
989
984
982
981
978
975
965
954
944
939
939
940
939
935
933
930
928
929
925
924
923
926
927
924
923
922
921
922
927
932
931
931
928
931
932
935
941
947
962
989
1032
1086
1143
1195
1224
1227
1192
1113
1013
927
878
869
881
888
881
869
859
853
844
843
843
844
841
840
837
838
836
833
834
842
860
868
880
893
900
913
927
935
939
938
942
945
950
954
953
950
948
951
955
960
962
963
959
961
965
966
966
970
970
971
976
979
978
979
979
980
988
994
994
998
996
998
1002
1007
1011
1015
1015
1021
1024
1028
1028
1028
1028
1032
1033
1037
1039
1038
1031
1031
1030
1031
1023
1020
1014
1012
1007
1000
999
990
983
980
980
977
975
969
963
961
958
958
956
952
951
949
949
951
947
942
943
945
946
953
946
950
946
945
948
952
953
951
950
951
955
954
955
953
952
954
958
961
959
954
952
953
955
960
960
958
954
951
954
954
954
949
951
953
957
957
956
952
948
950
953
959
955
955
952
951
954
954
954
954
955
955
958
963
963
964
967
973
978
982
983
984
982
988
993
1005
1008
1008
1007
1007
1010
1010
1007
999
995
990
986
980
972
966
959
958
957
957
955
952
949
949
950
950
947
941
938
940
941
948
948
942
943
944
947
947
949
947
949
953
957
967
970
984
1003
1037
1093
1150
1205
1247
1273
1269
1221
1138
1036
952
899
889
898
907
903
888
879
872
872
872
870
870
868
865
865
864
861
861
864
877
887
897
907
919
931
947
961
975
975
976
977
978
984
991
992
994
988
991
996
1000
999
997
999
1001
1006
1010
1010
1005
1008
1011
1015
1019
1023
1024
1025
1029
1031
1035
1033
1035
1039
1045
1049
1054
1056
1055
1055
1062
1066
1076
1077
1077
1075
1078
1083
1086
1083
1079
1079
1078
1079
1081
1073
1065
1057
1055
1053
1053
1050
1044
1034
1033
1028
1025
1018
1015
1011
1008
1006
1006
1002
997
991
990
992
994
991
988
983
980
985
982
982
979
977
979
985
986
985
981
981
981
985
989
991
988
983
985
985
989
987
988
986
984
988
990
989
985
985
984
989
992
992
991
987
988
986
985
984
981
980
985
987
989
984
978
980
978
982
986
986
983
980
982
981
984
984
983
979
980
987
991
992
993
993
997
1002
1011
1013
1014
1014
1018
1025
1032
1035
1032
1034
1035
1033
1037
1031
1026
1017
1015
1010
1007
999
992
986
983
981
976
975
973
967
968
970
969
967
964
958
957
963
964
967
964
963
961
962
967
967
962
965
965
972
977
980
984
992
1011
1040
1083
1128
1176
1223
1264
1288
1270
1206
1109
1016
944
912
914
924
922
913
903
898
893
887
883
882
882
881
881
875
872
869
874
884
901
907
910
913
925
941
959
969
973
975
979
981
985
987
985
988
991
995
999
1000
995
992
995
999
1004
1005
1003
1005
1005
1009
1010
1011
1010
1011
1014
1020
1021
1023
1022
1022
1023
1029
1035
1040
1040
1039
1041
1046
1054
1055
1050
1053
1061
1066
1072
1069
1068
1068
1069
1072
1075
1075
1071
1067
1058
1061
1057
1051
1044
1037
1034
1034
1034
1027
1020
1013
1010
1007
1007
1006
998
996
994
991
990
986
982
977
980
981
982
981
974
968
968
969
976
974
973
973
974
975
980
979
977
978
981
984
987
986
985
981
981
984
988
989
986
986
984
988
993
990
988
985
990
992
993
990
988
987
987
986
990
990
991
988
984
986
987
987
983
980
980
980
987
986
983
978
981
983
985
986
987
991
994
999
1003
1007
1006
1003
1010
1016
1023
1024
1028
1028
1031
1033
1037
1037
1033
1030
1027
1023
1019
1008
995
985
982
984
984
975
970
968
967
968
969
962
962
960
957
961
961
959
957
955
959
963
963
960
960
960
962
965
971
974
974
978
993
1018
1048
1099
1148
1201
1248
1277
1275
1226
1141
1045
966
926
919
929
933
923
914
903
895
891
890
890
892
893
888
880
871
871
874
886
897
906
912
918
926
942
959
970
974
978
983
986
990
990
991
990
992
995
999
1003
1004
999
997
1000
1004
1004
1004
1005
1006
1008
1011
1009
1007
1006
1010
1013
1021
1021
1017
1016
1017
1023
1029
1030
1029
1034
1038
1042
1047
1047
1048
1047
1052
1058
1063
1065
1063
1063
1061
1064
1066
1064
1060
1056
1053
1048
1049
1042
1036
1030
1026
1023
1024
1019
1011
1002
996
994
996
993
989
985
980
979
978
972
967
965
964
967
971
967
963
960
961
961
965
965
964
963
964
966
967
962
962
960
961
962
967
966
962
961
964
962
970
965
967
963
968
965
967
967
965
964
962
966
967
966
962
959
961
962
966
965
961
960
962
965
968
965
963
959
961
965
968
969
969
970
973
979
981
982
981
982
988
994
1000
1006
1002
1006
1010
1014
1016
1018
1016
1013
1012
1011
1007
999
989
978
975
973
975
973
965
960
952
952
954
953
950
947
948
953
952
946
945
942
938
944
948
947
950
945
947
951
954
950
949
952
954
958
969
978
996
1025
1071
1126
1183
1229
1256
1251
1202
1122
1032
950
898
888
899
908
913
900
886
877
871
871
871
871
867
865
861
859
861
856
855
859
869
884
894
902
902
911
924
938
955
961
965
964
966
969
974
975
975
976
980
988
991
989
983
984
985
989
996
995
994
994
995
996
1000
998
1003
1001
1007
1011
1014
1017
1016
1014
1018
1026
1034
1034
1035
1034
1036
1041
1046
1050
1051
1054
1055
1063
1066
1066
1064
1060
1057
1061
1062
1058
1052
1049
1040
1040
1036
1031
1025
1022
1021
1017
1015
1009
1002
994
991
992
994
989
986
980
979
977
977
974
971
969
968
973
974
971
969
966
969
973
974
975
974
974
973
976
977
977
973
973
975
979
983
982
979
973
975
975
979
980
981
978
980
977
982
981
977
978
980
982
984
986
982
978
978
982
986
986
983
983
981
982
985
982
981
978
983
986
990
994
993
992
995
1003
1009
1012
1014
1014
1020
1025
1031
1036
1036
1038
1035
1039
1045
1043
1038
1030
1027
1025
1021
1012
1003
995
991
994
993
991
985
981
979
983
986
982
980
978
976
978
979
978
974
974
975
981
985
985
983
979
984
987
989
993
993
994
1000
1009
1023
1044
1072
1112
1159
1215
1264
1297
1302
1272
1202
1111
1031
967
934
932
942
948
944
935
924
915
910
909
911
913
909
907
904
901
902
902
900
905
915
924
935
939
947
958
971
987
1001
1007
1007
1008
1013
1020
1025
1024
1024
1022
1023
1030
1034
1031
1028
1027
1025
1031
1034
1038
1038
1039
1040
1041
1044
1042
1043
1043
1048
1051
1056
1055
1057
1055
1057
1061
1064
1066
1067
1070
1073
1081
1085
1089
1083
1084
1088
1095
1102
1101
1102
1098
1101
1105
1107
1103
1101
1099
1101
1099
1101
1095
1084
1079
1073
1074
1072
1069
1060
1056
1051
1047
1047
1041
1036
1029
1028
1031
1032
1024
1019
1016
1012
1012
1015
1010
1009
1008
1007
1009
1008
1005
1002
1001
1000
1005
1009
1008
1004
1001
999
1004
1003
1004
1004
1003
1004
1007
1007
1007
1005
1003
1004
1005
1009
1010
1008
1005
1004
1007
1009
1008
1006
1000
1005
1006
1010
1009
1006
1001
1000
1002
1003
1004
1003
998
1000
999
1000
999
996
996
997
1001
1003
1001
998
996
992
998
1001
1003
1007
1008
1015
1019
1022
1023
1020
1023
1028
1035
1043
1046
1048
1049
1048
1052
1053
1051
1048
1044
1042
1043
1042
1030
1021
1008
1006
1007
1006
1005
1000
992
992
990
990
986
984
983
985
986
989
983
979
976
975
976
984
987
984
983
984
983
986
989
987
989
994
1000
1014
1029
1054
1083
1126
1181
1231
1270
1296
1286
1245
1171
1087
1007
950
925
929
942
944
938
931
917
911
907
903
898
898
898
902
904
899
897
892
892
902
914
925
934
941
952
961
979
990
1000
1002
1002
1002
1011
1014
1013
1012
1010
1013
1016
1019
1021
1020
1019
1017
1023
1023
1022
1021
1017
1019
1025
1030
1034
1030
1028
1027
1028
1034
1035
1036
1038
1041
1043
1049
1049
1048
1045
1051
1058
1064
1064
1064
1065
1069
1073
1078
1078
1078
1077
1078
1083
1088
1087
1087
1083
1082
1083
1083
1081
1076
1068
1067
1065
1065
1057
1046
1041
1036
1033
1033
1029
1024
1015
1014
1012
1010
1004
999
996
993
996
998
990
987
982
982
983
985
982
977
976
976
977
978
976
973
968
969
974
977
976
976
971
971
971
973
972
971
970
972
972
979
976
975
968
968
971
976
975
976
968
971
974
978
974
971
971
972
972
976
974
972
968
966
965
972
968
969
969
969
968
969
967
966
962
961
967
970
970
965
960
959
961
967
967
972
973
975
984
987
988
987
986
989
998
1005
1010
1014
1016
1017
1016
1021
1018
1014
1014
1012
1011
1009
1000
988
975
969
973
972
970
965
958
954
955
955
953
949
947
945
949
950
947
942
939
942
944
945
949
948
947
946
948
952
951
950
953
961
975
994
1019
1051
1090
1141
1189
1230
1247
1233
1181
1097
1007
934
893
886
893
898
898
891
882
869
862
854
855
861
863
862
851
850
850
849
856
861
868
883
896
910
922
931
937
943
950
955
959
960
958
963
967
970
971
970
967
970
975
978
979
976
974
977
979
983
986
984
983
985
989
992
994
994
991
998
1001
1006
1011
1010
1006
1008
1012
1019
1022
1024
1027
1030
1033
1038
1039
1040
1039
1043
1046
1052
1054
1051
1048
1047
1047
1049
1045
1038
1036
1033
1029
1027
1023
1012
1004
1001
1001
1001
997
989
982
978
977
976
976
967
966
964
964
963
961
958
952
953
954
958
957
952
952
950
951
955
951
950
951
954
956
957
956
951
950
949
951
956
953
954
952
954
954
956
953
953
951
954
959
961
962
958
952
952
955
959
958
954
957
956
958
960
956
952
950
950
954
958
957
955
953
952
957
963
965
964
967
973
978
981
982
982
984
989
994
1004
1007
1005
1004
1004
1007
1008
1007
999
998
996
994
989
982
970
962
959
956
954
953
951
947
947
948
952
945
939
940
940
938
945
944
941
936
937
940
944
944
945
944
947
949
950
952
952
951
960
972
990
1012
1042
1079
1125
1175
1220
1255
1264
1239
1176
1087
1001
921
881
876
887
896
896
888
876
865
860
857
860
861
860
859
857
857
854
855
862
868
880
891
905
917
926
940
952
961
967
971
970
972
973
981
983
986
982
979
984
989
995
994
996
992
996
996
999
1000
1000
1001
1003
1009
1013
1015
1014
1012
1016
1019
1025
1027
1030
1032
1033
1039
1042
1047
1048
1051
1056
1062
1067
1065
1063
1064
1071
1074
1080
1079
1075
1072
1070
1069
1064
1062
1056
1049
1045
1042
1037
1027
1021
1014
1011
1009
1008
1005
996
988
984
984
980
977
975
970
969
972
971
966
962
956
958
962
962
965
960
955
957
960
962
961
957
957
962
962
965
964
961
958
959
960
965
968
967
963
966
965
970
969
966
964
965
968
972
970
969
967
966
968
973
973
969
968
965
963
966
964
959
963
966
967
972
967
965
961
960
963
969
971
968
963
962
968
970
966
964
965
969
972
978
981
982
983
985
988
997
997
997
999
1003
1008
1015
1015
1016
1014
1016
1020
1022
1020
1012
1005
1000
994
990
984
975
970
968
967
968
966
962
959
959
960
958
956
953
948
948
952
954
957
954
954
953
955
960
956
958
955
958
965
972
976
984
994
1020
1057
1102
1155
1202
1243
1268
1268
1224
1139
1037
955
901
889
896
903
901
890
880
877
870
870
867
869
870
870
869
862
861
858
863
875
892
901
906
914
930
947
961
970
975
977
980
984
986
987
988
988
990
994
1000
1003
1000
997
996
1000
1006
1006
1007
1007
1006
1010
1012
1011
1010
1011
1016
1021
1028
1029
1029
1028
1028
1032
1035
1041
1042
1047
1050
1060
1064
1066
1066
1065
1067
1077
1082
1086
1084
1083
1083
1086
1089
1088
1083
1081
1080
1077
1075
1067
1061
1050
1046
1044
1044
1038
1029
1023
1017
1013
1012
1008
1001
996
994
995
994
992
985
981
977
979
981
981
978
975
975
976
973
973
971
970
972
974
975
974
970
969
970
971
976
977
974
972
971
972
979
976
978
973
975
976
980
978
978
976
978
979
982
984
983
977
977
977
979
977
978
977
975
979
979
979
973
972
971
975
976
980
977
974
974
976
975
976
972
972
975
976
977
977
974
972
977
984
994
999
999
997
997
1003
1008
1012
1017
1018
1022
1028
1030
1029
1026
1023
1022
1023
1019
1012
999
985
979
976
977
976
973
972
968
969
968
966
962
960
961
961
964
960
958
956
956
960
965
966
964
959
963
966
969
974
978
988
1008
1035
1072
1115
1163
1208
1248
1266
1253
1191
1097
1001
936
908
908
919
920
914
907
896
893
887
884
882
885
885
885
882
877
876
885
896
908
921
931
943
959
968
979
978
979
978
985
991
994
996
995
994
991
996
1003
1006
1004
1001
1003
1006
1008
1009
1008
1007
1010
1014
1020
1019
1017
1017
1018
1022
1029
1032
1030
1033
1035
1038
1044
1045
1047
1048
1049
1058
1064
1063
1062
1063
1065
1072
1075
1078
1077
1072
1070
1071
1072
1065
1061
1053
1046
1048
1045
1038
1027
1021
1018
1018
1017
1013
1007
999
992
992
992
988
984
980
980
978
981
976
972
967
967
970
972
972
969
967
964
964
968
968
968
969
969
970
972
970
966
963
967
973
975
972
968
964
966
966
971
970
967
969
968
969
967
967
963
965
965
968
970
970
964
962
960
963
966
966
963
962
962
959
962
961
958
958
961
966
968
966
957
957
956
962
967
972
975
974
977
981
984
984
987
987
994
1001
1007
1008
1008
1006
1007
1009
1011
1009
1001
993
986
978
972
963
959
953
953
950
952
948
942
939
936
939
943
942
935
934
933
933
936
937
934
932
935
940
943
944
937
940
942
949
960
973
985
1011
1049
1096
1152
1201
1231
1232
1186
1110
1015
930
884
883
897
903
897
884
872
859
854
856
859
862
860
855
850
845
847
849
856
863
872
884
893
909
920
929
936
947
952
956
952
954
957
960
965
964
965
964
964
970
974
971
970
971
971
979
983
982
980
979
979
981
986
988
986
989
992
998
1001
1002
1001
1000
1003
1012
1018
1019
1017
1019
1022
1026
1031
1036
1035
1034
1040
1040
1040
1036
1033
1029
1027
1027
1024
1020
1011
1004
1000
997
993
991
983
980
974
972
968
