975
975
973
969
967
967
970
971
971
968
964
965
967
965
962
961
960
963
964
968
967
966
964
964
972
974
974
980
983
990
994
996
998
997
999
1006
1013
1020
1017
1014
1012
1008
1007
1008
1001
990
985
978
974
972
968
960
957
954
952
956
955
952
949
948
949
948
944
939
938
941
944
945
945
941
940
940
944
946
946
947
944
951
959
963
973
990
1018
1063
1120
1178
1222
1257
1259
1219
1140
1045
953
894
876
884
897
903
891
875
870
866
864
867
866
867
866
864
861
855
856
859
869
880
891
899
905
911
920
935
949
957
961
961
960
963
964
967
968
968
967
973
978
978
978
977
973
976
979
982
984
985
988
989
993
996
994
995
996
1000
1004
1010
1012
1013
1012
1011
1015
1017
1021
1026
1030
1034
1035
1039
1038
1039
1038
1041
1042
1050
1048
1048
1046
1043
1041
1041
1038
1032
1026
1026
1024
1022
1014
1001
995
988
989
987
982
976
969
968
963
960
956
954
945
944
943
944
941
937
934
930
931
933
930
928
927
929
931
931
929
925
923
923
930
931
930
926
926
925
930
931
929
928
923
928
933
933
931
930
927
930
931
932
932
932
927
931
932
931
924
923
921
924
929
927
928
928
926
926
931
935
936
936
937
941
950
953
953
950
951
955
963
972
973
971
967
968
969
969
965
960
950
947
943
940
933
925
916
915
918
918
917
911
913
910
912
912
907
902
901
900
906
909
906
905
901
902
906
907
906
907
905
911
917
922
923
925
928
943
968
1006
1048
1098
1150
1202
1235
1234
1185
1092
991
907
857
849
858
866
862
855
848
843
839
835
834
840
842
843
836
828
823
825
835
845
850
859
864
873
886
899
913
924
930
937
945
949
950
948
950
952
957
963
960
964
964
967
969
968
967
968
970
974
978
981
982
978
979
981
986
988
993
994
995
998
1003
1007
1007
1006
1009
1009
1017
1023
1025
1026
1027
1030
1028
1032
1035
1036
1035
1039
1042
1043
1039
1030
1029
1027
1025
1024
1021
1013
1007
1000
997
992
985
981
978
974
973
970
964
961
953
953
951
951
948
944
938
940
938
937
933
931
931
932
939
942
942
941
934
935
938
941
939
940
938
940
942
942
936
933
932
934
941
945
943
939
937
939
939
942
941
937
940
942
941
942
940
936
934
937
942
943
941
940
941
940
944
949
949
953
958
962
971
973
975
973
975
981
988
994
1001
1000
999
998
999
1000
998
992
986
984
979
970
963
957
955
954
957
960
958
955
953
953
954
952
950
947
945
946
950
952
951
947
941
944
948
952
953
954
956
954
963
966
970
980
1000
1030
1075
1124
1181
1235
1276
1293
1262
1184
1072
975
908
886
896
910
909
898
892
889
887
885
881
881
882
883
883
883
877
877
886
901
912
921
927
935
946
964
976
988
992
990
990
994
997
1001
999
1001
1003
1009
1011
1014
1011
1011
1012
1015
1020
1021
1027
1026
1024
1025
1031
1033
1032
1033
1033
1039
1045
1051
1050
1050
1051
1052
1058
1062
1065
1067
1072
1075
1078
1082
1081
1081
1083
1090
1094
1097
1094
1091
1090
1082
1084
1084
1080
1071
1066
1063
1058
1057
1047
1038
1030
1026
1026
1022
1018
1014
1006
1003
1002
1003
996
991
986
986
986
987
981
978
973
971
976
983
978
978
976
976
977
978
975
977
977
978
984
985
983
979
976
977
979
983
983
983
984
984
987
983
978
978
982
985
989
992
985
976
975
978
983
984
984
982
978
979
979
986
980
974
976
976
982
984
985
983
984
984
990
994
995
993
994
1001
1005
1012
1014
1009
1015
1020
1026
1029
1029
1026
1026
1022
1024
1018
1007
996
991
986
984
982
979
973
967
965
963
962
964
961
961
959
961
957
956
953
954
955
958
960
963
960
959
957
961
965
967
967
968
977
992
1009
1026
1060
1105
1157
1213
1263
1293
1294
1252
1167
1066
976
910
885
894
911
916
914
903
892
883
877
879
885
889
889
886
879
879
881
886
896
900
911
924
935
942
953
959
972
983
987
990
990
990
995
998
1000
998
998
1002
1003
1006
1012
1012
1010
1007
1009
1013
1018
1019
1019
1019
1025
1031
1031
1030
1031
1032
1037
1045
1047
1046
1046
1043
1045
1053
1055
1058
1061
1060
1064
1066
1069
1069
1067
1065
1072
1077
1078
1075
1070
1065
1061
1056
1053
1048
1040
1032
1027
1023
1022
1013
1005
996
994
992
993
985
981
974
969
968
963
961
958
955
957
956
957
953
950
943
945
948
950
950
949
947
948
951
951
947
946
944
949
954
957
954
949
944
945
948
953
950
947
946
950
953
953
951
947
945
948
949
951
950
943
943
941
943
944
941
941
940
946
946
948
945
941
938
939
940
945
948
945
946
951
956
960
960
958
960
967
971
978
980
981
984
984
990
990
991
989
988
988
987
980
971
959
953
946
945
946
945
940
934
933
932
934
930
925
925
926
931
929
924
923
921
921
926
930
931
929
927
931
930
930
929
929
931
937
950
962
975
996
1028
1073
1127
1178
1225
1250
1251
1215
1143
1053
959
885
855
859
875
880
875
865
859
856
847
841
840
840
845
848
848
847
841
837
837
846
856
868
874
879
885
898
914
927
931
933
938
942
946
949
953
953
954
958
961
961
958
961
963
966
971
975
975
974
973
973
977
982
984
986
986
990
994
997
998
996
996
1000
1005
1009
1011
1009
1010
1013
1020
1023
1023
1023
1029
1030
1035
1040
1039
1039
1041
1044
1046
1047
1045
1043
1041
1038
1038
1036
1026
1018
1013
1008
1009
1005
998
989
986
983
979
976
967
960
956
954
957
954
950
944
940
939
939
936
935
934
932
932
933
933
929
922
923
923
929
931
927
928
927
929
929
931
928
926
926
928
932
933
932
928
926
926
930
933
931
929
931
931
934
934
930
927
925
926
928
929
930
927
926
926
927
923
925
921
920
923
926
930
928
925
923
920
925
926
925
925
928
934
940
945
947
945
942
945
950
959
961
965
966
973
975
979
975
973
969
969
974
975
969
962
956
947
941
938
935
931
928
928
927
929
927
923
918
915
919
917
915
914
914
915
917
919
917
913
909
912
917
918
923
922
922
924
926
931
930
932
937
949
972
994
1026
1068
1109
1158
1204
1243
1261
1246
1194
1120
1029
949
886
859
860
873
875
876
867
859
854
850
851
852
852
851
851
850
849
852
853
853
862
866
878
886
891
898
906
923
942
952
954
957
954
958
964
970
966
967
965
970
978
981
979
977
975
978
984
987
989
990
987
992
994
1000
998
1000
998
1004
1011
1014
1017
1013
1012
1018
1023
1029
1028
1029
1031
1036
1040
1045
1048
1048
1049
1052
1056
1059
1064
1064
1066
1068
1072
1075
1073
1067
1066
1066
1067
1065
1064
1055
1047
1042
1036
1036
1029
1022
1017
1012
1013
1011
1005
998
990
984
983
979
978
973
970
968
969
968
963
956
953
953
957
958
956
958
953
953
954
954
955
951
952
954
957
960
957
956
953
956
960
959
957
956
957
959
963
962
963
963
959
960
964
963
964
959
961
963
967
968
963
959
957
960
964
967
965
962
959
962
962
963
961
958
957
956
961
965
964
959
955
955
956
956
956
956
953
957
957
962
961
960
961
968
974
978
982
980
980
987
991
995
996
1000
1002
1005
1005
1009
1012
1010
1007
1005
1003
998
990
983
973
970
971
968
967
962
956
953
954
955
953
953
949
952
954
952
951
944
942
944
948
949
950
950
949
948
950
954
952
947
950
956
961
967
975
987
1008
1041
1087
1137
1192
1240
1275
1282
1246
1168
1069
978
908
875
877
895
900
894
888
882
876
869
863
862
864
867
874
873
870
862
858
864
875
884
892
895
902
913
925
939
949
955
960
964
970
976
978
979
978
980
981
984
984
983
983
989
994
995
994
994
992
992
995
999
1000
1002
1003
1005
1009
1011
1012
1013
1012
1019
1025
1031
1032
1031
1034
1035
1039
1041
1043
1043
1043
1049
1055
1057
1060
1061
1060
1061
1065
1068
1067
1069
1069
1070
1068
1066
1058
1052
1046
1041
1041
1038
1034
1027
1021
1017
1013
1010
1001
999
996
996
993
993
986
980
974
974
970
971
967
969
965
966
965
965
962
956
955
956
959
958
962
957
953
958
958
959
957
955
956
958
961
965
963
960
958
956
958
960
961
958
961
963
966
966
963
963
957
961
963
963
962
959
957
962
963
962
959
957
956
960
965
967
961
958
956
955
957
963
956
958
955
956
959
961
959
956
959
963
973
978
977
976
977
980
988
993
995
998
1001
1006
1009
1009
1007
999
998
996
992
988
983
972
963
959
959
958
953
947
939
943
945
947
946
943
939
940
938
938
936
933
934
935
938
942
940
939
937
934
939
945
944
941
941
945
950
958
961
966
982
1009
1046
1094
1140
1184
1231
1264
1277
1253
1187
1099
1009
933
895
887
894
901
902
894
889
884
878
868
863
866
871
874
872
868
862
862
859
866
872
879
884
893
902
910
922
928
937
948
958
967
968
971
969
970
976
976
978
977
977
980
986
990
988
987
984
985
988
993
991
992
994
996
999
1004
1002
1001
1001
1005
1007
1013
1015
1015
1016
1019
1023
1025
1023
1024
1027
1032
1039
1042
1044
1042
1042
1044
1047
1048
1050
1052
1054
1056
1057
1058
1052
1045
1043
1042
1040
1040
1036
1029
1021
1017
1016
1008
1003
995
991
991
987
984
977
970
966
964
965
964
958
954
953
954
953
954
949
948
945
944
948
946
946
943
946
945
948
950
944
941
941
945
950
951
948
944
940
939
942
945
943
942
939
945
948
947
946
943
939
942
945
948
948
942
942
941
943
944
939
940
938
945
946
945
943
939
932
934
940
944
945
943
944
950
953
957
956
954
957
961
966
970
975
979
978
980
984
990
989
981
985
987
987
980
969
958
954
948
948
944
943
938
934
928
932
930
929
924
923
924
928
926
924
921
917
917
921
924
925
922
924
927
928
931
930
928
931
938
946
961
980
1013
1055
1108
1159
1212
1246
1252
1219
1152
1061
976
906
871
869
881
893
892
885
873
864
858
854
856
855
855
851
855
852
854
848
851
858
871
884
896
902
910
922
935
947
954
956
955
956
960
967
970
967
965
966
970
975
977
979
976
980
982
985
987
987
987
987
990
995
1001
1001
1003
1001
1004
1005
1014
1013
1017
1019
1025
1031
1035
1034
1032
1032
1035
1044
1049
1053
1052
1054
1058
1063
1062
1062
1061
1059
1061
1067
1066
1061
1054
1048
1045
1041
1039
1032
1024
1019
1017
1015
1012
1003
991
988
982
985
984
980
972
969
966
966
963
958
953
954
955
958
961
956
951
948
948
950
952
953
953
952
951
956
957
955
951
948
950
956
959
962
958
956
955
956
960
961
960
958
958
966
967
966
964
960
960
963
966
969
965
965
963
967
969
965
962
961
963
970
971
975
978
980
980
984
989
987
990
995
999
1008
1015
1016
1014
1010
1009
1011
1015
1013
1010
1002
998
992
985
975
966
964
967
969
970
968
963
960
958
959
962
960
957
957
956
958
959
957
955
954
958
963
967
966
965
963
964
969
975
980
990
1006
1033
1074
1123
1175
1224
1268
1293
1275
1214
1113
1015
938
906
909
924
926
919
911
904
903
899
890
891
892
894
896
894
891
887
889
901
910
922
930
935
946
966
983
993
999
998
1001
1001
1006
1011
1014
1015
1014
1015
1019
1025
1023
1023
1022
1027
1029
1036
1038
1036
1035
1035
1041
1046
1051
1052
1052
1054
1056
1061
1060
1060
1061
1070
1076
1081
1080
1078
1080
1085
1089
1095
1097
1098
1098
1100
1102
1104
1103
1101
1100
1100
1100
1099
1097
1087
1080
1077
1072
1067
1063
1054
1047
1043
1044
1040
1032
1025
1021
1020
1019
1018
1015
1010
1005
1002
1001
1000
998
992
994
995
998
999
995
991
987
990
991
995
997
995
993
993
995
993
995
992
990
992
993
998
1001
995
994
993
994
996
995
992
989
992
996
996
994
992
989
989
995
1000
998
994
990
991
992
995
994
994
993
999
1003
1009
1013
1010
1012
1015
1020
1027
1032
1030
1036
1039
1044
1044
1044
1040
1042
1044
1044
1042
1034
1025
1015
1010
1003
1001
998
993
990
991
991
988
985
980
976
975
980
982
981
977
973
973
975
974
976
975
976
975
983
984
979
977
979
982
989
1000
1009
1022
1045
1079
1127
1177
1228
1273
1301
1307
1274
1194
1090
997
932
912
918
934
936
926
920
913
907
906
900
897
902
903
904
905
902
896
900
907
920
930
936
942
953
967
983
994
1000
1000
1004
1007
1012
1014
1017
1017
1014
1019
1020
1021
1024
1023
1024
1029
1035
1034
1035
1031
1030
1035
1039
1041
1044
1047
1048
1049
1053
1057
1058
1058
1057
1061
1071
1077
1074
1074
1072
1080
1083
1087
1092
1093
1092
1097
1101
1102
1102
1100
1099
1097
1099
1098
1091
1084
1076
1072
1070
1066
1059
1054
1046
1040
1035
1034
1025
1020
1015
1013
1014
1014
1009
1004
995
993
992
991
992
987
986
986
988
986
982
976
979
983
987
989
987
983
982
980
982
985
983
982
984
986
986
984
987
982
984
986
989
993
989
987
984
985
986
987
986
988
985
987
989
988
985
981
984
986
988
991
989
986
987
988
996
1003
1005
1006
1007
1009
1016
1019
1022
1025
1027
1028
1033
1035
1035
1031
1027
1024
1020
1017
1008
997
991
989
984
979
972
969
964
964
966
970
969
965
962
962
961
963
962
961
961
962
963
967
963
961
960
961
969
970
973
974
975
985
995
1015
1042
1081
1127
1181
1233
1274
1292
1267
1196
1098
1006
939
907
905
920
923
922
911
902
892
883
882
883
891
889
884
880
877
877
880
885
893
901
908
920
932
941
948
960
967
977
985
985
986
987
988
991
994
993
997
995
998
1003
1008
1007
1002
999
1003
1005
1010
1011
1010
1010
1014
1016
1025
1021
1021
1024
1029
1035
1040
1041
1042
1039
1041
1047
1051
1055
1055
1059
1060
1066
1069
1069
1063
1068
1072
1076
1078
1078
1075
1071
1068
1068
1068
1060
1055
1050
1046
1044
1039
1031
1023
1017
1013
1010
1006
999
994
988
988
986
984
976
967
962
964
968
968
967
963
960
957
957
958
956
951
949
956
963
964
962
952
952
956
960
963
964
962
962
960
963
966
964
961
959
962
966
968
967
964
961
961
962
965
964
963
962
963
967
967
962
959
958
960
965
970
969
972
973
975
979
983
983
983
983
990
998
1003
1007
1003
1000
1000
1003
1006
1004
999
992
986
980
972
963
954
951
953
955
957
951
946
941
940
943
941
941
936
938
937
938
938
935
930
931
934
938
939
940
939
936
934
939
943
946
949
958
975
1003
1043
1089
1145
1197
1243
1275
1271
1221
1134
1034
948
888
870
875
884
890
885
881
877
868
860
854
856
862
867
866
861
857
856
861
866
873
880
890
902
918
935
947
956
958
964
971
975
975
978
978
984
987
988
988
985
985
989
995
999
999
1001
1000
1000
999
1005
1007
1007
1010
1011
1018
1023
1024
1024
1024
1027
1032
1040
1042
1043
1043
1048
1052
1054
1054
1053
1056
1058
1065
1070
1072
1072
1069
1072
1071
1073
1075
1071
1065
1062
1062
1058
1046
1041
1033
1028
1026
1027
1019
1013
1006
999
997
996
990
982
978
978
980
976
976
967
962
962
963
968
967
962
962
963
967
967
965
961
961
965
968
972
971
971
969
969
970
968
972
971
969
973
973
977
975
973
969
967
973
977
977
974
975
974
974
978
975
967
969
971
972
979
978
973
972
973
975
975
975
982
982
990
995
994
997
998
996
999
1005
1020
1021
1022
1023
1026
1029
1027
1028
1026
1020
1018
1016
1012
1005
995
989
985
982
983
981
978
974
973
975
977
973
968
968
969
968
974
973
970
970
969
968
972
969
969
971
974
976
980
980
980
979
983
992
1010
1032
1061
1098
1147
1203
1257
1295
1316
1304
1252
1171
1084
1002
941
917
920
935
938
930
923
915
911
907
909
908
906
905
906
904
905
902
903
910
920
932
940
946
949
957
969
986
1001
1007
1013
1016
1017
1018
1021
1021
1022
1027
1029
1037
1037
1036
1035
1033
1037
1040
1045
1045
1044
1047
1049
1050
1056
1054
1055
1052
1058
1063
1067
1070
1070
1071
1075
1078
1081
1083
1084
1087
1093
1097
1101
1106
1102
1099
1102
1109
1112
1116
1118
1116
1116
1117
1121
1118
1111
1105
1107
1107
1102
1094
1090
1081
1075
1071
1068
1059
1056
1051
1047
1042
1042
1035
1028
1022
1021
1021
1020
1017
1013
1009
1008
1009
1007
1005
1002
1000
1002
1005
1008
1005
1003
998
997
1000
1006
1007
1003
1001
1003
1010
1010
1006
1002
1001
1006
1011
1012
1011
1008
1004
1003
1004
1009
1009
1006
1006
1010
1013
1013
1010
1004
1002
1002
1002
1005
1005
1006
1006
1002
1007
1005
1004
1004
1003
1007
1014
1019
1023
1021
1021
1022
1027
1029
1034
1033
1034
1043
1050
1053
1053
1052
1047
1049
1053
1053
1048
1044
1036
1028
1024
1017
1009
1003
999
996
1003
1001
1001
992
990
986
989
990
989
988
984
985
989
990
985
983
981
982
986
990
992
990
988
992
991
995
994
1003
1008
1024
1051
1081
1119
1164
1212
1266
1310
1331
1310
1242
1140
1042
959
924
918
928
935
935
930
928
923
913
907
903
905
909
912
908
902
905
906
908
912
917
924
932
938
949
956
966
979
990
1001
1009
1011
1010
1010
1015
1019
1025
1027
1027
1023
1024
1031
1031
1030
1030
1029
1036
1039
1042
1043
1041
1035
1039
1042
1045
1049
1050
1052
1056
1058
1065
1064
1064
1062
1066
1072
1079
1080
1082
1082
1087
1088
1092
1094
1094
1095
1098
1107
1111
1114
1111
1108
1106
1110
1112
1111
1108
1100
1100
1098
1094
1086
1080
1072
1068
1063
1063
1056
1050
1042
1039
1035
1032
1025
1021
1019
1018
1015
1016
1011
1004
1003
1000
999
1000
998
997
994
997
996
997
994
992
990
991
990
994
994
992
992
994
994
995
994
990
991
995
998
1000
1000
1000
996
995
997
1000
1002
1000
1001
1005
1007
1006
1003
1002
997
999
1002
1005
1005
1003
1003
1004
1004
1004
1001
996
992
995
997
1001
1002
998
996
993
997
1001
999
996
997
998
1004
1011
1015
1012
1013
1015
1019
1023
1025
1026
1028
1033
1040
1047
1046
1042
1037
1040
