1008
1012
1012
1020
1026
1030
1029
1027
1025
1029
1033
1037
1039
1038
1038
1038
1041
1041
1045
1046
1046
1051
1055
1060
1059
1060
1060
1061
1067
1070
1071
1077
1080
1083
1088
1092
1092
1088
1089
1095
1105
1110
1112
1111
1109
1108
1112
1116
1115
1110
1106
1101
1101
1100
1092
1085
1075
1069
1070
1070
1064
1057
1051
1043
1038
1035
1033
1028
1023
1020
1019
1022
1015
1007
1002
998
995
999
998
997
995
996
996
1001
996
995
994
998
1003
1006
1004
999
995
993
1000
1004
1005
1001
1000
1002
1004
1003
1004
1001
1000
1004
1008
1012
1009
1004
999
999
999
1002
1003
999
997
994
1001
1002
1001
993
993
997
1001
1005
1006
998
993
993
994
995
996
998
999
1000
1002
1003
1002
1005
1008
1014
1022
1028
1031
1026
1026
1031
1034
1041
1044
1046
1048
1053
1053
1054
1048
1044
1042
1040
1036
1035
1030
1020
1012
1006
1001
1000
998
994
992
993
992
995
993
989
984
982
984
988
988
988
987
986
989
992
989
988
990
990
997
1000
998
999
1001
1005
1018
1034
1055
1082
1117
1157
1212
1260
1301
1311
1287
1220
1131
1042
973
937
936
946
955
954
942
935
923
917
918
921
923
919
916
913
916
917
916
918
924
934
942
956
962
968
972
989
1000
1011
1016
1017
1019
1020
1024
1033
1031
1031
1029
1031
1039
1044
1040
1038
1037
1037
1039
1039
1041
1042
1044
1046
1051
1052
1049
1049
1045
1049
1053
1059
1060
1060
1061
1060
1063
1069
1070
1070
1070
1071
1077
1084
1086
1086
1087
1090
1093
1094
1096
1094
1093
1094
1095
1100
1094
1091
1086
1085
1085
1082
1077
1070
1064
1060
1053
1050
1040
1031
1026
1023
1024
1025
1020
1013
1005
1002
1002
998
995
988
982
980
985
986
984
976
974
974
978
980
978
971
971
970
974
977
977
975
972
973
973
976
974
974
966
972
972
974
974
969
966
970
973
980
977
972
970
971
971
976
975
974
975
977
980
978
974
973
973
974
976
975
978
976
975
971
972
975
975
976
973
971
976
975
977
976
972
975
978
982
983
985
988
994
994
996
995
994
997
999
1005
1014
1018
1019
1020
1021
1022
1021
1022
1017
1015
1014
1015
1011
1007
995
986
980
974
976
973
969
969
969
968
967
964
959
955
957
962
962
962
959
956
954
951
957
955
957
956
958
963
964
965
963
959
962
967
971
975
982
989
1008
1036
1069
1108
1148
1192
1229
1261
1271
1243
1180
1093
1008
943
910
903
910
918
914
911
902
896
887
879
875
876
880
884
880
879
879
878
878
881
882
886
891
903
910
916
927
940
954
968
975
978
977
975
979
984
988
992
988
988
993
994
995
996
992
993
995
1001
1005
1006
1004
1004
1003
1009
1010
1012
1013
1013
1013
1021
1025
1023
1023
1023
1026
1031
1036
1038
1036
1040
1045
1049
1052
1052
1051
1052
1058
1063
1068
1070
1071
1072
1074
1076
1075
1072
1071
1068
1069
1071
1069
1067
1061
1056
1053
1048
1044
1039
1033
1027
1023
1022
1018
1009
1004
992
994
990
990
986
984
980
975
973
971
967
958
958
958
958
962
962
960
958
959
958
960
955
949
950
953
957
961
960
957
954
957
957
957
958
955
954
960
965
967
965
958
956
957
959
961
961
960
957
960
961
964
963
960
954
953
955
958
958
953
951
950
955
957
955
950
946
949
950
958
956
952
947
947
949
948
948
948
948
949
953
959
960
963
964
966
970
975
976
975
979
982
991
999
1005
1002
997
999
999
1003
1001
998
991
990
984
978
970
963
958
961
961
962
961
956
951
948
949
951
948
945
947
946
948
949
948
946
943
943
944
944
941
946
947
951
955
955
952
952
952
957
963
974
985
1007
1032
1070
1121
1170
1215
1247
1256
1231
1172
1085
992
920
885
891
906
913
906
897
889
885
881
878
872
870
871
875
876
878
874
872
869
874
883
893
899
905
914
927
942
957
965
969
972
977
979
985
985
985
990
992
996
996
995
995
996
997
999
1009
1006
1004
1002
1005
1007
1009
1011
1010
1012
1018
1021
1024
1024
1021
1018
1020
1025
1032
1037
1036
1037
1039
1044
1046
1051
1051
1050
1056
1059
1067
1067
1066
1066
1067
1071
1070
1072
1067
1067
1069
1072
1069
1062
1055
1048
1046
1045
1040
1035
1025
1017
1013
1008
1005
999
995
991
986
987
990
985
981
975
971
973
974
970
968
967
968
970
971
968
965
963
965
967
970
973
973
970
970
972
973
972
970
964
966
969
976
980
979
979
976
980
984
984
978
972
976
982
987
982
980
974
975
978
982
981
981
980
982
981
984
982
980
979
980
984
988
987
986
983
979
981
982
983
981
983
984
987
993
992
993
995
998
1006
1012
1013
1015
1015
1019
1024
1031
1036
1035
1036
1036
1037
1042
1039
1037
1032
1032
1031
1029
1020
1012
1005
1002
1000
1001
997
996
988
986
985
984
983
979
978
984
985
989
985
979
977
975
979
983
980
982
982
984
986
987
983
980
981
985
988
992
1000
1003
1014
1032
1060
1093
1127
1171
1218
1260
1295
1308
1286
1226
1142
1053
972
933
920
925
935
939
939
933
926
913
904
904
911
916
918
915
910
908
906
907
913
916
923
929
942
953
965
975
983
998
1004
1007
1009
1009
1012
1018
1023
1026
1026
1023
1021
1025
1026
1032
1033
1029
1032
1033
1038
1041
1042
1038
1036
1037
1042
1046
1046
1047
1050
1056
1061
1062
1061
1061
1060
1067
1075
1079
1077
1081
1080
1084
1087
1090
1090
1093
1096
1099
1104
1108
1106
1104
1103
1104
1112
1109
1109
1106
1103
1100
1098
1092
1087
1077
1071
1070
1069
1067
1060
1053
1044
1037
1034
1032
1028
1024
1018
1014
1018
1017
1014
1008
1002
998
998
1000
999
994
990
991
991
993
989
988
983
988
990
997
995
992
990
989
989
989
989
989
990
992
989
993
993
990
987
990
994
996
996
998
995
994
998
1000
997
993
992
994
997
1002
1001
995
993
990
993
994
996
993
991
992
995
999
995
990
985
984
992
995
997
994
990
993
995
996
997
1002
1007
1009
1018
1023
1025
1026
1025
1026
1032
1039
1038
1041
1047
1046
1049
1049
1041
1035
1031
1024
1023
1017
1010
1002
995
993
993
992
992
987
983
984
988
988
985
982
977
978
980
981
982
980
977
980
983
987
980
981
982
984
987
993
997
996
996
1002
1014
1033
1057
1088
1129
1182
1236
1281
1303
1290
1235
1142
1046
973
934
931
944
948
947
935
929
918
910
906
912
919
920
920
917
913
913
913
916
920
928
932
945
956
964
968
983
993
1003
1009
1015
1013
1015
1020
1026
1027
1026
1023
1021
1021
1026
1035
1036
1035
1035
1034
1039
1042
1042
1044
1045
1049
1050
1054
1052
1050
1054
1053
1058
1064
1066
1065
1065
1074
1076
1076
1079
1079
1081
1087
1093
1101
1103
1098
1100
1101
1106
1110
1107
1103
1103
1103
1105
1107
1103
1097
1090
1088
1085
1086
1085
1075
1070
1066
1062
1061
1054
1045
1038
1036
1035
1035
1029
1019
1013
1009
1011
1013
1008
1000
998
998
999
998
992
988
987
989
989
995
995
990
988
984
988
990
988
986
987
986
989
991
988
983
984
983
984
987
988
988
985
985
989
993
989
985
983
982
985
986
985
984
981
976
981
981
980
980
979
981
984
983
981
976
973
974
976
982
978
980
983
985
988
991
990
994
998
1000
1006
1012
1013
1013
1013
1019
1026
1032
1031
1025
1022
1021
1022
1022
1015
1002
994
991
985
982
982
977
971
970
968
969
965
960
961
961
961
961
963
957
956
956
957
960
958
957
955
953
955
957
957
959
964
967
974
980
989
998
1014
1040
1086
1131
1180
1225
1257
1268
1239
1173
1074
989
925
902
912
928
933
924
913
903
899
892
892
889
892
892
894
894
887
880
877
882
895
904
913
919
923
937
955
964
975
977
979
985
990
996
998
995
991
992
996
1000
1001
1006
1006
1008
1013
1015
1013
1012
1009
1015
1019
1024
1025
1025
1021
1022
1028
1034
1034
1040
1043
1043
1050
1055
1055
1052
1052
1051
1059
1065
1070
1073
1069
1074
1077
1080
1078
1077
1079
1079
1084
1085
1083
1076
1063
1059
1059
1056
1049
1044
1038
1034
1033
1027
1018
1010
1005
1003
1002
1000
994
987
980
978
975
975
972
972
971
971
969
972
970
963
957
961
966
970
968
965
966
966
967
963
962
958
963
962
965
968
964
961
955
956
958
963
964
963
960
960
960
959
958
954
952
956
957
962
964
960
954
952
948
955
953
958
959
959
956
956
955
953
952
954
957
964
965
972
971
973
974
980
982
985
989
992
1001
1005
1007
1006
1004
1009
1008
1011
1006
1001
997
992
988
983
973
968
964
963
965
967
963
960
954
950
956
956
956
955
952
947
953
953
951
947
947
951
954
959
962
960
961
962
966
973
977
978
986
1005
1032
1074
1123
1171
1221
1266
1291
1285
1236
1147
1050
966
919
913
922
928
925
921
918
911
906
898
890
895
901
906
905
899
896
894
901
913
917
921
931
941
960
975
987
996
1004
1008
1012
1016
1017
1017
1020
1025
1031
1031
1027
1031
1029
1034
1038
1041
1043
1041
1040
1042
1045
1048
1050
1048
1049
1048
1055
1061
1062
1061
1063
1064
1074
1079
1081
1082
1082
1088
1089
1094
1096
1098
1098
1102
1108
1114
1116
1113
1108
1110
1110
1111
1106
1101
1095
1092
1089
1083
1076
1067
1060
1059
1057
1055
1048
1040
1033
1028
1026
1025
1023
1018
1013
1012
1011
1007
1000
998
994
992
992
994
995
989
985
984
985
989
991
987
988
988
991
991
988
982
986
985
992
991
991
988
986
985
989
992
994
993
988
988
988
989
984
980
981
982
984
989
987
985
978
975
975
978
978
977
978
977
980
981
980
977
971
972
978
984
987
989
989
990
993
995
994
994
997
1006
1012
1020
1019
1017
1014
1017
1018
1020
1013
1009
1002
996
988
983
974
969
967
968
969
967
967
962
956
955
955
955
952
950
951
953
955
955
950
946
945
944
950
955
955
953
951
952
952
955
956
962
974
993
1018
1055
1101
1151
1198
1241
1264
1251
1192
1103
1006
927
883
877
889
894
891
889
887
886
878
867
865
863
867
872
866
866
863
862
864
869
877
880
890
899
910
922
935
947
956
960
967
972
974
974
972
978
981
984
985
984
981
984
988
992
991
990
993
997
1000
1005
1004
1000
999
1003
1007
1016
1020
1020
1021
1021
1025
1031
1032
1033
1037
1042
1050
1056
1056
1058
1059
1064
1071
1073
1079
1082
1082
1083
1086
1089
1087
1089
1086
1086
1088
1088
1083
1072
1065
1060
1055
1054
1050
1039
1033
1027
1022
1023
1018
1008
1000
998
998
995
996
989
986
984
983
980
974
972
974
971
973
975
975
970
967
965
969
971
969
970
969
970
973
975
976
974
969
972
976
978
980
978
977
980
980
981
978
975
975
977
980
980
978
973
973
974
977
981
977
976
974
974
977
976
975
972
966
971
976
983
981
978
973
975
978
982
980
980
986
991
995
996
995
997
996
1000
1005
1013
1020
1020
1022
1025
1023
1023
1022
1019
1018
1020
1018
1015
1006
991
979
977
974
979
974
973
974
972
971
969
966
963
963
967
968
969
972
968
963
963
962
963
965
963
965
968
973
974
972
971
975
983
994
1008
1029
1060
1102
1157
1213
1265
1297
1293
1244
1157
1055
970
911
891
898
908
914
911
904
900
891
888
887
892
894
888
887
885
887
888
888
890
899
906
915
923
933
943
958
972
982
989
989
986
988
993
999
1003
1009
1008
1008
1008
1009
1007
1008
1012
1016
1017
1018
1022
1023
1024
1024
1025
1027
1031
1032
1034
1035
1038
1044
1046
1049
1051
1052
1055
1060
1067
1070
1071
1069
1075
1078
1087
1090
1093
1093
1093
1100
1107
1106
1103
1103
1103
1104
1105
1101
1101
1095
1091
1088
1083
1074
1062
1054
1050
1050
1048
1040
1031
1026
1021
1018
1014
1009
1005
999
996
997
997
997
989
985
980
977
980
980
976
974
975
978
978
972
970
969
972
974
977
980
978
977
975
975
977
979
976
976
980
982
984
983
979
978
977
981
986
986
986
982
982
981
984
984
983
980
983
985
989
984
983
980
977
977
981
982
979
980
978
982
986
981
979
976
976
977
979
978
976
975
979
981
982
979
977
976
978
977
982
987
983
980
985
990
995
998
999
1001
1004
1007
1016
1019
1020
1018
1021
1028
1034
1033
1032
1030
1028
1029
1026
1021
1014
1004
998
995
994
991
987
984
979
979
979
977
974
972
972
973
975
972
965
958
956
962
966
966
965
964
966
968
969
966
968
969
969
976
983
990
997
1013
1039
1074
1116
1167
1215
1259
1285
1284
1243
1160
1064
977
922
906
914
927
924
920
914
906
903
897
890
892
895
900
901
897
891
888
888
893
906
912
919
925
937
954
969
983
988
992
994
1001
1009
1012
1012
1007
1001
1008
1012
1014
1010
1013
1019
1024
1027
1027
1025
1023
1026
1031
1032
1035
1034
1038
1040
1042
1047
1049
1048
1048
1053
1060
1069
1067
1068
1069
1072
1078
1083
1083
1082
1083
1085
1093
1098
1099
1098
1098
1099
1103
1111
1111
1103
1096
1094
1091
1090
1084
1079
1074
1070
1068
1065
1057
1050
1039
1034
1030
1029
1026
1020
1016
1013
1015
1011
1005
997
992
996
994
997
994
990
986
987
988
987
988
986
985
983
990
988
985
981
979
978
982
985
988
987
987
986
987
988
986
983
985
986
989
992
992
990
984
984
985
991
990
987
984
985
990
992
988
982
976
980
982
986
985
985
981
984
984
984
982
979
978
978
982
985
981
977
973
971
973
975
973
971
969
973
975
973
973
972
970
968
973
973
970
969
970
973
978
983
979
975
972
976
984
987
990
990
991
990
996
1000
998
999
1004
1009
1016
1021
1018
1013
1011
1008
1009
1010
1008
1001
993
986
983
982
978
969
963
960
961
962
962
960
958
957
958
959
953
953
948
948
952
953
955
955
952
953
954
955
952
952
949
954
960
967
970
971
974
990
1014
1050
1086
1135
1185
1236
1281
1312
1306
1256
1172
1080
1004
963
947
946
940
940
948
957
961
955
953
954
957
960
956
957
951
951
953
959
957
957
957
958
963
962
962
958
955
957
960
965
962
961
962
962
966
967
969
965
965
967
969
974
973
971
969
972
973
975
974
976
976
980
983
984
982
978
978
982
984
992
991
993
990
991
995
999
997
996
995
997
1004
1008
1004
1002
1000
999
1001
1004
1006
1002
998
1001
1007
1007
1004
1002
997
996
997
997
994
988
985
985
986
987
978
972
966
964
967
968
967
963
958
954
953
956
953
948
947
947
952
959
955
950
946
946
951
954
955
953
951
951
954
955
956
953
948
948
954
958
956
951
949
951
953
955
953
949
948
948
951
959
954
950
948
951
954
955
955
955
952
954
957
958
954
950
947
949
951
957
951
954
951
952
950
954
952
950
946
950
956
960
957
956
953
953
956
957
960
959
962
966
973
979
977
975
973
972
981
987
991
995
998
1001
1006
1007
1006
1004
1002
1003
1006
1005
1000
987
978
971
968
968
964
962
958
955
956
956
953
946
943
942
944
948
947
945
939
942
944
942
941
938
938
940
945
949
949
949
945
949
952
955
960
967
982
1006
1042
1090
1141
1196
1244
1288
1313
1295
1235
1145
1060
995
958
950
949
948
946
954
962
967
963
962
956
957
960
960
960
961
956
958
960
965
960
956
955
957
961
966
967
969
966
965
966
966
968
965
964
969
972
976
975
973
970
968
972
975
978
974
976
977
980
982
984
982
982
979
982
990
990
988
986
989
994
995
997
997
997
997
1001
1008
1009
1011
1007
1009
1008
1010
1011
1010
1010
1013
1015
1021
1018
1014
1013
1010
1008
1012
1008
1006
1002
1001
1002
1001
995
987
979
981
979
983
981
978
974
974
970
970
965
960
960
960
964
964
963
960
958
959
960
959
955
953
955
957
960
962
960
958
957
957
959
962
963
962
960
960
963
964
961
959
955
959
962
967
965
964
962
963
963
963
960
959
958
961
966
970
969
963
958
961
963
964
963
960
959
961
964
966
960
956
951
952
955
958
959
957
953
957
958
961
958
953
951
951
956
961
959
958
962
964
968
976
976
975
975
981
987
993
995
996
996
1000
1002
1007
1004
1001
1000
999
1000
999
993
987
975
969
967
965
960
960
952
953
951
953
950
947
943
943
945
946
943
943
938
940
938
942
938
939
940
940
944
946
948
946
944
946
950
959
958
966
976
993
1019
1051
1089
1138
1194
1250
1291
1315
1293
1240
1157
1071
1002
957
933
930
938
947
956
960
957
954
947
946
945
948
949
946
944
945
947
948
946
945
943
945
950
956
955
954
952
951
951
956
952
950
954
957
961
964
962
961
959
959
962
962
966
966
965
969
972
973
972
968
968
971
976
981
980
982
980
979
984
986
988
987
987
989
990
998
998
997
993
992
995
998
998
996
996
996
999
1003
1001
998
994
991
996
998
995
993
990
989
991
987
983
975
972
971
971
966
967
961
954
953
952
955
953
949
945
947
950
952
947
945
938
937
939
941
942
942
942
942
945
945
945
941
940
940
944
949
949
946
947
944
948
950
948
945
943
947
951
955
955
951
948
946
947
953
951
950
949
951
951
953
953
948
943
943
945
948
947
947
944
943
948
947
946
944
942
943
947
950
950
946
943
940
943
944
944
943
940
942
946
949
949
940
939
939
943
944
946
947
944
944
948
952
950
949
950
955
963
972
975
972
973
974
976
982
987
987
990
995
998
999
996
998
992
994
993
988
985
978
968
965
959
957
950
944
943
943
942
947
944
940
939
934
932
936
934
933
933
934
937
939
938
937
932
933
934
937
939
938
936
939
942
947
952
958
971
995
1032
1079
1134
1188
1244
1287
1307
1285
1218
1123
1032
965
932
933
935
940
945
946
950
952
951
947
946
948
949
951
949
941
936
940
943
945
948
947
947
950
952
950
947
946
947
951
955
957
958
956
954
953
955
959
959
956
959
961
962
965
963
962
961
962
962
964
967
967
967
970
974
975
974
970
971
973
980
984
986
982
982
982
985
990
990
990
989
992
991
994
989
989
990
988
995
997
998
996
992
991
992
989
983
979
976
975
970
972
