965
963
963
968
971
978
983
986
987
990
994
996
999
996
997
1004
1014
1023
1022
1019
1016
1016
1016
1018
1017
1012
1007
1004
1000
993
985
973
970
966
969
967
965
961
961
963
960
960
957
948
949
952
958
963
960
957
953
950
956
961
960
957
958
961
965
969
972
969
965
971
986
1005
1025
1052
1086
1129
1177
1223
1260
1277
1263
1215
1139
1048
968
916
899
910
915
917
909
902
895
895
888
888
883
885
886
883
883
883
882
882
884
892
903
911
914
921
927
939
954
967
977
982
984
983
988
993
990
991
994
994
1000
1004
1002
1001
1000
1000
1002
1005
1008
1003
1007
1007
1016
1018
1019
1019
1017
1018
1022
1027
1027
1029
1031
1035
1039
1039
1041
1038
1041
1047
1056
1060
1062
1062
1061
1061
1064
1069
1071
1072
1074
1079
1083
1084
1084
1085
1081
1080
1078
1080
1072
1068
1064
1059
1057
1057
1047
1042
1033
1028
1028
1026
1020
1012
1006
1001
998
995
989
980
978
979
979
977
975
969
964
966
966
969
967
964
959
959
960
957
953
952
949
951
956
959
958
957
956
956
957
960
958
955
952
956
961
963
966
963
961
958
960
961
960
957
962
961
962
966
965
963
959
959
961
964
961
964
961
963
965
967
961
961
957
960
963
964
963
960
959
963
966
970
969
964
961
963
971
979
982
981
979
980
985
987
989
992
993
1001
1008
1013
1012
1012
1008
1008
1008
1011
1009
1005
1001
998
988
986
972
967
963
962
961
968
967
961
956
954
953
953
954
953
950
950
954
957
955
952
951
948
953
957
953
957
957
958
964
966
964
962
961
967
978
997
1016
1046
1087
1134
1185
1233
1267
1276
1242
1171
1078
994
930
899
894
903
913
912
906
896
886
882
881
887
886
884
881
882
884
886
886
893
896
906
913
923
931
940
949
964
979
989
989
988
988
989
994
997
1001
1002
1003
1006
1008
1009
1009
1006
1007
1013
1015
1021
1021
1019
1013
1017
1020
1024
1029
1031
1029
1031
1034
1042
1043
1040
1036
1041
1049
1056
1061
1061
1061
1062
1069
1071
1075
1072
1077
1082
1087
1089
1089
1086
1086
1090
1091
1093
1091
1086
1076
1072
1069
1066
1060
1052
1045
1042
1040
1040
1033
1025
1018
1016
1014
1012
1005
998
993
990
993
989
985
981
979
975
976
975
974
971
970
970
974
975
972
966
963
966
968
974
975
972
969
969
972
974
973
971
971
974
977
977
979
972
967
970
969
974
972
973
974
971
977
977
975
968
965
968
969
975
973
973
970
970
973
973
968
968
966
966
974
972
968
965
962
966
969
971
973
971
968
971
976
981
984
983
985
984
991
998
1000
1002
1002
1004
1010
1015
1015
1014
1010
1011
1014
1014
1012
1004
995
987
979
978
971
968
963
957
958
959
957
952
948
947
950
953
953
952
951
947
948
947
945
947
944
945
948
952
953
952
948
948
949
951
953
958
960
972
988
1010
1034
1069
1111
1162
1209
1247
1264
1251
1198
1117
1027
953
904
889
894
903
908
905
895
882
874
867
868
870
874
874
873
873
874
874
869
871
875
883
895
904
913
917
925
937
950
959
960
963
964
967
976
979
977
974
973
976
980
984
986
986
986
988
994
996
994
992
988
993
1002
1006
1004
1004
1003
1004
1009
1013
1013
1015
1014
1018
1021
1028
1026
1029
1031
1032
1038
1041
1046
1045
1047
1052
1055
1059
1061
1056
1057
1057
1057
1062
1062
1059
1054
1050
1043
1038
1031
1024
1022
1018
1015
1013
1005
995
988
984
984
982
978
972
968
966
964
964
960
954
948
948
947
950
947
940
937
936
938
939
940
937
939
939
941
942
940
936
938
936
940
946
945
943
940
936
937
940
940
937
938
939
942
943
943
938
938
934
940
944
941
939
940
939
939
942
940
937
935
937
940
944
942
938
936
937
943
950
955
956
955
959
963
965
965
965
967
973
982
990
988
988
988
984
984
984
979
974
969
963
957
953
947
941
933
930
928
933
932
926
927
921
922
922
916
913
914
918
921
922
918
918
915
917
918
919
925
924
923
925
930
932
941
952
973
1008
1053
1110
1162
1209
1235
1231
1179
1094
994
911
864
856
869
883
881
874
864
859
855
854
852
851
850
850
851
854
849
849
850
855
864
874
878
881
891
907
925
941
950
950
950
948
952
957
959
963
964
965
970
971
972
973
973
978
980
983
983
984
983
984
992
992
997
999
999
1004
1010
1017
1014
1011
1010
1015
1021
1029
1034
1037
1036
1041
1046
1051
1049
1051
1051
1057
1060
1064
1061
1063
1059
1058
1056
1057
1053
1047
1040
1038
1033
1027
1019
1011
1006
1003
1001
999
993
984
974
972
970
970
968
960
958
957
955
954
953
951
949
947
949
954
953
949
947
947
949
950
951
949
948
951
955
958
956
953
948
946
951
958
959
956
954
950
953
955
950
949
952
950
955
959
956
951
948
947
950
952
955
951
951
954
955
955
954
951
950
951
953
957
957
958
956
957
955
958
961
965
968
972
975
982
981
981
982
985
991
1000
1004
1003
1004
1005
1004
1006
1000
989
985
982
977
973
966
962
956
952
953
953
954
953
948
949
951
946
943
942
943
946
950
950
944
943
938
938
939
943
943
945
949
949
957
962
962
967
981
1006
1046
1087
1132
1183
1229
1267
1271
1233
1145
1040
951
900
889
903
911
906
897
889
883
882
874
874
872
875
879
879
875
875
875
883
894
901
907
914
918
933
946
962
969
973
972
974
980
986
983
986
984
986
992
998
1001
1003
999
1000
1004
1004
1005
1008
1009
1013
1014
1020
1019
1018
1016
1021
1027
1032
1032
1033
1033
1037
1038
1043
1045
1047
1053
1054
1064
1067
1068
1066
1068
1071
1078
1081
1079
1080
1079
1079
1079
1078
1078
1074
1066
1067
1067
1063
1056
1050
1040
1033
1029
1030
1024
1012
1004
999
998
1002
995
985
981
978
983
984
980
973
973
968
972
972
966
964
961
963
969
967
966
964
963
963
966
969
970
970
968
968
971
970
967
962
960
963
964
969
968
965
962
961
965
968
969
966
961
965
968
973
972
967
964
962
964
966
969
965
963
965
967
970
966
965
964
963
965
970
968
962
967
965
967
971
970
969
965
966
967
968
969
968
970
975
984
991
995
990
991
991
997
1002
1006
1010
1015
1016
1022
1022
1022
1017
1013
1009
1007
1001
997
988
976
972
966
968
968
967
965
964
961
959
956
953
949
950
952
954
956
951
950
951
954
955
954
953
953
956
962
966
967
967
965
966
975
991
1010
1037
1070
1122
1177
1230
1267
1282
1254
1191
1105
1021
952
910
900
909
915
914
908
900
890
888
887
887
887
885
883
881
879
883
880
881
882
891
904
912
919
925
933
946
962
971
981
983
983
981
983
988
990
990
990
997
1002
1005
1004
1003
1003
1002
1006
1010
1009
1010
1011
1015
1018
1020
1018
1018
1016
1022
1029
1035
1034
1035
1033
1036
1040
1043
1046
1049
1053
1055
1060
1065
1064
1063
1063
1064
1067
1077
1080
1080
1076
1081
1082
1084
1082
1076
1070
1064
1059
1056
1051
1043
1035
1032
1025
1025
1017
1012
1007
1006
1002
1000
993
989
985
980
983
985
985
981
975
967
966
968
971
966
965
966
966
967
964
958
957
955
961
968
970
967
967
966
966
968
966
958
961
964
970
972
971
967
964
963
965
972
972
974
971
971
968
968
965
959
960
960
966
967
967
965
961
959
963
965
965
967
962
959
959
961
958
954
951
953
959
962
961
959
957
958
963
966
970
974
977
980
986
989
989
987
990
998
1009
1013
1014
1012
1010
1008
1010
1006
1002
996
987
988
981
977
971
963
957
949
952
956
953
949
944
946
945
949
945
944
942
943
944
945
944
942
942
943
944
949
947
945
947
951
957
961
965
969
983
1005
1041
1087
1138
1189
1235
1266
1267
1224
1143
1048
969
920
901
910
916
911
904
895
894
884
881
873
871
875
877
878
874
868
864
867
876
886
894
900
905
913
922
936
946
955
961
967
969
976
977
976
973
974
984
989
986
988
988
988
989
993
992
993
991
994
999
1004
1006
1007
1004
1003
1010
1016
1018
1019
1019
1024
1027
1030
1032
1030
1033
1041
1048
1051
1052
1050
1050
1053
1056
1063
1061
1061
1063
1067
1071
1071
1069
1063
1060
1059
1058
1058
1052
1046
1043
1040
1036
1031
1022
1013
1007
1001
1000
1000
995
987
980
975
974
973
970
965
962
963
962
962
956
952
943
942
947
950
948
950
944
948
949
952
950
946
947
949
950
953
952
950
951
950
950
951
951
948
950
948
953
953
952
948
944
945
948
949
951
950
947
949
952
953
950
946
944
945
949
956
953
950
945
944
944
944
943
942
944
943
948
954
949
948
943
945
955
963
965
970
971
973
974
980
978
978
982
989
998
1005
1010
1006
1004
1004
1006
1006
1001
996
988
986
983
976
967
962
958
955
961
960
955
954
955
955
958
959
959
955
954
956
958
963
961
962
958
958
961
965
963
968
966
968
971
976
978
981
993
1016
1050
1097
1149
1197
1239
1269
1280
1251
1177
1084
997
939
916
925
934
932
921
917
913
915
908
904
903
906
910
911
909
903
901
904
911
924
931
933
939
947
957
972
984
990
999
1009
1015
1025
1023
1022
1018
1021
1027
1034
1035
1035
1036
1037
1041
1041
1042
1042
1041
1048
1051
1055
1054
1056
1054
1055
1062
1065
1064
1066
1068
1072
1075
1080
1079
1080
1078
1083
1088
1097
1100
1103
1101
1101
1105
1110
1108
1106
1107
1110
1113
1117
1118
1109
1104
1102
1101
1098
1098
1093
1088
1083
1081
1078
1070
1062
1057
1054
1053
1052
1045
1037
1034
1031
1027
1026
1023
1019
1014
1015
1019
1020
1017
1012
1005
1003
1005
1007
1007
1007
1004
1007
1010
1012
1010
1007
1002
1004
1007
1015
1011
1010
1008
1005
1005
1008
1006
1004
1004
1006
1005
1011
1010
1007
1003
1002
1007
1011
1009
1009
1007
1008
1007
1007
1005
1000
1002
1004
1005
1004
1004
1001
1000
999
999
1000
999
997
996
996
999
1004
1001
1000
996
997
1002
1004
1005
1003
1008
1011
1021
1023
1022
1022
1020
1024
1029
1040
1044
1045
1042
1044
1046
1048
1046
1044
1041
1041
1044
1041
1035
1027
1019
1012
1007
1004
1001
997
997
995
994
997
992
988
981
982
987
989
990
987
983
987
986
988
989
985
984
986
990
993
995
995
991
993
998
1005
1010
1018
1031
1053
1079
1114
1155
1202
1248
1286
1306
1295
1242
1163
1076
1000
953
940
943
946
945
943
937
935
925
917
911
915
920
923
922
918
916
916
918
923
928
933
934
943
950
961
972
984
996
1006
1012
1018
1022
1021
1020
1024
1024
1030
1031
1030
1031
1034
1033
1039
1039
1037
1039
1040
1047
1053
1054
1053
1051
1049
1051
1056
1059
1057
1062
1065
1067
1074
1072
1069
1070
1074
1078
1087
1088
1090
1090
1091
1097
1100
1101
1100
1101
1105
1112
1119
1118
1114
1115
1118
1120
1117
1118
1116
1111
1110
1112
1110
1103
1093
1085
1079
1075
1075
1072
1064
1057
1053
1048
1048
1042
1037
1031
1027
1029
1030
1026
1019
1012
1011
1012
1013
1012
1008
1003
1008
1012
1015
1012
1005
1001
999
1002
1005
1006
1006
1005
1003
1008
1010
1007
1003
1002
1006
1010
1015
1016
1010
1006
1005
1005
1010
1011
1008
1005
1008
1013
1016
1012
1005
1001
1001
1007
1010
1009
1009
1008
1007
1008
1008
1007
1002
1002
1004
1004
1006
1008
1006
1007
1008
1006
1004
1004
1003
1002
1005
1010
1009
1009
1007
1006
1009
1011
1014
1015
1013
1017
1022
1031
1037
1038
1035
1034
1035
1044
1051
1055
1058
1057
1057
1060
1063
1060
1055
1051
1054
1054
1048
1042
1032
1027
1023
1018
1016
1010
1003
1002
1004
1006
1004
1004
1001
997
996
996
997
998
996
994
995
995
996
994
990
988
989
997
1002
1004
1000
997
996
1000
1005
1006
1010
1018
1035
1061
1099
1136
1183
1222
1265
1299
1309
1289
1232
1147
1063
997
957
941
947
952
953
948
945
938
928
922
916
921
926
926
924
920
917
914
912
914
917
924
930
937
946
951
957
967
981
991
1003
1008
1008
1007
1010
1016
1021
1023
1020
1022
1023
1030
1032
1033
1030
1028
1030
1031
1036
1036
1035
1036
1038
1042
1046
1046
1043
1043
1043
1046
1053
1054
1054
1053
1052
1061
1064
1067
1065
1064
1067
1075
1077
1080
1080
1079
1081
1084
1088
1094
1095
1091
1096
1099
1099
1100
1098
1094
1095
1096
1097
1099
1096
1090
1085
1082
1076
1068
1058
1047
1043
1043
1044
1039
1030
1021
1018
1015
1013
1009
1006
999
997
998
1001
995
987
986
985
985
988
984
979
978
979
982
985
985
979
974
976
977
982
984
982
981
983
982
977
970
973
972
976
979
983
984
980
977
976
980
982
980
977
976
978
984
986
984
980
977
975
977
978
980
980
977
973
973
974
970
969
966
971
974
979
979
976
973
976
977
981
982
981
982
989
998
1003
1003
1001
998
1003
1011
1019
1023
1020
1029
1031
1031
1033
1036
1027
1023
1023
1022
1021
1009
996
990
985
984
981
978
979
976
976
978
974
970
967
963
966
967
971
970
967
963
962
964
970
971
972
967
970
972
980
982
983
980
985
986
1001
1019
1044
1082
1133
1188
1240
1276
1292
1275
1219
1137
1051
977
932
921
932
942
943
931
921
915
908
907
908
910
910
909
907
906
906
904
901
906
912
922
930
933
938
943
958
971
989
1002
1006
1007
1010
1015
1021
1022
1019
1017
1021
1027
1030
1032
1025
1026
1028
1031
1038
1041
1040
1040
1046
1050
1054
1049
1053
1051
1055
1058
1064
1068
1068
1064
1068
1069
1076
1081
1081
1084
1091
1097
1104
1103
1101
1098
1100
1107
1115
1117
1113
1116
1116
1116
1119
1119
1115
1114
1110
1114
1113
1111
1102
1092
1086
1080
1074
1070
1064
1061
1056
1057
1054
1044
1041
1034
1031
1029
1031
1028
1022
1021
1019
1021
1018
1018
1011
1006
1012
1014
1017
1011
1006
1003
1007
1010
1008
1007
1006
1004
1007
1010
1015
1015
1009
1005
1004
1010
1012
1013
1013
1011
1012
1014
1017
1016
1015
1012
1011
1015
1018
1017
1014
1015
1015
1016
1019
1018
1013
1011
1011
1014
1018
1016
1008
1006
1005
1008
1012
1010
1008
1006
1008
1010
1012
1011
1010
1005
1010
1013
1017
1015
1014
1012
1014
1019
1024
1028
1028
1026
1030
1034
1039
1044
1042
1040
1044
1050
1059
1063
1065
1067
1065
1064
1064
1059
1050
1045
1042
1037
1034
1030
1023
1016
1013
1011
1011
1006
1003
1000
1004
1005
1007
1004
1003
1000
998
998
998
1001
999
1001
1003
1004
1006
1008
1006
1004
1005
1007
1011
1012
1015
1017
1030
1046
1066
1095
1132
1179
1231
1279
1316
1329
1302
1239
1148
1062
998
961
954
962
966
964
958
949
941
931
928
932
941
941
940
933
928
928
931
937
941
944
953
969
980
989
997
1002
1014
1026
1034
1038
1036
1040
1042
1049
1049
1049
1047
1048
1050
1053
1061
1063
1059
1055
1053
1060
1064
1064
1065
1068
1074
1079
1083
1083
1077
1072
1081
1085
1092
1094
1095
1096
1098
1103
1109
1111
1112
1113
1116
1121
1125
1126
1123
1122
1126
1131
1133
1134
1135
1132
1130
1128
1127
1121
1115
1109
1108
1107
1105
1098
1088
1080
1073
1072
1069
1064
1058
1052
1049
1048
1043
1033
1027
1026
1027
1029
1033
1028
1024
1017
1013
1019
1023
1021
1017
1014
1016
1019
1018
1018
1013
1010
1011
1016
1022
1023
1023
1020
1020
1019
1021
1018
1017
1016
1017
1021
1020
1022
1018
1013
1015
1018
1021
1022
1021
1019
1019
1020
1020
1015
1013
1012
1014
1018
1023
1023
1019
1016
1013
1016
1013
1013
1012
1012
1014
1016
1018
1015
1011
1010
1010
1013
1013
1014
1013
1014
1016
1014
1016
1013
1013
1016
1024
1033
1039
1039
1040
1039
1041
1048
1054
1055
1061
1063
1063
1069
1070
1067
1065
1059
1060
1059
1060
1052
1043
1029
1022
1018
1020
1016
1014
1012
1013
1013
1011
1009
1007
1002
1000
1002
1002
1003
1002
1001
1000
1003
1002
1005
1001
999
1005
1008
1015
1013
1011
1009
1011
1016
1023
1034
1049
1073
1109
1159
1209
1260
1300
1325
1313
1265
1183
1085
1004
952
945
956
966
961
952
944
941
937
934
930
930
929
929
927
930
931
928
928
930
942
952
956
960
964
982
996
1013
1020
1024
1026
1028
1032
1039
1037
1039
1039
1041
1044
1049
1050
1048
1045
1047
1051
1054
1056
1054
1057
1058
1062
1066
1066
1064
1060
1065
1069
1076
1077
1077
1076
1079
1084
1091
1091
1091
1093
1099
1106
1109
1107
1101
1100
1108
1113
1118
1115
1116
1121
1120
1123
1127
1122
1121
1119
1118
1119
1118
1111
1103
1092
1087
1087
1084
1075
1069
1063
1060
1058
1056
1048
1041
1035
1029
1030
1033
1027
1022
1020
1021
1018
1016
1008
1006
1001
1001
1005
1006
1006
1001
999
1000
1004
1010
1007
1003
1001
1002
1003
1004
1004
1004
1003
1007
1006
1005
1001
996
997
998
1001
1005
1006
1004
1002
1000
1003
1004
999
997
996
996
998
1001
997
997
992
992
993
998
996
994
993
993
991
994
993
988
988
990
995
994
994
991
989
987
990
995
995
995
1002
1006
1011
1017
1012
1008
1012
1018
1025
1031
1035
1039
1040
1038
1039
1041
1039
1035
1033
1030
1028
1022
1012
1001
994
994
994
994
990
987
981
981
980
977
979
978
975
975
977
977
975
970
968
972
975
979
981
979
975
975
974
981
980
983
988
1003
1027
1060
1100
1148
1198
1247
1281
1284
1236
1151
1050
965
921
918
930
934
928
918
916
911
903
894
887
892
896
899
900
898
892
889
892
901
904
911
912
922
937
952
963
972
978
986
989
993
999
997
999
1003
1009
1010
1007
1005
1004
1008
1018
1021
1022
1019
1018
1019
1020
1024
1023
1024
1024
1030
1034
1037
1035
1034
1035
1038
1043
1046
1046
1049
1050
1055
1060
1064
1063
1065
1066
1071
1074
1081
1084
1082
1080
1083
1084
1087
1086
1083
1084
1083
1082
1080
1073
1065
1056
1053
1053
1054
1046
1036
1031
1025
1022
1023
1016
1009
1005
1003
1001
1000
996
991
984
980
981
985
985
984
982
981
983
984
982
980
979
980
981
985
986
983
977
977
982
984
982
981
979
979
980
979
981
975
976
979
978
983
985
982
980
975
977
980
981
977
975
977
980
980
977
974
970
974
979
986
987
983
976
976
979
984
983
983
984
989
995
1003
1001
1001
1001
1004
1009
1014
1019
1019
1023
1026
1030
1036
1034
1029
1029
1027
1026
1025
1021
1010
998
990
988
989
987
985
979
974
975
975
974
974
972
968
972
975
972
964
963
963
967
971
974
971
972
974
980
981
977
975
972
977
991
1006
1023
1053
1090
1141
1197
1250
1283
1286
1250
1165
1069
985
927
910
924
934
938
930
922
914
906
900
901
907
912
911
906
904
902
907
909
915
922
930
945
961
973
979
988
998
1007
1010
