1049
1040
1032
1029
1027
1020
1017
1011
1006
1004
1003
1005
999
994
988
986
987
988
987
987
984
985
990
986
983
979
980
980
986
985
988
988
987
987
985
986
986
984
986
989
991
994
990
985
981
984
986
992
991
988
988
989
991
992
987
986
984
987
992
996
996
998
997
1000
1003
1007
1011
1012
1015
1017
1024
1029
1030
1028
1030
1033
1035
1039
1038
1036
1032
1028
1023
1015
1008
997
992
991
990
988
987
980
975
972
971
976
976
974
970
970
970
971
968
966
968
970
973
977
977
974
970
973
975
983
987
988
993
1010
1033
1067
1112
1163
1215
1268
1306
1316
1272
1184
1077
981
921
903
913
923
927
920
913
908
897
889
886
893
900
903
906
897
891
896
906
916
928
933
944
956
972
987
992
996
998
1006
1010
1015
1016
1014
1013
1015
1019
1022
1023
1025
1026
1029
1035
1035
1033
1031
1031
1037
1043
1048
1048
1047
1051
1053
1058
1063
1064
1067
1068
1074
1078
1088
1088
1089
1087
1090
1097
1105
1107
1108
1109
1112
1110
1117
1115
1115
1113
1115
1115
1115
1105
1098
1091
1086
1083
1081
1076
1069
1062
1057
1051
1047
1041
1034
1025
1026
1028
1028
1020
1014
1007
1005
1005
1005
1005
1001
1001
999
1001
1000
997
993
992
990
996
1000
996
993
995
993
995
999
1000
997
997
998
1003
1006
1001
999
998
1000
1003
1004
1005
1005
1000
998
999
1006
1004
1004
1005
1013
1018
1023
1025
1024
1022
1024
1031
1037
1041
1043
1044
1050
1052
1052
1050
1047
1046
1046
1047
1045
1040
1030
1020
1012
1006
1005
1001
998
994
991
992
993
988
986
981
981
982
986
987
981
978
980
980
981
981
978
978
978
982
988
987
984
984
987
990
1004
1014
1030
1059
1098
1145
1200
1253
1299
1315
1295
1239
1154
1054
972
923
914
929
942
939
928
920
915
913
910
908
908
908
912
913
913
912
909
914
921
933
942
950
955
964
977
994
1007
1013
1015
1012
1015
1018
1023
1023
1026
1028
1028
1032
1036
1034
1034
1031
1037
1041
1043
1047
1047
1043
1044
1044
1049
1052
1053
1055
1060
1066
1069
1069
1068
1070
1074
1080
1088
1090
1092
1092
1095
1102
1101
1106
1105
1107
1112
1115
1120
1119
1118
1112
1111
1113
1111
1107
1100
1095
1092
1084
1081
1071
1063
1056
1052
1050
1047
1040
1032
1027
1022
1021
1021
1017
1014
1006
1003
1003
1002
997
993
989
992
994
997
992
990
985
983
988
990
988
988
988
990
988
993
991
988
985
983
991
994
992
990
988
986
986
989
986
989
989
990
994
996
994
991
986
987
995
1001
1004
1006
1008
1008
1011
1015
1015
1017
1022
1028
1034
1040
1037
1031
1030
1030
1032
1033
1027
1021
1012
1002
994
990
983
980
979
977
978
975
973
969
963
963
966
969
968
965
962
961
962
965
962
959
960
963
966
971
967
967
966
969
976
988
1004
1023
1055
1098
1151
1209
1254
1283
1271
1212
1118
1016
936
896
891
904
913
909
901
895
884
876
874
880
882
880
878
874
876
877
883
887
895
903
914
924
935
944
957
966
973
977
980
978
978
982
986
992
994
991
990
991
994
993
995
996
996
1002
1005
1008
1006
1007
1007
1011
1017
1022
1024
1026
1025
1028
1027
1036
1039
1034
1036
1041
1047
1051
1053
1052
1052
1053
1059
1063
1066
1071
1069
1072
1072
1074
1072
1071
1065
1059
1059
1058
1053
1044
1034
1028
1028
1022
1018
1010
1004
999
993
990
988
980
971
967
967
969
964
961
955
950
952
955
953
947
948
948
950
949
947
943
940
939
942
947
946
944
941
942
941
945
942
943
943
942
945
950
949
947
945
943
945
952
951
951
946
949
948
956
952
949
948
950
950
953
952
951
947
950
952
957
959
960
962
965
973
977
978
973
978
979
986
995
994
993
991
991
987
987
979
971
966
958
955
951
946
939
934
931
933
935
936
930
929
929
929
930
926
923
919
921
924
929
927
925
919
921
925
926
930
929
929
935
938
943
949
957
977
1009
1053
1105
1159
1206
1237
1244
1216
1148
1050
960
893
864
871
885
889
880
868
861
853
854
850
851
851
853
851
853
846
842
843
851
868
881
886
893
898
910
925
938
946
951
954
957
963
965
965
965
963
967
973
977
979
980
979
979
980
985
986
987
985
991
996
997
1000
1000
998
1000
1006
1014
1019
1020
1021
1022
1027
1030
1033
1035
1037
1041
1048
1054
1055
1057
1055
1054
1060
1067
1069
1069
1066
1068
1069
1069
1063
1056
1050
1047
1044
1042
1037
1031
1022
1018
1014
1010
1003
999
994
992
989
988
983
976
971
971
971
974
973
969
965
961
965
967
967
965
962
964
971
975
974
970
967
967
971
973
974
971
969
969
973
976
972
970
969
972
974
981
978
975
972
974
976
978
974
976
973
977
978
980
978
976
972
971
976
978
979
977
975
978
986
991
992
990
994
997
1004
1012
1012
1014
1017
1020
1026
1029
1032
1032
1029
1029
1033
1033
1030
1023
1015
1008
1004
998
993
990
986
985
982
982
981
976
973
974
976
976
976
971
968
965
967
967
969
966
965
966
970
972
970
971
967
969
973
982
983
986
988
1001
1016
1038
1074
1116
1164
1216
1266
1300
1308
1276
1207
1116
1029
961
917
903
910
926
929
928
921
910
903
895
893
899
903
903
904
903
904
902
899
894
903
911
926
940
950
957
967
978
988
999
1003
1004
1004
1009
1015
1018
1021
1018
1015
1017
1021
1024
1026
1026
1026
1031
1031
1033
1035
1033
1032
1035
1038
1044
1045
1046
1045
1047
1051
1057
1056
1056
1059
1064
1068
1076
1078
1077
1077
1078
1084
1090
1094
1095
1097
1100
1102
1106
1103
1105
1102
1105
1108
1113
1111
1108
1103
1099
1093
1093
1085
1077
1069
1065
1064
1062
1054
1043
1036
1032
1029
1026
1024
1020
1014
1011
1012
1009
1004
996
992
992
992
993
992
991
986
983
983
984
982
980
981
981
985
986
985
979
976
974
977
980
982
980
981
983
984
988
983
980
979
981
980
986
987
989
985
983
984
986
984
983
982
983
988
987
986
985
980
978
981
984
983
979
979
976
980
981
977
973
973
973
982
989
995
996
996
995
1000
1006
1005
1008
1011
1016
1025
1032
1033
1030
1027
1025
1023
1026
1023
1018
1015
1005
1000
994
983
979
975
972
974
975
973
970
964
961
966
966
961
957
957
956
961
962
956
957
956
956
959
960
963
963
966
965
969
972
973
974
977
988
1006
1035
1069
1111
1158
1205
1253
1291
1295
1260
1184
1087
998
936
901
895
906
915
913
908
904
899
890
884
886
889
891
890
884
883
886
890
893
901
905
913
922
936
947
960
972
982
990
996
996
994
993
996
998
1005
1008
1007
1006
1009
1010
1011
1012
1008
1013
1014
1019
1023
1025
1024
1022
1024
1028
1031
1032
1032
1033
1037
1044
1048
1048
1046
1048
1045
1051
1058
1062
1064
1066
1069
1074
1077
1076
1076
1076
1081
1085
1090
1093
1087
1089
1089
1086
1088
1083
1080
1076
1072
1073
1072
1065
1055
1046
1040
1036
1038
1032
1024
1016
1009
1013
1010
1007
998
991
991
988
992
991
982
977
975
976
973
970
963
965
965
971
972
970
965
960
962
963
967
968
967
962
964
967
970
967
963
960
961
965
967
970
967
964
965
965
966
966
962
959
960
965
968
969
968
963
962
963
964
965
962
961
962
961
964
962
959
954
953
952
959
958
959
955
953
954
956
953
951
949
952
956
962
964
969
968
968
969
975
976
979
982
985
992
1002
1000
1000
998
996
1002
1004
1002
1000
996
990
985
977
966
956
948
948
947
951
950
946
941
938
937
938
936
932
934
935
938
941
939
935
932
932
936
938
938
940
939
940
943
946
947
947
943
952
964
981
1002
1029
1068
1117
1172
1220
1256
1267
1242
1182
1103
1015
935
889
874
888
896
897
886
880
867
863
861
859
859
858
857
854
852
854
849
848
852
857
867
877
885
892
903
913
927
940
946
945
945
947
954
961
965
966
966
971
972
973
973
972
973
977
982
990
992
992
993
993
995
998
1001
1003
1006
1010
1011
1013
1015
1016
1017
1020
1025
1033
1037
1037
1036
1039
1042
1046
1049
1049
1049
1052
1055
1060
1061
1062
1057
1058
1058
1061
1056
1053
1049
1046
1045
1042
1033
1022
1017
1010
1009
1008
1000
995
985
984
981
978
972
968
964
961
962
963
958
953
946
945
944
948
947
947
947
946
943
947
945
943
941
943
946
952
953
950
947
945
945
950
947
946
947
946
951
953
948
947
944
944
949
949
951
946
944
947
948
950
946
945
941
940
945
949
945
947
943
943
944
945
944
943
943
946
946
952
957
957
954
957
963
968
970
970
973
977
984
990
994
994
994
994
998
1003
1000
996
992
983
982
977
969
958
953
950
952
953
948
943
937
936
938
940
939
936
933
930
934
936
934
932
931
932
936
940
941
939
938
935
938
938
944
945
945
955
965
982
1003
1025
1063
1114
1167
1222
1262
1281
1260
1209
1125
1030
947
894
877
887
900
903
897
890
878
871
868
867
870
873
874
870
872
871
870
868
873
881
894
904
911
919
926
941
956
969
973
974
976
979
986
992
994
994
992
993
996
1000
1002
1000
1004
1005
1010
1017
1014
1011
1007
1012
1018
1025
1026
1029
1028
1029
1032
1037
1039
1036
1041
1043
1052
1056
1058
1058
1059
1063
1066
1072
1075
1074
1074
1078
1084
1090
1090
1087
1086
1088
1091
1093
1092
1088
1082
1076
1073
1071
1064
1057
1050
1047
1042
1044
1039
1032
1022
1017
1014
1013
1011
1007
998
998
997
998
995
988
984
978
982
986
985
978
978
972
975
977
976
974
972
975
978
980
980
978
977
974
978
981
982
981
980
980
985
987
987
983
981
977
982
987
985
982
983
986
987
989
990
989
984
985
987
991
988
986
984
985
984
990
988
987
988
991
992
995
992
987
985
984
989
995
1000
1006
1007
1010
1013
1014
1016
1016
1014
1021
1028
1036
1039
1037
1034
1034
1032
1034
1031
1028
1023
1018
1015
1011
1000
994
986
981
980
983
978
976
975
971
974
975
971
969
966
965
971
972
972
972
969
967
966
966
969
966
969
972
977
979
979
978
975
981
991
1002
1020
1045
1076
1121
1169
1218
1259
1288
1294
1265
1199
1112
1020
946
906
903
919
927
924
914
906
898
897
894
894
894
895
893
893
894
891
890
893
899
909
920
925
927
938
950
964
976
988
994
991
995
999
1000
1004
1004
1004
1009
1013
1018
1018
1016
1016
1014
1016
1022
1020
1020
1020
1022
1030
1033
1031
1029
1031
1034
1039
1045
1048
1046
1049
1048
1054
1062
1062
1062
1064
1068
1075
1081
1085
1084
1085
1085
1087
1094
1097
1098
1097
1099
1101
1105
1100
1096
1091
1086
1089
1088
1082
1075
1065
1058
1057
1056
1050
1043
1038
1033
1029
1029
1024
1015
1004
1002
1002
1002
999
994
990
986
987
986
983
979
975
974
975
979
980
975
972
971
972
975
977
975
975
973
978
979
980
974
974
973
976
980
979
979
976
977
977
976
977
974
970
975
978
981
979
978
973
973
972
976
975
975
972
972
976
975
976
972
971
966
969
973
976
974
972
973
977
977
981
983
981
985
992
999
1002
1002
1002
1005
1008
1016
1020
1021
1018
1019
1021
1023
1019
1012
1000
996
992
986
981
975
973
970
966
966
964
959
957
956
956
959
956
954
951
946
947
948
949
948
950
951
953
956
954
952
948
947
949
954
957
960
963
972
989
1016
1049
1093
1148
1205
1252
1276
1261
1201
1111
1017
939
894
883
891
899
902
893
887
880
870
863
862
866
872
874
871
864
861
863
864
871
877
883
889
901
914
920
932
940
946
953
963
965
967
971
975
974
978
978
978
975
978
983
989
991
989
984
988
990
995
992
996
997
997
999
1005
1004
1003
1003
1010
1016
1024
1029
1029
1025
1025
1031
1039
1042
1043
1041
1046
1053
1057
1058
1057
1055
1057
1060
1064
1065
1062
1057
1054
1050
1048
1044
1039
1032
1025
1024
1019
1012
1003
994
989
990
989
984
979
973
968
967
964
955
952
951
948
950
949
947
944
937
934
936
940
941
937
937
936
941
942
941
940
938
938
941
943
941
939
938
938
937
943
944
943
940
941
943
944
944
940
936
937
941
946
945
944
939
937
937
942
942
941
944
949
955
960
961
958
958
962
971
977
982
985
984
982
983
986
984
981
978
975
972
967
957
945
937
935
937
937
934
932
928
924
923
926
926
924
921
924
923
925
925
919
917
915
917
923
926
928
925
922
926
929
931
934
940
958
984
1025
1073
1123
1175
1221
1246
1233
1171
1077
981
905
865
863
877
882
875
867
862
858
855
849
844
845
851
853
851
847
843
844
851
861
870
877
883
892
909
926
939
947
950
953
954
960
965
965
964
966
969
973
976
974
972
977
983
987
990
988
987
985
990
992
997
998
996
1002
1007
1013
1016
1014
1013
1016
1024
1028
1032
1036
1035
1040
1044
1047
1050
1051
1052
1059
1063
1070
1070
1069
1065
1065
1065
1069
1065
1059
1054
1048
1043
1039
1031
1024
1017
1013
1011
1010
1004
995
985
981
978
978
975
970
965
964
963
962
958
955
953
952
955
957
958
956
951
954
953
956
955
955
956
954
958
959
961
958
955
955
958
962
963
962
959
960
959
963
961
960
960
961
968
967
967
964
960
960
963
965
968
970
967
970
974
981
984
984
984
986
993
1002
1006
1008
1009
1010
1010
1016
1017
1019
1016
1014
1014
1010
1001
991
979
973
970
971
971
968
962
959
959
960
960
957
957
955
955
957
957
952
948
948
955
957
960
962
956
960
958
963
967
968
971
978
996
1022
1059
1100
1155
1211
1260
1291
1282
1228
1137
1033
950
902
890
902
913
912
908
903
897
884
880
880
886
891
893
891
883
878
884
894
902
910
915
930
942
958
971
978
984
989
993
999
1003
1005
1003
1006
1010
1011
1014
1010
1012
1016
1021
1023
1027
1025
1021
1023
1029
1034
1037
1041
1041
1043
1048
1051
1050
1053
1054
1059
1067
1069
1075
1077
1075
1077
1079
1090
1094
1095
1095
1099
1102
1104
1104
1101
1099
1100
1100
1098
1096
1086
1079
1070
1065
1066
1059
1052
1043
1040
1036
1032
1026
1020
1011
1011
1010
1010
1004
999
992
988
989
993
993
987
987
985
982
984
985
983
982
983
987
989
988
984
981
980
983
987
989
988
988
984
984
989
987
985
983
984
989
993
995
988
985
986
987
990
991
989
985
988
989
991
988
986
980
987
992
999
1002
1003
1001
1003
1008
1013
1015
1019
1023
1028
1033
1037
1037
1035
1032
1031
1035
1032
1028
1022
1012
1002
995
992
987
984
980
977
979
981
978
971
967
967
967
972
973
970
967
966
966
969
967
964
965
967
972
975
973
974
972
974
975
986
994
1006
1024
1054
1099
1152
1204
1252
1287
1296
1264
1185
1089
996
932
903
903
919
928
926
914
909
902
901
898
897
895
898
900
901
901
899
898
903
912
924
931
935
945
959
975
991
999
1003
1001
1000
1004
1010
1012
1011
1013
1013
1020
1025
1021
1023
1020
1019
1024
1027
1028
1031
1029
1032
1034
1037
1039
1041
1041
1043
1051
1053
1057
1057
1053
1057
1063
1070
1070
1076
1077
1080
1081
1084
1088
1089
1091
1093
1098
1104
1108
1105
1101
1099
1101
1104
1102
1097
1094
1088
1082
1080
1072
1065
1057
1049
1046
1044
1040
1036
1027
1020
1017
1018
1012
1007
1004
1003
999
1003
996
992
986
985
987
990
990
987
981
982
983
984
983
979
980
983
982
989
989
985
980
982
980
986
987
986
986
982
985
984
983
980
981
985
988
990
991
988
987
985
987
992
994
991
990
991
992
993
993
989
987
990
993
997
1001
1001
1003
1006
1009
1011
1015
1019
1022
1024
1031
1035
1040
1040
1039
1035
1036
1040
1039
1031
1025
1016
1006
999
990
981
979
980
976
980
974
969
962
961
963
964
968
965
961
960
962
960
963
958
956
961
966
972
975
972
970
971
974
980
983
991
1005
1021
1050
1088
1131
1179
1219
1262
1292
1286
1237
1148
1048
968
918
906
915
925
921
915
912
909
901
891
885
886
890
893
895
892
886
881
890
896
901
910
913
920
932
951
964
974
978
982
988
992
996
994
997
998
1004
1008
1008
1008
1006
1006
1011
1013
1019
1019
1018
1017
1022
1025
1025
1023
1024
1025
1031
1038
1041
1039
1038
1040
1041
1046
1048
1051
1053
1056
1061
1064
1069
1066
1066
1066
1070
1077
1085
1086
1087
1086
1088
1089
1090
1088
1086
1082
1084
1082
1080
1070
1062
1055
1051
1049
1046
1039
1031
1027
1024
1019
1014
1009
1002
996
995
997
997
990
986
983
984
983
980
976
972
971
973
975
977
974
970
965
967
971
972
972
970
969
973
974
970
970
968
969
970
976
977
976
974
973
974
977
975
974
971
972
975
978
976
976
973
967
969
975
976
978
973
973
973
975
976
973
973
976
983
987
993
993
990
990
991
999
1003
1004
1005
1011
1017
1023
1023
1020
1016
1013
1015
1015
1014
1009
1004
994
989
984
977
972
968
966
967
969
970
968
964
962
957
960
960
959
956
954
955
959
957
955
951
952
957
962
964
967
962
963
967
969
967
974
982
1001
1029
1067
1114
1160
1207
1248
1278
1275
1227
1140
1045
962
912
901
909
919
916
904
904
900
895
888
882
884
885
889
884
880
877
878
881
893
901
906
912
919
929
943
955
970
978
985
990
996
996
997
994
995
1002
1006
1010
1011
1009
1007
1011
1013
1017
1018
1016
1019
1022
1028
1030
1030
1029
1031
1034
1039
1042
1044
1045
1048
1053
1054
1056
1056
1058
1059
1064
1072
1078
1078
1079
1084
1083
1087
1092
1093
1094
1097
1102
1103
1103
1103
1098
1093
1093
1092
1091
1083
1075
1068
1060
1059
1051
1045
1038
1033
1028
1029
1024
1016
1010
1006
1002
1002
997
994
992
989
989
988
988
982
981
977
981
981
983
982
978
977
978
980
982
980
979
978
982
985
986
983
977
978
980
984
983
983
984
985
986
987
987
984
980
979
984
987
989
987
982
980
984
987
987
986
984
983
990
992
994
990
987
993
994
1000
1004
1005
1006
1008
1013
1015
1020
1019
1022
1024
1030
1035
1035
1034
1033
1032
1031
1029
1029
1021
1013
1006
1002
998
994
992
985
979
980
982
979
978
974
973
977
975
974
971
969
969
970
973
973
972
971
971
972
976
976
973
973
974
979
985
990
989
992
1001
1013
1037
1067
1103
1144
1187
1237
1277
1299
1291
1240
1159
1070
997
