1184
1087
990
930
912
921
940
942
931
920
914
911
907
905
906
906
910
913
912
906
899
902
909
922
934
942
946
954
965
980
992
1001
1005
1013
1016
1019
1020
1025
1024
1023
1026
1030
1033
1035
1035
1034
1040
1040
1043
1044
1043
1042
1045
1048
1053
1057
1056
1055
1058
1062
1064
1066
1068
1070
1075
1081
1084
1086
1084
1087
1091
1096
1100
1106
1106
1106
1108
1111
1113
1114
1117
1116
1118
1123
1123
1117
1109
1103
1097
1097
1095
1090
1083
1076
1071
1066
1061
1055
1049
1045
1039
1039
1039
1031
1026
1020
1016
1010
1013
1010
1010
1006
1003
1006
1007
1006
1002
1000
1000
1000
1007
1005
1003
1001
1001
1001
1005
1003
1001
1002
1004
1008
1010
1009
1006
1001
1003
1005
1009
1009
1010
1009
1007
1005
1012
1007
1007
1007
1008
1012
1015
1012
1008
1004
1002
1002
1010
1008
1003
1003
1008
1011
1013
1014
1014
1014
1019
1027
1029
1032
1033
1031
1036
1041
1046
1047
1048
1048
1049
1056
1057
1051
1045
1040
1035
1031
1027
1019
1008
1004
1000
999
997
995
991
986
989
995
995
991
986
982
983
986
990
989
987
988
990
991
992
993
988
991
994
999
1005
1009
1009
1017
1035
1060
1097
1144
1198
1251
1303
1329
1313
1244
1140
1038
965
936
943
958
957
949
937
933
927
924
923
924
927
931
930
927
920
919
923
931
946
956
963
966
980
993
1010
1018
1022
1024
1028
1031
1038
1038
1034
1033
1035
1040
1048
1049
1047
1046
1047
1053
1053
1053
1051
1047
1054
1063
1065
1065
1064
1064
1066
1074
1077
1080
1081
1084
1086
1090
1095
1095
1097
1096
1103
1108
1113
1112
1111
1116
1117
1122
1124
1126
1126
1124
1122
1119
1118
1111
1108
1102
1099
1094
1094
1084
1075
1067
1061
1057
1057
1053
1045
1038
1034
1034
1031
1026
1018
1015
1016
1016
1017
1016
1010
1001
1005
1005
1011
1010
1008
1005
1005
1005
1006
1004
1001
1001
1004
1008
1012
1009
1006
1005
1004
1008
1012
1010
1006
1006
1007
1008
1010
1008
1003
1001
1004
1009
1008
1007
999
1001
999
1000
1001
1000
999
1000
999
1001
998
999
998
997
1002
1007
1014
1017
1017
1020
1021
1022
1027
1032
1034
1038
1045
1047
1046
1047
1042
1037
1038
1038
1036
1031
1024
1014
1005
999
995
992
990
987
986
987
988
985
979
973
972
971
979
976
973
970
970
972
976
972
970
966
969
975
979
978
977
976
979
987
998
1017
1046
1085
1139
1198
1253
1291
1298
1260
1176
1079
990
927
909
917
929
930
924
918
911
903
899
896
900
901
900
894
892
893
894
895
899
907
913
922
933
941
951
963
977
984
988
985
987
990
993
997
999
1001
999
1002
1004
1007
1008
1004
1008
1011
1016
1018
1023
1025
1022
1019
1020
1022
1027
1030
1031
1034
1038
1042
1046
1046
1050
1048
1053
1061
1065
1070
1068
1068
1070
1073
1077
1081
1084
1085
1086
1087
1093
1093
1088
1086
1082
1084
1085
1082
1072
1061
1054
1052
1050
1040
1031
1024
1022
1022
1019
1013
1005
998
992
990
992
990
985
981
975
972
977
972
968
966
967
968
971
969
966
960
960
965
969
971
969
967
970
971
973
970
968
968
970
973
977
976
971
970
971
971
978
977
974
975
974
975
976
972
970
969
972
975
978
978
975
972
972
973
973
972
972
971
973
979
989
987
985
985
985
993
995
1001
1001
1006
1010
1017
1020
1017
1018
1015
1017
1019
1017
1011
1002
989
982
975
975
972
971
967
964
962
960
958
957
952
951
955
956
958
954
949
949
950
950
952
951
953
954
957
959
957
952
952
957
959
964
972
979
998
1023
1062
1110
1158
1208
1251
1278
1274
1225
1139
1039
952
896
883
895
909
907
896
890
887
882
874
868
868
871
879
878
876
871
866
869
874
884
892
901
908
917
930
944
953
963
969
974
976
982
986
985
986
989
992
996
997
994
996
997
1000
1005
1010
1009
1009
1008
1012
1015
1017
1019
1020
1022
1025
1032
1034
1032
1029
1031
1040
1046
1048
1050
1053
1054
1061
1064
1065
1063
1067
1073
1077
1082
1086
1086
1082
1086
1087
1092
1091
1090
1086
1082
1081
1084
1076
1069
1061
1058
1055
1054
1048
1041
1036
1027
1026
1020
1015
1008
1003
1005
1008
1007
1002
998
992
989
990
988
988
988
986
985
983
988
988
984
981
982
985
988
991
990
987
988
988
989
986
988
987
988
991
994
997
993
989
991
992
994
998
998
996
997
1000
1000
1000
998
993
995
998
1003
1003
1000
997
996
998
998
998
999
996
998
1000
1004
1003
1003
1002
1005
1009
1018
1019
1023
1023
1026
1026
1032
1034
1037
1039
1042
1046
1049
1050
1047
1042
1036
1036
1032
1027
1019
1009
1004
1002
1001
998
994
988
988
987
988
992
990
986
985
984
985
981
979
980
980
985
987
986
980
982
981
987
989
992
994
993
999
1002
1013
1025
1039
1063
1101
1151
1207
1255
1298
1321
1318
1277
1194
1094
1003
940
920
927
945
946
938
931
922
916
911
910
913
915
918
920
918
911
910
907
914
924
937
944
951
958
970
984
1000
1010
1012
1015
1019
1023
1031
1031
1029
1027
1028
1030
1035
1039
1040
1040
1039
1044
1044
1046
1044
1044
1043
1050
1056
1061
1062
1060
1059
1062
1066
1071
1073
1074
1078
1084
1087
1088
1089
1089
1092
1097
1105
1109
1109
1109
1110
1115
1119
1119
1120
1120
1121
1125
1129
1129
1121
1117
1113
1111
1112
1103
1096
1089
1086
1085
1079
1076
1063
1057
1050
1050
1051
1048
1042
1034
1029
1027
1027
1024
1017
1014
1015
1019
1019
1013
1008
1001
1003
1005
1010
1009
1006
1002
1001
1005
1007
1004
1002
1000
1001
1004
1011
1011
1006
1001
1002
1009
1010
1011
1008
1006
1007
1011
1013
1013
1008
1006
1006
1008
1014
1014
1012
1009
1008
1009
1011
1011
1009
1004
1006
1006
1010
1010
1008
1000
1001
1005
1008
1007
1002
1002
1006
1009
1015
1016
1015
1014
1018
1025
1033
1035
1033
1033
1037
1043
1052
1052
1050
1050
1052
1054
1058
1054
1047
1038
1032
1028
1025
1021
1012
1007
1003
1004
1004
1002
994
988
987
993
998
996
993
989
988
990
991
990
986
982
984
989
994
991
989
985
984
988
992
995
994
996
1000
1014
1033
1058
1090
1130
1185
1238
1283
1315
1319
1284
1214
1119
1029
955
920
919
936
945
942
935
924
914
903
902
910
913
918
912
909
910
907
908
909
913
922
930
941
949
957
966
979
989
1000
1005
1007
1006
1012
1018
1023
1024
1023
1023
1024
1024
1028
1028
1028
1031
1034
1035
1038
1036
1034
1032
1034
1041
1047
1046
1049
1051
1051
1053
1052
1053
1056
1056
1058
1065
1072
1076
1074
1072
1074
1079
1082
1084
1083
1084
1091
1096
1101
1101
1099
1096
1097
1102
1107
1108
1101
1100
1099
1094
1095
1087
1077
1073
1068
1067
1066
1062
1054
1048
1041
1036
1035
1028
1022
1016
1014
1013
1015
1009
1000
993
992
994
994
991
991
989
985
988
989
985
983
980
981
979
988
988
986
982
979
982
985
987
986
986
985
988
991
988
988
983
982
982
987
991
989
987
988
986
989
988
985
980
982
985
990
987
985
980
982
980
981
978
979
980
980
982
984
982
979
978
980
985
992
995
997
994
996
1002
1005
1009
1012
1013
1018
1024
1028
1024
1023
1021
1017
1019
1018
1015
1007
997
993
985
985
976
971
966
961
963
968
963
960
958
954
955
954
953
952
946
952
954
955
955
951
949
946
949
954
954
953
951
954
956
959
961
963
973
992
1023
1065
1107
1158
1205
1248
1273
1262
1207
1117
1024
948
899
888
895
901
896
891
885
882
878
869
866
867
870
872
867
864
860
858
864
873
883
888
892
901
908
920
934
945
953
962
964
966
969
966
967
971
976
982
981
982
981
982
985
987
989
988
985
992
994
999
998
998
998
1000
1004
1008
1011
1016
1016
1021
1023
1023
1023
1022
1025
1027
1034
1044
1044
1043
1038
1043
1049
1054
1056
1055
1054
1058
1063
1068
1071
1065
1063
1061
1061
1058
1053
1049
1041
1040
1036
1035
1029
1018
1011
1006
1006
1004
1000
991
983
978
975
975
969
963
961
963
966
964
961
955
950
950
950
954
953
948
947
949
948
949
950
946
946
947
950
954
955
953
954
952
953
953
954
952
947
951
958
960
960
956
955
954
956
959
958
953
954
957
961
964
963
957
955
955
959
960
960
959
956
959
960
961
960
957
957
959
966
972
973
973
972
973
975
980
985
986
988
993
999
1005
1008
1005
999
1004
1007
1009
1008
999
997
996
992
985
976
966
959
960
962
963
962
957
956
955
954
951
950
951
948
949
952
957
956
952
952
949
954
957
956
956
957
959
966
968
964
962
961
968
977
991
1007
1030
1063
1107
1162
1215
1262
1289
1294
1260
1190
1098
1005
933
895
893
911
917
913
904
899
896
892
888
887
887
884
884
889
889
886
883
883
890
895
905
909
912
917
930
946
962
976
984
985
988
992
997
1000
999
1003
1005
1011
1016
1015
1011
1007
1011
1017
1023
1022
1025
1026
1031
1029
1036
1035
1033
1035
1039
1044
1050
1051
1052
1051
1052
1056
1061
1063
1065
1065
1069
1075
1081
1083
1080
1081
1084
1089
1093
1096
1101
1096
1099
1100
1104
1102
1099
1096
1095
1096
1096
1092
1086
1080
1072
1069
1064
1058
1050
1045
1044
1042
1038
1032
1027
1019
1016
1015
1016
1012
1006
1003
1003
1002
1000
994
989
990
990
993
996
995
992
987
987
987
990
988
989
988
990
993
996
993
989
988
987
990
992
995
993
990
992
995
999
998
995
993
995
999
1001
1001
1001
999
999
1001
1001
1000
997
996
999
1001
1003
1001
999
996
997
999
1003
1003
1003
1001
1005
1006
1009
1007
1006
1009
1014
1020
1027
1026
1028
1029
1032
1036
1039
1042
1042
1041
1043
1050
1054
1049
1045
1043
1043
1036
1033
1028
1017
1008
1006
1002
1001
995
990
985
982
981
986
988
987
985
985
985
983
981
977
973
976
981
983
985
982
978
980
982
983
983
981
984
987
992
999
1003
1008
1019
1040
1068
1110
1153
1198
1244
1287
1312
1310
1258
1175
1082
1000
945
925
931
940
941
935
928
923
917
904
898
901
907
918
917
913
909
905
904
908
912
917
928
938
949
959
967
977
985
994
1003
1009
1013
1014
1013
1015
1018
1021
1019
1018
1015
1021
1025
1029
1031
1030
1029
1028
1031
1032
1036
1033
1033
1039
1043
1049
1046
1047
1044
1048
1054
1059
1060
1063
1065
1068
1072
1076
1076
1074
1076
1081
1087
1093
1094
1094
1095
1096
1101
1102
1103
1102
1105
1105
1107
1109
1102
1097
1089
1085
1082
1082
1075
1068
1062
1055
1051
1046
1040
1035
1027
1023
1021
1023
1017
1012
1005
1000
999
1000
998
996
990
990
991
991
988
982
979
982
985
988
984
986
979
976
980
982
981
980
982
985
989
991
989
984
981
983
986
992
993
995
990
987
991
993
991
990
987
989
994
994
994
988
985
985
989
992
992
989
986
987
988
991
990
985
983
987
992
995
995
993
992
997
1001
1006
1008
1005
1008
1012
1019
1023
1023
1025
1025
1027
1032
1033
1032
1030
1022
1016
1013
1008
998
985
982
981
979
978
975
968
967
965
970
970
970
963
960
962
961
965
963
961
962
960
964
969
965
962
962
965
971
973
975
975
980
992
1007
1030
1064
1105
1155
1208
1256
1285
1287
1252
1181
1087
999
936
908
905
918
921
919
915
904
893
884
881
882
890
893
890
887
882
880
880
883
890
895
906
918
926
938
946
955
963
971
976
980
982
982
985
989
991
990
992
992
991
995
999
1000
1000
999
1000
1002
1002
1001
1004
1003
1008
1012
1017
1015
1017
1015
1017
1020
1023
1027
1031
1033
1036
1043
1043
1045
1042
1043
1046
1054
1059
1063
1062
1059
1065
1065
1070
1071
1065
1067
1070
1070
1069
1067
1060
1051
1050
1045
1042
1037
1032
1025
1022
1016
1014
1006
1002
998
993
990
990
984
978
974
971
967
964
963
960
956
958
958
958
958
952
946
947
949
952
954
954
952
954
954
952
950
947
945
947
952
956
955
953
945
945
948
951
952
951
952
953
953
957
954
948
946
951
953
956
957
951
948
946
949
950
951
946
947
946
950
955
952
949
944
947
955
963
966
964
966
967
973
975
978
982
983
988
996
1002
997
991
988
987
983
987
985
979
970
959
955
952
948
940
936
936
938
941
940
932
927
928
930
932
930
927
925
928
928
929
926
924
923
924
930
934
937
932
934
937
941
952
966
988
1021
1069
1126
1182
1229
1254
1244
1195
1117
1023
944
886
867
875
890
893
883
875
867
862
860
860
860
860
856
855
854
857
854
855
861
871
879
889
895
900
913
926
944
956
959
961
960
961
966
971
971
972
971
975
975
983
982
980
978
982
986
992
990
991
989
994
996
996
998
996
1001
1005
1009
1015
1018
1018
1016
1018
1024
1030
1033
1038
1037
1043
1045
1051
1051
1050
1052
1058
1063
1068
1067
1062
1061
1057
1058
1063
1057
1051
1045
1038
1039
1034
1024
1019
1011
1005
1004
1004
1001
993
988
985
982
978
975
972
967
968
970
970
963
958
953
953
954
963
960
958
959
956
961
963
960
958
958
959
962
966
965
962
959
954
961
965
964
963
962
965
967
968
966
963
961
965
968
969
966
967
963
965
968
969
966
962
961
965
968
973
968
966
958
963
968
975
979
979
983
985
989
990
989
991
991
999
1010
1018
1017
1016
1009
1014
1015
1019
1013
1010
1008
1004
998
989
981
974
971
969
972
972
969
966
961
963
962
963
961
955
955
958
960
962
962
961
957
959
959
962
959
962
961
964
968
970
965
970
976
989
1013
1041
1081
1123
1177
1230
1277
1300
1280
1221
1133
1040
962
917
902
911
919
917
914
911
905
897
891
890
895
898
894
890
889
888
891
895
903
909
917
925
933
948
962
975
985
995
998
1002
1003
1002
1001
1004
1010
1017
1016
1015
1012
1016
1016
1019
1023
1020
1022
1023
1029
1031
1031
1029
1026
1029
1032
1040
1044
1043
1044
1046
1049
1055
1056
1058
1060
1067
1072
1077
1080
1079
1075
1078
1086
1090
1091
1093
1094
1094
1098
1099
1096
1091
1089
1085
1081
1083
1079
1071
1063
1057
1056
1052
1047
1039
1032
1028
1024
1024
1016
1008
1000
1001
1002
1006
995
992
987
986
982
989
982
983
980
982
988
988
984
979
978
981
983
986
985
984
983
983
986
987
989
989
986
990
988
991
988
988
986
986
986
991
991
990
986
986
987
987
985
985
982
984
986
987
985
981
979
977
980
986
986
986
984
987
995
1003
1003
1003
1006
1012
1016
1022
1025
1025
1022
1025
1026
1033
1031
1028
1021
1014
1011
1004
996
986
979
978
982
982
977
973
971
969
970
971
967
965
964
966
969
968
964
962
962
964
968
970
972
968
966
967
970
974
976
981
989
1003
1024
1056
1096
1142
1191
1244
1286
1298
1266
1185
1083
985
924
902
909
922
925
917
912
907
898
887
884
885
891
895
894
892
883
883
889
900
911
917
924
932
951
965
976
979
984
988
991
997
1001
1002
1000
1003
1005
1008
1009
1006
1007
1009
1016
1020
1021
1020
1019
1018
1021
1026
1027
1030
1029
1035
1039
1042
1041
1039
1041
1044
1050
1056
1058
1059
1058
1059
1063
1067
1069
1068
1071
1073
1081
1085
1083
1081
1078
1083
1084
1088
1087
1082
1080
1074
1075
1073
1065
1055
1048
1045
1043
1040
1034
1027
1020
1015
1012
1008
1003
998
996
992
993
989
984
978
976
976
976
981
980
973
966
964
969
969
967
968
964
968
971
975
972
965
961
966
967
973
971
970
969
971
969
971
968
969
968
968
970
971
968
969
966
965
963
967
967
967
964
968
969
967
965
961
959
962
962
967
966
964
964
960
961
963
965
965
969
974
981
982
981
979
982
986
993
1003
1006
1010
1009
1008
1008
1012
1011
1007
1003
1001
998
992
982
973
962
956
958
961
960
958
954
948
953
954
951
947
944
945
944
948
946
942
940
938
944
947
949
950
944
946
948
954
951
954
958
972
993
1020
1052
1094
1143
1192
1241
1270
1261
1211
1125
1029
951
902
888
895
898
899
895
891
884
874
868
865
869
875
871
868
862
863
865
871
874
876
885
893
905
919
924
936
944
957
968
971
971
967
968
971
978
983
982
981
980
984
986
988
988
989
994
993
997
999
996
997
996
1000
1008
1013
1013
1015
1013
1015
1020
1021
1025
1025
1026
1029
1035
1044
1041
1044
1042
1043
1048
1053
1058
1059
1060
1059
1064
1067
1064
1060
1060
1059
1057
1055
1052
1042
1036
1030
1025
1026
1018
1013
1005
1004
998
995
991
984
977
976
975
976
971
968
961
958
951
957
955
952
950
953
957
957
953
950
947
948
949
951
952
953
952
951
951
954
953
948
945
948
951
953
954
954
951
949
951
956
956
954
953
952
956
958
956
952
950
949
948
955
955
954
952
954
951
954
956
956
957
961
968
972
975
974
972
975
979
988
991
992
996
1000
1004
1003
1002
1000
992
991
990
988
983
971
965
957
955
955
953
949
947
948
949
949
946
944
939
937
940
942
941
942
937
937
939
945
943
941
939
941
943
950
953
950
948
950
951
961
973
984
1008
1048
1097
1147
1195
1239
1266
1268
1235
1164
1073
988
922
890
892
905
909
903
897
894
891
888
883
880
879
885
885
884
883
876
874
878
885
893
900
906
911
920
929
943
956
968
975
980
987
991
991
990
991
993
998
1001
1005
1006
1005
1008
1010
1012
1011
1008
1011
1014
1018
1020
1023
1022
1023
1024
1026
1031
1031
1031
1031
1039
1045
1050
1048
1048
1047
1051
1057
1063
1066
1067
1068
1072
1078
1081
1080
1078
1081
1087
1090
1095
1096
1099
1095
1093
1091
1096
1088
1084
1079
1075
1073
1072
1065
1056
1049
1042
1040
1039
1033
1029
1023
1022
1021
1019
1014
1006
1000
997
998
1000
996
992
988
985
988
988
985
984
978
980
981
985
984
980
977
976
979
980
983
980
981
982
984
985
984
980
977
981
981
982
986
985
983
984
985
989
985
984
983
985
989
992
992
988
984
983
983
984
986
986
983
984
987
989
987
983
978
979
981
984
989
994
996
999
1003
1007
1006
1004
1004
1009
1016
1025
1029
1031
1031
1031
1032
1035
1032
1027
1024
1022
1022
1022
1013
1005
995
990
985
984
982
975
974
976
980
978
972
972
968
969
970
970
967
966
963
965
969
969
967
963
960
966
971
975
976
973
971
973
979
982
985
991
1002
1025
1056
1098
1144
1186
1232
1272
1300
1301
1260
1185
1097
1013
951
921
912
919
921
921
916
916
910
902
893
891
896
898
900
896
892
889
890
898
899
906
912
917
926
936
946
954
963
976
991
998
1000
1000
1000
997
1000
1008
1008
1011
1012
1014
1017
