1042
1045
1046
1041
1036
1030
1027
1022
1011
1002
995
990
993
996
989
987
982
978
980
979
978
975
972
971
978
979
976
972
969
965
972
974
978
978
977
977
979
981
981
981
981
986
996
1010
1025
1047
1083
1127
1180
1229
1275
1302
1306
1273
1198
1107
1016
942
908
905
921
933
929
921
913
906
900
897
891
893
894
893
897
897
896
891
890
895
905
916
924
929
937
952
968
984
992
994
994
993
1000
998
1004
1008
1006
1008
1012
1014
1014
1011
1012
1018
1020
1024
1026
1024
1024
1023
1028
1029
1031
1031
1035
1039
1044
1044
1047
1045
1043
1046
1052
1057
1059
1061
1062
1064
1069
1072
1075
1074
1075
1081
1086
1091
1091
1090
1088
1090
1093
1100
1098
1095
1092
1090
1092
1088
1080
1071
1065
1060
1057
1059
1052
1049
1040
1035
1032
1028
1023
1016
1011
1009
1009
1008
1002
997
994
992
989
992
991
986
986
988
990
990
984
980
978
978
982
984
985
981
981
984
986
986
983
980
980
982
982
986
988
986
983
984
983
984
984
982
981
983
986
988
983
981
974
976
979
981
984
979
978
979
978
979
977
973
972
978
978
984
984
981
981
981
980
987
991
992
995
1001
1003
1011
1013
1009
1008
1014
1020
1027
1029
1027
1028
1030
1031
1032
1024
1020
1017
1013
1012
1009
999
989
985
980
978
978
975
972
966
968
973
973
968
963
961
958
961
962
963
960
954
960
962
964
962
959
959
960
966
970
973
972
975
978
989
1005
1028
1056
1096
1146
1199
1246
1288
1306
1296
1242
1158
1063
976
920
903
914
925
927
918
908
899
895
894
895
897
896
892
892
889
890
888
889
893
903
916
922
930
937
945
957
974
985
999
999
1001
1002
1008
1008
1010
1009
1007
1012
1018
1023
1024
1023
1022
1023
1022
1026
1029
1028
1028
1033
1034
1041
1042
1038
1038
1042
1044
1051
1054
1057
1057
1063
1062
1069
1068
1072
1071
1075
1081
1090
1094
1095
1097
1098
1101
1105
1107
1110
1112
1115
1117
1120
1119
1115
1112
1106
1107
1104
1099
1092
1090
1085
1081
1078
1070
1062
1056
1053
1053
1051
1044
1039
1032
1027
1025
1024
1019
1012
1010
1010
1013
1013
1008
1006
1003
1001
1004
1005
1002
1004
1001
1005
1005
1007
1001
999
998
1000
1003
1007
1008
1006
1005
1003
1005
1007
1008
1007
1005
1008
1011
1017
1014
1011
1009
1009
1011
1016
1014
1011
1010
1011
1013
1017
1009
1008
1007
1010
1013
1016
1012
1010
1008
1010
1009
1015
1011
1009
1009
1010
1014
1016
1011
1011
1011
1013
1016
1022
1026
1028
1026
1027
1032
1037
1039
1039
1040
1047
1056
1061
1060
1057
1053
1052
1056
1051
1048
1044
1036
1033
1027
1024
1016
1010
998
997
1001
1004
1004
1000
998
998
1000
999
995
990
988
989
996
999
1000
995
993
994
997
999
999
997
996
998
1003
1007
1009
1008
1013
1026
1052
1084
1121
1166
1213
1265
1313
1341
1332
1280
1193
1096
1014
957
935
935
947
946
945
939
936
925
919
919
921
929
926
922
917
915
914
921
926
935
939
947
959
971
978
985
996
1013
1022
1031
1032
1028
1031
1030
1032
1036
1039
1040
1041
1041
1045
1051
1049
1048
1048
1050
1056
1060
1062
1062
1065
1062
1065
1071
1071
1069
1069
1074
1080
1085
1087
1090
1087
1090
1095
1100
1103
1103
1106
1110
1116
1121
1123
1120
1118
1121
1129
1133
1137
1135
1135
1134
1135
1134
1130
1126
1122
1118
1118
1115
1110
1102
1093
1087
1083
1081
1071
1067
1061
1057
1055
1052
1046
1040
1034
1031
1030
1032
1027
1024
1019
1017
1017
1018
1013
1011
1010
1012
1014
1016
1015
1011
1008
1011
1015
1018
1018
1019
1014
1016
1019
1018
1016
1015
1015
1017
1019
1024
1024
1022
1019
1020
1020
1023
1023
1023
1020
1022
1024
1027
1025
1021
1021
1019
1020
1023
1024
1022
1020
1020
1023
1022
1021
1019
1015
1017
1020
1022
1019
1017
1016
1015
1015
1018
1017
1015
1016
1020
1023
1031
1032
1031
1033
1033
1041
1046
1047
1050
1051
1056
1063
1066
1067
1064
1060
1060
1065
1065
1061
1052
1040
1032
1028
1027
1023
1019
1014
1015
1014
1010
1008
1002
999
999
1003
1005
1004
1001
998
997
998
1001
1000
997
997
997
1002
1004
1005
1003
1001
1001
1006
1013
1016
1023
1035
1055
1089
1128
1180
1230
1281
1324
1342
1313
1234
1129
1028
961
935
943
955
960
956
947
938
935
928
918
919
926
931
930
924
919
916
927
937
951
957
963
975
988
1003
1018
1021
1022
1024
1028
1035
1039
1039
1038
1038
1039
1043
1046
1044
1046
1047
1051
1055
1060
1058
1056
1055
1056
1063
1069
1070
1067
1068
1071
1075
1078
1077
1075
1080
1087
1092
1098
1097
1097
1096
1100
1105
1111
1114
1114
1115
1118
1119
1124
1124
1126
1123
1124
1129
1130
1127
1120
1110
1107
1105
1103
1097
1093
1085
1079
1077
1072
1066
1054
1047
1046
1048
1045
1042
1034
1028
1025
1021
1024
1022
1019
1017
1013
1015
1013
1013
1009
1005
1005
1008
1012
1013
1012
1009
1008
1011
1010
1006
1004
1003
1008
1009
1014
1011
1008
1005
1005
1009
1011
1013
1008
1006
1008
1008
1009
1006
1005
1004
1004
1008
1013
1011
1005
999
998
1000
1003
1004
1001
1001
1002
1003
1004
1001
996
993
996
1001
1004
1004
1001
999
999
1002
1004
1006
1008
1012
1018
1023
1026
1024
1023
1023
1027
1033
1042
1045
1049
1047
1042
1045
1048
1044
1037
1036
1034
1030
1023
1013
1003
994
991
993
995
990
991
983
984
985
984
980
979
972
974
978
981
976
977
973
974
975
975
978
977
977
981
984
985
986
983
989
999
1020
1047
1082
1128
1178
1229
1272
1292
1273
1208
1110
1015
946
920
924
934
932
926
920
919
910
902
896
895
899
901
897
892
885
884
890
896
905
907
909
917
933
948
959
970
980
988
995
998
994
997
1000
1001
1008
1014
1017
1014
1015
1013
1017
1017
1020
1020
1020
1025
1029
1030
1031
1028
1030
1032
1037
1042
1044
1044
1044
1049
1051
1054
1053
1057
1056
1063
1070
1077
1079
1078
1075
1080
1083
1090
1093
1094
1096
1096
1102
1104
1101
1096
1091
1092
1091
1093
1087
1079
1070
1064
1062
1056
1052
1044
1038
1033
1032
1030
1024
1016
1008
1005
1005
1005
1003
995
992
991
990
992
989
986
985
986
986
988
985
981
976
975
982
988
988
984
982
981
985
987
988
983
983
987
992
993
990
987
984
983
986
990
991
989
985
987
987
988
987
983
983
982
985
988
984
981
980
980
980
985
984
984
983
981
984
985
984
987
993
998
1003
1010
1008
1006
1004
1008
1016
1025
1031
1032
1030
1032
1032
1033
1031
1025
1020
1017
1013
1004
996
986
980
980
982
983
980
976
972
971
971
971
966
966
969
970
971
972
971
968
964
967
969
975
976
977
979
978
981
985
992
1005
1027
1067
1120
1182
1239
1284
1308
1299
1246
1158
1051
962
916
913
927
937
929
917
911
906
901
899
904
902
900
898
896
897
896
897
905
919
929
941
949
960
968
990
1001
1012
1010
1008
1005
1007
1015
1023
1022
1026
1027
1027
1032
1031
1028
1031
1035
1038
1044
1048
1049
1046
1046
1048
1051
1056
1057
1061
1065
1067
1074
1077
1077
1076
1079
1084
1090
1097
1095
1096
1096
1098
1106
1113
1113
1115
1113
1114
1120
1120
1119
1114
1111
1109
1108
1107
1104
1095
1087
1080
1078
1073
1071
1063
1055
1053
1051
1047
1041
1034
1027
1024
1024
1027
1025
1022
1017
1015
1015
1017
1013
1011
1009
1007
1011
1013
1011
1006
1002
1003
1009
1012
1013
1011
1006
1008
1011
1010
1011
1007
1005
1010
1012
1016
1014
1012
1005
1006
1011
1014
1015
1010
1008
1011
1015
1015
1012
1005
1006
1004
1009
1015
1015
1009
1007
1007
1007
1006
1006
1006
1004
1005
1006
1014
1010
1004
1001
1002
1008
1013
1018
1018
1019
1024
1029
1032
1034
1031
1034
1040
1049
1054
1055
1056
1054
1053
1055
1057
1053
1046
1040
1034
1030
1024
1011
1005
1005
1002
1001
1004
1002
997
993
992
992
993
989
989
987
989
991
993
990
984
983
984
990
994
996
993
993
994
998
1002
1010
1023
1047
1081
1129
1185
1239
1286
1316
1316
1272
1190
1090
998
940
926
933
946
942
934
926
917
918
912
911
912
910
909
910
911
910
908
913
924
937
947
957
965
978
993
1006
1015
1015
1015
1016
1017
1021
1027
1029
1030
1031
1029
1034
1037
1036
1035
1036
1041
1046
1050
1050
1049
1043
1048
1049
1055
1055
1057
1061
1065
1065
1071
1070
1071
1075
1077
1082
1091
1093
1092
1090
1094
1098
1103
1106
1110
1108
1111
1114
1115
1116
1108
1109
1111
1109
1108
1101
1099
1090
1085
1078
1076
1069
1064
1058
1051
1051
1047
1041
1032
1024
1020
1023
1020
1018
1012
1012
1011
1007
1005
1003
998
996
997
1001
1001
1001
994
992
990
990
994
993
992
991
993
996
997
993
989
990
988
993
995
998
998
994
994
992
996
994
991
991
992
997
998
998
992
991
989
992
990
993
994
992
993
991
996
993
990
987
987
993
994
991
988
989
991
989
993
992
993
995
1002
1009
1015
1015
1012
1010
1013
1018
1025
1029
1031
1035
1039
1045
1044
1041
1038
1034
1035
1032
1027
1023
1014
1002
996
992
990
985
981
979
980
981
979
981
976
972
974
971
971
969
969
966
968
969
970
967
965
964
967
972
976
975
974
975
976
979
981
988
997
1013
1044
1079
1125
1168
1214
1255
1287
1292
1259
1186
1093
1005
941
913
914
923
926
921
915
910
905
896
891
888
892
896
893
888
884
883
883
892
900
907
913
913
923
937
951
960
972
976
982
986
985
985
981
981
986
992
999
998
997
998
997
1002
1004
1003
1002
1000
1004
1013
1016
1016
1012
1011
1014
1016
1022
1022
1027
1028
1031
1034
1039
1040
1039
1042
1046
1053
1059
1059
1060
1061
1063
1064
1069
1071
1074
1073
1077
1078
1081
1078
1074
1073
1071
1069
1070
1066
1056
1053
1047
1041
1034
1027
1020
1016
1011
1009
1005
997
990
982
977
977
974
970
967
963
963
960
961
956
953
952
954
955
958
957
951
951
950
951
954
952
952
952
956
958
960
958
954
951
955
955
961
960
958
957
956
959
961
960
957
956
956
959
961
960
956
955
956
955
954
955
956
952
955
956
958
958
953
949
948
952
957
957
958
961
961
965
967
968
973
971
979
983
990
993
993
992
995
995
999
998
996
995
991
991
990
983
973
961
955
952
953
952
947
945
944
944
944
943
939
939
940
943
942
943
936
934
934
936
938
939
939
941
942
945
946
944
945
944
949
952
959
965
973
987
1008
1045
1086
1133
1181
1228
1260
1265
1234
1159
1065
976
921
892
890
900
906
902
893
889
885
874
866
866
869
874
879
877
870
865
864
867
874
879
886
891
901
911
924
934
943
953
960
966
969
971
973
973
976
984
985
987
981
982
986
988
993
994
995
993
995
998
999
1000
999
1000
1006
1008
1014
1017
1016
1016
1016
1019
1022
1024
1027
1024
1027
1036
1043
1047
1043
1044
1047
1053
1058
1063
1062
1063
1068
1072
1076
1074
1072
1070
1072
1076
1078
1077
1072
1069
1066
1061
1057
1050
1043
1038
1035
1031
1033
1025
1021
1012
1005
1003
999
997
992
990
989
986
986
984
977
971
970
968
972
971
969
969
968
965
969
967
964
963
968
970
972
973
968
970
970
971
971
970
971
968
971
975
977
976
970
970
971
973
978
977
976
973
973
980
981
979
975
974
974
975
980
980
978
978
976
977
978
978
974
974
978
980
988
988
989
991
994
999
1002
1001
1001
1006
1009
1015
1024
1027
1026
1025
1027
1032
1032
1032
1029
1028
1027
1024
1019
1009
1000
990
987
989
988
989
983
979
975
979
977
975
972
972
970
976
978
975
969
967
964
974
977
974
974
975
976
979
981
976
974
979
983
995
1003
1014
1024
1044
1076
1116
1163
1212
1258
1289
1308
1297
1242
1148
1049
968
922
915
931
944
939
929
925
917
914
907
902
906
909
913
915
910
904
900
903
915
926
932
935
944
957
972
985
994
996
1001
1005
1013
1016
1020
1021
1022
1022
1026
1028
1029
1024
1025
1031
1034
1039
1041
1039
1039
1040
1042
1047
1046
1047
1046
1049
1055
1059
1059
1055
1056
1061
1066
1070
1073
1074
1077
1080
1084
1088
1089
1089
1089
1089
1096
1098
1102
1107
1107
1106
1108
1115
1111
1110
1110
1109
1110
1112
1110
1103
1096
1092
1084
1086
1079
1072
1067
1067
1062
1057
1052
1043
1036
1032
1032
1031
1028
1022
1016
1014
1013
1013
1006
1000
999
996
1002
1002
1000
995
994
991
992
993
993
990
989
992
994
996
994
993
989
991
995
995
993
994
993
996
998
1000
997
991
991
991
997
1000
998
997
996
997
999
999
997
992
993
995
998
1002
998
994
992
991
991
994
991
989
987
989
992
995
993
988
985
986
988
995
995
992
991
996
1004
1005
1007
1005
1006
1009
1015
1022
1024
1025
1027
1032
1036
1039
1039
1036
1035
1035
1035
1037
1031
1025
1016
1007
1002
1000
995
990
988
987
987
987
984
977
974
973
975
978
978
976
973
976
976
977
974
972
970
967
976
981
978
977
981
980
981
981
987
986
991
1000
1015
1031
1054
1088
1129
1185
1237
1284
1310
1307
1270
1201
1111
1027
956
918
913
925
938
938
932
921
913
904
901
900
903
904
902
905
907
906
900
899
905
914
921
930
938
943
952
967
979
994
998
998
1002
1005
1009
1016
1018
1017
1014
1014
1021
1024
1022
1021
1021
1025
1030
1034
1033
1034
1030
1031
1037
1041
1043
1045
1043
1046
1052
1054
1054
1050
1051
1055
1062
1069
1069
1069
1069
1073
1076
1081
1081
1082
1084
1086
1094
1100
1101
1099
1097
1098
1101
1105
1106
1103
1102
1100
1098
1100
1092
1081
1072
1069
1069
1069
1063
1056
1045
1040
1037
1037
1028
1022
1018
1016
1015
1013
1010
1000
997
992
991
993
992
987
987
987
987
985
982
979
974
976
977
983
984
980
979
982
984
986
984
981
978
983
986
990
988
984
979
981
981
984
983
984
983
985
985
987
983
978
975
978
980
983
982
983
979
975
979
979
977
975
971
975
976
980
977
971
967
969
973
975
975
974
971
972
974
980
981
986
986
988
994
999
1000
999
1002
1003
1007
1017
1018
1017
1014
1016
1019
1022
1017
1010
1001
994
990
984
980
973
966
963
965
964
960
954
952
952
956
958
955
950
945
944
948
947
946
942
946
947
948
947
950
946
945
946
949
955
959
960
964
973
995
1022
1054
1095
1148
1198
1247
1276
1270
1226
1144
1049
964
910
884
890
900
908
906
896
888
878
868
864
868
876
876
876
869
864
864
865
863
865
873
882
892
903
911
919
928
940
953
963
965
964
963
971
973
976
975
974
969
976
977
983
982
984
984
982
984
989
989
989
986
993
996
1003
1001
997
998
1001
1006
1012
1015
1014
1016
1017
1024
1027
1025
1025
1025
1031
1037
1042
1044
1045
1043
1045
1048
1052
1052
1054
1050
1055
1057
1059
1055
1047
1040
1041
1038
1037
1029
1022
1015
1010
1007
1002
998
991
983
980
981
979
973
965
959
954
956
959
955
951
948
949
952
952
948
944
939
940
946
950
949
943
943
942
943
943
943
943
942
946
950
950
950
945
942
943
944
951
951
949
945
948
950
951
949
947
946
947
951
953
952
948
945
945
945
948
945
944
941
943
946
947
942
940
941
940
943
947
947
946
945
950
954
958
954
957
957
963
971
976
973
975
981
986
993
994
997
994
991
994
991
986
980
969
962
954
954
958
952
947
942
938
938
942
943
943
940
939
937
936
934
932
929
931
932
938
937
938
936
935
940
942
944
946
947
952
960
976
999
1031
1080
1136
1199
1250
1279
1264
1203
1102
1004
926
885
874
888
897
895
888
878
866
859
859
863
871
871
868
861
856
856
859
862
867
875
886
899
913
922
933
943
954
964
967
970
970
969
973
975
979
979
981
979
984
988
988
988
988
987
989
993
997
1002
1002
1003
1005
1008
1011
1012
1015
1018
1021
1027
1032
1032
1033
1029
1034
1042
1048
1054
1054
1056
1058
1058
1061
1063
1065
1064
1065
1071
1073
1074
1066
1060
1053
1052
1053
1045
1039
1032
1029
1023
1020
1016
1005
998
997
998
997
990
983
977
973
975
976
973
969
965
965
967
967
963
959
958
961
964
968
968
965
963
963
964
968
967
966
966
971
975
974
970
967
965
968
972
976
976
977
974
973
975
975
975
975
973
977
979
979
979
977
974
973
973
975
979
980
976
977
977
979
975
973
973
972
979
981
982
981
975
983
991
997
1000
1003
1003
1006
1012
1016
1019
1020
1023
1028
1032
1034
1034
1030
1026
1021
1019
1015
1008
996
988
988
985
985
982
977
972
972
976
976
974
971
965
963
966
966
967
964
965
967
969
972
970
969
966
970
976
981
985
985
988
1000
1022
1058
1101
1152
1208
1266
1306
1311
1263
1168
1061
969
919
910
923
930
929
920
912
908
899
893
891
899
904
904
897
891
888
891
900
912
922
929
937
947
960
972
983
990
992
999
1004
1009
1007
1006
1007
1007
1011
1015
1017
1018
1017
1020
1023
1025
1024
1024
1023
1028
1032
1040
1040
1040
1035
1039
1041
1047
1047
1051
1052
1055
1060
1065
1063
1067
1067
1071
1077
1085
1087
1088
1085
1088
1092
1096
1098
1098
1094
1097
1099
1101
1101
1094
1088
1082
1081
1080
1073
1067
1061
1056
1052
1046
1036
1028
1023
1022
1020
1021
1014
1009
1002
1000
1000
998
994
991
987
988
990
989
983
975
974
978
977
986
984
980
976
975
978
978
977
976
976
981
984
985
984
981
980
983
984
989
988
985
986
986
987
989
985
982
980
983
983
989
988
984
980
980
981
983
982
981
982
982
987
986
984
978
975
976
980
982
985
981
980
981
989
993
997
999
1000
1003
1008
1012
1015
1014
1015
1019
1026
1027
1029
1029
1028
1026
1022
1021
1015
1008
1001
999
994
992
991
985
978
976
976
974
976
973
973
969
971
968
966
964
963
962
966
968
967
967
965
963
963
963
962
964
966
967
974
975
980
988
997
1019
1055
1100
1154
1209
1261
1297
1302
1257
1165
1057
960
904
897
913
928
927
913
903
900
893
888
886
889
894
896
897
892
886
884
890
901
912
919
921
928
934
951
964
974
979
981
983
987
993
991
990
989
992
996
1002
1005
1005
1004
1007
1012
1014
1011
1008
1010
1012
1015
1020
1020
1020
1023
1026
1026
1028
1025
1023
1028
1036
1044
1048
1046
1040
1034
1039
1044
1051
1056
1058
1060
1063
1066
1069
1073
1069
1068
1071
1075
1076
1075
1071
1067
1065
1063
1059
1049
1043
1037
1033
1032
1034
1025
1014
1006
997
1001
1000
1000
996
989
980
975
971
968
962
962
961
960
960
955
953
949
948
949
952
952
951
949
949
953
951
947
945
944
946
947
952
951
949
948
947
947
949
951
948
946
946
950
955
952
948
945
947
