973
969
964
958
961
963
966
966
964
959
962
961
963
963
962
960
962
966
966
967
964
958
957
961
965
967
966
964
964
966
964
964
959
960
962
967
970
967
963
960
960
963
963
961
961
959
962
965
966
965
959
958
958
961
967
964
965
963
965
969
974
977
977
977
982
986
988
992
994
992
1000
1003
1007
1009
1008
1007
1005
1005
1002
995
983
975
971
968
966
965
959
952
950
948
950
949
949
946
943
946
945
942
939
933
937
938
943
939
938
936
938
941
943
947
947
947
948
953
961
971
985
1005
1038
1085
1142
1191
1237
1264
1253
1196
1109
1010
925
881
881
899
913
909
895
885
874
865
865
866
871
874
872
870
865
864
860
866
877
892
903
908
915
926
937
951
962
966
970
970
969
975
977
979
980
977
980
984
989
990
990
988
987
991
992
994
993
994
996
1001
1005
1005
1005
1003
1007
1010
1017
1019
1022
1023
1024
1027
1033
1037
1038
1041
1044
1048
1051
1055
1055
1054
1052
1059
1062
1065
1063
1057
1053
1051
1051
1047
1043
1035
1030
1028
1027
1023
1010
1002
995
992
994
987
982
978
972
972
969
966
960
954
950
952
954
954
948
941
942
940
940
941
940
939
937
939
944
942
936
934
932
938
941
942
940
940
939
940
939
943
939
937
937
940
944
946
943
937
937
937
941
939
941
939
940
941
943
941
936
931
930
933
935
938
936
932
929
928
931
929
925
920
922
922
930
931
931
930
934
938
945
947
947
945
949
958
963
962
966
963
968
970
972
974
974
971
970
967
966
959
950
938
934
930
932
934
929
921
917
916
916
915
913
913
912
913
911
909
906
903
902
905
908
910
909
908
906
906
907
908
905
906
910
913
920
926
933
943
964
992
1029
1075
1127
1167
1202
1210
1181
1115
1021
934
871
845
850
865
872
867
860
853
848
839
833
829
830
837
839
839
832
829
824
825
832
840
848
854
861
870
883
890
902
907
917
924
930
934
936
935
939
942
946
945
944
941
944
948
954
954
956
952
956
957
962
962
961
963
967
972
977
977
976
973
974
976
980
981
985
987
986
994
996
999
997
997
1000
1006
1009
1013
1015
1016
1017
1019
1021
1024
1022
1022
1023
1024
1024
1026
1018
1011
1005
1002
1003
998
991
984
979
978
975
967
958
952
949
949
950
946
941
934
932
929
929
926
923
920
920
922
924
923
919
915
911
916
920
919
918
917
916
916
919
917
916
914
914
915
919
921
919
916
911
914
916
918
918
916
917
919
918
917
915
909
910
916
916
920
918
914
912
913
912
916
915
914
916
923
927
930
934
931
931
935
940
941
944
948
953
962
967
967
966
963
964
966
968
967
962
953
945
938
933
927
924
922
920
918
922
919
917
914
910
911
910
912
911
909
911
911
908
913
907
906
907
910
913
918
915
915
915
917
920
920
922
922
930
941
959
980
1006
1040
1086
1136
1182
1213
1227
1199
1137
1054
975
907
865
853
865
876
879
873
866
860
852
849
848
850
851
850
848
851
855
854
851
854
859
866
877
888
896
900
913
928
939
951
952
950
952
958
964
962
964
965
967
973
976
978
977
975
976
978
986
989
990
991
992
995
998
999
1001
998
1002
1008
1015
1016
1017
1018
1015
1021
1027
1031
1031
1031
1037
1042
1048
1050
1051
1048
1049
1052
1058
1061
1064
1065
1065
1071
1073
1073
1073
1068
1066
1069
1070
1069
1064
1057
1052
1050
1046
1041
1032
1026
1021
1018
1015
1013
1004
999
995
993
991
987
982
976
977
978
981
977
975
968
965
963
968
966
967
964
964
965
965
966
963
961
960
962
967
970
967
968
964
965
964
967
965
963
963
967
972
971
971
964
964
962
967
970
970
966
964
964
970
970
968
964
959
966
968
971
969
965
967
965
971
974
975
975
978
984
991
994
992
992
995
1000
1005
1010
1012
1013
1012
1013
1016
1016
1014
1005
1001
997
996
988
984
975
966
964
962
962
958
953
952
954
956
957
954
947
945
945
948
948
946
945
945
947
949
949
948
946
946
948
952
954
957
954
957
960
967
980
994
1013
1041
1078
1130
1175
1218
1251
1264
1237
1175
1080
989
918
883
888
904
911
902
892
883
880
879
875
873
879
877
876
876
874
871
871
878
890
903
910
916
919
929
942
956
967
973
974
979
983
987
988
987
987
986
990
994
998
997
999
998
1002
1004
1004
1002
1004
1005
1009
1015
1017
1018
1016
1014
1016
1022
1027
1027
1028
1032
1036
1040
1043
1042
1043
1041
1048
1052
1057
1060
1058
1062
1065
1068
1069
1069
1067
1069
1075
1078
1079
1079
1073
1071
1070
1068
1068
1062
1054
1052
1048
1047
1039
1030
1021
1018
1015
1013
1008
1001
995
994
991
989
984
980
972
968
969
970
967
964
958
957
956
952
952
950
949
948
951
954
955
954
948
947
949
951
950
950
949
948
952
956
955
952
950
947
950
954
956
956
954
954
956
958
959
954
955
948
954
957
958
959
955
954
957
955
956
954
953
952
955
958
959
960
959
961
964
967
971
970
972
973
980
987
989
990
990
993
997
1003
999
999
999
1000
998
999
993
984
975
963
961
959
954
953
948
945
942
942
939
937
931
934
935
937
938
933
929
929
929
932
930
930
929
930
930
935
935
932
928
927
931
935
939
940
942
949
963
982
1003
1031
1071
1114
1163
1206
1239
1239
1206
1143
1057
972
905
867
861
875
888
890
881
870
861
854
852
855
857
860
856
857
853
853
852
852
852
858
868
878
885
892
901
910
923
932
942
946
944
947
951
957
960
959
955
958
957
963
963
963
963
964
968
972
974
971
969
967
975
974
980
983
981
979
983
987
987
989
989
993
997
1001
1005
1007
1006
1007
1007
1011
1014
1019
1015
1022
1022
1029
1033
1033
1031
1027
1033
1038
1039
1038
1032
1031
1029
1028
1023
1017
1010
1005
999
998
994
988
979
974
970
965
961
955
949
947
944
943
939
935
924
921
922
925
923
921
918
916
915
917
913
912
908
908
913
916
916
915
912
908
909
911
913
911
909
908
912
915
911
908
906
907
912
915
918
917
915
915
915
914
915
912
911
911
914
916
918
916
914
911
917
921
927
927
930
932
935
942
939
943
943
944
950
956
960
962
962
956
956
959
957
953
945
941
932
928
924
915
909
902
905
906
909
906
904
905
903
904
902
899
895
895
896
901
903
898
893
895
893
900
898
899
897
902
905
911
911
916
921
937
966
1005
1049
1098
1145
1186
1209
1202
1147
1059
965
883
837
833
845
856
852
842
836
834
828
823
822
822
828
832
827
821
816
814
819
831
838
845
849
858
869
880
893
906
914
921
926
932
933
933
930
932
935
938
944
945
943
945
949
951
951
949
949
951
957
962
965
964
963
964
968
973
974
975
977
979
982
991
994
991
992
995
998
1008
1011
1010
1011
1013
1019
1020
1022
1022
1021
1026
1029
1035
1035
1031
1026
1025
1023
1018
1016
1010
1003
1000
997
996
988
979
971
964
963
962
960
957
948
945
942
940
935
928
925
922
925
928
928
921
919
914
914
917
917
917
917
916
917
922
922
922
919
915
918
920
920
926
923
920
923
925
926
925
922
926
930
934
935
931
931
928
930
930
933
932
929
931
933
933
934
931
925
926
930
933
943
942
943
947
948
953
956
956
959
964
973
975
978
982
974
976
975
981
984
982
974
969
965
958
951
943
935
934
935
937
940
933
929
928
927
929
930
930
928
928
929
932
931
928
924
927
932
935
939
938
938
937
939
943
946
951
962
976
1002
1038
1081
1128
1177
1221
1252
1242
1185
1089
990
911
867
864
882
892
888
885
881
878
871
866
863
862
867
870
870
868
863
862
870
882
890
898
904
914
930
945
962
967
970
970
973
977
981
985
986
986
990
994
995
995
992
994
998
1006
1005
1007
1005
1005
1006
1010
1014
1017
1016
1017
1021
1026
1027
1031
1031
1032
1035
1046
1049
1049
1052
1053
1057
1060
1065
1068
1066
1068
1074
1079
1082
1076
1075
1075
1073
1073
1072
1067
1062
1054
1048
1045
1041
1029
1025
1021
1021
1015
1009
1004
997
992
988
988
984
985
976
973
971
973
971
966
962
962
962
965
967
964
958
958
959
967
968
968
963
964
966
967
969
966
963
964
969
972
973
968
967
964
965
970
971
971
968
971
974
977
977
971
968
969
973
972
975
972
969
970
969
970
971
970
970
971
976
979
982
984
980
986
990
998
1003
1005
1007
1012
1015
1019
1019
1022
1018
1021
1019
1018
1015
1002
994
983
978
977
978
975
970
964
964
962
965
960
958
959
959
962
962
960
956
952
954
958
959
961
961
960
960
963
962
960
964
966
975
983
1005
1029
1057
1103
1155
1209
1256
1278
1258
1191
1094
1001
926
891
889
903
915
913
906
899
887
877
875
883
886
886
882
879
878
881
885
890
895
902
913
929
944
957
965
973
977
980
983
984
988
990
998
1003
1004
999
995
1000
1002
1010
1012
1013
1012
1012
1015
1018
1017
1018
1019
1022
1025
1029
1031
1030
1028
1029
1032
1039
1043
1044
1043
1047
1049
1051
1056
1053
1054
1056
1059
1065
1069
1068
1068
1067
1069
1070
1074
1069
1070
1066
1064
1065
1063
1054
1045
1038
1033
1031
1028
1023
1013
1008
1005
1001
996
989
985
981
981
978
975
970
966
960
960
962
962
957
954
948
952
955
955
953
950
951
951
954
955
953
952
947
948
953
954
954
952
954
954
954
956
955
950
951
954
958
958
959
954
952
952
955
957
955
953
954
958
960
959
954
951
948
952
954
955
955
954
957
956
964
970
968
969
972
976
985
988
987
988
993
994
999
999
998
994
993
989
980
977
969
959
950
949
951
948
944
940
935
934
934
934
930
928
927
929
930
927
924
920
918
920
922
925
926
924
924
923
927
928
929
930
935
944
953
971
995
1029
1072
1127
1180
1223
1236
1207
1136
1041
955
891
862
858
872
880
878
873
865
855
846
842
846
849
850
847
843
843
841
842
847
852
860
869
883
896
904
913
919
930
939
943
945
948
946
953
960
956
959
954
956
957
962
966
968
969
968
969
974
974
975
975
976
979
985
989
989
990
990
993
1001
1003
1002
1003
1007
1011
1018
1019
1019
1020
1020
1024
1032
1036
1037
1036
1032
1036
1039
1041
1039
1038
1034
1035
1037
1033
1025
1017
1010
1007
1007
1004
997
989
981
978
976
971
965
957
955
953
953
950
946
937
931
933
933
931
928
925
923
922
927
925
922
915
917
917
922
925
925
920
920
922
924
923
921
915
920
925
929
932
929
922
919
919
923
926
925
924
922
927
930
927
924
920
918
919
925
926
922
919
919
921
923
925
924
924
929
936
940
945
943
939
938
941
948
957
959
963
961
963
965
967
963
960
956
955
955
952
938
928
922
917
917
916
910
909
908
907
911
909
904
900
895
895
900
901
902
900
902
902
900
901
900
898
899
901
909
914
912
910
910
913
923
939
958
986
1030
1083
1138
1184
1215
1225
1202
1142
1058
970
891
845
841
854
864
861
853
844
839
834
832
838
839
835
832
833
833
832
831
837
843
853
866
870
877
887
898
914
931
939
939
943
942
946
948
951
952
954
957
960
965
965
964
963
964
966
976
978
979
979
981
986
990
990
988
989
993
998
1005
1007
1005
1010
1012
1016
1021
1024
1026
1030
1030
1034
1040
1043
1044
1044
1046
1051
1056
1058
1060
1058
1059
1052
1055
1051
1046
1040
1035
1033
1030
1024
1019
1008
999
997
996
996
990
983
978
976
973
970
963
961
957
959
958
958
952
949
946
947
948
950
949
945
946
945
950
949
950
947
945
950
953
956
957
955
952
950
952
955
956
956
957
957
962
964
962
958
956
955
961
964
964
964
960
960
960
961
958
957
956
957
962
962
960
955
953
954
957
961
962
963
965
971
974
976
974
974
976
981
989
994
998
997
1001
1002
1005
1002
1004
1001
997
995
995
988
978
966
960
955
959
962
957
952
952
949
949
949
948
944
943
943
947
948
946
942
938
938
945
947
949
946
948
948
952
953
951
947
949
960
975
993
1013
1038
1076
1129
1176
1223
1255
1271
1234
1156
1056
963
899
874
882
896
904
899
893
882
877
875
871
872
874
872
871
872
871
873
875
877
885
896
906
914
925
935
945
962
975
981
982
978
981
985
990
996
996
996
993
1000
1002
1002
1002
1001
1004
1009
1014
1018
1021
1020
1016
1019
1023
1027
1024
1024
1028
1031
1034
1036
1037
1036
1035
1039
1046
1052
1052
1054
1052
1059
1064
1065
1066
1066
1066
1072
1079
1082
1085
1081
1078
1078
1081
1080
1080
1078
1073
1073
1069
1065
1056
1050
1042
1038
1038
1037
1027
1021
1015
1010
1006
1005
1002
994
991
992
989
988
983
978
973
972
973
973
970
971
965
966
968
971
971
967
962
965
969
973
975
970
971
972
973
975
973
970
967
971
979
978
977
971
970
972
972
977
975
973
972
971
975
975
971
968
964
967
974
972
972
969
965
965
968
965
964
963
961
965
965
967
963
963
958
960
968
968
971
973
976
981
986
988
988
988
991
995
1004
1011
1018
1016
1014
1013
1011
1016
1016
1009
1007
1004
1003
998
990
978
971
968
966
968
967
961
960
960
959
954
952
945
947
950
947
952
953
947
945
945
946
949
949
947
950
953
958
956
957
952
955
960
973
987
1009
1037
1075
1123
1176
1229
1263
1275
1249
1187
1095
1002
928
889
884
896
905
901
893
885
878
872
870
875
876
872
870
868
869
874
876
878
888
896
906
920
929
942
953
961
971
974
974
974
972
976
980
985
986
983
983
986
983
988
987
985
990
993
997
1000
998
995
996
999
1005
1006
1008
1010
1010
1014
1019
1019
1019
1018
1020
1027
1033
1037
1037
1038
1037
1039
1043
1048
1048
1045
1048
1052
1060
1059
1058
1055
1051
1052
1054
1052
1047
1044
1039
1034
1031
1026
1019
1011
1005
1003
1003
999
993
986
980
976
974
972
968
962
959
957
953
952
946
943
941
942
944
945
942
939
933
935
936
938
936
929
931
933
940
938
940
935
933
935
937
936
936
933
931
936
939
939
937
935
931
931
934
936
935
933
931
935
933
934
931
928
928
930
932
932
933
930
928
926
926
927
928
927
928
931
937
941
942
942
943
943
949
951
952
951
956
961
969
972
974
974
970
974
978
980
978
975
967
965
962
952
942
933
927
927
929
929
925
920
919
915
915
916
914
904
909
912
912
912
911
904
901
903
907
909
905
909
910
910
910
912
910
907
910
913
924
933
944
956
979
1015
1059
1111
1160
1197
1221
1219
1178
1102
1005
917
860
840
848
864
869
862
855
848
847
842
833
829
831
835
839
840
835
831
827
829
842
852
861
865
873
885
901
916
923
927
929
931
936
941
944
945
945
947
955
954
953
951
953
954
961
966
967
967
966
965
967
973
971
974
974
978
986
987
985
986
987
990
997
1001
1004
1005
1007
1010
1016
1018
1018
1019
1017
1023
1027
1033
1035
1033
1033
1038
1040
1045
1043
1040
1039
1038
1040
1037
1029
1024
1014
1009
1011
1006
999
992
985
980
980
971
966
961
956
953
955
956
949
942
938
934
935
936
932
931
928
929
930
930
928
923
922
923
926
927
929
924
925
926
928
930
926
922
921
923
928
932
931
928
924
926
928
928
930
927
926
927
933
935
934
930
928
928
932
935
938
936
936
939
940
937
936
933
933
936
940
943
942
939
939
941
946
949
949
952
954
955
963
964
965
965
967
973
978
984
986
986
985
987
988
988
984
975
969
965
965
959
951
945
940
938
937
935
930
928
924
929
927
927
931
924
923
923
926
924
923
920
920
922
926
928
928
923
925
923
926
930
935
933
938
941
948
954
959
970
991
1023
1069
1120
1169
1215
1247
1259
1235
1168
1073
985
914
876
871
883
894
891
884
875
876
871
864
859
861
864
868
870
868
860
857
858
863
870
876
883
890
899
908
916
927
936
944
956
965
973
973
972
976
978
981
980
980
982
982
987
992
996
996
994
992
995
1001
1005
1003
1005
1006
1008
1016
1019
1017
1016
1017
1019
1026
1031
1033
1035
1037
1040
1044
1050
1050
1051
1052
1058
1063
1066
1070
1069
1067
1073
1076
1079
1079
1080
1080
1081
1085
1083
1081
1073
1064
1064
1066
1061
1056
1050
1044
1038
1035
1030
1024
1019
1015
1015
1015
1014
1007
997
992
989
989
988
984
981
978
979
980
978
975
970
966
970
973
977
976
972
969
969
972
971
970
968
970
973
978
978
975
974
969
972
976
978
977
977
975
975
978
975
976
971
974
974
979
981
978
975
970
972
973
973
971
973
972
971
973
972
970
968
967
965
970
977
975
971
974
977
981
985
987
990
990
996
1001
1007
1006
1009
1012
1015
1022
1023
1023
1021
1017
1017
1015
1009
1000
994
986
982
980
976
975
970
966
963
963
961
960
958
957
959
961
960
958
953
951
952
957
959
958
957
955
954
959
961
957
957
960
964
971
978
985
995
1017
1052
1099
1153
1202
1248
1275
1275
1231
1147
1048
957
902
889
903
914
914
906
898
891
883
879
878
880
883
884
886
885
879
875
877
886
898
907
916
920
928
940
954
967
974
978
981
985
991
996
993
996
996
998
1002
1004
1007
1005
1007
1009
1013
1017
1015
1011
1010
1014
1019
1024
1026
1024
1024
1028
1029
1034
1035
1033
1037
1038
1046
1050
1050
1051
1053
1057
1061
1065
1067
1068
1070
1075
1078
1080
1080
1076
1078
1082
1086
1089
1090
1082
1077
1075
1073
1070
1064
1055
1051
1045
1046
1043
1034
1029
1019
1017
1016
1017
1010
1007
999
996
995
991
988
983
978
980
981
982
980
975
967
970
971
973
967
964
965
970
972
973
967
968
967
967
969
970
972
970
969
970
971
971
970
969
966
967
973
975
975
972
973
971
972
972
968
967
966
970
