1053
1053
1052
1055
1058
1058
1055
1048
1045
1045
1046
1044
1038
1029
1023
1017
1011
1010
1006
998
995
992
989
985
975
969
962
960
960
959
960
953
949
947
951
952
950
950
948
949
953
951
948
949
950
954
955
956
956
956
955
955
960
959
956
956
956
964
964
960
958
959
960
964
965
967
964
962
958
963
967
970
968
965
962
963
966
964
966
964
967
971
975
979
981
985
986
989
992
1000
999
1002
1004
1013
1020
1025
1030
1030
1026
1023
1018
1019
1014
1008
997
995
995
994
983
974
968
964
973
977
979
973
968
962
963
963
962
965
963
964
967
971
973
974
970
968
967
968
974
978
982
988
996
1013
1034
1070
1117
1173
1224
1269
1291
1283
1230
1141
1037
959
912
906
918
929
925
915
904
897
889
886
891
890
886
880
878
879
883
892
897
905
917
925
937
954
966
978
989
997
1003
1003
1004
1002
1004
1011
1017
1022
1019
1015
1010
1012
1019
1023
1026
1027
1028
1027
1026
1024
1029
1027
1031
1038
1041
1039
1043
1041
1037
1042
1048
1057
1059
1064
1064
1068
1075
1078
1081
1081
1082
1085
1088
1090
1091
1092
1089
1093
1099
1103
1102
1097
1093
1087
1086
1087
1080
1068
1063
1062
1064
1059
1050
1043
1036
1032
1031
1032
1028
1024
1021
1020
1020
1015
1003
995
989
991
998
1003
1003
998
989
989
990
991
994
991
985
985
990
992
991
990
991
997
1002
1002
996
992
990
993
997
999
1001
999
1000
1000
1004
1004
1001
1000
998
993
994
998
1002
1000
999
996
999
1000
1000
999
1000
1001
1007
1005
1000
992
993
999
1008
1016
1018
1014
1016
1021
1024
1030
1033
1038
1046
1050
1052
1050
1044
1045
1045
1047
1049
1050
1042
1029
1013
998
998
997
996
995
989
988
986
985
981
981
983
987
990
984
979
980
981
982
981
982
978
978
980
981
984
985
985
981
986
995
1012
1038
1069
1109
1158
1215
1264
1296
1285
1223
1122
1014
936
903
909
925
926
916
908
904
898
890
888
882
883
883
877
871
870
879
891
906
918
927
934
944
959
975
985
991
995
997
1001
1002
999
998
996
1001
1008
1011
1010
1006
1006
1008
1011
1016
1014
1014
1015
1019
1022
1024
1022
1024
1027
1030
1030
1039
1042
1044
1042
1045
1045
1053
1058
1058
1060
1064
1067
1072
1073
1073
1075
1082
1090
1095
1089
1082
1075
1074
1079
1080
1075
1067
1057
1054
1049
1039
1030
1024
1023
1021
1014
1010
1003
998
998
1000
1001
1000
997
990
978
978
977
977
976
974
972
971
971
969
969
968
971
976
979
981
975
974
971
967
969
973
976
976
975
974
978
978
974
967
964
967
973
978
977
971
971
976
980
978
972
968
973
975
975
973
966
965
967
970
973
973
975
969
969
970
970
970
967
970
965
969
971
974
980
985
987
993
995
999
1001
998
1001
1007
1015
1022
1028
1025
1024
1028
1029
1029
1018
1009
1000
995
992
987
979
970
966
965
964
968
965
958
956
956
956
958
958
954
952
953
957
959
956
952
949
956
957
961
961
962
963
963
969
975
982
995
1015
1048
1091
1141
1186
1229
1260
1273
1255
1194
1103
1012
946
910
907
916
915
906
895
887
885
881
873
875
874
874
878
878
875
876
878
888
898
904
909
921
937
955
969
975
977
979
983
986
994
1000
1002
1000
994
1000
1005
1007
1002
997
993
995
1004
1012
1015
1011
1008
1003
1007
1010
1009
1011
1015
1014
1017
1020
1020
1018
1024
1028
1034
1039
1043
1039
1039
1040
1044
1046
1049
1049
1051
1054
1060
1063
1062
1061
1063
1067
1068
1072
1065
1059
1053
1049
1045
1044
1041
1034
1027
1025
1019
1015
1011
1005
998
998
997
997
991
986
976
970
971
970
971
972
969
964
964
965
964
958
953
951
952
956
956
951
948
950
952
955
955
955
955
956
956
957
955
953
953
954
954
956
954
954
951
956
959
960
950
946
940
936
937
944
943
946
945
947
945
947
939
932
932
931
936
942
942
938
936
938
940
950
956
963
963
960
958
959
957
953
957
963
973
982
988
989
984
980
982
983
979
972
967
963
959
951
942
933
929
925
925
927
922
914
910
910
913
913
911
909
908
908
910
909
907
901
899
902
908
909
910
909
908
908
912
915
917
925
938
957
984
1018
1056
1102
1149
1191
1210
1191
1127
1042
955
892
854
849
861
869
866
853
849
839
829
816
814
817
823
827
823
814
814
807
813
819
829
837
847
859
873
886
895
900
902
910
918
927
928
930
928
924
928
928
929
928
928
928
931
938
936
935
932
934
939
942
944
940
948
946
950
952
955
953
956
959
962
968
972
969
969
967
969
975
978
980
981
985
990
993
993
991
995
998
1006
1011
1011
1006
1001
997
997
996
993
990
984
983
982
976
960
947
940
940
942
945
940
932
926
918
918
920
917
913
910
907
909
911
907
903
897
896
899
901
903
903
899
899
899
901
901
898
897
903
906
907
904
900
899
899
903
905
903
900
903
904
908
909
905
902
902
904
908
910
908
905
903
902
903
908
905
900
903
906
906
908
910
909
912
916
918
922
919
916
915
917
926
933
936
940
942
949
953
956
953
952
951
954
957
953
948
940
926
915
906
900
900
899
899
897
900
905
904
896
887
887
891
892
889
887
883
884
889
893
890
889
896
900
902
904
905
904
903
907
921
934
954
980
1015
1062
1114
1166
1201
1208
1178
1107
1019
931
870
844
844
857
863
860
848
838
826
823
821
827
830
828
827
825
823
823
820
829
833
843
856
865
875
881
895
909
922
930
932
932
935
940
943
948
946
945
947
951
956
960
961
958
958
959
962
966
966
966
964
971
974
980
978
978
977
983
989
1000
1004
1004
1000
999
1003
1012
1018
1022
1022
1025
1031
1038
1039
1033
1030
1033
1041
1044
1048
1048
1043
1043
1042
1038
1031
1021
1016
1018
1018
1013
1006
1000
994
989
988
987
982
978
971
969
966
963
960
957
954
947
948
949
947
942
941
943
947
952
953
947
941
939
941
946
945
942
942
948
950
951
946
946
942
944
948
947
951
952
954
953
948
946
944
947
947
946
953
957
954
953
951
948
954
957
958
956
953
953
957
964
962
959
962
966
973
975
976
974
975
982
990
995
998
999
997
996
1007
1008
1004
1000
998
996
989
984
976
973
964
958
956
956
949
941
940
941
947
947
943
936
937
935
937
936
938
938
937
936
937
935
934
930
934
936
940
945
943
945
946
948
954
965
977
997
1029
1071
1122
1171
1215
1243
1243
1203
1134
1051
968
907
879
882
893
896
887
878
867
867
865
867
864
861
863
862
861
860
859
858
860
866
870
880
887
893
907
919
936
953
957
962
961
965
972
976
979
981
978
976
978
978
979
974
977
980
986
993
993
990
986
986
988
991
993
993
993
999
1004
1005
1005
1000
1001
1007
1014
1018
1020
1018
1016
1027
1030
1033
1036
1036
1037
1042
1048
1056
1055
1051
1051
1053
1053
1057
1059
1059
1054
1051
1047
1047
1040
1034
1024
1023
1022
1022
1016
1007
998
995
991
992
986
978
975
972
974
971
965
954
950
950
954
959
957
951
943
942
939
945
946
945
941
945
945
949
945
943
941
938
944
947
951
951
951
953
955
953
948
945
941
942
945
951
953
950
952
951
956
953
952
950
943
948
952
955
952
950
946
946
951
956
955
951
945
948
953
957
963
964
965
971
974
977
976
976
979
989
999
1005
1003
995
994
995
998
1003
1000
994
988
983
979
972
959
950
943
944
944
948
946
941
936
934
933
935
934
931
929
932
935
938
935
932
929
932
933
935
938
938
938
939
941
946
944
942
944
955
972
996
1025
1057
1097
1146
1194
1233
1246
1228
1168
1075
986
918
883
874
885
890
891
887
879
869
860
858
860
866
865
862
859
855
854
855
858
861
866
876
886
898
907
915
925
935
943
953
954
956
961
963
968
972
969
969
964
964
970
974
973
973
972
973
976
980
977
977
979
982
984
986
984
983
982
985
991
996
997
998
999
1001
1004
1008
1008
1008
1010
1016
1020
1024
1026
1027
1027
1027
1029
1035
1039
1042
1043
1043
1040
1040
1035
1030
1024
1019
1021
1018
1013
1008
999
992
990
989
983
977
972
973
970
966
959
949
943
946
948
951
952
946
937
932
936
935
933
927
927
929
931
935
932
926
925
925
930
932
933
932
928
928
934
935
932
927
925
931
931
936
938
934
933
930
929
932
934
931
931
931
934
935
931
927
927
929
935
939
939
938
937
934
932
929
929
928
928
930
936
946
946
944
945
947
952
957
959
962
967
973
977
979
979
976
974
975
977
977
972
960
949
941
937
937
931
925
926
927
927
928
922
914
908
910
910
915
912
911
909
910
912
911
907
904
903
906
912
915
912
912
909
910
916
922
925
932
941
954
972
995
1030
1076
1125
1179
1216
1225
1191
1118
1027
941
884
858
858
865
866
864
858
854
845
836
828
824
835
840
840
835
830
826
826
824
827
835
839
848
860
871
878
886
895
912
920
927
931
932
936
939
943
944
946
945
944
943
947
950
948
945
943
946
947
952
954
954
953
957
962
966
962
963
962
966
972
978
978
975
978
981
986
990
991
995
994
1000
1004
1006
1009
1007
1008
1011
1017
1026
1029
1026
1021
1023
1024
1026
1021
1015
1010
1008
1010
1007
1001
991
984
979
978
976
973
966
963
959
957
955
951
946
942
939
942
942
936
930
927
928
930
932
930
931
931
931
932
934
932
928
923
929
931
934
935
931
930
931
934
935
936
933
934
938
940
941
936
934
933
933
937
940
940
939
938
940
940
943
941
940
939
940
946
949
946
946
943
945
951
954
958
961
964
965
968
974
973
972
977
984
993
1000
999
998
992
995
998
999
998
993
988
983
981
972
963
954
951
951
952
953
949
947
944
942
943
943
941
938
940
939
941
946
944
940
938
939
942
946
947
944
946
947
953
952
952
954
961
972
992
1018
1050
1091
1142
1196
1243
1268
1260
1204
1116
1027
954
912
899
904
906
905
902
898
889
878
874
872
875
881
879
878
874
872
873
875
877
884
892
901
917
928
941
952
961
970
975
979
982
980
985
988
994
997
996
996
994
998
1002
1007
1010
1008
1006
1007
1009
1011
1014
1013
1016
1018
1019
1023
1021
1021
1022
1025
1034
1037
1038
1038
1037
1039
1044
1049
1051
1050
1055
1059
1061
1069
1068
1069
1069
1072
1079
1081
1078
1078
1077
1077
1078
1076
1070
1063
1063
1059
1061
1059
1054
1048
1039
1034
1032
1033
1028
1022
1018
1013
1013
1013
1009
1000
998
993
997
996
992
991
982
985
986
987
984
982
979
981
986
983
981
980
977
979
979
987
982
980
980
981
984
985
984
982
981
985
986
989
988
983
983
985
982
987
990
987
986
986
985
986
984
984
984
983
984
987
986
980
979
978
984
989
985
986
985
986
991
995
997
998
1000
1009
1011
1012
1016
1016
1018
1023
1026
1035
1036
1031
1034
1032
1030
1031
1025
1018
1011
1004
996
993
988
979
975
975
976
977
975
971
967
965
963
963
964
964
963
966
966
969
968
964
961
964
964
969
971
971
972
973
982
990
1006
1035
1068
1118
1176
1232
1273
1289
1261
1186
1082
988
922
901
904
916
915
906
899
894
884
885
888
892
886
881
882
877
878
884
890
896
905
913
923
936
947
959
966
972
980
985
983
979
984
989
994
993
995
994
990
991
992
997
997
998
998
998
1001
1004
1005
1001
1002
1006
1013
1017
1019
1015
1016
1017
1021
1026
1032
1029
1036
1035
1041
1045
1046
1048
1049
1054
1060
1063
1064
1065
1062
1065
1069
1073
1071
1067
1063
1060
1058
1056
1049
1047
1040
1038
1036
1033
1026
1016
1011
1009
1007
1009
1006
1002
994
991
990
988
982
979
975
976
977
979
976
971
968
967
970
972
972
971
968
970
971
970
968
967
969
970
972
976
972
970
968
970
972
974
975
973
970
969
972
973
972
969
968
972
973
973
968
967
966
966
969
971
969
967
961
962
967
968
969
967
965
968
973
971
973
972
976
981
988
989
993
994
994
998
1004
1011
1015
1018
1019
1023
1025
1027
1021
1014
1004
1003
1001
994
985
977
972
969
967
960
958
957
955
954
957
953
950
946
940
940
948
954
954
952
949
949
948
950
948
950
949
952
958
963
960
964
970
985
1013
1044
1087
1134
1183
1233
1268
1260
1202
1111
1017
941
901
890
895
898
895
888
885
881
873
867
866
864
866
867
865
864
859
864
872
882
888
896
902
919
937
951
954
955
956
955
962
965
965
967
967
969
974
974
971
969
972
977
979
983
982
979
976
980
982
987
988
990
992
992
995
1000
1000
999
1002
1004
1009
1013
1015
1010
1013
1017
1021
1028
1030
1028
1032
1034
1040
1041
1040
1040
1039
1041
1043
1039
1036
1027
1023
1018
1018
1014
1011
1003
995
989
985
982
981
975
969
967
963
959
956
954
948
943
944
947
945
942
937
936
936
938
938
937
937
937
937
938
936
935
932
935
937
941
938
936
935
937
937
940
941
941
941
942
942
944
943
942
939
943
946
945
943
941
937
940
942
946
945
942
940
938
941
942
940
941
941
943
948
951
951
952
955
959
964
966
971
972
973
976
985
988
990
991
991
992
990
989
984
978
973
969
965
961
954
947
941
937
936
938
937
930
929
927
929
928
930
928
925
928
932
933
932
929
926
929
934
937
935
936
938
941
950
967
987
1018
1064
1123
1184
1230
1249
1226
1159
1067
977
915
880
875
881
885
880
873
865
856
850
848
851
856
852
847
842
844
847
855
864
870
876
885
898
915
930
939
945
951
953
956
957
958
962
965
971
972
972
968
970
971
978
980
983
980
980
982
985
986
989
991
992
1002
1003
1005
1007
1005
1005
1010
1015
1024
1028
1027
1029
1031
1036
1043
1045
1044
1045
1051
1056
1058
1059
1057
1054
1056
1062
1065
1062
1057
1048
1046
1042
1041
1036
1028
1024
1021
1017
1014
1008
1000
996
994
994
994
990
983
981
980
980
978
977
975
973
974
976
975
972
971
970
973
975
981
978
977
975
976
977
981
980
980
978
982
983
985
983
982
982
984
989
991
989
989
985
985
987
990
992
990
987
989
993
990
990
990
989
990
993
994
992
989
988
987
989
998
998
996
995
994
997
997
995
998
1000
1008
1016
1020
1020
1018
1017
1024
1032
1041
1045
1045
1044
1046
1049
1051
1047
1046
1043
1041
1039
1033
1025
1015
1007
1002
1002
1004
1000
996
994
989
990
992
990
987
985
983
986
987
987
985
981
983
986
992
992
992
989
990
996
1003
1003
1013
1028
1056
1092
1135
1182
1228
1272
1305
1305
1258
1163
1060
979
933
928
942
946
942
931
924
915
913
908
909
909
910
913
914
910
905
906
914
920
932
942
951
967
978
993
1002
1008
1008
1008
1013
1018
1020
1022
1021
1020
1021
1027
1031
1033
1031
1031
1035
1032
1034
1031
1033
1032
1035
1042
1046
1046
1044
1044
1046
1052
1056
1060
1058
1058
1060
1064
1070
1072
1075
1077
1080
1085
1088
1088
1090
1088
1089
1096
1100
1099
1097
1095
1091
1091
1093
1087
1083
1080
1076
1073
1072
1064
1058
1050
1047
1045
1044
1040
1038
1030
1023
1020
1022
1019
1013
1009
1010
1009
1009
1003
998
996
1000
1001
1000
1001
994
993
994
995
998
995
994
995
997
1000
1001
1000
996
995
997
1000
1003
1001
999
996
997
998
1001
1001
997
998
998
1000
1003
1002
999
995
999
1001
1003
1002
996
993
992
995
998
996
994
991
993
996
998
995
991
989
990
994
997
995
995
994
994
998
1001
1001
1006
1007
1011
1015
1021
1023
1025
1024
1031
1035
1043
1048
1043
1043
1044
1045
1045
1042
1038
1034
1030
1023
1014
1006
999
995
992
990
991
989
986
984
981
981
982
978
972
969
973
975
979
976
972
969
968
970
974
973
973
973
976
981
985
983
986
993
1009
1030
1063
1098
1140
1185
1234
1278
1296
1276
1216
1130
1039
969
931
924
927
932
928
921
916
910
899
890
890
893
895
894
890
888
886
889
893
900
905
913
920
931
943
957
968
978
985
989
993
994
990
995
997
1003
1007
1003
1001
996
999
1005
1012
1008
1008
1008
1009
1013
1014
1015
1016
1016
1018
1022
1027
1026
1024
1020
1024
1030
1034
1039
1038
1036
1037
1040
1047
1045
1047
1047
1051
1061
1065
1066
1063
1062
1063
1067
1070
1072
1070
1068
1066
1065
1064
1060
1051
1047
1043
1040
1039
1031
1025
1018
1013
1013
1011
1007
1002
993
990
990
991
989
983
979
978
978
978
973
968
967
968
973
974
973
971
969
968
972
973
971
968
966
969
973
974
972
967
966
965
966
968
970
970
966
967
968
971
967
965
964
965
970
970
971
967
965
963
964
967
967
965
961
961
965
964
964
957
957
962
963
967
964
961
957
956
960
957
959
957
957
960
962
967
969
971
973
974
978
985
983
988
988
996
998
1004
1005
1001
1002
1005
1006
1007
1006
1001
994
986
986
978
969
963
954
954
953
951
949
944
938
941
944
945
941
936
934
934
935
937
935
933
932
935
935
933
933
932
931
934
937
942
944
943
941
949
959
974
993
1021
1059
1108
1157
1201
1229
1238
1211
1149
1072
995
935
895
882
888
894
893
884
869
861
858
857
857
856
854
853
848
851
850
845
839
839
847
856
867
871
875
883
892
911
923
935
937
939
940
944
948
949
949
949
952
957
958
959
956
953
956
960
963
962
961
964
966
964
969
969
967
966
969
974
979
982
983
979
980
985
984
987
990
992
994
1000
1005
1001
999
1000
1006
1014
1019
1021
1020
1021
1023
1029
1032
1023
1026
1023
1023
1026
1027
1023
1010
1007
1002
1000
1002
996
988
981
978
977
977
970
962
959
955
956
956
953
949
939
938
938
939
936
934
932
931
935
935
930
924
923
927
929
934
935
933
929
926
929
933
932
929
928
930
934
933
934
928
923
930
933
937
935
933
930
929
929
931
930
927
925
929
933
935
932
926
925
924
929
929
928
926
925
926
925
926
924
921
921
927
927
934
