1034
1031
1029
1031
1036
1047
1046
1047
1046
1050
1055
1061
1065
1069
1069
1073
1077
1083
1084
1085
1085
1084
1087
1089
1089
1084
1082
1076
1071
1063
1053
1044
1037
1036
1033
1031
1027
1023
1017
1022
1025
1030
1028
1024
1017
1014
1009
1013
1015
1011
1014
1016
1017
1017
1020
1019
1016
1017
1021
1026
1026
1025
1028
1040
1055
1072
1099
1130
1178
1234
1289
1329
1345
1315
1242
1144
1050
981
954
956
971
977
977
973
967
954
946
943
947
951
951
948
944
944
946
947
949
951
957
966
979
989
995
1007
1016
1026
1033
1037
1041
1043
1043
1048
1052
1055
1053
1048
1047
1052
1058
1062
1064
1063
1060
1066
1068
1071
1068
1068
1068
1072
1078
1083
1086
1083
1084
1084
1089
1094
1097
1098
1096
1096
1097
1104
1107
1113
1114
1120
1127
1130
1131
1129
1133
1135
1135
1139
1137
1133
1128
1133
1135
1136
1130
1122
1113
1110
1104
1101
1094
1087
1079
1074
1073
1073
1066
1056
1047
1043
1041
1044
1035
1032
1028
1027
1026
1026
1019
1015
1015
1015
1015
1012
1009
1010
1010
1012
1012
1012
1014
1010
1012
1009
1007
1011
1010
1008
1006
1009
1011
1016
1016
1014
1010
1010
1012
1016
1019
1020
1017
1020
1019
1023
1023
1019
1017
1023
1031
1038
1031
1021
1013
1011
1021
1031
1036
1037
1036
1041
1045
1050
1052
1056
1057
1057
1060
1065
1066
1066
1063
1055
1044
1035
1033
1032
1030
1028
1030
1027
1018
1005
997
991
992
997
995
996
994
995
993
996
994
986
985
989
994
998
996
994
993
991
998
1004
1006
1008
1014
1024
1042
1059
1075
1106
1149
1209
1265
1300
1301
1253
1164
1063
979
939
933
945
954
952
945
941
937
927
918
921
925
929
929
926
921
920
924
931
942
951
960
966
978
990
1000
1003
1010
1018
1023
1027
1030
1031
1027
1032
1034
1039
1039
1039
1039
1042
1045
1045
1046
1044
1050
1054
1054
1056
1058
1059
1059
1065
1069
1075
1080
1082
1082
1086
1091
1089
1086
1083
1087
1097
1105
1115
1116
1115
1112
1112
1113
1116
1119
1121
1120
1119
1117
1113
1106
1097
1092
1091
1086
1084
1077
1070
1063
1055
1051
1049
1045
1040
1032
1024
1020
1015
1012
1007
1003
1001
1001
1000
997
995
993
994
995
994
996
997
997
998
1002
1002
994
987
985
992
997
1002
1001
996
993
995
998
1003
1000
1000
997
999
1003
1006
1005
1000
996
999
1000
1006
1006
1006
1001
1001
1001
1007
1011
1010
1017
1022
1029
1034
1029
1023
1020
1022
1031
1040
1044
1047
1046
1045
1043
1039
1038
1031
1028
1023
1020
1015
1008
998
991
987
986
991
985
982
978
981
980
979
979
974
972
972
973
975
975
975
973
974
974
973
975
976
974
980
982
986
983
980
981
992
1009
1040
1072
1105
1147
1195
1243
1279
1285
1255
1189
1095
1008
946
917
916
923
931
931
925
921
914
909
908
909
911
912
910
907
907
906
910
915
922
925
933
941
952
961
972
984
994
1001
1007
1010
1008
1006
1007
1010
1013
1017
1015
1018
1019
1025
1026
1024
1024
1024
1028
1034
1038
1040
1038
1037
1040
1040
1049
1052
1054
1053
1062
1068
1073
1070
1063
1056
1058
1067
1078
1081
1082
1083
1085
1091
1096
1095
1096
1098
1102
1105
1109
1102
1099
1094
1096
1097
1100
1095
1087
1082
1078
1075
1071
1063
1054
1047
1038
1033
1030
1028
1023
1015
1006
1001
1002
997
993
987
987
989
989
986
982
984
985
988
991
989
982
977
978
980
985
985
986
984
982
979
981
981
977
978
980
984
987
983
980
981
982
986
987
985
980
976
978
978
980
979
976
971
972
973
976
978
978
979
984
988
990
994
991
990
991
999
1008
1014
1015
1012
1013
1017
1019
1019
1014
1011
1005
999
990
983
976
970
970
971
972
965
964
956
954
954
950
948
945
947
949
951
951
948
945
941
941
940
942
944
945
945
946
949
949
950
952
953
959
968
975
985
1002
1029
1070
1119
1170
1216
1254
1267
1244
1177
1079
983
913
892
900
918
923
915
907
896
887
882
881
875
878
880
883
886
886
883
876
880
887
894
900
907
915
925
938
952
959
969
975
978
984
988
991
990
989
990
988
993
993
993
997
997
999
1000
1007
1007
1005
1002
1001
1006
1017
1019
1019
1018
1019
1022
1031
1032
1029
1030
1036
1042
1049
1048
1046
1048
1054
1060
1066
1064
1063
1067
1073
1080
1087
1090
1090
1085
1084
1086
1089
1086
1081
1076
1074
1070
1069
1063
1061
1059
1057
1052
1045
1036
1029
1022
1022
1022
1024
1019
1015
1008
1005
1001
998
996
992
991
991
995
992
986
986
982
983
984
989
986
982
986
992
992
995
993
987
984
984
992
997
997
993
991
991
996
998
995
994
991
990
997
1001
1000
998
996
993
996
998
997
997
998
1001
1000
1000
998
996
993
995
996
1003
1011
1016
1016
1017
1017
1020
1025
1025
1025
1032
1039
1049
1050
1047
1041
1042
1044
1048
1045
1043
1039
1036
1035
1030
1019
1008
1000
999
1002
1006
997
995
988
991
993
1000
997
992
986
983
983
986
994
994
989
986
984
985
984
985
989
998
1003
1008
1002
995
992
994
1003
1008
1020
1032
1051
1078
1121
1170
1220
1269
1309
1324
1310
1253
1161
1064
986
939
933
950
961
954
943
939
940
934
931
922
920
923
927
929
927
922
922
926
937
948
950
951
957
972
989
1003
1016
1023
1026
1027
1035
1041
1046
1050
1049
1043
1045
1045
1043
1043
1042
1045
1053
1058
1062
1060
1059
1057
1057
1064
1063
1065
1065
1069
1077
1084
1084
1080
1078
1078
1083
1088
1093
1093
1094
1101
1107
1113
1115
1109
1111
1116
1122
1126
1125
1123
1125
1128
1132
1135
1132
1127
1121
1117
1117
1115
1109
1099
1090
1087
1082
1084
1080
1071
1065
1060
1059
1052
1046
1041
1036
1035
1035
1036
1032
1026
1019
1020
1019
1020
1018
1015
1012
1014
1012
1016
1013
1009
1004
1010
1015
1017
1013
1011
1012
1012
1015
1015
1010
1008
1005
1008
1016
1021
1018
1012
1012
1011
1013
1016
1017
1016
1016
1015
1016
1018
1016
1014
1019
1016
1016
1020
1016
1012
1009
1009
1005
1007
1008
1009
1011
1009
1015
1019
1018
1022
1025
1028
1031
1037
1041
1043
1044
1048
1049
1057
1063
1066
1059
1062
1061
1063
1061
1056
1050
1045
1041
1032
1024
1014
1013
1012
1014
1015
1012
1002
992
991
992
997
997
995
994
993
996
998
990
988
984
987
995
1001
1002
1000
996
994
996
999
998
1000
1003
1007
1014
1024
1038
1059
1084
1125
1165
1212
1256
1289
1310
1305
1266
1198
1107
1021
959
931
934
948
954
949
943
936
934
923
920
914
918
922
928
933
927
922
917
922
934
948
958
960
961
966
973
988
999
1005
1011
1018
1028
1031
1032
1030
1029
1029
1034
1039
1035
1036
1038
1044
1046
1048
1048
1047
1044
1044
1048
1055
1056
1056
1055
1055
1062
1068
1069
1064
1062
1063
1071
1078
1081
1080
1081
1082
1083
1084
1084
1088
1090
1094
1100
1107
1111
1111
1111
1112
1113
1117
1117
1117
1117
1115
1115
1118
1113
1105
1094
1096
1094
1092
1088
1080
1073
1074
1071
1062
1053
1045
1040
1041
1041
1039
1033
1030
1022
1019
1017
1019
1014
1009
1008
1010
1010
1010
1008
1005
1001
1001
1004
1006
1006
1004
1001
1000
999
999
1000
997
999
1005
1009
1005
1006
1004
1003
1002
999
1000
1002
1004
1004
1007
1009
1011
1010
1006
1004
1003
1007
1008
1009
1008
1005
1005
1008
1009
1005
999
995
999
1003
1012
1013
1008
1005
997
993
995
994
993
996
1001
1007
1012
1013
1011
1013
1016
1018
1025
1028
1031
1032
1034
1041
1045
1047
1047
1047
1047
1049
1049
1046
1040
1035
1022
1015
1013
1008
1005
1001
999
1001
997
992
984
986
981
984
990
988
989
986
978
979
980
977
977
977
980
983
979
978
976
974
976
979
983
983
987
987
994
1002
1018
1035
1062
1097
1143
1194
1245
1285
1304
1288
1227
1146
1052
969
919
907
921
935
937
929
922
912
905
905
903
905
908
913
914
911
907
901
896
898
905
922
934
943
949
957
968
981
986
988
987
991
1000
1011
1011
1006
1002
1005
1012
1012
1016
1012
1009
1013
1020
1023
1023
1023
1018
1020
1024
1026
1029
1031
1034
1032
1039
1040
1042
1042
1041
1040
1042
1054
1060
1066
1067
1063
1061
1063
1064
1059
1058
1061
1067
1074
1078
1077
1077
1078
1079
1084
1089
1088
1085
1081
1079
1078
1073
1069
1063
1057
1054
1052
1049
1044
1034
1029
1024
1024
1023
1015
1010
1012
1016
1015
1002
985
976
971
977
981
984
984
984
984
981
976
973
970
968
970
976
979
984
980
972
967
969
972
976
975
976
975
977
981
981
978
971
969
970
978
980
983
985
983
985
984
983
976
973
971
974
979
979
976
972
970
970
969
972
971
974
972
973
968
967
966
965
967
966
969
972
971
974
979
982
988
989
989
988
990
994
1000
1006
1016
1013
1014
1012
1013
1014
1011
1004
1003
1001
1001
1001
991
980
967
959
957
957
957
957
955
956
958
957
954
949
944
946
951
954
953
954
950
952
957
960
956
952
948
948
951
957
958
956
961
962
961
962
963
967
977
995
1025
1062
1107
1153
1199
1242
1266
1263
1217
1138
1046
964
909
891
902
914
915
909
904
903
899
894
885
884
890
894
892
889
885
882
877
881
884
892
899
906
914
920
925
931
946
963
977
984
982
979
982
987
993
997
999
1004
1001
1003
1005
1006
1006
1004
1006
1009
1016
1021
1019
1015
1017
1019
1021
1022
1023
1021
1024
1034
1038
1041
1041
1040
1041
1042
1047
1050
1051
1052
1052
1058
1065
1069
1069
1071
1070
1070
1076
1084
1083
1082
1085
1084
1086
1088
1086
1083
1082
1083
1085
1082
1075
1069
1061
1054
1048
1044
1039
1034
1031
1026
1026
1025
1019
1011
1003
1001
1000
1000
999
994
989
989
986
985
981
977
976
971
978
981
981
982
980
976
979
983
985
981
982
984
990
994
992
988
984
986
986
989
987
986
984
986
991
995
994
989
982
984
989
995
997
994
988
986
984
981
982
979
979
983
988
993
989
983
977
974
980
982
983
980
981
983
989
989
986
980
982
986
992
996
1000
1004
1008
1015
1020
1027
1030
1024
1018
1019
1028
1038
1042
1039
1037
1039
1040
1040
1034
1023
1020
1017
1017
1014
1009
1001
992
989
989
991
987
982
980
980
982
985
981
975
976
974
979
986
983
978
974
975
978
986
984
984
979
979
986
990
993
996
994
996
1006
1023
1051
1088
1130
1178
1232
1274
1303
1306
1278
1208
1120
1038
969
932
925
936
946
943
935
929
927
924
918
917
915
911
909
910
912
913
911
908
905
915
929
939
947
952
957
969
985
1003
1012
1014
1011
1013
1019
1024
1024
1021
1022
1028
1031
1036
1037
1035
1038
1037
1040
1042
1041
1041
1041
1046
1050
1053
1051
1050
1048
1048
1052
1056
1058
1058
1060
1064
1066
1072
1072
1072
1072
1075
1085
1093
1094
1099
1099
1096
1099
1101
1101
1104
1101
1110
1119
1123
1122
1114
1108
1105
1112
1113
1107
1099
1095
1091
1088
1086
1080
1068
1060
1058
1061
1060
1055
1050
1046
1041
1037
1032
1029
1026
1026
1024
1021
1018
1016
1016
1013
1011
1009
1009
1010
1010
1011
1010
1012
1013
1009
1002
1001
1002
1005
1009
1010
1007
1009
1010
1012
1010
1004
999
999
1001
1006
1011
1009
1007
1006
1008
1013
1019
1017
1009
1004
1011
1013
1012
1007
1010
1008
1007
1013
1016
1013
1012
1012
1016
1018
1019
1010
998
996
997
1006
1004
1006
1002
999
1001
1007
1017
1020
1023
1022
1022
1023
1025
1025
1026
1031
1039
1043
1050
1053
1050
1048
1047
1046
1051
1049
1046
1038
1028
1020
1011
1003
996
991
988
994
998
998
993
988
984
986
984
982
982
982
984
986
988
985
981
978
983
989
995
992
990
990
992
992
995
999
1002
1014
1036
1067
1104
1150
1198
1249
1288
1319
1309
1253
1158
1060
979
934
929
942
950
950
942
938
932
928
924
918
910
905
907
912
911
908
907
918
928
935
940
946
954
972
992
1004
1009
1010
1005
1009
1014
1014
1018
1021
1025
1029
1036
1038
1038
1038
1039
1044
1050
1050
1049
1043
1045
1049
1055
1055
1056
1057
1061
1064
1069
1071
1070
1068
1069
1072
1078
1083
1085
1088
1091
1093
1095
1094
1097
1094
1098
1103
1110
1109
1109
1106
1106
1106
1105
1104
1102
1098
1093
1092
1088
1079
1073
1065
1061
1058
1057
1050
1044
1036
1031
1028
1028
1024
1014
1012
1008
1009
1006
1001
996
990
990
989
997
996
993
988
990
991
992
993
991
988
989
995
1000
1000
993
990
988
993
997
997
992
989
990
998
1001
998
991
984
986
990
997
998
993
988
986
991
993
992
987
984
984
985
987
983
982
975
978
979
983
980
979
976
978
978
980
977
972
971
974
977
982
978
980
977
976
980
987
992
996
997
1002
1003
1008
1008
1009
1012
1015
1027
1036
1036
1031
1028
1024
1023
1026
1025
1018
1013
1003
993
987
980
970
969
969
968
973
971
966
962
962
962
961
961
960
957
955
954
955
954
952
950
954
956
960
963
960
960
965
969
973
973
973
982
1005
1034
1074
1120
1169
1214
1251
1268
1251
1188
1091
991
921
895
902
916
916
907
902
899
893
884
877
877
882
885
887
883
880
875
875
882
892
902
906
907
918
933
944
957
963
966
968
975
980
979
981
985
991
996
997
998
993
993
996
996
1002
1000
999
997
1001
1003
1005
1005
1007
1012
1017
1021
1020
1021
1022
1023
1023
1026
1033
1039
1042
1043
1045
1047
1047
1054
1053
1055
1062
1067
1071
1071
1069
1065
1065
1065
1067
1064
1058
1052
1047
1048
1047
1041
1034
1025
1019
1014
1010
1007
999
993
985
980
982
979
976
970
969
968
970
964
958
956
955
959
960
960
959
954
956
957
959
958
958
956
957
960
965
962
960
960
958
958
956
953
951
951
956
957
955
951
951
954
955
960
961
960
955
953
952
952
956
953
953
950
953
954
955
955
954
952
956
959
959
956
954
949
956
960
965
968
968
971
977
981
980
980
979
984
991
1001
1009
1012
1011
1005
1003
1005
1003
995
987
982
981
974
971
960
951
949
949
954
956
954
953
950
946
943
943
945
941
941
947
949
952
951
946
947
948
949
959
964
959
964
963
970
980
996
1016
1042
1089
1146
1204
1247
1269
1260
1204
1119
1028
947
901
894
906
918
920
911
899
896
891
889
892
894
891
888
888
886
885
883
887
894
902
914
922
926
930
935
954
971
984
984
987
989
988
995
997
997
1000
1005
1009
1015
1018
1015
1010
1006
1007
1015
1019
1019
1021
1023
1027
1030
1033
1036
1036
1035
1041
1047
1054
1054
1052
1051
1057
1064
1070
1072
1068
1068
1073
1076
1080
1081
1081
1083
1086
1091
1097
1101
1100
1093
1090
1092
1095
1093
1086
1076
1070
1067
1064
1054
1048
1039
1035
1035
1035
1030
1023
1018
1012
1008
1009
1005
1001
998
997
997
996
992
985
982
983
985
992
993
990
986
985
982
984
980
977
976
981
984
988
986
979
980
983
986
989
984
986
983
986
990
987
983
981
983
986
988
990
988
982
977
979
984
984
989
984
978
982
983
988
989
985
985
983
982
984
983
982
980
979
983
987
990
987
986
989
998
1003
1002
999
999
1005
1015
1025
1024
1029
1028
1024
1026
1026
1027
1027
1020
1017
1012
1007
994
986
978
979
979
981
977
973
969
969
971
973
972
970
963
965
966
966
968
966
962
960
962
967
970
969
967
968
970
972
973
974
980
998
1021
1053
1091
1136
1185
1235
1277
1292
1265
1189
1090
995
934
909
909
916
919
917
915
911
897
885
876
878
886
894
892
888
885
885
888
896
902
905
911
920
931
946
958
969
975
982
987
991
987
984
987
993
999
1003
1003
999
996
1000
1007
1011
1018
1013
1014
1012
1012
1015
1016
1013
1016
1018
1022
1026
1028
1024
1027
1033
1039
1043
1045
1042
1044
1050
1056
1059
1059
1058
1059
1063
1066
1071
1071
1070
1072
1076
1076
1080
1082
1080
1073
1077
1077
1074
1066
1059
1052
1046
1041
1038
1033
1030
1023
1022
1018
1015
1009
1001
997
997
997
992
990
985
979
979
979
980
980
979
979
976
974
975
972
971
971
974
980
983
982
980
979
977
976
975
973
969
969
976
984
987
986
981
979
975
976
982
983
980
978
979
980
982
979
978
977
979
983
984
983
980
978
978
980
983
981
981
981
982
984
986
983
979
974
975
981
984
982
981
982
986
987
990
993
996
995
1000
1003
1008
1008
1011
1013
1016
1022
1027
1034
1033
1032
1031
1035
1040
1039
1032
1026
1023
1018
1016
1008
1005
997
992
991
990
986
981
980
981
983
986
988
982
974
974
975
977
977
972
972
974
974
977
977
973
972
971
975
980
986
988
989
991
1006
1026
1053
1092
1139
1192
1243
1278
1289
1258
1185
1094
1012
951
923
925
935
941
935
926
913
905
897
897
899
905
906
905
901
901
899
905
905
912
918
929
939
944
953
964
974
986
995
1001
1002
1000
1004
1005
1007
1007
1005
1006
1006
1010
1016
1020
1018
1019
1018
1018
1022
1026
1026
1026
1027
1027
1031
1034
1032
1029
1032
1037
1041
1042
1047
1048
1046
1050
1052
1059
1061
1060
1062
1064
1070
1077
1075
1076
1078
1082
1085
1084
1082
1077
1077
1074
1075
1075
1071
1063
1055
1052
1050
1050
1044
1038
1024
1019
1016
1015
1008
1003
998
999
996
992
986
978
973
970
972
973
973
967
964
962
963
964
961
960
954
958
959
959
956
952
951
952
953
958
961
956
954
956
959
960
959
958
953
952
957
959
959
960
957
956
957
957
957
957
956
957
958
960
958
952
952
952
954
955
955
952
950
947
953
954
950
947
944
943
949
952
953
954
955
957
963
968
969
970
970
972
977
984
984
987
989
991
995
999
998
995
994
992
1001
999
992
983
970
965
960
957
953
951
946
945
947
949
945
937
931
929
933
938
939
935
934
933
935
933
931
929
929
930
936
939
938
938
935
932
935
942
942
942
943
951
968
988
1014
1042
1079
1125
1174
1216
1241
1238
1200
1134
1055
982
915
876
869
886
898
899
892
885
877
871
862
857
856
860
862
862
861
859
852
847
846
855
863
870
874
880
888
898
913
926
933
938
941
948
954
961
962
962
964
967
968
971
972
973
972
976
977
984
983
983
984
987
989
993
995
993
994
1000
1004
1005
1005
1008
1007
1011
1015
1019
1021
1024
1022
1026
1033
1036
1040
1039
1039
1041
1047
1054
1055
1056
1055
1057
1061
1065
1061
1059
1057
1059
1064
1065
1063
1058
1050
1045
1042
1041
1035
1027
1022
1021
1020
1017
1009
1002
993
991
987
987
983
979
974
972
970
969
967
963
956
958
961
965
963
956
955
957
955
959
958
955
956
959
963
967
966
959
955
955
959
964
966
963
963
964
964
965
964
960
962
965
967
971
971
968
964
966
966
966
963
965
965
964
969
971
972
970
964
962
966
971
973
968
966
966
971
972
