964
958
953
950
953
954
950
946
939
936
938
940
942
937
936
932
931
934
933
931
931
935
937
940
938
935
932
930
936
938
941
937
934
933
933
939
939
933
934
936
938
941
938
934
932
930
932
938
937
935
932
930
929
931
933
934
933
937
941
949
949
947
949
953
956
963
965
969
972
976
978
982
985
982
982
979
978
974
965
955
943
938
935
936
932
926
923
917
916
919
920
918
913
911
912
915
913
910
909
912
914
917
914
913
909
913
917
924
924
924
926
936
952
977
1013
1063
1117
1171
1211
1225
1190
1111
1012
922
871
861
869
881
878
867
861
856
845
839
836
838
842
842
841
832
828
825
831
841
853
860
865
874
888
903
919
925
932
937
944
949
950
950
944
949
957
962
960
960
955
956
962
964
968
967
970
971
977
977
976
976
976
979
984
993
993
992
993
996
1000
1007
1009
1013
1015
1020
1024
1031
1031
1031
1028
1034
1043
1050
1052
1051
1049
1048
1048
1051
1051
1046
1043
1037
1037
1036
1031
1021
1014
1011
1014
1012
1008
999
992
984
982
983
981
973
972
970
970
969
962
959
955
954
959
962
961
957
956
954
957
960
958
955
952
953
958
962
956
955
955
952
955
960
960
962
959
958
958
963
962
961
958
958
962
966
963
957
955
957
958
963
965
965
965
962
964
967
963
961
960
965
971
976
979
978
979
979
985
991
997
999
1001
1005
1011
1018
1017
1016
1014
1015
1015
1019
1018
1011
1005
997
990
985
978
973
968
966
964
965
962
956
955
951
954
956
956
953
949
949
948
950
951
948
947
945
952
956
954
951
952
951
956
963
969
969
977
992
1019
1057
1100
1152
1205
1253
1285
1282
1237
1150
1052
962
903
881
887
895
895
889
885
880
871
868
859
861
868
874
869
864
861
855
859
866
876
885
891
903
915
930
941
949
957
967
973
981
983
980
978
977
981
989
989
991
990
991
996
999
997
994
991
993
1000
1007
1007
1009
1006
1010
1009
1011
1013
1015
1014
1017
1023
1028
1029
1031
1031
1032
1038
1048
1051
1052
1054
1058
1062
1069
1069
1068
1070
1074
1079
1087
1086
1085
1083
1081
1083
1084
1080
1075
1071
1066
1062
1059
1050
1041
1036
1029
1026
1026
1023
1018
1008
1004
1003
1002
995
991
984
985
987
986
986
977
975
969
973
975
970
971
969
969
969
970
967
967
967
967
971
975
973
972
970
967
968
973
972
971
971
969
972
971
970
969
967
967
972
977
978
973
974
974
975
978
977
975
972
975
977
978
975
975
970
971
971
977
976
977
973
975
977
977
980
980
981
989
994
999
1005
1004
999
1002
1008
1018
1018
1020
1024
1028
1035
1039
1036
1032
1028
1028
1029
1027
1023
1018
1005
997
991
989
988
980
976
976
978
980
978
974
969
966
966
969
972
969
967
968
971
973
970
967
966
970
975
977
976
975
974
974
977
983
989
1000
1014
1041
1073
1115
1159
1205
1243
1281
1299
1289
1242
1162
1074
994
938
916
912
916
918
917
915
915
904
895
890
888
890
894
894
891
887
886
889
894
899
903
910
919
934
947
958
969
981
990
999
1002
1006
1005
1005
1007
1013
1019
1017
1016
1017
1018
1023
1027
1029
1029
1027
1029
1032
1037
1034
1032
1031
1033
1039
1043
1046
1046
1046
1045
1048
1055
1052
1054
1055
1058
1064
1070
1071
1072
1072
1077
1083
1090
1094
1094
1094
1099
1102
1106
1107
1102
1102
1105
1107
1115
1111
1105
1098
1091
1091
1088
1086
1077
1073
1067
1064
1060
1054
1047
1041
1035
1033
1036
1032
1027
1021
1016
1014
1012
1010
1003
1002
1000
1003
1001
1002
997
989
991
993
996
995
993
992
990
993
995
993
990
989
989
995
998
997
993
994
992
995
999
999
998
996
995
998
1001
999
997
995
997
999
1003
1004
1003
1000
999
998
1001
1002
999
999
998
1002
1002
1002
1000
997
995
999
1006
1005
1002
1001
1004
1009
1013
1018
1019
1022
1025
1032
1038
1040
1041
1042
1044
1051
1057
1060
1060
1058
1052
1053
1055
1047
1043
1033
1028
1019
1019
1012
1003
1002
998
998
996
999
997
995
994
995
997
994
990
987
985
990
995
995
991
987
990
989
994
994
996
999
998
1002
1009
1012
1018
1036
1060
1099
1139
1187
1229
1269
1293
1292
1252
1177
1095
1021
963
940
945
955
955
947
938
933
928
927
916
915
914
916
916
912
905
904
907
914
924
931
938
944
952
964
982
995
1005
1010
1013
1015
1019
1021
1022
1021
1024
1029
1034
1034
1032
1029
1028
1034
1040
1040
1038
1039
1042
1045
1047
1043
1043
1041
1047
1052
1058
1057
1058
1056
1058
1061
1066
1065
1067
1070
1073
1079
1083
1084
1084
1082
1084
1086
1097
1097
1099
1098
1099
1105
1107
1107
1102
1106
1104
1105
1106
1101
1094
1085
1080
1078
1076
1070
1068
1060
1056
1055
1052
1048
1040
1034
1031
1030
1031
1028
1024
1020
1013
1013
1014
1013
1009
1002
1003
1006
1008
1006
1002
997
995
999
1003
1004
1001
1000
999
999
1001
1001
998
999
998
1003
1008
1007
1005
1001
995
998
1004
1002
1001
1000
999
1003
1008
1005
1003
998
998
1003
1006
1006
1006
1003
999
999
998
997
999
1000
1000
1000
1001
1001
998
995
994
1005
1011
1015
1017
1015
1019
1023
1026
1029
1028
1029
1035
1043
1053
1052
1052
1050
1049
1050
1048
1044
1038
1031
1028
1027
1019
1012
1004
993
991
991
994
993
989
984
984
985
984
983
979
976
974
976
980
980
975
973
970
975
976
976
978
978
979
981
985
986
983
983
990
1002
1022
1040
1070
1108
1155
1205
1248
1276
1272
1234
1157
1078
1007
950
925
923
935
940
937
932
922
913
907
905
905
903
903
904
901
901
901
897
898
901
908
918
928
941
951
962
974
985
989
994
997
998
1003
1008
1013
1017
1014
1012
1013
1015
1017
1018
1019
1018
1019
1025
1027
1027
1025
1022
1021
1026
1031
1037
1034
1030
1032
1033
1038
1040
1042
1043
1048
1055
1058
1060
1058
1059
1060
1065
1075
1074
1076
1075
1077
1079
1082
1082
1084
1083
1085
1087
1090
1084
1080
1072
1069
1068
1067
1067
1061
1054
1048
1044
1040
1038
1031
1026
1023
1023
1022
1017
1009
1007
1002
1001
1005
1002
1000
996
993
992
995
995
994
989
990
994
996
995
993
988
990
992
998
996
998
993
991
994
997
997
997
996
998
1000
1003
997
995
994
994
997
1002
1003
1001
999
999
998
1001
1002
1003
1006
1009
1016
1022
1023
1023
1022
1029
1034
1037
1043
1047
1047
1048
1049
1052
1051
1047
1043
1041
1040
1037
1029
1015
1002
998
997
996
995
991
988
984
984
985
979
973
969
972
975
976
977
970
969
965
970
974
973
971
970
971
975
978
978
975
977
980
990
1003
1020
1041
1076
1118
1167
1217
1253
1274
1258
1202
1121
1039
965
918
906
915
929
933
925
916
907
898
896
893
893
892
892
890
892
892
888
885
885
892
902
916
923
930
941
954
968
982
984
992
991
993
1000
1005
1008
1007
1005
1004
1011
1012
1014
1012
1012
1013
1015
1022
1021
1019
1019
1019
1024
1032
1030
1031
1030
1030
1032
1035
1038
1039
1042
1042
1048
1051
1050
1055
1055
1059
1063
1069
1075
1076
1075
1075
1080
1086
1085
1087
1082
1088
1089
1091
1089
1080
1075
1073
1072
1072
1067
1059
1051
1049
1045
1043
1039
1032
1026
1023
1022
1021
1015
1004
1003
1001
999
998
995
990
990
986
986
988
987
986
984
984
988
988
990
984
984
982
986
991
991
987
987
986
984
988
989
986
987
990
991
992
992
987
986
989
992
994
995
997
997
999
1004
1011
1015
1014
1017
1022
1025
1036
1036
1036
1038
1042
1044
1049
1049
1049
1041
1034
1032
1031
1023
1013
1005
998
994
992
988
984
979
979
981
984
982
975
972
967
971
975
975
974
972
972
976
976
978
971
971
976
982
987
987
986
987
998
1021
1050
1091
1137
1184
1233
1269
1275
1231
1145
1049
967
922
913
922
927
925
916
912
907
902
896
894
894
898
900
897
893
890
891
902
914
921
926
931
942
958
975
986
996
998
1001
1005
1010
1011
1010
1010
1013
1018
1020
1020
1016
1013
1017
1021
1023
1026
1027
1025
1024
1028
1030
1031
1031
1034
1031
1040
1044
1044
1044
1042
1044
1051
1057
1061
1063
1060
1059
1066
1073
1075
1077
1078
1078
1084
1090
1091
1086
1084
1086
1088
1089
1085
1079
1074
1066
1065
1063
1059
1052
1047
1042
1039
1039
1032
1021
1017
1015
1014
1015
1012
1008
1000
997
997
996
994
992
990
990
994
994
992
987
984
984
980
988
986
984
982
980
982
985
986
988
985
986
987
989
986
983
981
980
984
988
988
986
982
982
985
986
984
986
986
989
994
999
1001
997
998
1001
1007
1014
1020
1021
1019
1022
1027
1032
1032
1031
1033
1029
1032
1031
1025
1015
1005
1000
995
992
984
978
973
969
965
965
962
959
956
955
956
956
955
950
950
948
949
953
954
954
949
947
949
956
954
955
956
955
960
966
969
979
997
1028
1072
1123
1173
1217
1245
1242
1191
1099
996
919
883
886
899
907
900
887
884
873
876
877
876
875
867
863
862
863
863
867
873
883
894
905
910
920
934
948
959
967
967
965
964
964
967
973
977
978
978
977
979
982
982
983
982
983
988
991
988
988
989
992
997
1004
1006
1001
1002
1003
1011
1016
1021
1021
1024
1025
1029
1035
1036
1037
1038
1047
1052
1057
1057
1055
1047
1046
1050
1053
1049
1046
1040
1034
1032
1028
1017
1009
1004
1001
999
998
991
982
970
967
967
969
965
958
954
949
947
946
944
946
940
942
943
944
940
939
938
937
940
944
947
943
939
937
940
942
940
943
942
943
948
947
944
941
938
941
947
950
949
945
944
942
946
950
954
955
954
960
966
968
967
968
968
974
981
989
994
996
994
993
995
997
997
996
994
990
986
980
970
958
949
950
951
955
950
942
939
938
939
941
942
940
938
939
935
937
938
934
934
936
942
948
948
946
943
944
945
953
954
956
963
977
1003
1038
1078
1129
1180
1227
1256
1257
1211
1125
1024
936
884
872
882
894
891
880
874
869
859
853
852
859
860
867
861
857
850
851
857
870
879
888
899
911
922
936
948
958
962
968
974
982
985
982
982
983
987
990
994
996
996
996
1000
1005
1003
1002
1002
1001
1008
1015
1013
1012
1014
1015
1020
1024
1027
1029
1029
1034
1038
1046
1044
1047
1048
1053
1059
1064
1068
1068
1068
1072
1076
1080
1084
1083
1084
1084
1086
1087
1082
1079
1074
1073
1070
1066
1061
1051
1039
1032
1026
1026
1021
1015
1010
1006
1003
998
993
988
980
974
977
979
976
973
968
963
966
967
967
965
965
961
964
967
965
962
962
963
965
969
972
971
964
964
968
970
971
969
969
967
971
971
971
969
967
968
972
973
976
972
967
969
972
977
980
986
988
987
993
996
999
999
1003
1011
1015
1023
1023
1020
1018
1017
1019
1018
1019
1018
1009
1003
997
988
983
974
969
969
971
973
967
962
958
956
956
962
961
960
956
953
953
955
954
955
954
954
956
962
958
957
957
957
967
975
983
993
1009
1039
1084
1136
1191
1244
1281
1292
1265
1198
1098
997
925
882
880
893
902
894
886
878
872
869
866
866
867
866
867
866
864
859
863
873
891
902
916
926
935
949
962
973
976
980
982
984
991
996
993
989
989
992
996
1001
1005
1003
1003
1003
1007
1010
1010
1009
1008
1012
1016
1022
1024
1020
1020
1020
1027
1033
1038
1040
1042
1045
1048
1051
1056
1058
1060
1067
1071
1078
1080
1081
1081
1083
1087
1095
1096
1095
1095
1096
1099
1098
1093
1088
1081
1075
1074
1072
1061
1053
1044
1037
1032
1031
1027
1021
1015
1007
1006
1003
997
992
988
986
989
988
988
984
979
974
975
979
979
975
969
971
974
977
975
970
971
973
975
979
976
976
976
977
976
983
979
978
978
980
981
984
980
977
977
978
984
989
987
984
978
977
981
984
984
983
980
980
980
982
983
980
978
977
982
985
981
981
976
977
982
991
993
998
1000
1000
1003
1006
1007
1009
1010
1018
1028
1034
1039
1035
1031
1029
1033
1035
1034
1032
1027
1021
1015
1006
995
988
985
983
982
984
984
979
973
970
973
975
975
969
968
966
969
973
971
966
962
965
970
975
974
972
969
969
973
975
981
982
990
1000
1020
1049
1085
1131
1179
1232
1277
1305
1295
1237
1140
1035
951
907
895
904
914
913
909
899
894
881
875
877
880
885
885
883
878
874
878
887
896
906
917
930
945
958
969
976
981
987
994
1000
1000
1001
1003
999
1005
1009
1010
1011
1011
1013
1018
1020
1021
1019
1018
1018
1018
1027
1030
1029
1028
1032
1035
1040
1039
1039
1038
1045
1054
1059
1061
1055
1061
1062
1067
1077
1082
1082
1084
1086
1091
1097
1097
1095
1099
1100
1105
1110
1107
1102
1097
1094
1094
1094
1088
1080
1073
1071
1067
1062
1055
1046
1041
1036
1036
1035
1030
1020
1014
1012
1011
1013
1012
1006
1004
1001
999
999
996
994
993
994
998
1000
998
994
993
990
996
1000
1001
998
1000
1000
1000
1001
997
996
996
996
1004
1008
1008
1008
1003
1000
1003
1006
1010
1009
1007
1008
1005
1010
1010
1009
1005
1005
1009
1012
1006
1008
1002
1004
1005
1008
1008
1009
1005
1006
1010
1010
1008
1005
1003
1005
1012
1016
1013
1011
1010
1014
1023
1030
1035
1034
1034
1038
1042
1047
1051
1049
1055
1060
1065
1067
1067
1065
1062
1057
1057
1053
1049
1036
1030
1023
1019
1018
1014
1008
1004
1004
1006
1007
1005
1003
1001
995
997
996
995
993
997
997
999
997
1000
995
995
996
1002
1005
1008
1006
1006
1009
1013
1024
1037
1051
1080
1119
1167
1219
1265
1302
1317
1297
1236
1149
1058
984
946
940
952
959
956
947
936
928
926
922
922
921
918
915
918
921
915
913
909
922
934
946
951
961
970
984
1000
1017
1023
1024
1022
1025
1029
1033
1034
1035
1038
1038
1041
1043
1040
1039
1035
1041
1047
1050
1050
1050
1050
1048
1051
1055
1058
1053
1053
1057
1063
1067
1069
1066
1065
1067
1070
1076
1080
1082
1081
1080
1084
1090
1088
1088
1089
1093
1099
1106
1109
1107
1102
1104
1108
1113
1116
1112
1109
1107
1105
1106
1102
1095
1086
1083
1082
1085
1079
1069
1061
1056
1054
1052
1051
1045
1042
1036
1036
1035
1030
1023
1020
1017
1019
1017
1018
1017
1012
1007
1007
1009
1007
1005
1003
1006
1007
1008
1007
1004
1000
999
1003
1008
1008
1007
1002
1003
1006
1009
1007
1007
1004
1004
1007
1013
1013
1011
1005
1004
1008
1011
1009
1008
1008
1009
1012
1012
1008
1005
1002
1001
1006
1011
1011
1008
1005
1003
1003
1006
1002
1002
1002
1006
1007
1008
1007
1003
999
999
1003
1011
1016
1018
1018
1022
1026
1029
1030
1032
1031
1039
1044
1051
1052
1054
1052
1053
1055
1060
1058
1054
1049
1044
1036
1032
1023
1014
1007
1004
1004
1006
1001
995
988
987
989
992
992
990
985
982
986
986
985
982
978
978
982
986
985
983
983
981
983
987
988
989
989
996
1009
1029
1051
1082
1120
1168
1220
1264
1285
1274
1229
1146
1059
987
939
923
930
941
946
941
930
920
912
902
899
899
904
906
898
895
894
894
889
890
894
906
921
933
939
947
955
963
975
986
992
993
992
998
999
1004
1002
1001
997
996
1000
1009
1011
1012
1010
1009
1012
1016
1017
1014
1010
1013
1016
1017
1017
1014
1015
1018
1019
1025
1029
1029
1026
1026
1028
1032
1035
1036
1037
1040
1046
1051
1052
1051
1048
1052
1055
1062
1065
1061
1063
1064
1066
1069
1065
1063
1058
1053
1054
1051
1048
1041
1031
1028
1020
1022
1020
1015
1008
1007
1003
999
993
988
984
982
983
979
978
972
967
965
965
969
969
965
964
962
966
967
964
961
958
959
961
964
965
963
960
960
958
960
958
955
957
962
965
968
963
958
957
958
959
963
964
963
958
959
957
959
958
956
952
955
958
958
958
955
951
952
956
957
958
953
950
953
952
960
960
961
962
969
975
980
977
978
975
976
987
993
1000
1001
1002
1004
1007
1008
1007
1002
999
994
992
989
981
971
960
955
954
954
947
947
945
944
943
943
942
938
934
933
937
940
936
936
932
928
934
933
937
935
931
936
940
942
941
939
938
938
950
957
972
992
1019
1061
1114
1164
1208
1235
1239
1212
1153
1070
987
919
886
881
892
900
898
887
880
875
869
866
861
859
857
858
861
860
859
854
847
846
855
866
876
881
890
901
913
929
943
948
953
957
960
966
970
974
972
973
978
980
979
978
978
981
984
989
990
988
987
986
991
996
997
996
995
998
1002
1006
1010
1007
1004
1006
1012
1018
1024
1023
1024
1025
1030
1035
1036
1039
1043
1044
1050
1057
1056
1059
1055
1057
1065
1069
1071
1068
1066
1062
1061
1061
1059
1052
1048
1041
1043
1041
1035
1028
1018
1015
1012
1013
1010
1003
999
996
995
993
989
986
983
981
983
984
983
977
973
970
975
978
978
976
976
974
979
980
980
976
975
977
979
983
984
985
982
980
982
985
987
984
982
984
986
991
989
986
984
983
987
990
990
989
989
988
989
990
989
985
984
985
989
993
990
989
984
985
987
991
994
994
997
999
1004
1007
1008
1007
1008
1011
1019
1027
1030
1030
1031
1033
1038
1043
1043
1043
1040
1040
1042
1043
1035
1025
1012
1006
1002
1002
997
991
989
987
989
989
986
985
982
981
980
981
979
979
976
971
974
979
981
978
979
976
982
985
981
979
980
985
987
998
1000
1004
1012
1030
1058
1100
1149
1192
1243
1284
1312
1301
1248
1163
1068
988
939
927
933
941
941
934
927
921
915
906
904
908
911
916
912
905
899
895
899
909
917
925
930
940
953
966
975
988
994
1003
1010
1016
1018
1018
1016
1017
1021
1026
1028
1030
1032
1032
1036
1036
1039
1037
1036
1037
1043
1048
1046
1045
1044
1045
1047
1050
1050
1053
1055
1059
1064
1065
1067
1066
1063
1068
1075
1082
1084
1084
1085
1086
1091
1095
1097
1099
1099
1103
1112
1114
1116
1111
1112
1112
1108
1112
1110
1105
1099
1092
1090
1088
1083
1077
1070
1068
1063
1064
1058
1050
1043
1042
1041
1041
1038
1035
1032
1026
1025
1023
1019
1017
1014
1013
1017
1021
1019
1015
1010
1006
1010
1015
1013
1011
1012
1012
1011
1012
1010
1012
1009
1010
1017
1020
1022
1020
1013
1014
1014
1019
1019
1019
1017
1018
1021
1024
1021
1018
1014
1014
1018
1024
1023
1018
1020
1015
1016
1019
1016
1015
1010
1015
1015
1019
1014
1015
1014
1015
1020
1027
1034
1033
1036
1033
1038
1042
1048
1049
1051
1056
1065
1069
1069
1067
1064
1060
1069
1069
1069
1060
1053
1047
1038
1032
1027
1021
1017
1015
1016
1017
1013
1008
1005
1003
1001
1007
1006
1002
1001
998
998
998
997
997
996
998
999
1005
1004
1002
999
1001
1006
1013
1019
1028
1042
1066
1103
1146
