1001
1000
999
1000
1004
1007
1007
1009
1010
1016
1020
1024
1027
1025
1023
1026
1034
1038
1041
1043
1041
1046
1053
1057
1058
1054
1052
1054
1058
1063
1060
1057
1052
1048
1046
1043
1036
1030
1024
1022
1022
1018
1009
1001
994
991
990
989
983
981
975
973
971
968
965
960
953
952
957
961
955
951
944
945
945
951
950
946
942
946
951
952
948
944
942
943
947
951
949
947
946
944
947
948
945
944
944
945
950
953
950
945
942
944
947
949
949
947
944
944
949
948
946
943
943
942
947
950
949
943
940
943
945
950
949
952
952
956
965
970
970
967
965
967
971
980
987
990
993
994
995
999
996
991
986
983
984
983
973
964
953
948
946
947
945
941
939
940
940
946
941
935
931
932
933
940
937
935
935
934
939
939
934
933
934
938
941
949
949
944
944
949
960
976
993
1022
1062
1115
1167
1211
1242
1253
1230
1164
1079
991
920
880
876
895
903
902
892
885
879
877
873
871
875
873
872
871
871
872
870
872
880
888
899
907
916
922
937
953
967
976
979
977
976
980
983
989
989
991
994
997
999
1003
1000
999
1001
1005
1009
1013
1015
1016
1014
1015
1022
1024
1027
1029
1027
1035
1038
1041
1043
1042
1041
1049
1052
1059
1063
1063
1064
1064
1068
1071
1074
1074
1079
1080
1085
1087
1089
1085
1079
1078
1080
1082
1078
1072
1064
1060
1052
1051
1045
1037
1031
1027
1026
1025
1020
1012
1003
1002
999
999
994
991
990
988
987
986
984
981
977
976
978
981
982
979
978
978
979
982
983
979
981
980
984
986
986
980
977
977
986
988
988
987
986
986
988
988
987
983
981
985
989
992
991
986
981
982
982
987
983
984
983
983
986
988
985
980
978
979
982
985
981
983
980
981
980
987
986
984
986
992
998
1006
1008
1006
1006
1008
1013
1018
1020
1022
1026
1032
1038
1036
1035
1030
1025
1026
1023
1025
1020
1012
1001
994
991
988
984
981
978
976
979
982
981
975
973
974
974
975
974
973
971
973
976
975
972
969
969
970
977
979
981
979
978
980
986
989
990
995
1005
1025
1056
1091
1130
1172
1225
1268
1300
1303
1268
1199
1111
1027
962
930
922
927
935
933
930
928
921
912
907
906
911
915
911
910
907
907
907
911
912
916
922
930
939
945
952
962
974
987
1001
1010
1014
1014
1010
1015
1018
1022
1023
1023
1026
1027
1033
1032
1033
1031
1029
1033
1034
1040
1041
1041
1040
1045
1047
1047
1047
1043
1045
1049
1056
1061
1062
1062
1061
1067
1072
1075
1073
1075
1080
1082
1090
1093
1096
1092
1094
1098
1103
1109
1108
1110
1110
1113
1117
1115
1113
1108
1104
1105
1106
1105
1099
1092
1084
1080
1075
1072
1065
1057
1050
1047
1046
1046
1036
1030
1023
1019
1019
1019
1016
1013
1007
1007
1007
1005
1000
997
993
993
994
997
996
991
992
990
992
995
992
990
989
992
995
995
994
992
989
990
990
995
993
993
993
993
994
995
993
988
985
988
991
995
992
990
988
988
987
988
985
982
980
980
985
990
989
984
981
981
982
985
986
985
982
983
985
990
987
989
991
997
999
1008
1011
1011
1012
1017
1018
1023
1025
1028
1027
1032
1036
1037
1037
1031
1026
1023
1022
1023
1014
1005
999
994
995
994
987
980
976
976
978
981
980
975
973
972
972
972
971
964
965
968
970
974
973
970
966
966
971
971
970
969
969
971
977
982
982
983
995
1010
1034
1071
1112
1158
1205
1249
1275
1273
1224
1144
1055
982
929
916
921
928
929
923
921
916
911
900
894
894
900
904
907
902
896
894
894
896
900
905
911
919
930
940
948
951
959
973
986
992
993
998
998
1001
1007
1008
1009
1008
1008
1010
1014
1016
1017
1020
1014
1018
1021
1024
1017
1022
1021
1023
1027
1033
1032
1027
1030
1031
1034
1037
1040
1037
1037
1043
1044
1048
1051
1052
1051
1054
1057
1062
1064
1065
1066
1066
1070
1075
1075
1073
1073
1075
1079
1083
1083
1080
1078
1077
1078
1075
1071
1063
1058
1055
1053
1055
1048
1041
1032
1026
1024
1022
1014
1009
1004
1001
1002
1002
997
986
980
979
977
977
974
972
968
970
968
967
964
960
959
957
961
963
964
960
959
957
957
962
961
957
955
960
961
960
959
957
955
954
955
959
957
955
955
956
958
962
959
955
954
954
957
959
955
954
955
953
956
956
954
949
949
950
954
957
955
954
950
950
951
950
949
950
949
952
959
965
968
966
967
968
972
978
979
984
988
995
1000
1003
1002
997
996
996
995
996
994
992
982
975
968
964
956
948
945
943
948
948
946
941
936
937
939
939
936
932
930
933
938
942
938
935
930
932
932
938
937
939
937
939
943
945
942
941
940
949
960
974
992
1015
1048
1092
1142
1186
1220
1237
1223
1179
1100
1011
934
889
877
890
899
900
890
886
875
876
870
869
866
864
863
868
868
868
864
861
860
863
876
883
887
891
898
909
923
941
950
957
960
962
963
966
966
970
968
975
978
982
980
975
973
977
980
984
984
984
987
987
991
991
991
992
993
999
1004
1009
1011
1011
1009
1009
1013
1016
1017
1019
1020
1026
1031
1036
1037
1034
1034
1038
1044
1049
1052
1052
1053
1053
1053
1056
1056
1055
1053
1050
1054
1052
1047
1042
1036
1029
1026
1024
1017
1011
1005
1002
998
994
988
982
974
971
972
971
969
963
958
953
954
952
952
941
941
945
947
951
948
947
944
944
944
947
945
942
944
946
948
949
946
944
943
944
947
950
948
945
944
947
950
951
950
943
943
946
948
951
949
948
946
945
946
949
951
950
948
951
951
952
949
947
946
949
952
956
958
957
954
957
963
967
968
967
970
971
979
985
986
987
987
996
1001
1004
1003
1000
1001
999
1001
1000
995
988
980
974
971
969
966
962
957
956
956
956
956
953
950
951
954
954
955
950
948
944
948
946
948
951
950
953
956
957
953
955
952
955
962
966
969
971
978
992
1011
1040
1076
1121
1169
1218
1255
1276
1263
1212
1135
1045
969
920
901
906
917
921
915
912
904
894
887
884
888
893
895
893
887
886
886
885
887
892
898
909
918
932
940
944
954
968
978
987
991
992
992
998
1005
1007
1007
1005
1004
1007
1010
1018
1018
1017
1019
1018
1024
1025
1025
1025
1026
1030
1036
1039
1038
1039
1038
1039
1042
1048
1051
1049
1055
1054
1063
1066
1066
1062
1066
1068
1074
1080
1080
1083
1087
1087
1091
1092
1092
1094
1090
1094
1098
1100
1095
1089
1080
1075
1073
1074
1067
1059
1051
1048
1049
1043
1037
1028
1023
1020
1020
1021
1015
1009
1002
999
998
996
992
987
986
987
987
985
983
978
976
978
979
982
983
981
978
980
982
984
982
979
981
985
989
991
987
982
982
984
986
989
988
987
985
988
992
990
988
983
981
984
987
990
992
987
985
983
985
987
983
981
982
984
988
989
986
983
981
980
984
986
987
984
986
991
996
996
997
999
1004
1008
1017
1021
1020
1020
1022
1027
1031
1032
1031
1028
1027
1027
1024
1017
1011
999
990
988
988
989
986
979
975
971
971
972
970
967
966
965
969
968
965
962
957
961
964
969
969
965
963
965
968
969
972
971
976
984
992
1006
1024
1051
1092
1141
1196
1250
1285
1293
1258
1182
1088
998
933
899
899
916
926
923
916
909
900
891
886
894
894
900
899
898
899
897
893
895
904
915
928
936
948
955
967
977
987
993
992
996
996
1002
1005
1011
1009
1006
1005
1006
1013
1016
1017
1017
1015
1020
1019
1024
1025
1022
1023
1025
1034
1038
1041
1040
1036
1041
1045
1051
1052
1053
1056
1059
1063
1069
1068
1065
1068
1075
1082
1085
1088
1085
1084
1085
1091
1092
1096
1095
1097
1097
1099
1098
1091
1084
1075
1068
1069
1065
1061
1054
1045
1040
1037
1034
1029
1021
1017
1014
1013
1011
1009
1000
995
995
995
987
984
980
981
982
982
981
978
976
975
973
977
982
982
979
976
977
977
981
983
979
978
981
982
985
983
980
979
982
987
991
988
986
982
980
981
986
985
984
982
984
986
986
986
979
976
980
981
986
985
984
978
979
981
982
980
975
976
978
979
978
981
977
973
973
978
983
985
987
991
994
999
998
997
997
1001
1007
1014
1022
1026
1023
1019
1020
1022
1023
1019
1018
1014
1009
1002
994
989
973
969
969
966
971
968
966
964
960
961
961
957
957
953
952
959
959
958
956
953
954
960
958
960
961
959
962
965
967
965
966
974
986
1010
1039
1075
1118
1163
1210
1253
1275
1264
1205
1115
1021
944
909
895
903
908
911
909
905
898
888
880
879
884
890
887
885
881
881
885
887
892
893
898
908
918
930
941
953
967
972
983
984
982
983
984
987
992
995
997
996
996
994
997
1001
1002
1005
1004
1008
1014
1015
1014
1007
1006
1010
1014
1021
1027
1026
1026
1028
1032
1036
1038
1038
1038
1045
1052
1058
1059
1057
1054
1057
1062
1067
1068
1066
1071
1071
1078
1079
1080
1077
1075
1074
1076
1076
1071
1060
1055
1050
1045
1043
1040
1032
1024
1021
1021
1018
1009
1005
998
995
994
996
991
987
981
979
978
974
968
969
966
970
971
973
967
961
958
961
966
971
968
962
962
963
963
961
962
961
959
963
968
971
968
963
961
961
964
963
963
962
960
964
965
965
965
960
959
957
960
959
962
958
956
956
960
957
959
955
952
960
962
962
961
956
951
954
954
962
962
964
967
972
973
978
977
973
978
982
993
999
1004
1003
1001
1001
1003
1003
1002
997
994
995
993
986
975
964
955
955
960
957
954
950
946
946
947
948
946
942
940
940
944
946
943
939
938
939
943
945
946
943
946
947
950
953
947
949
955
963
981
1003
1031
1069
1115
1167
1213
1251
1266
1243
1178
1093
1007
938
900
892
902
909
911
907
900
891
885
879
878
879
881
878
875
876
877
875
878
881
886
893
902
913
922
930
943
958
969
974
977
976
975
980
988
994
993
992
990
992
995
1000
1002
1004
1002
1002
1011
1014
1011
1010
1010
1014
1019
1024
1027
1026
1026
1028
1031
1036
1038
1040
1043
1048
1052
1061
1058
1057
1061
1061
1069
1073
1074
1075
1078
1082
1084
1088
1085
1080
1081
1082
1080
1083
1077
1068
1063
1055
1055
1051
1046
1038
1031
1027
1024
1022
1015
1008
1004
1002
1004
1003
999
993
985
982
981
983
980
976
977
977
980
975
973
971
968
973
977
978
978
976
974
976
976
979
977
978
977
978
981
982
982
978
977
978
980
982
984
983
982
986
985
988
985
981
981
984
987
987
987
984
979
978
980
985
984
984
981
983
982
984
980
977
975
977
980
982
982
977
974
976
976
977
980
979
981
981
985
985
984
986
990
997
1003
1008
1009
1009
1008
1011
1017
1023
1026
1028
1027
1028
1032
1031
1029
1022
1020
1014
1013
1012
1003
990
987
984
980
981
975
972
970
967
975
973
968
962
959
962
964
965
967
964
962
964
965
966
966
961
962
970
972
981
982
983
994
1010
1040
1079
1124
1172
1221
1261
1292
1290
1248
1170
1076
988
931
914
920
927
925
922
914
908
899
894
894
898
902
905
895
890
887
891
901
914
920
922
929
939
955
968
978
986
989
994
998
1003
1001
998
1001
1003
1008
1014
1011
1011
1013
1015
1018
1023
1019
1020
1020
1025
1029
1033
1036
1032
1032
1034
1038
1043
1046
1046
1043
1049
1057
1059
1059
1059
1062
1065
1069
1073
1078
1080
1079
1082
1083
1090
1093
1093
1093
1098
1100
1100
1097
1091
1085
1084
1086
1084
1079
1071
1064
1060
1053
1048
1038
1036
1029
1025
1025
1028
1019
1012
1004
998
999
1000
998
993
990
989
991
988
984
982
977
979
982
982
984
979
977
977
978
981
979
979
976
979
982
984
984
979
975
976
978
983
982
981
979
980
982
983
979
976
976
979
982
983
980
978
975
976
980
979
978
977
974
974
975
974
972
968
966
968
970
974
975
968
968
966
970
970
967
966
967
966
971
973
972
966
965
966
971
972
972
970
970
972
979
976
978
979
983
987
995
998
1000
1002
1002
1003
1008
1015
1017
1018
1017
1017
1020
1017
1016
1007
1000
993
992
988
980
976
973
969
968
969
965
963
959
960
962
963
964
956
953
954
951
955
955
952
950
955
957
958
960
955
955
958
960
966
963
968
974
985
1007
1038
1077
1122
1173
1219
1256
1271
1247
1182
1092
999
932
896
895
906
911
909
905
900
892
882
876
877
882
888
886
881
875
872
872
880
885
893
902
913
928
939
950
959
961
969
973
982
983
984
982
984
985
988
990
990
986
991
994
999
1000
999
997
996
1004
1006
1009
1007
1007
1010
1014
1017
1018
1016
1019
1023
1029
1035
1035
1035
1036
1040
1044
1050
1049
1047
1050
1055
1060
1061
1064
1063
1062
1067
1075
1076
1072
1076
1072
1068
1068
1061
1059
1053
1048
1044
1042
1038
1031
1023
1015
1008
1007
1006
1002
997
990
989
988
984
978
971
969
970
973
970
969
962
960
959
960
962
959
960
958
959
959
962
958
954
952
954
956
961
959
960
958
956
960
959
956
958
956
958
965
967
963
957
957
958
960
962
961
960
960
962
962
960
959
954
951
951
958
959
960
959
957
954
956
955
956
954
952
955
959
961
956
954
951
951
956
960
961
960
964
970
971
979
974
973
974
976
984
989
993
991
997
1004
1004
1005
1002
1000
998
1000
1004
1004
996
986
977
970
964
961
959
954
953
954
956
954
947
943
941
941
946
949
945
944
942
942
943
944
943
939
939
944
949
951
951
948
945
947
951
955
957
960
965
979
1002
1034
1073
1118
1163
1210
1246
1260
1240
1188
1105
1020
948
904
892
899
904
901
899
895
889
881
873
869
870
874
876
873
872
869
867
871
870
872
878
888
899
909
919
929
941
952
964
972
975
974
977
979
984
989
990
990
989
993
994
998
1002
1001
1000
1003
1004
1009
1009
1008
1007
1008
1015
1018
1020
1020
1019
1020
1030
1031
1031
1031
1031
1036
1042
1049
1053
1052
1054
1059
1060
1064
1065
1067
1069
1072
1077
1083
1082
1079
1078
1077
1081
1084
1083
1079
1073
1072
1070
1065
1058
1053
1046
1041
1040
1039
1032
1026
1016
1011
1006
1008
1004
1000
994
991
992
989
983
976
973
972
972
972
973
971
968
967
970
971
964
962
958
965
970
973
972
969
964
963
965
966
969
969
968
968
969
971
970
964
963
967
969
973
972
971
968
965
966
968
966
960
964
966
971
973
969
967
963
961
965
964
964
964
961
964
964
966
966
962
959
961
965
967
968
965
962
962
966
966
965
965
962
966
974
978
981
978
980
985
985
990
992
993
997
1004
1005
1012
1012
1006
1004
1001
1004
1007
1006
1001
995
990
982
976
968
963
960
958
961
962
959
954
950
947
949
948
946
945
942
944
946
949
947
941
935
941
944
945
944
943
944
947
950
953
951
950
950
955
965
984
1005
1034
1068
1111
1157
1208
1246
1264
1256
1210
1135
1054
971
910
881
879
893
900
897
891
886
879
874
870
863
862
864
867
867
868
867
860
860
865
874
883
888
891
900
913
928
940
950
955
958
965
967
971
973
972
976
979
983
987
984
981
984
982
987
990
990
992
993
994
997
999
998
996
997
1001
1006
1011
1012
1009
1011
1010
1014
1020
1021
1024
1023
1027
1031
1038
1036
1036
1035
1039
1044
1051
1052
1054
1055
1060
1062
1068
1067
1062
1063
1063
1065
1068
1068
1064
1057
1053
1053
1047
1042
1035
1028
1024
1021
1018
1012
1006
997
992
989
988
983
975
971
972
971
971
964
958
952
953
952
955
955
952
948
950
950
951
943
945
943
943
947
949
948
946
944
945
944
946
946
944
946
947
951
952
951
945
944
944
949
950
952
951
950
949
951
950
949
944
943
945
948
955
951
950
946
946
942
945
945
943
945
944
946
946
944
940
938
941
944
946
944
943
939
941
943
943
940
936
938
943
946
950
950
946
946
948
958
965
965
967
967
970
976
977
982
983
985
989
994
997
998
996
993
993
993
990
983
976
969
965
962
962
956
948
943
940
943
942
942
938
937
938
937
935
931
926
927
931
933
937
933
933
930
930
933
936
934
932
934
938
945
948
952
955
963
985
1019
1061
1102
1151
1195
1237
1257
1245
1189
1101
1014
939
894
882
891
895
894
888
882
874
866
860
855
857
864
866
864
858
849
850
854
864
874
877
880
891
902
913
921
931
940
945
955
960
961
961
961
965
965
967
967
967
966
974
978
979
979
977
973
978
982
987
988
988
986
988
993
993
995
990
994
1001
1005
1009
1007
1010
1008
1014
1017
1025
1025
1024
1027
1032
1037
1042
1044
1042
1042
1043
1047
1051
1054
1054
1056
1056
1057
1054
1048
1042
1038
1037
1039
1038
1031
1026
1020
1014
1012
1009
1002
997
988
984
984
983
977
971
961
958
957
958
948
947
946
945
945
943
938
938
932
930
936
938
937
936
935
937
936
936
932
933
930
931
934
938
938
932
927
933
931
929
935
930
930
934
938
941
939
934
931
929
934
935
934
936
935
936
932
933
934
928
925
925
930
935
937
935
931
929
932
934
931
928
927
926
929
932
929
927
926
927
927
929
927
929
926
929
933
938
939
937
938
941
944
952
950
953
955
960
967
974
973
974
973
976
979
983
977
970
968
963
960
956
947
940
935
934
936
934
928
924
919
922
922
920
922
919
918
919
922
921
917
914
912
915
921
921
921
920
918
921
922
923
924
920
927
932
939
950
958
976
1002
1044
1099
1154
1197
1229
1234
1204
1131
1036
943
880
859
870
885
889
879
868
858
851
845
847
847
849
850
851
852
850
842
839
841
847
860
873
878
884
892
903
917
930
937
941
942
947
952
955
958
960
957
961
966
968
966
967
968
973
977
979
981
981
980
983
987
994
993
995
992
995
1000
1004
1006
1005
1008
1013
1017
1022
1026
1024
1024
1025
1031
1038
1041
1044
1047
1049
1054
1055
1054
1051
1054
1059
1067
1069
1068
1065
1059
1058
1054
1053
1049
1042
1037
1032
1029
1027
1018
1009
1004
999
1000
996
994
985
980
976
975
974
968
965
963
963
964
965
961
959
957
954
955
956
956
956
954
954
962
960
955
952
953
953
957
959
962
958
956
957
956
957
959
951
954
957
961
961
