1011
1006
1004
1002
1001
1003
1001
997
991
990
991
994
995
994
993
996
994
998
994
990
991
991
996
997
997
994
992
991
995
998
998
996
996
999
1001
1000
1002
998
998
999
1003
1005
1006
1002
998
995
1000
1002
1001
1000
997
998
1000
1002
997
997
996
998
1004
1002
999
995
991
992
996
998
999
998
1000
1001
1005
1008
1009
1013
1017
1020
1025
1030
1035
1029
1031
1037
1043
1049
1049
1047
1048
1048
1051
1049
1043
1035
1029
1022
1018
1013
1005
994
992
988
989
988
985
980
979
982
981
981
978
975
972
977
981
978
974
974
973
974
977
981
982
984
983
984
992
998
1009
1028
1061
1109
1165
1217
1264
1291
1289
1235
1151
1051
968
919
911
920
929
925
916
905
899
895
888
892
891
891
885
883
879
882
884
889
893
901
915
927
940
953
964
975
984
988
988
987
986
991
998
1002
1003
999
998
996
1000
1003
1003
1005
1003
1002
1008
1008
1007
1007
1008
1011
1016
1021
1020
1020
1017
1019
1022
1024
1028
1029
1029
1032
1035
1041
1042
1041
1041
1045
1050
1058
1056
1057
1055
1057
1064
1068
1067
1065
1062
1061
1069
1064
1056
1050
1038
1036
1039
1038
1031
1023
1015
1012
1013
1010
1006
1000
995
993
992
993
987
979
974
972
975
973
974
971
966
968
965
964
963
963
960
961
966
968
969
964
960
957
964
966
967
966
966
965
967
968
968
964
966
966
970
971
972
970
964
967
967
969
966
966
966
966
968
966
965
961
961
960
962
967
968
964
962
960
960
964
967
964
964
966
968
970
972
973
975
980
982
985
985
987
990
994
998
1004
1009
1012
1009
1012
1014
1012
1010
1004
997
993
987
983
976
968
962
959
956
953
951
948
946
944
947
946
944
941
938
938
938
940
942
941
941
941
944
945
943
942
941
942
948
952
952
952
957
971
992
1025
1067
1118
1171
1219
1252
1262
1223
1147
1048
961
906
886
888
895
895
891
885
879
870
863
856
862
865
866
862
855
851
852
857
862
870
876
881
890
905
918
930
942
949
956
960
963
964
967
965
968
977
979
979
976
977
976
980
981
981
982
982
985
989
991
991
989
988
993
999
1002
1008
1006
1006
1005
1006
1008
1011
1013
1016
1019
1025
1029
1030
1031
1031
1037
1043
1046
1050
1052
1053
1055
1058
1060
1058
1057
1057
1060
1060
1058
1054
1044
1038
1033
1031
1031
1025
1017
1010
1005
996
993
989
986
981
981
976
981
977
972
968
965
965
968
967
963
959
961
961
962
961
962
962
961
964
968
966
964
958
963
968
970
974
974
973
973
975
977
978
974
969
973
977
980
977
976
971
973
975
976
980
977
976
977
979
979
977
974
971
976
979
982
982
978
975
977
981
984
986
985
985
987
987
990
992
994
999
1003
1007
1012
1011
1014
1011
1015
1021
1027
1035
1034
1036
1038
1042
1042
1038
1034
1030
1024
1025
1023
1014
1000
994
992
988
988
984
980
976
978
980
980
977
974
968
974
980
982
980
979
974
974
977
981
979
976
978
979
981
983
984
982
982
987
997
1010
1029
1052
1086
1131
1182
1234
1276
1305
1304
1262
1188
1101
1012
948
919
922
933
939
933
926
918
914
909
904
905
905
905
908
908
905
899
898
900
910
919
927
935
940
951
970
987
998
1003
1003
1005
1009
1012
1014
1014
1017
1021
1024
1028
1028
1026
1024
1026
1029
1032
1037
1033
1032
1035
1033
1037
1039
1039
1038
1034
1040
1046
1052
1051
1046
1043
1043
1050
1057
1058
1060
1061
1065
1070
1073
1074
1075
1077
1082
1091
1093
1094
1096
1093
1095
1101
1104
1103
1104
1099
1103
1102
1100
1094
1088
1080
1079
1078
1077
1072
1066
1061
1056
1050
1047
1044
1038
1035
1033
1032
1032
1026
1017
1013
1010
1011
1008
1006
1004
1002
1003
1005
1003
1000
995
994
992
998
999
998
994
989
993
992
997
995
995
995
998
1001
1001
1000
998
995
993
998
1001
1003
1003
1000
1000
1001
1003
1002
997
999
1003
1006
1009
1007
1002
997
998
1002
1003
999
997
1000
999
999
998
994
992
991
996
998
999
998
995
993
992
992
992
993
992
993
993
997
998
999
998
1003
1008
1015
1020
1022
1021
1023
1025
1034
1038
1042
1040
1042
1046
1049
1048
1043
1035
1037
1032
1031
1024
1014
1004
998
995
994
989
985
982
981
981
982
980
975
975
972
972
974
977
978
976
974
974
974
973
976
974
975
978
983
984
985
985
987
999
1018
1046
1083
1127
1177
1231
1278
1301
1291
1233
1141
1039
958
919
912
925
930
924
916
911
905
896
890
891
894
896
896
892
891
887
890
893
896
899
908
918
932
943
958
968
977
987
993
997
997
997
1003
1009
1010
1013
1011
1009
1008
1010
1012
1014
1015
1012
1015
1017
1021
1022
1019
1019
1018
1021
1029
1033
1029
1028
1031
1035
1038
1038
1044
1042
1044
1049
1055
1058
1060
1058
1057
1062
1068
1072
1073
1073
1075
1076
1080
1082
1079
1076
1081
1082
1086
1087
1080
1073
1071
1069
1066
1065
1061
1060
1058
1053
1051
1045
1038
1030
1023
1021
1021
1020
1016
1009
1003
997
997
996
994
989
987
987
988
986
981
974
972
972
975
976
977
974
973
972
972
972
973
972
971
972
976
977
976
978
974
974
976
976
978
979
979
978
982
982
978
975
972
974
975
981
980
977
973
977
978
975
971
968
964
964
969
971
972
966
962
964
964
965
967
963
962
963
966
966
963
956
955
956
960
964
961
963
963
963
964
964
964
963
965
970
978
984
987
986
983
984
987
992
1000
1002
1010
1011
1019
1020
1018
1015
1010
1009
1009
1006
1003
996
985
978
974
969
962
957
954
956
957
956
954
950
949
945
947
946
943
940
942
943
945
944
942
932
935
939
943
944
943
945
943
946
947
955
955
962
974
998
1029
1072
1113
1164
1211
1252
1269
1251
1191
1103
1010
940
895
884
895
896
896
889
888
881
873
862
856
859
866
869
864
858
853
850
853
858
863
872
879
889
902
914
925
937
942
952
958
961
962
965
965
967
969
972
972
968
969
972
977
980
981
976
973
975
981
982
981
977
981
986
989
991
987
989
989
995
1001
1004
1005
1003
1004
1004
1010
1015
1013
1015
1018
1022
1028
1030
1025
1028
1026
1032
1034
1040
1040
1041
1037
1035
1038
1039
1033
1028
1023
1023
1021
1018
1014
1004
997
993
992
989
986
980
974
973
970
969
963
959
952
952
953
954
949
945
941
943
944
946
940
942
941
943
945
945
943
939
938
942
940
947
947
944
943
945
947
949
950
949
949
951
955
955
952
946
943
947
951
953
953
953
951
951
952
953
954
953
953
955
956
957
952
948
948
950
956
958
957
956
954
953
957
962
965
967
969
976
983
985
983
981
987
994
1001
1014
1014
1013
1012
1012
1013
1012
1011
1007
1005
998
997
989
977
965
963
959
962
970
967
964
957
955
954
956
955
952
950
954
954
956
953
950
949
952
958
962
963
960
958
961
964
966
969
975
985
1008
1043
1082
1132
1185
1235
1277
1298
1273
1201
1094
996
928
903
911
924
926
917
910
904
896
887
887
887
892
896
892
887
883
881
888
900
913
921
931
941
953
969
981
986
991
990
997
1006
1009
1014
1010
1011
1015
1017
1019
1017
1018
1019
1020
1022
1024
1023
1024
1026
1031
1033
1039
1035
1034
1034
1032
1039
1046
1046
1048
1049
1054
1055
1060
1061
1063
1065
1070
1078
1080
1084
1084
1083
1087
1093
1095
1099
1097
1099
1099
1098
1101
1096
1094
1089
1088
1089
1088
1081
1071
1062
1058
1058
1055
1049
1042
1039
1035
1034
1033
1026
1021
1017
1015
1018
1018
1013
1006
1006
1007
1010
1011
1011
1007
1006
1004
1006
1006
1003
1002
1005
1006
1011
1011
1008
1005
1003
1005
1010
1015
1014
1011
1009
1012
1014
1015
1015
1011
1011
1014
1016
1017
1015
1011
1007
1011
1018
1020
1019
1013
1014
1015
1016
1019
1017
1013
1012
1016
1018
1017
1014
1009
1010
1011
1016
1018
1017
1016
1018
1023
1030
1033
1034
1034
1037
1044
1050
1054
1054
1058
1057
1062
1066
1069
1067
1060
1059
1052
1049
1044
1035
1029
1022
1020
1017
1011
1006
1003
1000
1001
1003
1004
1001
997
992
989
994
996
994
990
990
992
994
995
991
990
989
992
998
1003
1005
1004
1006
1021
1043
1073
1113
1159
1205
1257
1300
1316
1292
1222
1128
1030
963
934
934
940
942
936
932
925
917
910
907
907
913
912
908
902
898
901
903
914
922
927
932
944
960
974
988
997
1005
1011
1016
1022
1021
1017
1020
1025
1030
1035
1031
1031
1030
1032
1032
1037
1037
1035
1036
1039
1043
1044
1042
1040
1037
1045
1048
1051
1049
1045
1050
1050
1056
1058
1060
1064
1064
1069
1077
1078
1077
1075
1076
1083
1089
1093
1096
1094
1094
1095
1098
1102
1100
1097
1094
1091
1095
1094
1087
1075
1072
1068
1067
1069
1061
1052
1043
1040
1039
1035
1032
1026
1023
1020
1020
1018
1011
1004
1000
1002
1002
1006
1005
1001
996
997
996
998
995
995
995
997
999
998
995
993
990
992
996
1000
998
997
993
995
997
999
994
994
995
997
1000
1002
996
992
991
996
999
1002
997
994
993
993
994
995
990
989
992
993
997
996
993
990
985
984
987
990
990
990
985
987
986
989
987
985
988
991
993
995
996
997
999
1010
1016
1019
1020
1017
1019
1025
1029
1037
1045
1045
1046
1047
1049
1046
1036
1033
1028
1024
1020
1010
1002
991
984
983
983
982
981
973
971
970
968
969
965
962
962
964
968
969
965
959
959
959
966
968
970
971
969
972
977
981
993
1005
1026
1062
1117
1176
1230
1269
1284
1254
1176
1071
976
908
891
906
920
920
910
899
890
885
883
882
881
879
878
877
877
877
873
877
882
893
903
914
928
941
955
966
970
973
973
972
976
982
986
988
988
983
987
989
989
995
996
994
994
995
996
999
998
999
1000
1002
1006
1008
1009
1008
1008
1009
1016
1022
1023
1023
1025
1024
1029
1032
1034
1034
1036
1043
1048
1050
1051
1050
1051
1054
1058
1061
1059
1055
1054
1050
1050
1046
1045
1039
1033
1030
1026
1018
1011
1004
998
997
995
995
992
984
979
975
971
973
971
961
958
960
961
958
955
952
948
952
958
959
957
954
948
948
953
955
954
954
950
953
953
957
955
951
949
956
960
960
956
954
952
952
955
956
956
955
957
956
958
955
950
952
953
956
959
956
953
950
947
949
953
953
955
952
950
950
950
953
951
949
951
956
961
966
967
966
966
970
974
981
984
987
991
995
996
998
997
998
995
994
996
993
985
971
962
951
951
954
951
949
942
942
940
937
939
936
933
936
940
940
934
931
927
930
931
940
938
934
932
935
936
942
942
941
946
958
976
1007
1049
1100
1159
1220
1260
1262
1210
1119
1011
925
879
874
885
892
889
881
873
864
857
849
848
853
857
859
851
845
840
841
848
858
868
877
885
894
906
921
936
945
951
956
961
964
963
963
964
965
969
975
978
973
975
977
977
982
984
983
985
989
992
995
993
991
991
996
1002
1007
1010
1010
1009
1011
1017
1020
1022
1023
1024
1032
1039
1043
1043
1041
1043
1048
1056
1061
1064
1059
1062
1061
1060
1066
1063
1059
1055
1052
1048
1044
1036
1027
1022
1018
1019
1017
1008
1001
993
993
994
993
990
986
982
981
980
979
975
969
970
976
977
978
973
972
972
970
971
975
977
977
978
977
980
984
979
980
978
982
986
987
984
983
983
985
989
991
990
987
987
987
988
989
988
989
989
993
994
994
991
989
988
989
992
995
996
993
992
991
991
997
1001
1003
1005
1012
1016
1018
1019
1019
1022
1025
1037
1045
1048
1048
1044
1039
1046
1049
1046
1042
1036
1028
1023
1017
1007
1000
996
995
997
1000
994
991
986
985
987
989
989
989
986
987
987
991
986
984
981
986
990
994
990
987
985
990
995
1003
1012
1022
1041
1072
1117
1168
1215
1259
1296
1312
1293
1233
1142
1048
972
929
920
930
943
941
932
926
923
917
911
905
906
910
915
916
912
904
899
903
915
925
936
946
957
974
991
1001
1008
1009
1011
1019
1023
1029
1028
1029
1026
1031
1034
1038
1039
1038
1036
1037
1042
1042
1040
1040
1042
1044
1050
1049
1049
1047
1046
1052
1056
1059
1061
1064
1064
1069
1074
1075
1079
1079
1083
1087
1093
1094
1098
1096
1098
1101
1107
1109
1112
1106
1106
1104
1103
1105
1099
1096
1091
1088
1082
1079
1072
1063
1058
1055
1056
1052
1044
1039
1035
1033
1031
1029
1024
1021
1019
1016
1018
1014
1009
1005
1004
1009
1010
1012
1011
1007
1005
1001
1003
1003
1007
1004
1005
1007
1010
1011
1010
1007
1005
1000
1006
1012
1013
1009
1005
1007
1009
1007
1008
1006
1006
1006
1009
1011
1008
1007
1002
1003
1006
1009
1010
1009
1005
1006
1006
1003
1002
999
1000
1004
1007
1010
1004
1001
1002
1003
1005
1015
1017
1021
1022
1023
1029
1030
1032
1034
1037
1046
1055
1058
1058
1053
1053
1050
1053
1052
1049
1042
1035
1026
1023
1017
1011
1002
998
998
1001
1003
998
992
986
987
988
989
990
988
985
980
982
985
983
980
977
976
980
988
988
984
983
984
987
990
994
998
1009
1032
1066
1107
1153
1203
1248
1287
1303
1283
1217
1124
1029
955
917
914
925
934
933
927
924
920
909
902
895
896
903
909
904
900
897
891
897
901
912
919
925
934
947
961
972
980
988
995
1000
1003
1008
1008
1009
1014
1017
1021
1021
1017
1017
1021
1023
1027
1027
1027
1026
1025
1028
1028
1030
1032
1033
1036
1041
1041
1038
1037
1035
1041
1046
1051
1052
1050
1053
1058
1059
1063
1065
1065
1067
1071
1078
1084
1084
1084
1083
1086
1089
1093
1093
1095
1095
1101
1102
1102
1098
1091
1083
1085
1086
1086
1081
1073
1063
1061
1059
1055
1050
1045
1041
1038
1037
1032
1027
1022
1018
1014
1013
1014
1013
1006
1001
1004
1006
1003
998
994
993
997
997
1000
999
995
991
992
995
1000
998
994
994
993
996
997
992
993
993
995
999
1004
1001
997
996
995
998
1000
998
997
996
996
997
999
998
993
992
991
996
999
998
997
993
990
989
993
991
988
988
990
993
993
986
986
980
981
986
989
993
995
995
998
1003
1004
1006
1001
1001
1009
1017
1025
1031
1028
1025
1029
1026
1027
1026
1024
1016
1020
1018
1011
998
983
975
973
975
978
974
967
966
967
965
962
959
952
954
955
957
962
955
953
950
950
952
954
953
952
950
952
955
958
952
953
953
958
964
976
984
1003
1026
1061
1103
1153
1194
1230
1249
1258
1236
1183
1102
1020
950
902
884
888
900
899
897
890
887
883
877
867
864
867
871
873
870
865
860
859
861
866
873
876
883
894
905
921
929
935
945
956
962
968
967
968
969
975
977
975
976
976
976
978
982
986
985
986
979
981
986
991
989
990
990
993
999
1002
1000
997
993
998
1002
1008
1010
1009
1009
1014
1016
1020
1019
1018
1019
1024
1034
1037
1041
1041
1039
1038
1046
1053
1050
1049
1051
1051
1053
1053
1051
1043
1038
1040
1037
1036
1032
1024
1018
1010
1006
1005
1001
992
990
986
985
978
972
966
962
960
962
963
962
953
947
947
946
948
945
944
941
944
947
949
945
944
941
942
944
949
949
950
948
944
945
950
947
945
943
946
949
954
953
949
944
950
952
954
955
954
953
955
955
953
954
950
948
950
951
956
953
954
949
950
950
955
951
952
954
959
967
968
970
967
968
973
978
986
988
990
993
996
996
1003
1001
1001
1000
1002
1004
1000
998
990
980
970
968
966
964
960
955
951
952
951
948
945
945
948
949
950
948
944
938
940
945
949
945
944
945
947
953
953
950
949
950
954
962
966
972
978
988
1017
1053
1102
1153
1200
1240
1260
1254
1204
1119
1026
949
905
892
905
914
912
904
895
890
888
883
877
877
881
885
885
878
877
873
877
881
894
903
909
916
929
935
951
966
974
980
987
996
998
1000
997
1000
1002
1009
1009
1011
1010
1014
1015
1016
1020
1020
1020
1018
1023
1030
1034
1031
1031
1027
1030
1035
1039
1040
1041
1042
1045
1052
1055
1054
1053
1057
1060
1069
1076
1078
1076
1077
1083
1086
1095
1097
1096
1100
1102
1106
1110
1107
1106
1102
1103
1103
1103
1102
1091
1088
1084
1082
1078
1072
1068
1062
1059
1057
1055
1049
1044
1037
1032
1032
1030
1026
1023
1018
1013
1013
1011
1012
1003
1003
1003
1008
1011
1006
1005
1002
1003
1007
1007
1005
1002
1003
1006
1009
1011
1008
1006
1004
1007
1011
1012
1013
1009
1011
1011
1012
1013
1011
1010
1013
1015
1017
1016
1012
1009
1009
1011
1011
1011
1015
1014
1016
1013
1015
1014
1014
1008
1010
1013
1018
1018
1015
1016
1012
1015
1016
1015
1020
1018
1021
1028
1036
1039
1041
1039
1042
1042
1049
1055
1058
1057
1060
1063
1066
1069
1070
1065
1065
1066
1065
1062
1056
1045
1035
1027
1023
1018
1016
1014
1011
1008
1009
1008
1004
1002
999
1003
1007
1006
1004
1002
998
999
1005
1006
1006
1000
1003
1009
1012
1012
1010
1007
1007
1015
1024
1031
1040
1054
1073
1107
1152
1199
1242
1283
1312
1331
1305
1240
1144
1050
983
945
945
957
966
966
955
944
938
938
936
930
928
929
931
927
923
917
914
923
934
947
956
961
971
984
998
1014
1023
1029
1033
1037
1043
1046
1045
1043
1044
1046
1052
1065
1064
1054
1047
1046
1051
1057
1057
1054
1055
1059
1063
1066
1064
1062
1061
1064
1067
1070
1071
1070
1074
1076
1079
1081
1080
1081
1082
1089
1095
1100
1103
1101
1101
1103
1105
1114
1113
1109
1105
1109
1110
1112
1110
1105
1101
1100
1101
1102
1094
1085
1077
1070
1066
1065
1061
1051
1045
1042
1041
1041
1031
1025
1016
1012
1015
1013
1008
1000
994
995
995
995
992
991
989
985
983
980
976
979
978
982
984
988
982
980
974
974
979
983
983
984
984
985
987
986
985
980
980
980
981
988
986
982
975
973
972
974
976
972
973
977
981
980
978
973
970
973
977
981
979
975
974
977
982
983
978
978
979
984
992
996
997
996
996
997
1000
1007
1014
1019
1017
1018
1023
1022
1019
1016
1013
1011
1011
1003
993
980
975
973
977
974
967
962
956
957
961
963
962
955
952
952
953
947
944
938
936
942
946
952
955
953
950
950
948
950
952
951
953
960
974
988
1004
1030
1070
1121
1172
1224
1255
1264
1237
1167
1076
994
923
881
874
892
906
908
895
883
874
867
864
863
863
858
856
857
855
857
854
848
848
859
869
880
888
895
902
911
925
935
944
948
951
957
959
964
964
964
963
965
969
974
972
974
972
977
979
982
978
979
979
983
991
995
994
987
990
995
999
1001
1005
1002
1000
1001
1002
1011
1015
1016
1016
1024
1028
1038
1038
1038
1038
1040
1045
1051
