1193
1241
1281
1309
1308
1262
1178
1082
994
943
935
949
958
958
950
938
932
927
922
919
919
922
923
923
917
910
909
911
924
940
948
957
964
978
990
1004
1011
1017
1018
1020
1026
1030
1028
1026
1023
1025
1030
1035
1037
1034
1035
1032
1034
1037
1039
1041
1040
1042
1048
1051
1049
1049
1047
1048
1052
1060
1062
1065
1065
1064
1067
1074
1075
1077
1081
1086
1094
1094
1096
1094
1095
1097
1102
1112
1115
1114
1112
1108
1106
1106
1103
1100
1094
1092
1090
1090
1082
1072
1067
1060
1062
1060
1053
1046
1037
1034
1031
1027
1026
1019
1018
1014
1014
1013
1010
1004
1004
1002
1005
1007
1007
1004
1003
1000
999
1002
1001
1001
1003
1004
1005
1005
1004
1002
999
999
1002
1004
1003
1002
999
997
995
1001
1001
998
997
998
1000
1001
998
995
994
993
994
998
996
991
987
987
989
992
992
996
994
995
997
998
1004
1004
1007
1010
1014
1019
1022
1022
1022
1024
1032
1038
1037
1036
1038
1034
1035
1034
1030
1017
1013
1005
998
994
990
981
976
971
972
974
972
968
966
967
965
962
960
956
954
955
958
962
962
957
954
953
957
962
961
958
960
959
963
970
975
985
1004
1038
1082
1131
1182
1227
1255
1253
1215
1142
1046
964
912
893
903
915
915
904
898
889
886
885
880
877
873
875
875
875
871
866
861
866
880
891
898
904
912
921
939
953
961
964
966
964
968
972
974
975
973
976
983
985
983
981
981
984
989
993
994
991
987
989
994
997
1001
1001
1000
1002
1004
1011
1012
1012
1012
1016
1021
1031
1031
1033
1031
1032
1038
1043
1049
1050
1052
1055
1061
1064
1063
1063
1060
1061
1064
1068
1062
1057
1048
1040
1037
1037
1033
1024
1016
1010
1007
1003
995
987
979
974
969
966
963
959
953
950
954
954
951
947
944
943
942
944
944
943
940
939
945
950
948
943
941
939
943
949
949
946
946
943
945
947
945
946
946
941
940
943
938
932
928
928
932
934
935
931
928
926
924
927
928
925
921
923
927
930
933
933
932
937
941
945
946
948
949
952
962
968
972
966
967
966
966
963
955
945
939
930
929
928
923
918
913
908
913
914
912
911
907
905
906
903
904
908
904
906
910
911
910
907
907
906
913
921
920
919
921
930
951
978
1018
1067
1125
1183
1226
1232
1181
1088
982
896
850
847
860
862
857
847
845
843
836
834
833
834
832
832
830
825
823
828
839
853
862
868
879
893
911
926
937
940
942
946
947
953
956
958
959
962
967
971
972
969
969
970
976
980
983
985
984
985
989
994
995
999
1001
1002
1008
1013
1017
1017
1021
1025
1033
1039
1042
1048
1048
1049
1053
1066
1070
1073
1075
1076
1077
1082
1083
1080
1077
1076
1076
1074
1067
1058
1049
1042
1037
1035
1030
1022
1014
1007
1005
1001
996
989
984
980
981
981
978
972
966
966
967
970
970
968
962
963
965
968
965
965
963
961
965
971
968
966
964
963
968
973
974
974
973
972
974
978
977
976
976
979
982
981
977
974
974
973
976
978
977
977
977
979
984
988
995
993
994
991
993
999
999
1001
999
998
1002
1010
1015
1022
1022
1021
1022
1023
1023
1022
1023
1025
1023
1017
997
987
976
973
974
978
979
975
972
970
972
969
973
974
972
960
947
946
953
955
952
949
953
958
961
962
960
962
965
968
969
971
977
992
1014
1051
1102
1162
1223
1281
1314
1311
1258
1167
1053
954
891
872
870
883
886
888
885
890
890
889
886
888
888
889
890
890
894
900
912
926
939
957
968
983
997
1010
1015
1019
1017
1020
1030
1036
1041
1041
1042
1045
1049
1055
1056
1054
1052
1053
1061
1068
1068
1064
1064
1068
1077
1086
1083
1081
1081
1086
1092
1101
1107
1109
1111
1112
1117
1122
1127
1131
1131
1138
1149
1155
1155
1154
1155
1159
1167
1171
1170
1165
1159
1155
1150
1151
1147
1140
1131
1121
1114
1108
1102
1094
1084
1079
1076
1074
1069
1067
1058
1053
1051
1052
1047
1046
1039
1039
1038
1043
1036
1034
1032
1032
1033
1035
1034
1031
1028
1028
1031
1035
1034
1032
1031
1032
1033
1038
1033
1030
1029
1030
1039
1044
1041
1038
1034
1031
1036
1042
1040
1039
1038
1039
1037
1041
1040
1039
1032
1033
1036
1041
1040
1040
1036
1037
1037
1038
1041
1042
1039
1040
1042
1044
1045
1041
1037
1037
1042
1047
1050
1055
1055
1056
1062
1066
1070
1069
1068
1078
1083
1092
1097
1100
1102
1107
1110
1109
1108
1104
1100
1097
1091
1086
1076
1063
1061
1057
1058
1060
1058
1052
1045
1043
1049
1054
1053
1052
1045
1041
1043
1046
1043
1042
1044
1045
1049
1055
1054
1048
1041
1042
1043
1049
1055
1058
1065
1073
1087
1111
1138
1178
1221
1271
1316
1360
1372
1347
1271
1166
1067
1001
970
964
972
980
980
972
963
955
947
944
948
955
957
950
941
937
935
942
947
951
959
974
988
1000
1008
1016
1030
1039
1046
1052
1056
1056
1057
1056
1059
1066
1071
1071
1064
1068
1069
1071
1068
1067
1067
1072
1075
1079
1083
1081
1080
1079
1081
1080
1083
1082
1085
1088
1096
1102
1105
1105
1101
1099
1103
1110
1114
1115
1117
1123
1127
1131
1132
1132
1132
1139
1146
1148
1151
1146
1144
1138
1138
1143
1137
1137
1131
1126
1121
1119
1110
1104
1096
1092
1092
1092
1083
1073
1064
1059
1057
1058
1052
1049
1044
1040
1042
1042
1037
1035
1034
1036
1043
1047
1043
1038
1036
1036
1035
1042
1045
1038
1025
1017
1022
1029
1034
1027
1022
1025
1030
1036
1037
1036
1032
1030
1032
1035
1041
1040
1041
1039
1037
1036
1035
1029
1028
1034
1039
1042
1036
1033
1028
1027
1030
1033
1033
1035
1034
1031
1032
1034
1030
1031
1028
1027
1030
1034
1033
1032
1029
1027
1030
1034
1034
1033
1032
1031
1034
1036
1031
1025
1021
1023
1029
1032
1034
1034
1033
1034
1040
1048
1053
1056
1059
1065
1071
1073
1069
1069
1077
1091
1105
1112
1109
1103
1102
1104
1109
1112
1105
1098
1091
1084
1077
1074
1068
1064
1059
1058
1060
1060
1052
1046
1041
1043
1044
1046
1046
1043
1042
1041
1045
1049
1050
1046
1045
1046
1047
1046
1047
1046
1047
1049
1055
1060
1065
1074
1095
1125
1166
1214
1263
1313
1357
1383
1372
1319
1234
1146
1080
1047
1040
1042
1038
1037
1041
1047
1053
1057
1060
1053
1050
1047
1044
1046
1047
1049
1046
1046
1050
1053
1051
1047
1046
1047
1050
1057
1056
1055
1052
1052
1056
1058
1058
1059
1054
1058
1061
1067
1065
1062
1060
1058
1059
1065
1066
1068
1064
1068
1070
1070
1069
1070
1069
1070
1072
1078
1081
1079
1078
1078
1082
1085
1087
1081
1083
1087
1090
1093
1097
1092
1093
1095
1096
1099
1100
1102
1098
1096
1098
1102
1101
1096
1095
1094
1095
1099
1094
1090
1082
1082
1081
1083
1078
1077
1071
1069
1067
1066
1064
1056
1051
1052
1054
1058
1056
1051
1048
1047
1049
1048
1048
1045
1043
1045
1048
1051
1049
1049
1045
1043
1047
1048
1044
1047
1049
1044
1045
1046
1048
1045
1045
1047
1051
1056
1053
1048
1042
1037
1042
1049
1051
1049
1045
1040
1039
1042
1038
1035
1034
1034
1038
1043
1043
1038
1033
1035
1034
1038
1037
1036
1033
1032
1033
1037
1033
1034
1029
1030
1031
1031
1033
1027
1027
1026
1028
1029
1030
1028
1025
1025
1026
1029
1030
1026
1022
1019
1022
1028
1030
1031
1030
1030
1037
1043
1044
1042
1044
1045
1052
1056
1062
1061
1061
1065
1072
1079
1078
1076
1074
1068
1067
1068
1062
1055
1047
1035
1032
1030
1028
1021
1015
1011
1010
1012
1009
1008
1006
1006
1005
1004
1001
999
994
994
1000
1001
1004
998
996
996
996
1003
1000
1001
1001
1003
1005
1016
1022
1030
1047
1079
1123
1180
1234
1290
1334
1357
1346
1290
1198
1106
1039
1006
998
1000
1000
997
1002
1005
1006
1007
1006
1005
1005
1006
1005
1005
1006
1003
1002
1001
1004
1010
1010
1008
1010
1009
1011
1011
1012
1012
1013
1012
1015
1018
1018
1012
1011
1014
1016
1018
1017
1016
1016
1017
1021
1022
1021
1018
1013
1016
1022
1028
1029
1024
1020
1021
1020
1025
1027
1029
1029
1030
1032
1035
1033
1031
1031
1034
1039
1042
1042
1042
1043
1043
1047
1050
1047
1044
1042
1042
1049
1051
1048
1043
1041
1041
1039
1043
1040
1036
1035
1033
1035
1031
1026
1020
1014
1013
1009
1011
1009
1008
1001
996
998
999
996
994
994
992
994
995
991
985
982
984
987
993
993
989
990
988
989
992
990
982
985
988
989
996
994
991
990
988
989
990
991
991
991
991
993
994
993
989
985
989
994
997
997
994
990
986
989
992
992
991
989
990
994
998
995
987
983
984
987
990
992
987
983
984
985
986
986
984
985
987
990
995
995
998
996
1000
1004
1008
1008
1007
1009
1012
1020
1025
1026
1028
1028
1029
1032
1035
1036
1033
1026
1024
1018
1015
1011
1001
991
986
983
986
983
978
973
969
969
972
971
970
966
967
967
970
966
963
959
958
961
966
967
965
965
965
967
971
971
971
974
977
983
989
998
1007
1037
1077
1133
1195
1254
1302
1331
1331
1293
1218
1124
1041
991
974
977
977
971
965
964
972
979
982
980
979
979
979
980
986
982
981
980
982
986
989
992
986
986
984
987
993
994
992
994
997
1004
1007
1003
1002
1002
1001
1008
1013
1014
1012
1009
1012
1013
1015
1014
1013
1012
1015
1021
1027
1025
1024
1021
1023
1024
1031
1031
1033
1034
1036
1040
1040
1042
1040
1038
1042
1046
1053
1051
1053
1052
1050
1052
1056
1055
1053
1054
1055
1058
1059
1056
1051
1047
1043
1046
1048
1047
1046
1037
1036
1031
1028
1024
1022
1020
1020
1021
1020
1019
1014
1008
1007
1009
1013
1012
1008
1005
1005
1005
1008
1005
1005
1005
1003
1008
1011
1012
1008
1004
1005
1006
1011
1014
1011
1012
1013
1012
1016
1016
1014
1013
1014
1015
1019
1017
1017
1013
1015
1018
1022
1020
1019
1016
1016
1018
1022
1020
1016
1014
1016
1019
1023
1022
1018
1014
1013
1017
1019
1018
1016
1015
1019
1019
1022
1020
1016
1011
1014
1015
1024
1026
1028
1030
1035
1038
1040
1044
1044
1046
1050
1056
1065
1067
1070
1069
1069
1073
1076
1077
1075
1069
1066
1064
1057
1051
1039
1030
1029
1027
1032
1023
1017
1015
1012
1013
1016
1014
1012
1008
1008
1011
1009
1009
1006
1004
1006
1010
1011
1012
1008
1008
1006
1010
1013
1015
1016
1017
1023
1032
1048
1068
1096
1135
1192
1260
1324
1377
1405
1404
1369
1299
1213
1123
1045
999
988
1002
1020
1023
1021
1014
1014
1013
1013
1013
1011
1009
1008
1009
1011
1007
1006
1000
1003
1008
1012
1014
1009
1009
1010
1008
1013
1015
1014
1013
1014
1016
1016
1015
1013
1010
1013
1018
1024
1023
1021
1021
1018
1018
1022
1022
1022
1022
1023
1026
1031
1030
1027
1025
1026
1031
1036
1036
1036
1035
1037
1038
1041
1040
1041
1042
1046
1049
1054
1055
1050
1048
1049
1053
1058
1055
1058
1056
1054
1055
1055
1055
1052
1047
1045
1045
1042
1040
1030
1026
1022
1019
1020
1017
1014
1009
1007
1009
1011
1005
1000
998
998
1000
1001
1001
997
991
994
996
999
999
993
995
995
998
998
999
995
992
996
998
1003
1001
1000
1000
998
998
1003
1001
1001
1002
1001
1004
1009
1004
1002
1000
999
1005
1010
1011
1009
1005
1002
1005
1006
1008
1006
1003
1006
1006
1010
1008
1003
1002
1003
1008
1011
1010
1006
1003
1001
1006
1008
1008
1008
1005
1008
1007
1009
1008
1004
1003
1001
1007
1011
1012
1012
1012
1016
1022
1030
1030
1032
1035
1039
1044
1048
1054
1054
1053
1054
1058
1061
1064
1061
1059
1057
1055
1053
1040
1032
1021
1021
1019
1017
1011
1008
1003
1001
1003
1004
1001
999
995
992
995
994
996
994
994
994
996
999
998
995
992
998
1000
1007
1010
1013
1016
1030
1060
1100
1148
1208
1271
1333
1375
1388
1350
1267
1163
1067
1006
986
989
1002
1011
1011
1011
1010
1007
1007
1003
1002
999
1002
1002
997
999
1001
1006
1009
1008
1005
1004
1004
1007
1006
1011
1012
1010
1009
1014
1016
1015
1006
1009
1011
1016
1020
1019
1018
1014
1013
1016
1021
1018
1018
1019
1019
1023
1028
1025
1024
1024
1029
1032
1035
1036
1033
1032
1034
1039
1046
1049
1047
1047
1047
1051
1055
1054
1049
1049
1054
1054
1058
1057
1053
1051
1050
1055
1052
1053
1048
1042
1035
1033
1033
1028
1021
1015
1018
1017
1018
1012
1007
1002
1001
1003
1007
1008
1002
998
998
997
999
1001
999
997
1001
1001
1003
998
993
994
995
997
1002
1002
998
998
997
999
1005
1004
1005
1002
1002
1005
1004
1005
1001
999
998
1002
1007
1004
1004
1001
1000
1002
1003
1004
1004
1003
1002
1002
1003
1004
1001
997
998
1003
1005
1004
996
993
992
997
1000
1000
999
998
996
999
1000
997
994
993
997
998
1002
1003
996
996
994
1002
1007
1014
1020
1019
1022
1024
1028
1027
1028
1031
1039
1049
1054
1053
1052
1047
1047
1048
1048
1046
1039
1031
1023
1015
1008
1005
999
997
992
994
995
991
986
983
979
981
986
984
983
981
978
979
982
981
979
980
983
986
992
987
987
987
991
1001
1018
1038
1067
1111
1164
1227
1293
1343
1366
1341
1266
1169
1082
1014
975
968
976
990
1000
1003
1001
994
993
992
990
990
986
989
991
995
995
997
992
991
991
997
1000
1000
997
996
998
1003
1003
1007
1004
1002
1006
1011
1012
1011
1007
1006
1008
1011
1017
1015
1014
1012
1009
1013
1017
1017
1019
1017
1021
1023
1026
1027
1024
1024
1028
1032
1035
1039
1037
1036
1037
1038
1044
1046
1044
1043
1045
1047
1050
1049
1049
1046
1043
1049
1052
1052
1045
1040
1040
1040
1039
1036
1032
1027
1025
1023
1023
1018
1012
1006
1004
1005
1007
1003
1002
996
992
993
999
1000
997
995
994
995
995
994
990
989
992
991
996
1000
997
994
991
995
1000
999
998
999
997
1000
1002
1001
999
998
998
1003
1006
1005
1004
1001
1001
1003
1007
1005
1002
1001
1001
1002
1004
1002
999
996
999
999
1002
1001
998
993
992
996
1000
999
998
995
998
999
1000
998
995
998
996
1000
1000
1003
997
994
994
1000
1004
1010
1017
1019
1020
1025
1028
1027
1029
1033
1038
1048
1055
1057
1055
1051
1049
1054
1055
1053
1048
1045
1038
1030
1021
1011
1004
1000
996
1002
1002
999
991
989
984
988
988
986
983
981
980
981
980
980
978
977
979
986
990
990
985
982
982
985
994
1000
1008
1025
1048
1087
1138
1192
1245
1294
1334
1340
1295
1204
1097
1013
973
959
969
974
975
979
980
981
982
978
971
970
971
973
977
978
976
972
971
973
977
977
978
975
978
981
981
981
979
978
980
984
988
989
981
981
985
986
990
988
988
989
992
990
994
993
993
991
992
997
1000
1002
1000
998
995
1002
1007
1007
1009
1007
1010
1012
1015
1014
1012
1013
1016
1023
1026
1025
1023
1020
1019
1021
1024
1025
1023
1022
1023
1021
1023
1018
1013
1009
1003
1006
1008
1002
996
992
990
987
990
987
982
978
979
980
977
976
972
969
965
971
974
976
973
971
970
972
974
972
970
969
970
975
975
974
973
971
971
975
979
982
978
975
974
976
976
978
978
976
977
983
986
982
975
972
976
980
983
984
982
979
978
981
982
983
982
979
978
980
984
979
976
973
973
975
982
980
978
975
972
975
978
983
985
987
992
998
1000
999
999
1000
1005
1013
1022
1027
1028
1024
1022
1024
1025
1024
1020
1017
1010
1008
999
989
980
973
970
972
974
969
963
960
957
957
960
959
959
954
954
958
959
956
954
952
950
959
962
965
962
960
957
964
971
976
985
1002
1028
1072
1131
1191
1252
1304
1323
1297
1222
1118
1026
970
952
955
958
956
960
959
961
964
965
964
962
959
960
963
968
967
965
963
965
966
969
972
973
970
969
970
973
972
971
971
971
976
982
979
975
974
974
977
982
984
985
985
983
986
990
987
989
988
990
997
999
998
996
997
998
1002
1008
1010
1009
1006
1009
1011
1016
1017
1014
1015
1020
1023
1027
1025
1024
1020
1020
1025
1028
1031
1028
1021
1018
1019
1018
1015
1010
1006
1004
1004
1002
998
990
986
986
984
991
989
985
983
979
979
980
982
980
979
979
979
982
982
973
971
974
978
983
984
984
979
979
980
984
985
983
982
984
986
988
984
983
982
986
992
995
995
990
989
988
990
993
992
991
991
991
996
998
995
990
988
991
993
997
999
996
995
990
993
997
995
995
995
996
997
1004
1004
1006
1006
1011
1021
1023
1025
1031
1028
1031
1037
1045
1051
1053
1053
1054
1056
1058
1052
1049
1041
1039
1037
1033
1025
1013
1006
1003
1003
1004
1002
999
995
997
999
1000
996
991
990
987
992
996
993
993
991
989
994
996
996
994
995
998
1000
1006
1009
1012
1017
1033
1055
1092
1135
1190
1245
1307
1355
1375
1354
1285
1191
1101
1032
997
987
989
993
999
1010
1012
1012
1008
1006
1006
1006
1005
1006
1003
1005
1008
1012
1014
1012
1009
1008
1006
1009
1016
1017
1016
1014
1014
1019
1021
1020
1016
1015
1016
1019
1023
1020
1019
1017
1019
1024
1024
1027
1027
1027
1029
1031
1034
1029
1028
1029
1031
1038
1041
1044
1038
1038
1037
1044
1048
1051
1050
1051
1051
1055
1058
1056
1055
1052
1054
1061
1064
1064
1059
1057
1054
1056
1057
1059
1058
1053
1054
1054
1051
1048
1041
1033
1033
1030
1030
1027
1021
1017
1016
1015
1015
1013
1009
1007
1007
1008
1009
1006
1002
1001
1001
1005
1007
1006
1003
1000
999
1000
1004
1003
1003
1001
1002
1007
1009
1007
1001
1000
1002
1008
1012
1009
1007
1004
1006
1006
1011
1011
1006
1005
1007
1011
1010
1009
1010
1007
1007
1012
1016
1011
1013
1010
1007
1009
1014
1013
1013
1010
1011
1013
1012
1012
1009
1006
1006
1009
1011
1011
1008
1005
1007
1008
1010
1010
1011
1009
1010
1013
1015
1014
1013
1014
1017
1025
1035
1036
1037
1034
1037
1041
1044
1049
1047
1052
1058
1065
1064
1064
1059
1057
1055
1057
1052
1050
1035
1027
1019
1013
1013
1012
1006
1004
1000
1003
1003
998
995
990
990
993
996
995
990
988
987
989
990
989
986
987
989
995
1000
998
997
996
1000
1008
1025
1048
1078
1115
1168
1225
1288
1337
1368
1364
1313
1232
1146
1065
1003
976
977
985
997
1004
1004
1003
999
999
1001
1000
994
990
994
996
1000
999
995
989
989
992
999
1000
997
999
1001
1005
1006
1007
1003
1001
1000
1006
1011
1012
1010
1006
1006
1011
1014
1016
1013
1013
1015
1020
1023
1018
1018
1018
1020
1025
1027
1027
1027
1026
1027
1032
1035
1032
1032
1033
1038
1041
1046
1045
1044
1043
1042
1046
1052
1054
1053
1052
1053
1057
1057
1056
1055
1051
1051
1054
1059
1059
1051
1047
1043
1044
1041
1041
1037
1030
1029
1028
1024
1020
1012
1010
1009
1007
1007
1009
1005
1000
995
998
1000
1000
995
995
995
998
1001
997
995
990
989
991
994
995
993
995
995
995
997
996
995
990
994
997
1002
1000
997
992
992
991
995
995
992
995
996
997
996
995
988
990
991
992
996
995
993
991
989
992
993
991
986
988
989
993
995
993
984
982
982
985
990
988
984
982
984
985
985
980
979
981
980
983
988
988
984
978
982
984
986
986
985
982
984
986
989
988
987
988
995
1001
1010
1012
1009
1008
1011
1017
1023
1025
1030
1034
1039
1041
1039
1038
1032
1032
1028
1030
1027
1023
1014
1000
992
984
987
983
982
977
976
975
978
