924
924
924
924
924
924
924
924
932
944
956
966
969
968
968
967
971
976
981
982
983
985
987
989
990
987
987
990
995
1000
1005
1004
999
1001
1002
1010
1013
1014
1012
1014
1020
1024
1027
1029
1029
1034
1042
1046
1052
1053
1054
1052
1052
1060
1066
1069
1071
1073
1074
1079
1079
1076
1070
1070
1065
1068
1067
1059
1052
1046
1042
1040
1036
1031
1024
1018
1016
1012
1008
1001
994
988
986
986
986
980
976
971
968
971
971
970
966
964
962
965
965
963
961
959
963
968
968
968
964
963
962
966
969
968
967
971
972
977
975
972
970
966
970
977
981
980
976
974
974
975
978
978
978
977
980
981
981
979
975
974
976
980
981
979
976
973
977
978
979
976
976
975
978
979
981
979
975
979
986
994
999
1002
1000
1002
1007
1011
1018
1023
1026
1026
1029
1032
1031
1029
1028
1027
1028
1026
1019
1009
998
991
988
989
986
982
979
976
978
978
974
971
968
969
970
972
975
970
967
966
966
970
974
974
973
973
975
980
983
987
991
1005
1027
1065
1109
1155
1207
1251
1283
1287
1250
1172
1079
991
930
903
902
906
909
904
901
895
886
879
873
873
878
881
883
879
874
875
881
894
904
914
923
934
951
968
977
985
987
990
993
996
999
1003
1003
1005
1007
1010
1011
1009
1010
1010
1016
1020
1019
1019
1015
1017
1022
1027
1030
1028
1030
1030
1034
1037
1038
1039
1041
1042
1050
1056
1061
1062
1061
1061
1068
1074
1080
1078
1081
1083
1088
1095
1097
1098
1096
1097
1103
1103
1103
1095
1089
1085
1082
1081
1078
1070
1061
1055
1048
1044
1040
1034
1028
1024
1019
1022
1020
1013
1008
1006
1004
1002
1001
1000
996
990
990
992
991
986
983
985
989
992
992
986
984
986
988
992
994
990
989
986
989
994
996
996
995
995
995
997
997
995
994
994
997
999
1003
999
992
991
995
999
1000
999
994
995
993
997
994
996
995
995
997
999
998
996
993
991
993
997
1000
1000
996
993
995
997
1002
1004
1005
1005
1012
1018
1021
1024
1026
1028
1034
1043
1045
1048
1050
1051
1051
1053
1056
1058
1051
1047
1039
1032
1025
1018
1011
1008
1003
1007
999
995
997
995
997
994
997
995
992
988
990
992
997
994
992
991
992
997
997
997
999
997
1003
1014
1025
1041
1060
1096
1146
1199
1248
1285
1294
1272
1210
1124
1040
970
940
937
947
950
944
931
921
913
910
913
917
913
907
905
903
901
903
907
912
920
930
942
953
960
969
978
993
1003
1012
1012
1013
1014
1017
1024
1027
1028
1029
1028
1029
1033
1036
1031
1026
1029
1035
1038
1040
1042
1041
1037
1041
1045
1045
1043
1047
1049
1053
1060
1062
1064
1059
1063
1067
1070
1074
1076
1074
1079
1081
1088
1089
1091
1092
1094
1099
1104
1105
1103
1100
1098
1101
1103
1102
1099
1091
1088
1085
1083
1082
1074
1071
1066
1063
1061
1058
1050
1039
1037
1034
1034
1033
1029
1024
1019
1017
1015
1015
1011
1008
1005
1007
1008
1007
1005
1000
999
1004
1004
1006
1005
1002
1001
1002
1005
1005
1003
1002
1002
1006
1009
1007
1004
997
1003
1007
1007
1009
1010
1005
1003
1006
1009
1011
1010
1007
1002
1002
1005
1010
1008
1004
1004
1004
1008
1008
1004
1000
998
1001
1003
1004
1001
995
1000
1003
1005
1004
1004
999
997
1001
1006
1009
1007
1002
1004
1009
1014
1018
1021
1023
1021
1025
1028
1037
1043
1043
1047
1053
1057
1056
1049
1043
1042
1044
1042
1041
1033
1023
1012
1008
1007
1003
1000
996
993
993
992
989
988
983
979
980
985
985
985
978
979
980
982
981
981
973
977
983
986
987
989
988
989
994
1012
1033
1062
1098
1147
1197
1240
1265
1261
1210
1130
1044
976
936
921
925
922
921
919
911
902
894
889
886
891
887
887
880
880
878
883
886
889
892
898
910
925
937
952
960
971
976
980
982
982
980
985
991
995
992
992
989
990
990
999
999
1002
999
997
1000
1003
1003
1003
1000
1003
1006
1012
1015
1014
1011
1009
1012
1015
1019
1019
1020
1023
1026
1030
1032
1033
1031
1031
1039
1046
1050
1047
1048
1047
1053
1055
1056
1058
1053
1052
1052
1053
1051
1045
1037
1034
1034
1031
1028
1022
1015
1010
1007
1005
1002
996
990
988
985
986
979
974
967
964
962
964
962
959
952
950
952
955
958
956
950
949
950
950
951
951
948
950
956
956
957
952
949
947
951
956
955
952
950
949
949
951
952
950
949
953
953
956
955
951
947
946
948
952
955
952
947
945
944
946
950
947
947
952
954
960
960
960
958
961
966
973
979
983
984
987
992
994
993
994
990
988
990
985
983
975
966
959
953
952
946
943
939
933
934
931
931
930
927
923
923
924
925
922
920
919
922
926
930
927
923
920
927
930
930
931
931
933
941
956
974
1002
1040
1090
1145
1191
1218
1215
1181
1113
1030
955
900
875
874
881
882
876
871
860
852
848
848
851
852
852
848
841
839
838
843
847
856
864
876
885
895
900
909
924
938
951
957
960
959
959
961
964
970
972
972
975
978
979
981
982
979
981
987
991
994
992
992
989
993
1000
1001
1004
1003
1006
1009
1014
1016
1018
1014
1018
1022
1029
1033
1032
1031
1033
1035
1042
1044
1046
1051
1055
1058
1061
1061
1057
1054
1057
1057
1060
1059
1052
1049
1044
1044
1038
1036
1027
1021
1022
1023
1020
1017
1008
1003
1004
1000
995
990
987
984
983
984
981
976
970
968
970
970
972
972
969
967
968
967
970
967
967
967
970
972
973
971
969
967
967
972
973
975
972
971
973
975
973
973
971
973
975
979
978
978
974
971
974
975
977
972
973
972
975
979
978
977
972
970
973
976
980
980
976
978
975
978
982
977
975
979
988
993
995
996
995
995
1000
1003
1010
1012
1017
1019
1024
1029
1026
1027
1022
1023
1027
1029
1027
1024
1015
1006
999
996
992
987
980
978
978
977
976
970
967
963
963
964
965
962
963
962
965
965
964
960
959
959
963
967
972
968
965
963
966
974
972
975
981
990
1013
1039
1071
1110
1152
1200
1242
1274
1284
1265
1216
1144
1067
997
944
909
898
898
906
910
905
896
885
878
873
873
878
878
878
877
876
874
873
868
871
875
886
898
910
916
923
935
947
961
971
977
978
981
987
993
996
999
998
996
1000
1003
1003
1005
1003
1004
1006
1010
1014
1010
1011
1012
1015
1019
1023
1021
1021
1020
1023
1026
1031
1032
1031
1035
1037
1043
1045
1045
1045
1047
1054
1057
1058
1059
1061
1059
1065
1070
1074
1074
1076
1074
1074
1081
1087
1087
1086
1088
1090
1092
1091
1089
1083
1080
1078
1077
1073
1070
1063
1057
1052
1052
1047
1039
1034
1029
1030
1028
1027
1020
1013
1008
1007
1008
1008
1002
997
996
993
995
994
989
987
984
987
990
991
986
980
980
979
982
982
978
980
977
982
982
983
978
976
978
979
983
983
984
985
986
987
991
990
986
985
984
985
988
988
988
985
983
987
992
991
991
984
984
984
984
989
989
986
983
981
984
987
986
984
984
986
990
989
985
981
981
981
986
985
983
984
982
983
990
992
988
986
988
992
999
1001
1006
1006
1004
1009
1014
1016
1017
1014
1020
1030
1037
1039
1040
1034
1032
1032
1032
1032
1024
1016
1005
1005
1000
996
991
983
982
983
983
983
978
974
974
974
974
973
969
964
963
965
968
969
967
966
964
967
968
972
971
968
969
975
978
980
983
982
986
998
1016
1032
1057
1085
1119
1162
1203
1237
1262
1273
1262
1227
1168
1088
1004
934
901
896
907
912
906
897
890
884
880
877
879
874
874
874
875
878
877
883
892
902
911
922
931
936
949
961
972
979
985
986
986
990
994
998
998
999
1001
1004
1007
1006
1006
1003
1005
1008
1012
1012
1014
1015
1016
1017
1022
1025
1025
1021
1024
1028
1031
1033
1030
1029
1030
1036
1041
1043
1044
1047
1049
1050
1056
1058
1059
1060
1060
1066
1074
1076
1076
1074
1077
1079
1085
1090
1087
1082
1080
1077
1074
1072
1066
1060
1057
1052
1053
1050
1040
1035
1030
1028
1027
1026
1019
1013
1008
1008
1009
1005
999
994
988
989
991
990
986
981
977
978
983
982
982
979
979
981
987
985
979
974
975
977
980
984
985
982
983
984
985
984
981
979
978
981
983
983
986
986
982
983
986
986
989
985
984
985
989
989
985
981
979
980
985
985
985
984
978
982
984
983
981
977
976
983
983
984
982
979
980
979
980
980
979
976
977
981
985
986
984
982
987
992
998
1002
1003
1002
1007
1011
1016
1019
1019
1017
1020
1027
1030
1034
1031
1031
1030
1032
1034
1035
1033
1029
1026
1026
1023
1019
1014
1006
999
995
990
986
978
975
973
970
970
970
965
961
959
959
964
962
961
959
958
958
962
966
963
962
964
966
973
973
974
972
973
976
982
988
996
1001
1017
1043
1075
1106
1145
1185
1220
1251
1255
1213
1129
1031
954
913
913
924
921
907
897
893
891
888
884
881
882
880
879
878
880
876
874
874
875
873
876
875
880
888
895
902
906
912
922
929
949
960
969
976
981
984
987
991
994
992
996
998
999
1000
999
999
1000
1000
1007
1010
1005
1001
1003
1007
1010
1014
1009
1008
1010
1013
1016
1020
1017
1016
1018
1020
1024
1027
1026
1026
1028
1035
1041
1044
1044
1040
1044
1051
1056
1060
1062
1059
1059
1062
1067
1066
1066
1064
1063
1067
1067
1067
1067
1062
1059
1057
1057
1052
1047
1041
1036
1034
1033
1024
1019
1013
1010
1005
1006
1006
1001
996
988
988
988
984
980
976
975
971
976
977
972
971
968
968
973
973
974
970
970
972
974
974
969
969
966
969
974
974
974
972
971
971
971
971
967
966
968
972
976
976
975
968
965
968
973
974
973
969
969
968
969
969
968
964
962
961
966
971
967
965
964
964
963
965
964
962
963
970
974
977
979
981
981
987
992
996
999
1003
1005
1009
1013
1015
1013
1009
1004
1004
999
993
977
969
965
962
963
961
955
950
947
946
947
947
944
941
940
941
938
941
936
931
932
934
938
938
939
932
931
937
942
948
949
954
967
988
1022
1060
1107
1154
1193
1215
1211
1163
1088
1006
939
901
889
895
894
890
882
874
869
862
852
846
848
852
855
851
843
838
835
841
851
862
870
874
878
897
906
920
930
938
942
947
950
950
949
946
948
953
954
957
955
958
960
958
962
966
963
965
964
969
971
972
969
965
966
969
974
977
981
980
981
984
985
985
988
988
993
997
1002
1008
1007
1003
1006
1011
1016
1020
1022
1023
1022
1025
1027
1026
1025
1020
1018
1018
1021
1014
1005
1003
995
994
992
990
983
977
969
972
974
970
963
953
952
954
956
953
949
944
942
941
940
938
935
930
928
930
938
937
934
930
927
927
931
932
933
929
930
933
936
935
931
927
929
929
936
938
934
936
935
939
941
937
938
935
932
936
939
941
939
937
936
935
939
939
936
937
937
940
940
942
939
936
938
943
948
954
956
956
956
958
959
963
963
964
970
978
989
995
994
993
987
990
994
994
990
984
978
974
967
960
950
942
939
940
941
941
939
937
936
934
935
933
933
930
928
931
933
935
933
931
930
934
931
935
936
937
938
940
943
942
940
942
943
954
965
976
991
1011
1043
1089
1140
1185
1224
1246
1243
1213
1148
1068
978
916
884
887
898
900
895
883
869
866
867
861
860
860
861
864
863
861
862
856
861
869
882
890
899
906
913
927
942
950
958
965
969
977
982
985
987
988
990
989
997
1002
1003
1001
1003
1007
1012
1011
1011
1009
1012
1017
1022
1029
1028
1026
1026
1028
1036
1038
1039
1046
1050
1054
1059
1061
1061
1066
1072
1077
1083
1082
1082
1084
1085
1092
1094
1098
1098
1096
1094
1092
1094
1091
1086
1081
1077
1075
1071
1065
1056
1053
1049
1048
1043
1039
1032
1025
1021
1021
1021
1021
1018
1016
1014
1015
1015
1015
1013
1010
1009
1010
1011
1013
1011
1011
1013
1013
1017
1017
1018
1016
1015
1019
1022
1024
1023
1019
1017
1017
1027
1028
1027
1020
1020
1020
1023
1023
1023
1022
1023
1031
1033
1035
1039
1040
1044
1047
1055
1058
1059
1061
1064
1066
1070
1074
1070
1067
1066
1062
1054
1053
1041
1034
1026
1023
1021
1019
1013
1009
1005
1006
1008
1010
1007
999
1000
998
1001
999
997
996
998
1001
1002
1001
998
998
998
1004
1011
1016
1020
1021
1031
1049
1083
1120
1166
1212
1255
1290
1294
1252
1171
1077
998
952
945
954
955
944
930
923
921
918
911
910
911
914
916
911
906
900
903
914
928
937
946
953
965
977
994
1008
1015
1015
1020
1023
1027
1028
1030
1030
1030
1034
1041
1043
1041
1038
1037
1040
1044
1044
1047
1044
1047
1050
1052
1052
1050
1051
1054
1059
1064
1066
1066
1061
1067
1069
1073
1079
1080
1080
1083
1088
1091
1097
1096
1096
1101
1105
1110
1107
1106
1103
1100
1102
1103
1104
1101
1093
1087
1082
1081
1075
1071
1063
1060
1054
1050
1047
1041
1035
1031
1029
1027
1026
1021
1012
1008
1007
1009
1008
1006
1003
1002
1007
1007
1006
1003
998
1001
1003
1007
1004
1002
998
999
1002
1007
1004
1007
1004
1006
1007
1006
1002
1000
1003
1006
1009
1011
1010
1007
1004
1002
1008
1011
1014
1010
1003
1006
1009
1016
1023
1025
1021
1023
1029
1036
1041
1043
1046
1051
1056
1057
1055
1053
1050
1050
1046
1041
1034
1020
1009
1003
1002
1002
999
994
989
983
984
985
985
985
983
978
977
979
979
980
976
978
978
985
987
984
983
981
988
996
1004
1019
1042
1079
1126
1183
1234
1269
1277
1242
1173
1085
1000
941
917
924
933
933
921
908
899
889
891
895
897
893
888
885
881
883
890
898
908
918
932
941
956
966
971
982
988
994
997
999
998
999
998
1002
1005
1005
1003
1005
1008
1012
1011
1013
1010
1008
1013
1018
1021
1022
1018
1018
1020
1026
1027
1028
1028
1029
1032
1037
1042
1044
1043
1045
1048
1054
1057
1058
1057
1058
1064
1066
1067
1068
1069
1069
1071
1076
1074
1066
1062
1056
1055
1057
1052
1046
1037
1031
1027
1024
1020
1018
1013
1008
1003
1004
998
992
987
985
983
986
985
979
973
971
971
974
974
972
969
966
970
972
970
970
967
963
968
968
971
968
965
963
967
968
969
968
966
968
969
966
964
965
964
964
971
973
973
970
967
965
965
968
969
968
963
966
966
964
964
962
960
959
965
969
973
974
973
977
982
986
989
990
992
994
1001
1006
1008
1011
1009
1010
1010
1009
1009
1002
992
986
978
972
966
959
952
949
943
946
943
938
935
934
935
935
934
930
925
924
924
929
928
927
923
923
922
927
925
925
925
930
934
943
949
965
985
1018
1065
1113
1159
1196
1218
1210
1157
1078
984
901
855
851
864
867
858
847
835
828
825
823
825
826
821
816
812
812
812
814
817
830
839
847
856
865
874
887
896
903
909
909
909
907
911
917
920
921
921
920
922
922
921
926
924
927
931
932
932
930
929
928
931
932
939
939
935
938
940
944
946
947
948
950
955
960
965
965
964
964
967
973
979
978
980
981
984
987
990
989
984
982
983
981
978
969
963
956
952
952
951
940
933
929
928
926
922
919
913
909
910
909
908
901
893
891
891
896
897
895
891
887
889
889
890
887
883
884
889
893
892
889
888
887
890
895
896
894
891
892
897
898
897
896
894
896
899
905
903
899
899
895
897
903
904
904
901
899
902
904
905
902
901
902
907
915
918
916
916
914
922
929
931
933
937
941
946
950
950
949
948
948
951
954
950
945
938
933
923
918
913
909
906
902
898
898
896
894
893
894
896
897
896
891
888
886
889
891
891
891
891
895
895
898
894
896
896
900
903
911
915
927
944
969
1008
1059
1110
1156
1191
1207
1189
1136
1052
963
889
848
847
855
858
850
839
833
828
825
820
820
820
823
824
823
819
812
807
809
819
832
839
845
853
859
874
888
901
911
918
923
927
932
933
931
932
935
939
946
948
945
946
946
947
950
951
955
955
958
960
964
966
967
966
965
968
974
977
978
979
982
986
989
992
991
995
996
1005
1012
1017
1017
1016
1017
1024
1028
1034
1035
1036
1037
1042
1046
1046
1044
1038
1039
1041
1043
1039
1032
1023
1020
1018
1016
1011
1007
1001
998
995
993
989
983
977
974
970
976
972
970
963
958
958
956
957
957
956
954
956
956
956
950
947
950
957
960
961
959
957
956
961
964
966
966
963
965
967
972
971
968
965
966
967
974
974
974
972
972
973
978
978
977
971
970
971
979
982
983
979
975
977
980
979
980
980
983
987
997
999
999
1002
998
1004
1010
1018
1020
1024
1026
1031
1037
1038
1035
1035
1035
1036
1038
1038
1033
1027
1017
1011
1004
998
996
991
987
986
986
982
981
976
974
975
976
980
972
971
967
970
974
977
979
976
975
978
981
981
983
985
993
1002
1023
1048
1084
1129
1186
1241
1286
1300
1277
1207
1107
1014
945
915
912
917
922
921
914
907
898
895
888
894
900
899
897
894
889
888
891
901
908
912
924
934
951
958
969
978
987
996
1006
1010
1011
1011
1011
1013
1014
1015
1018
1020
1020
1025
1029
1028
1026
1024
1025
1024
1030
1036
1036
1034
1033
1037
1040
1042
1041
1041
1043
1049
1054
1056
1057
1056
1056
1062
1068
1075
1076
1078
1082
1084
1088
1091
1090
1091
1096
1100
1106
1105
1107
1104
1104
1105
1105
1105
1102
1097
1095
1090
1094
1089
1084
1074
1069
1067
1063
1057
1055
1044
1043
1043
1041
1037
1031
1025
1020
1018
1023
1021
1018
1014
1011
1012
1013
1006
1005
999
997
998
1003
1003
1001
992
994
994
997
996
994
991
990
993
997
997
995
994
995
994
996
995
994
991
993
992
995
999
996
993
995
996
1000
1000
995
995
995
1000
1003
1003
1001
998
995
1000
999
998
995
995
998
1001
1005
1006
1002
1000
997
996
997
998
999
995
997
999
1001
1003
999
997
994
996
999
1000
1002
1005
1008
1014
1018
1017
1018
1018
1018
1022
1027
1030
1033
1032
1038
1044
1051
1048
1048
1045
1045
1044
1048
1049
1047
1042
1034
1031
1028
1021
1007
1000
994
994
996
993
991
989
983
985
984
980
977
974
978
978
982
980
978
972
972
973
972
971
972
972
972
979
980
982
980
976
976
983
991
997
1011
1029
1051
1089
1134
1177
1222
1264
1297
1308
1297
1253
1175
1091
1011
950
918
911
918
925
925
924
921
916
909
898
891
890
894
896
897
894
893
891
889
890
896
903
914
930
943
956
969
981
988
994
996
1004
1004
1007
1004
1007
1014
1015
1010
1010
1010
1014
1021
1024
