957
950
946
944
951
957
959
963
966
973
987
1014
1045
1093
1143
1205
1256
1279
1263
1199
1099
1005
931
897
892
904
913
907
901
894
887
880
874
872
876
885
887
883
874
872
871
878
886
894
900
909
918
930
941
951
961
966
972
977
981
984
984
987
989
992
993
992
992
996
1001
1003
1005
1009
1005
1004
1007
1010
1013
1014
1014
1016
1022
1026
1031
1030
1028
1031
1032
1039
1042
1047
1046
1048
1049
1053
1060
1061
1065
1069
1074
1080
1081
1082
1080
1080
1080
1087
1092
1093
1091
1085
1085
1084
1080
1074
1068
1061
1060
1056
1055
1048
1042
1036
1030
1029
1027
1022
1014
1010
1009
1010
1007
1004
997
993
989
993
993
987
988
986
984
988
987
981
980
983
987
991
993
992
989
987
986
989
990
988
986
990
992
994
996
993
991
990
989
995
999
999
1000
994
993
997
1000
995
995
996
996
1002
1007
1004
1000
998
1000
1001
1003
1002
1002
1000
1004
1008
1010
1011
1013
1015
1016
1022
1028
1033
1031
1036
1039
1044
1049
1053
1049
1052
1055
1058
1060
1058
1054
1047
1040
1036
1030
1022
1016
1011
1009
1008
1006
1005
1001
995
998
1001
1001
1001
997
995
992
995
996
995
995
993
993
999
1000
999
996
994
995
1001
1004
1007
1010
1015
1025
1043
1067
1100
1141
1194
1249
1301
1334
1329
1280
1196
1099
1018
960
938
940
952
957
954
945
938
928
921
920
925
933
936
931
927
919
921
924
928
934
943
953
963
976
983
991
1000
1011
1018
1026
1030
1030
1030
1033
1036
1041
1041
1041
1042
1042
1048
1053
1055
1055
1053
1055
1056
1060
1057
1058
1058
1062
1067
1072
1075
1070
1072
1076
1078
1083
1086
1088
1090
1092
1100
1103
1104
1101
1102
1107
1112
1118
1119
1122
1123
1122
1126
1126
1127
1126
1126
1129
1132
1132
1129
1124
1119
1115
1113
1110
1105
1098
1092
1090
1084
1080
1077
1067
1059
1057
1054
1052
1046
1045
1039
1036
1034
1032
1025
1021
1019
1022
1023
1024
1022
1016
1015
1015
1015
1015
1016
1013
1014
1017
1019
1019
1015
1013
1013
1015
1018
1018
1022
1019
1021
1020
1021
1023
1020
1018
1016
1019
1023
1023
1020
1018
1018
1018
1019
1019
1017
1014
1017
1020
1022
1022
1018
1015
1015
1013
1015
1020
1020
1017
1016
1018
1022
1026
1028
1028
1029
1033
1041
1045
1047
1046
1047
1051
1059
1060
1063
1062
1063
1065
1071
1073
1067
1062
1056
1053
1050
1044
1036
1031
1022
1023
1020
1019
1013
1008
1005
1006
1008
1009
1008
1006
1002
999
1000
1001
1000
997
996
999
1005
1004
1004
999
996
1001
1002
1006
1006
1003
1006
1011
1014
1023
1029
1040
1060
1091
1132
1179
1231
1277
1313
1332
1319
1263
1174
1081
1005
954
941
951
962
963
950
944
944
940
929
925
928
933
937
940
936
931
926
923
928
939
949
955
960
970
983
990
1001
1009
1017
1023
1027
1033
1034
1034
1033
1035
1038
1043
1041
1041
1043
1046
1051
1053
1054
1051
1050
1049
1054
1056
1058
1059
1061
1066
1068
1071
1069
1067
1067
1073
1080
1085
1089
1087
1087
1088
1094
1097
1099
1102
1103
1105
1113
1116
1117
1114
1115
1119
1122
1125
1128
1127
1125
1126
1126
1123
1116
1108
1104
1102
1100
1097
1091
1085
1077
1070
1069
1064
1053
1046
1044
1040
1038
1035
1029
1020
1014
1010
1010
1009
1005
1002
998
999
998
998
992
988
990
992
997
997
996
992
990
992
995
994
996
996
997
998
1002
1000
1000
995
990
995
997
1000
1001
999
994
995
998
997
998
996
997
997
1001
1000
999
995
992
993
995
996
994
994
993
995
996
997
994
995
996
997
1002
1008
1011
1011
1012
1014
1016
1023
1026
1028
1031
1035
1040
1042
1041
1037
1032
1027
1026
1021
1016
1008
1002
998
995
990
985
978
976
974
978
978
978
972
971
970
970
967
967
966
964
966
968
971
971
967
965
964
967
971
971
970
972
977
979
985
985
989
999
1019
1052
1089
1136
1186
1235
1277
1300
1287
1231
1148
1056
983
934
915
913
922
925
921
916
912
906
897
893
890
896
903
899
891
884
883
886
890
897
905
908
917
925
935
945
948
960
972
980
989
990
988
986
988
994
995
997
995
996
999
1003
1004
1008
1006
1002
1003
1007
1012
1012
1014
1015
1014
1021
1021
1020
1021
1021
1026
1032
1040
1040
1039
1041
1042
1048
1053
1054
1057
1060
1063
1068
1068
1071
1071
1071
1072
1083
1087
1088
1088
1087
1088
1088
1090
1084
1079
1076
1073
1072
1070
1065
1055
1048
1041
1039
1036
1031
1026
1018
1012
1015
1014
1006
999
992
988
987
988
984
980
977
977
977
978
975
970
964
964
970
973
973
971
969
968
968
969
969
965
963
963
973
973
972
970
966
967
970
971
969
969
968
970
974
974
972
968
968
968
971
972
975
972
970
969
973
973
972
969
968
970
975
975
975
972
974
976
979
983
983
985
988
990
996
999
997
994
999
1002
1008
1013
1016
1013
1009
1014
1017
1014
1011
1002
996
991
988
983
979
974
970
966
967
965
964
962
959
963
966
966
962
958
954
957
957
960
958
956
958
960
964
965
961
960
961
966
968
975
976
977
980
990
1008
1036
1074
1116
1169
1227
1278
1305
1290
1226
1131
1031
955
918
908
918
926
928
923
917
911
903
896
894
900
906
903
901
896
895
894
896
900
905
913
924
933
942
950
959
969
983
995
1004
1005
1008
1010
1010
1014
1018
1017
1016
1017
1020
1024
1031
1032
1030
1031
1032
1034
1039
1035
1037
1035
1045
1050
1054
1054
1051
1053
1056
1061
1068
1069
1070
1074
1076
1082
1085
1087
1086
1087
1093
1101
1107
1107
1107
1106
1109
1112
1115
1116
1117
1114
1118
1122
1122
1117
1109
1103
1098
1099
1096
1091
1086
1077
1075
1076
1071
1063
1054
1049
1044
1046
1044
1039
1032
1024
1023
1024
1023
1022
1018
1013
1013
1015
1017
1009
1004
1003
1005
1007
1009
1010
1009
1009
1007
1010
1010
1003
1005
1005
1008
1009
1012
1011
1005
1004
1005
1008
1011
1012
1011
1010
1012
1010
1015
1012
1006
1007
1008
1012
1017
1014
1011
1010
1010
1011
1012
1013
1005
1005
1006
1008
1013
1012
1007
1005
1006
1013
1017
1018
1022
1026
1029
1030
1035
1035
1037
1038
1044
1052
1058
1059
1056
1050
1048
1049
1049
1045
1039
1031
1029
1024
1019
1014
1004
1000
1000
999
1002
1001
996
995
995
993
997
993
990
986
985
988
992
993
990
987
987
988
991
990
987
988
995
998
1002
1002
1005
1007
1019
1037
1062
1097
1137
1186
1240
1291
1331
1338
1300
1219
1122
1032
966
933
926
938
946
944
939
933
923
916
912
918
920
919
915
914
915
914
915
918
925
933
942
951
958
962
969
981
994
1005
1012
1017
1018
1017
1021
1024
1023
1026
1026
1028
1032
1035
1039
1041
1039
1039
1040
1042
1046
1046
1046
1046
1051
1055
1058
1060
1055
1055
1061
1064
1074
1076
1078
1077
1077
1083
1088
1093
1092
1095
1101
1104
1107
1108
1108
1108
1109
1117
1118
1122
1122
1119
1123
1123
1123
1118
1112
1105
1104
1102
1099
1091
1084
1077
1070
1067
1062
1056
1050
1045
1041
1036
1037
1027
1024
1019
1017
1016
1015
1011
1008
1003
1001
1000
1003
996
995
995
997
998
999
1000
993
991
991
993
996
994
995
997
997
997
998
996
990
988
992
999
1001
1001
997
998
997
998
998
1000
999
999
999
1002
1006
1004
997
994
996
997
1001
1003
997
996
995
996
999
995
992
993
997
997
1003
1003
1004
1004
1006
1011
1013
1014
1013
1018
1022
1032
1035
1036
1037
1036
1038
1040
1042
1041
1035
1027
1022
1020
1013
1003
996
991
988
989
993
987
979
972
975
977
981
978
975
975
975
979
977
973
970
967
969
974
975
974
975
972
975
977
980
981
979
982
990
1000
1015
1036
1061
1099
1147
1203
1256
1297
1310
1286
1219
1128
1036
958
914
907
921
935
936
928
915
907
900
898
897
900
900
898
898
898
900
899
896
900
910
923
935
941
947
956
971
979
991
991
991
993
996
1001
1005
1006
1005
1002
1002
1003
1010
1011
1010
1011
1010
1016
1019
1020
1015
1016
1022
1027
1034
1033
1033
1032
1034
1039
1040
1039
1044
1045
1053
1057
1062
1063
1062
1061
1063
1070
1073
1073
1076
1076
1083
1086
1091
1089
1089
1088
1089
1090
1092
1089
1080
1076
1071
1068
1063
1056
1051
1045
1042
1038
1033
1027
1017
1009
1006
1003
1002
1000
994
989
986
985
981
977
972
969
969
972
973
971
966
961
961
961
962
960
959
959
961
963
965
962
957
955
957
964
968
968
966
965
964
965
966
963
963
963
967
967
967
969
966
962
964
967
969
967
965
965
966
969
970
971
964
964
964
967
970
968
965
961
964
963
966
965
964
967
973
983
986
987
982
982
987
992
1001
1003
1010
1009
1011
1012
1011
1008
1005
1003
1004
1003
999
989
980
970
968
967
969
965
961
956
957
957
956
950
948
947
947
950
952
949
948
944
948
949
950
948
948
949
951
958
961
958
957
960
967
981
1000
1026
1058
1099
1153
1209
1259
1287
1271
1200
1097
995
927
895
897
906
913
910
906
900
892
885
882
884
886
884
884
880
881
884
888
896
902
905
915
928
940
952
963
973
979
986
990
990
989
989
995
997
1001
1004
1002
1001
1003
1007
1012
1013
1012
1011
1018
1024
1025
1021
1019
1022
1024
1031
1037
1038
1039
1040
1042
1046
1052
1050
1053
1055
1060
1068
1072
1072
1071
1072
1073
1080
1086
1090
1089
1088
1091
1092
1096
1094
1089
1087
1087
1082
1079
1072
1064
1056
1052
1048
1048
1042
1033
1029
1023
1023
1017
1011
1002
1000
997
998
998
996
990
988
984
986
987
986
983
984
982
988
988
984
984
983
984
988
991
989
989
988
989
988
991
991
991
991
992
995
997
994
990
993
993
995
999
999
998
996
994
996
997
997
993
991
996
998
1001
999
995
992
991
993
994
994
995
993
996
999
1001
1001
1003
1006
1011
1018
1024
1028
1027
1029
1033
1040
1047
1050
1052
1052
1050
1054
1052
1048
1040
1033
1030
1024
1017
1012
1005
1003
997
1000
999
996
993
986
992
995
995
991
984
983
983
989
990
991
987
985
988
990
992
989
987
988
991
997
1004
1007
1009
1020
1035
1064
1103
1152
1206
1263
1310
1334
1312
1235
1129
1028
952
926
929
941
945
941
935
931
924
916
911
913
917
921
922
921
910
911
914
919
933
941
947
955
966
981
992
1003
1010
1017
1021
1030
1035
1035
1037
1036
1036
1039
1043
1044
1045
1043
1049
1054
1057
1055
1051
1053
1054
1060
1065
1066
1066
1067
1069
1072
1076
1074
1077
1079
1083
1089
1092
1094
1092
1096
1098
1103
1107
1111
1114
1115
1118
1122
1124
1124
1122
1124
1123
1127
1130
1129
1123
1117
1112
1109
1106
1101
1093
1088
1083
1080
1075
1067
1057
1052
1047
1047
1047
1045
1039
1034
1029
1027
1025
1024
1021
1019
1020
1019
1020
1016
1011
1008
1008
1011
1014
1015
1012
1012
1010
1010
1015
1012
1011
1009
1013
1016
1020
1017
1010
1008
1009
1014
1016
1019
1016
1016
1016
1017
1019
1013
1011
1011
1013
1018
1020
1016
1014
1008
1008
1013
1014
1014
1011
1011
1011
1012
1012
1008
1006
1006
1007
1012
1013
1011
1007
1006
1006
1009
1011
1015
1017
1021
1026
1032
1033
1031
1034
1033
1040
1047
1050
1055
1057
1057
1053
1057
1055
1050
1047
1045
1039
1037
1031
1022
1011
1005
1004
1007
1010
1007
1005
999
997
997
997
996
992
990
992
994
997
994
991
989
990
994
999
999
997
998
997
1000
1008
1010
1018
1033
1062
1100
1152
1204
1262
1304
1321
1302
1225
1118
1014
950
928
941
954
956
945
938
933
931
925
919
918
919
921
921
921
919
919
927
936
946
950
961
968
982
999
1013
1019
1023
1022
1019
1020
1027
1032
1036
1034
1034
1035
1036
1037
1040
1038
1037
1041
1046
1051
1049
1050
1049
1048
1053
1057
1060
1059
1061
1063
1066
1072
1074
1073
1071
1076
1084
1091
1093
1090
1090
1091
1098
1101
1104
1104
1104
1110
1114
1117
1112
1106
1103
1103
1104
1103
1099
1091
1082
1077
1073
1068
1065
1057
1053
1051
1046
1043
1036
1029
1023
1021
1020
1021
1017
1012
1007
1007
1004
1004
1001
997
994
994
999
999
995
992
987
990
991
997
994
989
989
990
992
993
993
988
990
992
994
997
992
990
989
989
992
989
991
991
988
993
997
994
990
987
980
980
984
988
986
985
987
988
989
987
983
981
980
982
987
987
986
985
983
983
987
992
993
995
998
1003
1006
1009
1010
1010
1012
1017
1024
1028
1029
1025
1027
1026
1024
1021
1014
1008
1000
992
987
983
980
972
970
965
966
967
970
968
964
962
962
962
958
957
957
956
959
960
959
956
957
956
957
962
966
967
965
969
972
981
989
1001
1020
1052
1100
1155
1208
1250
1273
1259
1207
1126
1033
953
909
904
921
934
931
917
907
901
895
891
890
893
892
893
892
895
887
882
880
880
895
906
914
917
923
933
946
959
972
976
980
983
986
988
991
991
986
989
995
1000
1002
999
996
998
1004
1006
1007
1003
1004
1006
1012
1014
1013
1011
1011
1013
1018
1023
1028
1028
1029
1034
1039
1043
1043
1042
1041
1046
1055
1063
1062
1062
1062
1063
1069
1073
1071
1071
1073
1076
1078
1080
1073
1066
1061
1060
1058
1056
1052
1044
1040
1039
1037
1031
1026
1016
1011
1009
1007
1008
1001
993
989
986
983
984
980
975
971
972
974
975
970
965
963
967
970
972
971
967
965
965
969
972
969
965
962
963
969
973
971
968
963
966
968
970
968
966
966
966
971
975
971
965
962
963
965
970
965
967
964
963
967
970
967
963
961
961
967
971
969
970
968
969
975
977
982
980
978
984
994
996
995
995
997
1001
1010
1017
1019
1019
1015
1014
1015
1016
1012
1004
994
990
987
986
981
974
969
969
969
965
962
960
957
957
960
962
959
955
953
954
954
956
952
954
951
954
957
961
958
956
957
955
960
965
968
970
972
972
979
996
1015
1044
1080
1136
1187
1237
1271
1286
1271
1224
1154
1070
988
925
896
905
919
930
927
917
905
901
895
896
891
893
896
898
898
896
890
885
882
890
902
914
924
929
929
940
956
968
976
983
991
996
1003
1007
1008
1006
1008
1009
1013
1019
1015
1012
1016
1020
1024
1024
1026
1025
1024
1026
1030
1031
1036
1035
1034
1039
1043
1049
1048
1045
1047
1049
1055
1065
1065
1067
1065
1071
1074
1080
1082
1082
1083
1087
1095
1100
1101
1097
1096
1099
1105
1111
1112
1109
1103
1102
1106
1102
1096
1088
1082
1079
1081
1081
1072
1063
1059
1053
1047
1047
1041
1035
1030
1029
1029
1029
1024
1015
1008
1010
1010
1015
1012
1010
1009
1006
1007
1010
1005
1003
1001
1005
1008
1008
1009
1006
1002
1003
1008
1012
1010
1007
1007
1009
1014
1014
1010
1008
1006
1007
1013
1016
1015
1013
1011
1009
1012
1012
1010
1008
1004
1005
1010
1015
1012
1008
1005
1008
1009
1012
1011
1010
1010
1015
1019
1027
1027
1026
1025
1026
1034
1040
1038
1040
1041
1043
1051
1054
1052
1049
1049
1049
1054
1054
1051
1040
1030
1023
1018
1014
1010
1005
1003
998
1000
1001
998
993
988
988
991
993
993
990
988
988
989
991
988
984
986
989
991
997
998
993
991
993
994
996
996
1001
1003
1011
1025
1044
1069
1103
1148
1202
1255
1300
1325
1320
1276
1201
1115
1035
971
936
930
940
954
955
948
939
932
925
917
914
912
914
917
923
921
922
916
914
914
922
932
940
950
956
965
976
993
1004
1009
1013
1013
1017
1024
1030
1030
1029
1028
1032
1035
1038
1035
1035
1035
1038
1045
1047
1048
1045
1042
1047
1050
1054
1053
1051
1051
1058
1064
1071
1067
1065
1064
1070
1074
1082
1080
1082
1086
1090
1096
1099
1100
1099
1098
1103
1112
1118
1117
1116
1117
1120
1122
1125
1125
1123
1123
1124
1125
1126
1123
1116
1106
1100
1099
1096
1093
1085
1080
1077
1073
1071
1065
1059
1052
1046
1043
1045
1041
1037
1031
1029
1025
1024
1022
1015
1014
1012
1012
1016
1013
1012
1008
1010
1009
1009
1008
1005
1006
1004
1005
1012
1012
1007
1007
1006
1009
1009
1010
1008
1011
1009
1014
1013
1009
1006
1008
1009
1011
1012
1013
1010
1011
1009
1009
1011
1007
1007
1004
1008
1010
1011
1011
1008
1006
1005
1008
1009
1009
1005
1003
1007
1011
1017
1016
1018
1018
1022
1025
1029
1028
1031
1034
1038
1044
1050
1050
1050
1045
1049
1054
1057
1054
1050
1041
1037
1033
1028
1019
1008
1000
998
1002
1004
1001
995
989
986
990
991
989
985
982
983
984
988
983
979
975
979
984
988
987
984
983
987
988
989
992
992
991
994
1007
1014
1027
1048
1074
1114
1165
1217
1265
1298
1306
1283
1222
1130
1038
959
923
922
937
950
946
939
929
922
914
911
905
904
906
911
911
912
907
904
903
912
924
931
937
945
952
960
977
988
994
1001
1001
1002
1009
1013
1016
1015
1017
1017
1021
1024
1021
1021
1021
1024
1026
1031
1031
1032
1027
1029
1032
1033
1038
1040
1040
1043
1047
1052
1050
1049
1050
1049
1053
1062
1067
1067
1065
1067
1068
1073
1077
1077
1076
1082
1087
1090
1091
1092
1093
1092
1095
1100
1097
1095
1094
1093
1094
1092
1084
1079
1073
1069
1065
1060
1056
1051
1046
1040
1037
1031
1024
1018
1013
1011
1012
1009
1006
1001
993
993
991
991
989
986
985
987
986
986
986
981
975
975
977
979
981
980
980
978
984
983
980
976
977
978
981
985
983
980
977
979
980
981
979
976
976
977
980
983
981
974
974
974
978
976
972
973
975
975
977
978
975
972
970
970
977
980
983
982
984
986
990
992
990
989
990
993
1002
1011
1014
1015
1011
1013
1015
1015
1016
1011
1009
1006
1004
1002
995
976
973
966
966
969
966
964
961
956
956
959
958
953
951
949
953
957
956
954
950
948
950
954
953
952
950
951
955
956
957
956
955
957
958
969
977
987
1006
1035
1070
1121
1172
1219
1254
1271
1256
1205
1118
1030
957
913
901
907
916
916
909
902
900
896
889
884
879
880
883
888
887
884
881
879
882
888
896
904
909
920
928
944
954
965
974
981
984
988
986
987
987
991
997
1000
1001
1001
1002
1001
1003
1008
1008
1010
1008
1012
1019
1022
1018
1015
1016
1018
1023
1026
1026
1026
1029
1032
1035
1039
1041
1037
1040
1044
1051
1055
1058
1056
1055
1061
1062
1068
1068
1073
1075
1077
1077
1081
1077
1077
1075
1073
1076
1072
1068
1063
1054
1049
1046
1042
1037
1031
1024
1021
1017
1016
1009
1003
996
992
993
993
991
984
980
977
975
976
974
968
969
970
974
977
973
968
966
967
968
971
972
971
969
974
976
976
974
971
969
971
977
979
979
974
973
974
976
981
982
980
979
976
980
982
980
975
974
974
977
986
986
983
983
985
987
993
995
997
993
997
1007
1014
1015
1011
1011
1015
1025
1027
1024
1024
1023
1025
1024
1020
1014
1004
995
992
991
989
985
977
972
970
974
975
973
968
966
971
973
971
966
966
964
966
970
974
974
972
967
971
976
978
977
976
975
978
986
993
1000
1011
1028
1062
1110
1163
1215
1260
1296
1300
1265
