1022
1018
1016
1018
1024
1025
1028
1027
1029
1030
1033
1035
1035
1039
1041
1047
1053
1053
1051
1052
1052
1058
1065
1066
1069
1069
1069
1072
1078
1080
1080
1082
1083
1083
1088
1090
1093
1089
1086
1086
1085
1083
1075
1070
1059
1061
1054
1048
1042
1031
1029
1028
1025
1020
1010
1005
999
1003
1004
1001
997
993
992
989
989
990
988
986
985
988
987
987
984
979
977
979
982
982
984
980
984
986
986
985
984
983
985
985
992
994
988
983
980
984
989
991
991
987
984
985
987
989
986
984
984
986
988
986
982
977
975
978
979
982
980
977
976
975
976
975
974
975
975
977
986
992
992
992
994
996
998
1004
1005
1008
1013
1020
1024
1029
1029
1026
1028
1029
1030
1025
1022
1014
1006
996
986
984
979
972
968
968
965
964
960
956
955
956
958
955
952
949
947
947
949
951
951
947
947
949
951
948
946
945
946
947
956
961
959
964
975
995
1028
1071
1120
1174
1224
1265
1279
1245
1165
1056
962
899
882
892
903
901
892
884
876
873
864
859
858
861
868
864
861
852
850
851
855
866
873
878
886
897
910
920
933
944
951
958
964
965
966
967
966
970
974
976
972
975
974
974
979
979
978
973
974
981
988
992
990
989
988
991
995
998
997
993
999
1002
1007
1009
1004
1005
1007
1014
1017
1022
1025
1023
1026
1031
1036
1042
1042
1041
1046
1051
1056
1057
1056
1052
1051
1051
1054
1053
1049
1042
1038
1034
1033
1027
1021
1013
1010
1008
1006
1002
998
987
981
975
977
977
974
969
964
961
961
959
957
951
950
951
952
950
948
942
939
940
942
943
942
942
941
940
947
946
945
942
942
944
948
946
947
942
941
944
947
950
954
951
950
953
951
955
950
946
945
948
953
955
955
952
948
949
948
948
947
947
948
946
951
952
949
948
947
949
949
953
957
962
966
968
970
973
975
975
980
988
996
1000
1001
998
997
995
995
990
991
989
985
975
966
959
951
945
941
946
946
945
944
940
936
934
930
931
930
928
928
932
934
931
927
925
924
929
934
936
935
932
934
934
939
943
945
950
959
977
1001
1037
1076
1121
1170
1217
1248
1254
1214
1142
1048
963
903
880
881
892
892
887
880
872
865
859
850
854
858
861
858
855
853
853
857
854
855
857
865
877
892
902
910
921
933
945
957
962
965
967
969
975
981
984
986
981
983
986
989
994
993
993
989
996
1000
1000
1000
1001
1003
1006
1011
1016
1015
1012
1012
1017
1023
1026
1028
1029
1032
1035
1040
1043
1043
1042
1047
1051
1060
1064
1068
1068
1066
1069
1074
1075
1074
1075
1081
1084
1088
1088
1085
1080
1076
1071
1070
1071
1067
1060
1055
1053
1051
1044
1038
1031
1026
1026
1026
1022
1021
1011
1007
1005
1005
1004
1002
998
995
994
996
996
994
991
990
992
996
997
994
995
989
992
992
994
990
990
993
996
1000
1001
995
992
994
998
1001
1005
1002
1001
1002
1000
1004
1005
1005
1007
1007
1010
1013
1014
1010
1007
1003
1007
1010
1009
1012
1011
1011
1009
1013
1013
1009
1007
1005
1010
1012
1015
1014
1008
1009
1012
1016
1017
1018
1021
1027
1030
1036
1040
1039
1038
1039
1045
1057
1061
1063
1063
1064
1066
1067
1066
1064
1058
1055
1054
1049
1041
1030
1024
1017
1016
1015
1017
1012
1008
1005
1008
1004
1003
999
992
992
994
999
999
1000
994
992
992
1000
999
1000
998
998
1002
1006
1008
1004
1003
1004
1015
1028
1043
1064
1090
1127
1174
1223
1268
1303
1320
1308
1270
1201
1112
1028
964
930
928
938
943
943
933
925
920
917
908
905
907
907
907
911
911
910
905
909
918
928
939
946
957
965
979
994
1003
1007
1010
1011
1018
1023
1028
1029
1029
1028
1029
1031
1034
1035
1035
1035
1040
1042
1043
1043
1039
1035
1042
1045
1050
1053
1052
1053
1055
1058
1059
1060
1061
1063
1069
1072
1077
1075
1075
1075
1081
1086
1091
1095
1095
1097
1101
1107
1109
1108
1108
1110
1112
1115
1116
1112
1106
1100
1098
1098
1096
1092
1085
1079
1071
1067
1060
1053
1046
1042
1038
1039
1032
1026
1020
1016
1016
1018
1018
1013
1009
1006
1005
1002
1004
1003
1001
1002
1001
1004
1005
1001
995
993
999
1001
1004
1005
1002
1000
1002
1001
1003
1004
999
1000
1004
1005
1005
1001
1000
1003
1006
1009
1008
1008
1002
1001
1004
1005
1006
1007
1005
1004
1006
1007
1005
1000
1000
1001
1002
1005
1004
1003
998
996
999
1002
1008
1006
1007
1008
1011
1018
1022
1024
1022
1027
1031
1037
1042
1042
1044
1048
1049
1056
1059
1056
1051
1047
1045
1041
1036
1024
1015
1008
1006
1006
1004
995
989
986
987
988
989
986
984
980
980
980
981
976
978
976
979
981
984
978
979
978
982
988
990
991
991
996
1010
1033
1064
1107
1155
1205
1259
1299
1302
1253
1155
1046
960
917
916
927
927
920
910
903
900
888
889
892
894
897
891
882
880
882
890
902
914
920
927
937
952
968
982
990
992
992
995
1001
1001
1001
998
1002
1009
1012
1013
1011
1010
1010
1013
1015
1020
1021
1018
1022
1024
1026
1027
1027
1026
1028
1032
1036
1040
1042
1041
1040
1041
1049
1050
1050
1053
1056
1062
1069
1069
1068
1067
1070
1075
1082
1086
1088
1087
1085
1083
1087
1086
1084
1081
1075
1069
1067
1062
1056
1049
1044
1041
1038
1036
1028
1023
1012
1016
1015
1012
1008
1004
998
996
996
992
988
986
985
986
988
989
983
980
978
977
982
980
983
981
979
979
979
983
980
979
980
986
987
987
984
977
977
981
986
988
988
984
982
981
984
984
984
982
979
982
984
984
980
975
976
977
981
983
979
977
973
973
973
977
974
971
975
977
975
976
971
971
969
973
980
986
987
988
989
992
996
1000
1000
1003
1008
1014
1020
1022
1024
1019
1020
1017
1022
1023
1017
1011
1002
995
987
979
976
969
969
969
968
965
956
953
952
952
958
958
956
951
947
947
949
951
950
947
946
949
953
953
947
947
946
952
958
963
970
985
1004
1038
1082
1135
1188
1232
1264
1262
1216
1125
1020
934
887
882
895
908
903
892
882
873
864
862
862
860
864
865
862
857
850
847
850
863
877
889
901
908
918
930
940
951
956
958
960
965
965
967
967
962
966
969
976
974
975
973
974
975
980
983
985
984
984
987
990
990
987
985
986
987
994
1001
1003
1001
1001
1003
1008
1014
1013
1017
1019
1021
1029
1028
1031
1031
1033
1039
1046
1047
1044
1039
1037
1039
1040
1037
1029
1024
1019
1016
1013
1009
1002
995
989
987
984
982
973
967
961
960
964
964
961
953
949
947
944
948
947
945
947
947
949
948
944
941
939
943
947
948
947
944
945
941
943
947
949
946
945
942
947
951
950
952
950
954
955
954
952
948
947
950
952
954
951
947
943
943
948
947
947
944
945
948
952
957
953
953
953
961
967
971
972
974
976
980
989
998
999
999
998
1001
1003
1002
995
988
982
975
972
964
957
948
949
948
947
944
940
937
936
937
937
936
933
929
929
934
937
936
933
933
931
934
935
936
936
935
938
942
946
949
952
960
980
1014
1057
1109
1162
1209
1245
1257
1231
1162
1064
971
907
881
890
899
899
888
877
875
869
865
863
863
863
865
867
863
859
855
856
863
874
882
889
897
907
923
936
952
961
969
973
975
979
982
984
983
986
990
992
995
994
993
992
995
999
1004
1005
1005
1004
1007
1008
1012
1014
1017
1020
1024
1025
1031
1029
1028
1029
1040
1048
1054
1053
1054
1055
1060
1066
1072
1075
1076
1076
1080
1085
1087
1084
1082
1081
1085
1084
1079
1067
1060
1057
1054
1054
1052
1043
1038
1031
1028
1026
1024
1020
1016
1013
1010
1008
1004
1002
997
995
1000
1000
998
995
991
989
990
991
996
995
994
993
990
996
996
999
994
994
1001
1002
1004
1000
1001
997
1000
1008
1009
1006
1005
1003
1004
1009
1007
1002
1004
1005
1008
1009
1010
1007
1000
1005
1007
1008
1010
1010
1003
1004
1005
1006
1007
1008
1009
1014
1016
1023
1028
1028
1028
1028
1036
1043
1045
1052
1051
1055
1055
1059
1061
1057
1056
1052
1048
1045
1038
1028
1016
1012
1009
1009
1006
1001
994
993
993
996
997
995
994
988
990
989
988
985
987
987
988
991
992
990
988
988
991
995
999
1004
1004
1014
1031
1056
1096
1144
1194
1246
1287
1313
1298
1239
1148
1054
982
941
930
932
938
933
926
922
917
911
902
899
902
908
908
905
899
893
891
894
900
903
910
921
931
939
947
963
975
987
998
1005
1007
1009
1008
1010
1013
1016
1021
1021
1021
1022
1023
1027
1029
1025
1025
1025
1028
1034
1037
1035
1033
1033
1032
1038
1045
1046
1045
1043
1048
1052
1054
1056
1057
1060
1066
1071
1076
1075
1075
1075
1080
1087
1095
1096
1096
1094
1097
1099
1101
1099
1094
1094
1094
1093
1095
1088
1080
1071
1068
1067
1064
1057
1049
1045
1041
1036
1037
1028
1022
1020
1019
1016
1017
1012
1004
1000
1002
1002
1002
997
996
994
995
998
994
993
989
986
989
992
996
994
988
985
988
992
992
992
991
990
989
991
994
990
989
989
992
996
997
993
990
987
990
993
994
994
992
989
989
993
994
989
987
991
993
997
997
994
989
985
986
989
989
990
989
991
991
995
996
995
999
1002
1010
1017
1019
1017
1017
1019
1026
1033
1039
1044
1041
1041
1041
1043
1042
1039
1032
1032
1026
1022
1012
1003
995
992
990
987
988
984
981
980
978
976
977
973
969
969
973
974
973
970
965
969
969
971
970
971
968
969
973
979
979
984
988
1006
1033
1070
1116
1170
1222
1263
1289
1276
1217
1128
1029
955
917
906
915
920
917
910
906
900
896
889
884
883
885
887
888
883
879
878
881
889
892
900
908
917
933
949
965
974
982
983
984
988
992
994
996
998
1004
1006
1008
1004
1002
998
1004
1007
1012
1011
1010
1008
1006
1009
1014
1014
1013
1015
1017
1022
1025
1026
1020
1022
1028
1032
1035
1039
1039
1040
1043
1047
1048
1047
1047
1050
1055
1062
1063
1065
1061
1061
1064
1069
1070
1070
1069
1068
1068
1067
1065
1057
1050
1046
1043
1041
1041
1035
1028
1022
1017
1015
1011
1004
999
995
991
992
987
979
972
969
968
970
967
966
961
959
955
957
956
956
953
954
956
956
955
954
947
947
952
955
960
958
953
951
953
955
955
952
949
950
953
957
954
955
953
951
952
956
958
957
955
955
955
954
956
949
948
945
947
954
956
952
945
942
944
947
951
949
948
950
958
962
965
962
964
964
967
975
981
984
987
992
996
998
997
998
994
992
989
989
989
985
975
961
955
950
951
946
942
939
937
935
934
928
924
921
922
923
924
923
919
914
918
921
924
920
915
915
919
923
918
920
916
917
918
925
928
931
932
941
954
972
1004
1039
1084
1138
1188
1222
1236
1213
1151
1067
981
915
875
862
867
874
875
870
862
852
841
834
837
839
846
844
840
836
835
833
830
830
831
838
850
861
869
877
882
893
906
921
931
937
937
933
938
944
946
947
946
947
951
953
958
959
956
955
957
962
962
963
960
965
967
971
973
971
967
969
970
975
979
980
978
980
984
988
990
990
993
994
1000
1007
1012
1013
1013
1014
1015
1020
1026
1030
1030
1031
1032
1033
1033
1027
1027
1024
1023
1027
1024
1020
1011
1004
1001
996
994
989
985
980
978
976
972
963
958
956
954
954
949
946
942
939
937
936
938
933
935
933
933
934
934
932
931
927
931
933
936
935
933
930
931
935
936
934
932
931
934
938
941
938
933
932
936
936
938
938
936
937
939
941
939
937
935
935
937
940
942
939
932
932
936
937
940
944
942
947
955
958
958
959
956
962
968
975
981
984
984
987
990
992
995
991
991
990
989
989
984
976
963
954
951
951
951
948
945
941
941
940
940
936
932
930
935
939
939
934
930
927
930
933
936
934
933
934
937
940
941
940
937
941
947
955
964
972
988
1016
1060
1113
1165
1213
1250
1261
1248
1198
1117
1027
949
902
882
888
898
897
887
877
871
867
864
858
853
856
859
864
863
854
851
847
848
858
870
878
884
890
901
918
931
940
948
956
965
971
975
974
973
972
978
981
983
987
985
987
989
989
990
992
990
989
994
1001
1003
1004
1000
1002
1003
1008
1009
1013
1011
1015
1019
1024
1024
1023
1024
1022
1030
1036
1040
1043
1044
1044
1048
1053
1056
1056
1057
1057
1059
1062
1065
1067
1066
1064
1062
1064
1063
1060
1056
1057
1054
1051
1048
1041
1034
1027
1027
1026
1026
1019
1016
1012
1006
1003
1000
995
993
989
994
993
993
987
981
980
979
980
982
980
973
973
977
977
976
973
969
972
975
980
983
980
975
973
976
980
982
981
978
979
981
981
983
980
976
977
979
982
985
984
982
978
981
981
982
981
979
978
981
984
983
981
977
976
977
983
983
985
982
979
982
982
987
987
988
993
998
1005
1010
1011
1010
1011
1015
1022
1029
1031
1033
1035
1033
1039
1041
1038
1032
1026
1026
1025
1022
1009
999
990
988
986
985
981
978
974
974
971
971
967
963
963
962
965
967
967
963
960
958
962
964
964
962
960
966
968
970
970
968
973
988
1010
1038
1071
1114
1162
1216
1261
1289
1285
1236
1149
1050
971
916
896
897
906
910
909
905
895
884
876
876
878
884
886
883
879
879
880
882
891
894
902
910
925
940
950
958
970
979
988
988
992
992
993
999
1000
1002
1003
1000
1001
1005
1009
1012
1012
1010
1007
1010
1015
1013
1013
1013
1013
1020
1024
1025
1026
1022
1023
1026
1034
1037
1039
1038
1040
1045
1051
1054
1055
1057
1060
1066
1068
1073
1075
1073
1074
1075
1083
1084
1084
1083
1082
1083
1083
1081
1074
1068
1062
1063
1063
1061
1052
1044
1033
1032
1030
1027
1023
1016
1013
1010
1010
1006
999
991
990
990
990
989
986
980
979
976
977
977
975
972
973
973
978
975
974
971
971
974
980
980
976
973
974
972
977
979
980
979
978
982
983
984
977
978
980
981
988
990
989
983
980
983
983
988
986
983
984
983
985
986
982
978
977
982
983
985
985
984
983
984
990
997
998
1001
1002
1007
1013
1018
1016
1014
1020
1027
1038
1042
1040
1035
1034
1033
1032
1031
1024
1016
1010
1003
1000
996
988
980
978
977
978
978
972
972
970
971
970
968
964
959
959
961
965
966
966
962
960
959
962
965
968
967
965
972
978
980
983
992
1007
1038
1079
1126
1173
1222
1262
1284
1272
1215
1120
1021
945
907
903
916
918
915
904
902
898
892
883
881
883
886
886
884
881
876
877
880
888
897
904
911
921
935
955
966
976
981
982
984
990
991
995
993
997
1000
1003
1005
1002
998
1000
1002
1010
1012
1011
1009
1008
1009
1012
1015
1014
1015
1018
1023
1027
1028
1027
1024
1024
1027
1033
1037
1038
1036
1037
1042
1047
1050
1050
1055
1056
1060
1066
1068
1066
1064
1064
1067
1070
1072
1071
1067
1061
1060
1057
1053
1047
1040
1037
1031
1031
1026
1015
1009
1004
1004
1004
1001
996
986
983
980
980
976
973
969
968
968
969
966
960
956
956
957
962
961
960
955
953
955
960
959
961
958
957
960
962
960
958
956
957
962
964
959
960
960
960
958
963
962
961
960
960
963
963
961
957
957
958
957
963
962
958
957
954
953
952
953
951
955
955
959
961
964
967
965
971
977
982
987
985
986
987
995
1003
1007
1009
1006
1004
1006
1006
1002
995
985
976
971
966
962
957
949
943
939
944
946
944
939
930
931
933
931
930
929
928
933
934
939
933
929
927
930
933
935
935
935
937
943
951
964
981
1009
1053
1112
1169
1217
1245
1235
1179
1081
975
894
866
870
882
885
878
869
859
855
845
847
852
853
848
843
841
838
839
847
856
865
868
881
891
906
919
929
938
943
947
948
949
947
951
957
958
962
961
960
957
958
958
964
963
963
964
966
968
972
973
971
973
974
979
984
983
979
978
980
989
993
992
995
991
997
1000
1000
1000
999
1001
1009
1011
1018
1015
1012
1013
1017
1022
1022
1018
1013
1007
1002
1000
997
990
986
980
978
979
971
963
954
949
949
948
946
941
933
931
930
930
928
925
921
919
919
923
922
919
912
914
917
920
923
922
917
916
920
921
924
922
922
923
924
923
924
923
922
923
924
930
932
930
925
922
927
927
929
932
932
930
934
935
934
934
933
932
936
939
939
939
933
931
932
938
940
944
945
945
949
956
961
959
961
964
970
979
985
987
986
989
988
993
994
994
989
984
976
971
964
958
950
946
946
947
944
938
932
931
931
934
935
934
926
926
927
927
928
928
926
928
928
933
930
931
928
931
937
941
946
950
957
968
995
1033
1081
1137
1193
1243
1270
1257
1192
1088
979
900
864
867
885
886
871
864
857
855
852
850
852
854
859
859
855
851
845
849
863
875
886
895
903
911
927
946
961
966
969
976
978
983
985
985
984
987
991
996
997
997
995
993
994
1000
1002
1004
1004
1007
1008
1009
1013
1011
1011
1014
1022
1027
1030
1030
1029
1031
1032
1039
1045
1048
1051
1053
1058
1064
1067
1069
1067
1072
1076
1083
1086
1087
1088
1083
1083
1085
1085
1083
1077
1075
1071
1068
1063
1056
1048
1039
1036
1034
1032
1026
1019
1005
1001
995
993
993
993
995
994
998
996
993
991
988
988
992
992
990
984
985
986
990
993
996
994
995
994
997
999
996
996
996
998
1003
1007
1006
1003
1003
1004
1006
1010
1010
1009
1008
1011
1010
1012
1012
1008
1008
1009
1013
1014
1011
1006
1002
1001
1006
1007
1008
1003
998
1000
1000
1002
997
992
992
997
998
999
997
995
998
1003
1009
1013
1013
1013
1016
1019
1024
1028
1030
1029
1036
1037
1042
1043
1039
1032
1030
1030
1028
1020
1015
1005
998
995
993
990
987
983
980
984
985
983
980
971
970
972
974
977
975
975
972
972
975
972
969
970
970
974
980
981
982
981
986
998
1018
1045
1080
1123
1174
1227
1275
1300
1297
1252
1170
1075
994
941
918
920
927
928
926
922
913
903
895
894
898
902
899
893
891
894
895
903
908
913
921
933
946
959
972
983
989
1000
1002
1006
1007
1009
1009
1014
1020
1022
1020
1020
1021
1023
1026
1027
1029
1028
1026
1026
1032
1031
1031
1029
1031
1030
1038
1041
1040
1042
1042
1043
1047
1053
1053
1054
1059
1062
1066
1070
1070
1069
1075
1080
1086
1090
1091
1089
1089
1092
1094
1097
1098
1096
1092
1091
1090
1088
1082
1076
1071
1066
1062
1063
1058
1050
1043
1038
1036
1034
1031
1026
1022
1019
1017
1014
