930
927
926
929
931
937
937
937
935
939
941
947
953
952
951
952
957
963
963
965
967
971
974
979
983
983
978
974
973
975
970
961
952
948
942
941
939
933
926
924
924
928
929
928
925
922
923
925
924
921
918
918
919
926
927
925
921
920
923
924
929
931
926
931
936
941
949
958
970
993
1031
1079
1133
1184
1226
1251
1245
1197
1111
1014
933
880
870
881
892
892
884
878
873
869
866
862
860
864
868
874
871
864
862
858
861
867
877
888
892
900
911
923
936
945
954
960
968
973
980
979
980
979
982
986
989
989
991
991
994
998
1003
1003
1002
1002
1004
1011
1014
1016
1013
1015
1017
1023
1026
1025
1027
1027
1033
1042
1048
1051
1049
1051
1055
1061
1067
1068
1071
1070
1077
1080
1087
1084
1082
1085
1088
1092
1095
1095
1096
1093
1093
1093
1089
1083
1078
1072
1067
1066
1064
1059
1050
1042
1038
1034
1030
1025
1020
1014
1011
1010
1009
1005
996
989
988
989
989
987
981
978
979
980
979
977
975
971
973
975
980
980
979
978
978
980
979
980
978
979
978
985
986
984
983
977
978
977
980
981
981
982
984
983
983
981
977
976
977
983
984
982
982
981
982
983
983
986
989
991
997
1006
1008
1009
1006
1007
1012
1018
1023
1024
1024
1026
1029
1031
1028
1026
1022
1020
1018
1016
1009
1002
991
986
983
982
975
974
969
968
970
969
972
970
962
959
961
962
960
961
961
960
966
967
965
963
959
958
963
966
967
972
969
972
976
983
992
1004
1020
1050
1088
1139
1189
1237
1277
1299
1280
1220
1127
1024
946
906
904
919
926
924
915
911
902
901
898
893
891
896
900
900
895
892
887
891
899
913
923
929
935
939
950
963
976
984
988
993
998
1005
1009
1009
1006
1001
1005
1010
1015
1016
1014
1014
1018
1023
1022
1022
1020
1021
1024
1029
1033
1034
1032
1033
1035
1036
1041
1042
1042
1041
1047
1055
1060
1060
1060
1057
1062
1068
1073
1076
1077
1080
1085
1090
1094
1092
1090
1090
1094
1101
1105
1102
1096
1095
1090
1093
1090
1086
1076
1072
1071
1067
1062
1056
1046
1041
1037
1033
1029
1026
1020
1013
1010
1011
1007
1002
996
992
989
989
990
989
983
983
982
982
979
977
973
971
972
977
981
979
977
974
970
971
973
974
974
975
979
980
979
978
973
974
973
975
977
977
977
975
977
979
979
979
972
973
976
979
981
979
974
976
973
975
976
975
973
973
974
979
980
980
975
974
980
983
988
992
991
997
1000
1003
1006
1007
1005
1010
1017
1022
1028
1030
1028
1028
1027
1028
1022
1018
1014
1007
1006
999
994
983
979
973
970
969
968
967
965
964
963
965
964
960
955
954
956
960
964
962
961
958
955
959
962
957
952
952
956
959
962
961
960
960
967
976
990
1008
1034
1074
1122
1179
1231
1269
1286
1260
1195
1105
1012
941
905
901
914
919
912
906
898
891
888
888
888
888
888
886
885
885
884
883
882
886
900
910
918
923
930
939
954
969
979
983
984
984
985
989
988
989
988
992
996
997
999
996
994
993
996
1000
1004
1006
1005
1003
1006
1009
1012
1009
1009
1008
1012
1018
1023
1021
1022
1022
1024
1032
1034
1034
1034
1039
1045
1049
1051
1051
1050
1051
1052
1059
1065
1067
1062
1061
1059
1056
1056
1055
1048
1044
1039
1038
1031
1027
1017
1009
1004
1002
1002
997
990
985
979
975
971
967
960
959
956
957
961
955
948
947
946
947
950
944
946
946
948
950
949
946
943
942
945
948
952
952
947
947
945
948
948
947
945
944
949
953
954
951
947
944
946
950
951
952
947
944
944
943
944
943
940
940
944
949
946
943
945
943
947
950
958
962
963
963
969
970
972
974
974
980
986
993
995
995
991
989
985
983
980
973
965
957
950
949
949
942
934
931
931
932
936
933
927
928
925
928
925
924
925
925
929
926
930
927
925
924
927
931
934
936
938
938
941
947
954
963
985
1018
1067
1122
1177
1227
1254
1244
1188
1101
1008
928
882
872
884
895
896
884
874
866
859
861
859
863
862
860
858
857
854
852
849
856
867
875
883
888
896
906
920
932
943
952
955
954
956
959
959
962
963
963
969
974
973
975
974
972
972
978
979
980
982
985
987
993
997
997
994
994
997
1001
1006
1009
1011
1011
1013
1020
1021
1017
1022
1025
1031
1036
1042
1041
1041
1042
1046
1052
1058
1060
1060
1059
1059
1059
1058
1051
1049
1044
1043
1042
1042
1032
1025
1018
1012
1007
1006
998
991
988
986
984
982
975
967
963
961
956
959
956
953
953
951
953
949
951
945
944
945
952
954
951
947
946
946
944
948
952
949
949
953
955
956
951
949
948
953
956
959
959
956
951
955
956
956
953
954
953
953
958
959
958
958
957
957
962
970
974
974
974
976
982
982
984
984
984
994
1002
1008
1008
1006
1002
1003
1004
1004
1003
998
988
985
981
974
967
958
954
958
961
962
957
955
953
952
952
953
953
951
951
954
955
956
954
952
951
956
961
966
965
963
963
967
974
981
992
1008
1043
1088
1144
1201
1250
1282
1282
1241
1165
1068
980
919
898
909
920
925
916
908
902
897
895
898
897
896
894
891
892
893
895
896
904
915
925
931
940
948
961
978
991
997
1000
1002
1001
1005
1009
1013
1017
1017
1016
1019
1026
1027
1025
1023
1024
1029
1034
1037
1040
1037
1035
1037
1045
1048
1050
1049
1053
1057
1063
1066
1064
1063
1065
1072
1079
1085
1087
1087
1089
1090
1095
1096
1093
1097
1099
1103
1109
1110
1109
1103
1102
1103
1101
1099
1095
1086
1083
1079
1075
1070
1060
1050
1043
1043
1042
1037
1030
1023
1019
1017
1018
1014
1010
1009
1005
1003
1002
1000
993
991
990
991
991
990
990
989
985
985
987
988
985
987
983
988
990
994
989
985
983
982
989
989
990
987
988
988
988
987
987
983
985
986
989
990
991
987
986
984
986
988
986
982
983
983
986
988
983
982
982
986
989
994
997
1001
1001
1002
1005
1008
1010
1011
1016
1021
1031
1030
1028
1028
1024
1023
1024
1026
1021
1016
1008
1003
997
991
984
979
974
976
974
977
976
973
971
970
969
970
970
966
966
967
967
968
969
965
966
964
966
969
974
971
972
972
975
980
982
984
993
1012
1040
1073
1117
1167
1219
1267
1301
1303
1260
1178
1079
992
935
918
918
927
928
924
921
917
908
901
899
898
902
907
903
897
899
900
905
913
919
923
927
936
946
959
976
984
991
998
1004
1003
1003
1003
1002
1006
1014
1017
1019
1016
1014
1017
1020
1023
1027
1025
1025
1028
1033
1037
1032
1031
1031
1037
1042
1048
1051
1048
1052
1054
1057
1062
1063
1065
1067
1072
1079
1084
1081
1083
1083
1086
1094
1100
1101
1100
1098
1100
1097
1098
1095
1090
1085
1084
1082
1073
1069
1058
1053
1048
1048
1043
1036
1031
1023
1019
1014
1012
1004
999
998
994
999
995
991
990
984
984
983
983
981
981
981
980
983
983
983
978
977
981
983
985
983
979
976
976
980
983
982
980
977
981
983
982
982
978
976
979
985
986
985
980
977
979
980
982
980
978
975
978
982
983
979
975
973
977
983
988
991
991
993
995
999
1003
1001
1004
1007
1015
1023
1026
1024
1022
1024
1023
1023
1023
1022
1016
1009
1003
995
989
979
976
973
973
976
973
970
964
962
960
961
963
957
960
958
957
960
958
954
953
954
957
961
963
961
960
956
959
963
967
971
977
992
1021
1060
1103
1156
1206
1254
1288
1286
1238
1143
1039
948
901
895
911
917
913
906
901
896
892
885
880
881
883
888
887
885
881
879
882
889
896
902
903
913
924
938
953
965
970
970
972
975
979
982
981
983
985
989
992
990
990
989
992
998
1002
1002
1000
999
1002
1004
1005
1006
1007
1007
1013
1017
1021
1021
1018
1019
1018
1027
1033
1035
1033
1036
1036
1040
1048
1047
1047
1050
1054
1061
1063
1063
1063
1060
1060
1060
1066
1061
1058
1054
1051
1050
1046
1037
1026
1018
1015
1014
1010
1005
999
992
988
987
982
977
969
967
966
965
964
957
951
944
942
945
946
945
941
940
941
944
943
940
935
935
940
944
944
940
937
936
937
940
942
941
938
938
941
943
946
940
936
935
939
941
942
942
941
937
937
936
937
938
932
934
934
938
937
937
933
932
934
937
942
945
946
948
953
954
957
956
954
956
963
970
974
978
974
973
975
977
976
972
970
966
963
959
948
940
932
927
930
932
933
927
927
923
922
924
923
921
917
917
920
923
923
922
917
916
921
923
926
925
930
927
929
933
933
935
936
942
958
977
1007
1046
1093
1146
1195
1233
1245
1217
1139
1044
959
900
877
881
888
884
882
878
875
870
860
856
858
862
863
859
858
855
854
857
861
868
874
876
888
900
914
925
938
942
950
952
955
959
959
961
966
969
971
973
971
967
973
977
979
982
982
983
983
992
995
991
989
991
993
1000
1003
1008
1007
1005
1010
1011
1016
1015
1013
1021
1027
1033
1035
1036
1035
1037
1040
1045
1051
1055
1056
1059
1060
1064
1066
1063
1058
1056
1055
1054
1053
1047
1042
1035
1030
1023
1022
1017
1008
1001
996
999
994
989
981
978
971
970
971
972
964
957
958
956
958
954
949
949
950
953
953
952
947
944
944
952
956
953
952
953
955
955
955
955
949
951
951
956
959
958
954
953
956
959
959
958
958
957
962
963
965
962
957
955
960
963
965
965
963
962
963
965
965
965
964
968
975
980
987
983
984
984
987
995
999
1002
1004
1011
1014
1018
1015
1014
1012
1010
1011
1010
1010
1000
993
983
979
975
972
970
966
962
965
968
968
964
962
959
960
962
965
962
960
962
963
966
965
963
961
962
965
969
972
972
971
970
973
977
979
986
994
1008
1033
1071
1115
1166
1215
1262
1298
1313
1288
1218
1126
1037
966
926
915
922
928
926
921
920
918
913
906
902
902
909
911
906
903
900
906
908
916
923
925
930
939
950
960
971
979
990
1001
1007
1014
1014
1012
1010
1013
1015
1024
1025
1024
1026
1030
1031
1032
1031
1028
1032
1031
1040
1041
1043
1039
1040
1041
1043
1047
1047
1047
1050
1055
1059
1063
1061
1062
1060
1065
1075
1078
1079
1081
1083
1091
1093
1097
1095
1092
1098
1103
1109
1115
1114
1114
1113
1111
1112
1112
1109
1106
1101
1099
1098
1096
1086
1078
1072
1063
1064
1061
1058
1052
1046
1040
1038
1038
1032
1027
1020
1019
1019
1019
1015
1009
1007
1006
1007
1005
1003
1000
998
1002
1005
1006
1003
1000
998
998
1006
1004
1001
1003
1002
1004
1005
1004
1001
999
1000
999
1005
1009
1005
1005
1005
1006
1007
1007
1005
1003
1000
1003
1010
1009
1009
1002
1002
1002
1005
1007
1005
1002
1001
1004
1009
1009
1005
1000
997
1001
1001
1008
1007
1005
1007
1013
1017
1022
1023
1019
1019
1025
1031
1036
1037
1039
1039
1041
1047
1050
1047
1045
1047
1049
1051
1051
1047
1039
1029
1024
1019
1016
1012
1006
1002
1003
1004
1002
995
995
993
992
995
997
996
992
991
992
992
993
989
985
985
988
992
994
994
994
993
994
995
996
997
1000
999
1012
1021
1034
1050
1075
1109
1156
1208
1258
1301
1326
1323
1283
1208
1115
1029
966
935
934
949
955
952
942
936
929
921
918
917
921
922
923
928
927
922
918
917
922
934
941
946
953
960
971
984
995
1004
1007
1011
1016
1021
1023
1024
1025
1027
1031
1031
1035
1032
1029
1029
1032
1037
1041
1042
1044
1043
1043
1049
1049
1050
1048
1050
1057
1061
1062
1066
1061
1062
1065
1067
1074
1077
1075
1077
1080
1087
1091
1090
1092
1093
1098
1102
1109
1109
1109
1112
1114
1116
1117
1116
1115
1115
1118
1121
1121
1117
1114
1108
1104
1102
1097
1093
1087
1083
1079
1077
1073
1066
1060
1054
1049
1046
1044
1037
1034
1032
1031
1030
1026
1021
1014
1012
1010
1009
1014
1011
1011
1010
1009
1011
1009
1006
1001
999
1005
1008
1012
1007
1006
1006
1004
1007
1009
1006
1005
1007
1006
1012
1013
1011
1009
1007
1007
1009
1010
1012
1010
1011
1012
1015
1014
1012
1007
1006
1007
1009
1011
1011
1009
1009
1010
1012
1011
1010
1009
1006
1011
1011
1013
1008
1006
1005
1007
1008
1009
1008
1009
1012
1016
1023
1030
1030
1028
1025
1027
1030
1037
1041
1041
1045
1050
1057
1059
1056
1056
1054
1056
1057
1055
1052
1046
1037
1029
1024
1020
1014
1009
1005
1007
1008
1008
1002
998
992
995
996
996
992
989
986
991
994
993
992
984
982
985
990
994
994
993
993
995
999
998
997
995
1001
1014
1030
1048
1077
1115
1161
1217
1273
1311
1322
1295
1220
1127
1037
972
938
934
944
951
950
947
939
932
918
914
914
916
921
919
917
915
916
915
914
915
922
932
942
948
957
965
976
992
1004
1010
1011
1011
1011
1014
1019
1023
1025
1025
1023
1027
1026
1029
1029
1029
1030
1033
1040
1042
1039
1037
1034
1038
1043
1047
1047
1046
1047
1052
1054
1057
1057
1057
1057
1061
1067
1075
1076
1072
1074
1075
1079
1082
1085
1083
1088
1091
1097
1098
1099
1098
1096
1097
1101
1104
1099
1094
1093
1087
1088
1081
1074
1064
1059
1057
1055
1052
1047
1036
1030
1026
1026
1021
1015
1009
1004
1006
1007
1002
995
991
984
982
984
985
986
982
981
979
978
978
977
973
973
974
978
981
983
979
976
976
978
980
980
979
978
984
986
987
982
978
972
977
982
985
982
979
979
981
983
982
982
979
978
979
983
985
979
973
972
974
976
977
976
974
974
975
979
978
981
982
984
988
992
998
995
998
1001
1005
1008
1012
1013
1013
1013
1018
1022
1024
1021
1013
1007
997
997
993
986
976
972
971
973
971
968
962
959
958
960
959
959
954
954
958
955
958
951
949
948
950
955
956
956
953
953
948
955
955
954
955
956
961
968
971
981
992
1011
1048
1094
1144
1199
1244
1275
1282
1243
1159
1061
974
915
900
910
923
924
915
907
899
896
891
885
882
882
885
891
892
888
883
881
883
888
899
906
910
917
926
938
950
959
967
972
976
985
990
990
989
990
991
991
993
997
1001
999
1003
1004
1012
1011
1009
1006
1011
1014
1018
1019
1019
1021
1023
1026
1029
1027
1028
1030
1033
1040
1043
1046
1047
1045
1050
1054
1060
1063
1061
1067
1071
1074
1079
1078
1077
1078
1082
1086
1085
1087
1084
1081
1078
1075
1072
1065
1056
1056
1051
1046
1046
1037
1029
1023
1018
1017
1015
1011
1006
1000
1000
998
992
987
984
981
979
983
985
986
981
973
977
977
977
978
979
978
979
981
983
981
977
975
978
981
986
986
984
982
980
980
984
986
981
983
981
987
990
989
985
982
986
988
990
988
986
984
988
990
991
991
984
982
986
988
991
991
986
983
984
990
989
990
992
992
997
1004
1009
1007
1005
1004
1009
1016
1020
1026
1026
1028
1030
1038
1039
1039
1038
1034
1037
1039
1037
1028
1017
1007
1004
1001
998
995
991
990
988
991
990
987
982
981
983
990
992
988
983
980
980
983
985
983
984
986
987
992
994
992
991
994
998
1009
1022
1040
1067
1104
1156
1214
1268
1314
1334
1317
1248
1154
1052
972
930
926
944
953
951
944
936
928
922
919
920
923
923
920
922
921
921
922
925
934
943
954
963
976
986
998
1013
1021
1026
1027
1026
1028
1033
1038
1042
1040
1038
1038
1042
1044
1050
1048
1047
1051
1051
1053
1058
1060
1059
1060
1065
1070
1075
1075
1076
1077
1077
1084
1087
1091
1092
1095
1097
1101
1106
1105
1104
1106
1113
1120
1124
1125
1121
1125
1124
1125
1129
1127
1123
1122
1123
1125
1120
1112
1102
1095
1091
1088
1086
1080
1071
1066
1061
1056
1049
1044
1040
1037
1038
1038
1038
1033
1026
1020
1019
1020
1021
1015
1016
1016
1015
1017
1015
1014
1006
1007
1011
1014
1017
1016
1012
1010
1008
1010
1015
1013
1011
1014
1015
1016
1016
1013
1012
1012
1015
1019
1019
1019
1016
1014
1014
1015
1016
1014
1009
1013
1015
1018
1017
1016
1011
1012
1010
1014
1012
1013
1011
1011
1013
1014
1015
1011
1010
1007
1010
1016
1023
1023
1023
1025
1028
1027
1032
1037
1038
1042
1045
1053
1059
1056
1057
1058
1056
1058
1061
1058
1053
1045
1042
1035
1026
1017
1010
1006
1005
1010
1007
1005
999
996
994
997
998
997
997
993
993
996
994
991
991
987
992
993
997
996
994
994
996
1002
1005
1012
1020
1032
1057
1091
1135
1184
1235
1293
1334
1342
1302
1210
1106
1012
952
938
945
957
955
948
942
939
933
923
920
920
926
931
930
926
923
924
928
938
945
951
955
969
981
1001
1012
1020
1018
1019
1024
1028
1029
1035
1033
1034
1038
1041
1041
1040
1038
1041
1047
1051
1053
1051
1048
1049
1049
1054
1059
1060
1064
1065
1070
1076
1076
1077
1077
1080
1084
1092
1098
1096
1095
1095
1102
1109
1115
1114
1116
1111
1117
1122
1122
1123
1121
1120
1121
1123
1121
1112
1103
1099
1093
1089
1086
1079
1071
1065
1061
1058
1056
1045
1036
1031
1027
1030
1030
1026
1018
1012
1009
1009
1007
1008
1002
1001
1002
1001
1001
999
994
993
999
999
1000
1001
996
996
993
999
1002
997
998
996
1000
1002
1002
999
995
997
998
1002
1004
1004
1002
997
999
998
999
996
993
993
996
999
1000
998
995
992
992
993
993
993
992
991
992
997
996
990
987
986
990
995
995
994
991
988
989
991
1001
1002
1003
1009
1010
1013
1017
1017
1015
1015
1023
1031
1036
1042
1038
1038
1036
1038
1037
1034
1029
1025
1020
1017
1011
1003
994
989
986
987
990
987
983
982
982
977
977
975
970
973
975
980
980
977
974
972
972
972
974
975
976
977
978
983
987
986
986
994
1011
1038
1074
1123
1175
1225
1275
1309
1305
1249
1165
1070
988
939
921
925
931
927
922
918
913
903
898
898
900
906
904
897
894
891
890
899
910
917
919
924
933
949
962
970
980
987
993
998
998
997
993
998
1001
1003
1009
1008
1006
1004
1007
1010
1013
1014
1014
1014
1018
1020
1024
1021
1017
1019
1024
1029
1033
1036
1037
1040
1042
1047
1048
1051
1052
1055
1063
1067
1067
1066
1066
1070
1072
1078
1083
1084
1081
1083
1084
1085
1083
1079
1077
1071
1067
1065
1062
1052
1043
1037
1029
1029
1031
1026
1016
1008
1004
999
996
990
986
981
982
982
981
975
969
965
965
964
968
968
962
963
961
964
964
961
959
961
965
969
966
964
957
959
962
965
967
971
966
965
962
963
967
963
964
963
964
968
970
966
963
962
960
965
968
969
966
961
962
962
960
963
962
961
960
966
970
970
967
968
976
981
986
985
987
987
992
996
1003
1004
1001
1003
1008
1012
1012
1007
1002
996
991
985
979
971
965
961
962
961
958
952
950
952
951
950
954
954
950
947
946
947
948
949
947
947
951
951
