988
983
977
975
975
977
978
978
973
970
967
973
973
971
969
967
968
975
975
975
971
967
968
970
972
971
973
974
975
977
975
970
969
970
972
974
981
975
974
972
971
972
971
974
969
969
971
974
974
974
968
965
967
973
975
974
974
971
970
974
973
973
973
977
983
993
997
996
996
994
999
1003
1007
1014
1015
1021
1020
1024
1023
1022
1016
1010
1010
1007
1003
995
986
977
972
968
969
965
958
958
962
960
960
956
951
946
950
949
951
954
951
950
951
953
954
952
951
949
952
960
962
963
960
958
966
975
988
1002
1023
1063
1110
1165
1214
1255
1275
1255
1195
1104
1007
931
895
894
908
911
906
891
883
876
871
871
873
873
870
868
866
864
862
861
867
875
885
895
901
909
917
930
944
958
965
968
967
968
970
973
974
977
977
977
978
985
987
986
984
985
987
992
996
995
994
995
997
1001
1003
1005
1006
1007
1010
1015
1016
1022
1022
1023
1025
1029
1033
1036
1037
1041
1045
1050
1051
1053
1052
1053
1057
1063
1069
1069
1070
1066
1066
1063
1060
1055
1051
1045
1041
1038
1034
1024
1014
1007
1000
1000
999
991
989
981
978
977
973
967
960
956
958
956
959
954
952
946
944
946
948
946
943
941
944
946
945
944
941
941
942
947
948
946
945
942
942
945
948
944
945
943
947
947
945
946
936
933
939
942
945
947
941
940
938
940
940
938
936
935
938
939
940
938
932
933
935
939
939
938
932
935
937
939
940
939
942
944
949
955
958
958
959
959
964
971
977
978
981
983
984
982
982
974
968
962
957
954
950
943
937
933
929
930
929
930
925
927
925
926
922
920
919
918
920
926
926
924
923
920
921
926
931
930
930
928
932
939
948
963
989
1028
1084
1144
1196
1234
1244
1211
1138
1043
953
888
856
867
881
886
880
867
855
849
848
849
853
856
852
849
846
843
846
845
852
863
875
886
893
903
912
924
937
945
951
951
952
952
955
959
961
961
960
962
969
972
973
976
972
971
977
982
987
985
984
989
989
989
992
992
997
997
1004
1010
1013
1015
1015
1016
1018
1024
1029
1034
1034
1036
1038
1045
1047
1048
1049
1049
1052
1058
1061
1060
1056
1056
1049
1047
1045
1041
1034
1029
1027
1021
1018
1011
1003
996
992
989
990
987
978
973
970
969
966
963
958
954
954
956
955
951
947
946
948
949
950
949
946
948
947
952
952
951
947
946
947
952
956
957
952
952
950
956
957
956
956
956
960
957
962
956
954
954
956
962
962
963
958
957
956
961
961
959
957
957
961
964
964
960
956
957
959
964
967
968
968
971
974
981
985
983
979
983
991
998
1005
1008
1008
1009
1009
1012
1014
1013
1007
1006
1004
1000
994
982
974
969
971
971
970
969
963
962
957
961
963
959
959
959
961
963
961
959
958
956
960
962
967
967
965
963
965
970
975
976
980
991
1011
1039
1078
1129
1182
1235
1280
1302
1282
1215
1117
1019
941
903
902
915
920
918
912
911
908
899
892
889
891
895
898
895
893
888
892
902
910
916
922
931
943
960
977
986
989
993
997
1001
1006
1008
1008
1011
1014
1019
1019
1020
1018
1019
1022
1025
1028
1033
1029
1031
1034
1037
1041
1043
1041
1046
1051
1058
1055
1058
1055
1059
1063
1069
1074
1078
1076
1077
1080
1082
1078
1084
1084
1088
1092
1095
1096
1097
1095
1091
1090
1091
1091
1087
1081
1072
1065
1062
1059
1053
1046
1041
1035
1035
1030
1021
1015
1010
1002
1005
1003
1000
995
989
988
986
985
982
979
977
978
982
984
982
978
975
974
976
978
979
979
978
980
981
982
980
977
972
977
986
986
982
980
973
975
981
983
980
980
979
982
985
982
981
979
980
983
984
983
984
982
980
983
983
983
983
980
979
980
983
979
980
976
976
978
981
986
987
987
989
994
996
999
1001
1003
1007
1013
1021
1025
1027
1026
1025
1027
1030
1029
1027
1023
1019
1013
1010
1003
993
984
982
982
981
981
978
973
969
967
970
971
973
969
966
965
963
967
966
962
961
965
968
973
970
968
965
969
973
978
981
987
996
1017
1048
1084
1129
1180
1230
1276
1306
1297
1238
1148
1052
968
919
906
913
923
923
918
916
910
903
891
887
889
894
898
898
892
890
888
895
906
907
914
920
930
950
965
976
981
983
985
992
995
996
995
998
1000
1006
1006
1002
1003
1003
1008
1013
1017
1016
1015
1016
1018
1021
1022
1023
1025
1027
1033
1036
1043
1040
1040
1042
1044
1051
1054
1058
1057
1059
1062
1066
1070
1067
1072
1074
1079
1083
1086
1091
1089
1088
1088
1092
1095
1093
1091
1084
1082
1085
1079
1073
1064
1059
1056
1055
1048
1043
1034
1027
1022
1019
1014
1010
1005
1000
998
999
993
989
982
978
978
977
978
977
974
973
972
972
971
968
967
966
970
972
973
971
970
967
968
969
969
969
972
970
972
971
972
970
966
969
971
973
977
976
973
969
970
974
973
972
970
968
969
974
973
969
965
963
961
964
967
967
964
963
961
964
963
961
958
958
963
964
965
963
960
958
960
963
968
973
976
980
982
983
985
989
989
990
997
1004
1011
1013
1009
1006
1005
1007
1007
1004
1000
996
991
985
979
972
964
960
957
956
960
956
953
949
948
949
949
946
941
943
946
946
946
946
941
940
941
943
947
949
946
946
945
953
954
953
955
960
979
1003
1037
1074
1119
1169
1221
1259
1269
1240
1169
1074
981
914
885
882
892
895
890
884
882
875
865
861
858
864
869
866
861
856
855
857
860
868
875
882
888
895
906
912
923
933
945
956
962
965
962
959
962
967
970
972
972
972
975
979
980
979
974
974
977
982
987
986
988
987
988
990
991
991
987
992
996
1002
1005
1003
1005
1003
1005
1009
1015
1019
1020
1024
1027
1031
1036
1035
1034
1031
1039
1045
1046
1049
1049
1051
1054
1054
1055
1052
1045
1044
1043
1042
1039
1033
1028
1019
1013
1009
1007
1002
998
993
990
986
984
977
967
962
961
961
959
958
953
951
949
948
947
941
936
939
941
943
945
942
937
939
938
941
943
944
939
938
942
945
945
939
937
935
939
941
944
941
940
940
944
945
946
943
937
940
941
946
948
945
943
940
940
941
942
943
938
938
939
943
944
944
936
935
935
940
944
943
940
940
942
945
945
944
944
948
954
959
964
967
963
963
966
972
977
978
979
984
988
994
995
993
989
981
980
980
976
971
959
951
948
950
950
947
941
937
937
939
939
938
933
931
930
932
932
929
928
926
928
934
936
931
930
927
930
935
941
939
939
942
944
950
958
967
987
1018
1063
1117
1172
1222
1253
1258
1217
1140
1044
952
889
868
879
893
896
886
874
866
863
860
859
860
862
859
861
860
860
856
853
856
865
877
890
896
901
907
920
934
948
954
952
958
966
971
973
975
970
966
971
979
986
986
984
986
988
992
993
991
990
988
996
1003
1006
1008
1007
1006
1008
1012
1016
1021
1018
1022
1027
1032
1038
1036
1034
1037
1041
1049
1054
1057
1061
1061
1063
1069
1073
1074
1073
1073
1076
1082
1083
1088
1082
1079
1076
1071
1071
1066
1059
1056
1051
1050
1047
1040
1031
1023
1018
1018
1015
1011
1007
1003
1000
998
995
987
982
982
979
980
981
978
975
974
970
971
970
969
967
968
968
969
971
972
969
968
969
969
973
969
968
970
972
976
977
975
972
968
972
974
975
977
976
974
978
978
977
973
970
972
975
975
978
976
973
972
972
974
972
973
973
971
975
977
978
974
970
968
968
973
975
974
975
974
977
983
985
984
983
981
986
994
999
1001
1003
1004
1014
1017
1019
1016
1015
1016
1018
1021
1018
1014
1007
999
993
990
985
977
974
971
970
973
975
969
963
960
962
964
965
962
963
961
962
963
966
960
957
955
959
963
964
967
967
965
969
970
970
969
970
972
981
992
1006
1023
1050
1085
1132
1183
1235
1276
1298
1294
1250
1174
1085
1004
941
907
904
917
926
924
916
910
908
903
896
889
889
891
896
900
901
897
892
893
896
905
911
919
922
931
944
957
970
981
986
992
997
1003
1005
1006
1002
1008
1011
1014
1017
1015
1010
1012
1016
1021
1024
1025
1021
1021
1025
1030
1030
1032
1029
1027
1030
1039
1043
1044
1043
1044
1046
1050
1057
1055
1056
1058
1061
1070
1077
1079
1076
1072
1075
1080
1086
1089
1087
1089
1093
1099
1102
1099
1097
1093
1095
1099
1099
1094
1093
1087
1080
1076
1073
1068
1059
1053
1048
1047
1044
1036
1028
1020
1018
1016
1014
1010
1003
999
997
997
994
988
982
976
978
981
983
982
978
976
975
974
975
970
971
967
972
976
976
974
975
969
970
974
975
975
974
973
973
977
980
977
975
972
974
977
979
980
976
978
976
977
978
979
974
976
975
977
981
979
974
973
973
970
972
972
972
972
974
977
976
970
967
967
965
970
973
970
971
969
970
973
973
973
972
979
986
991
995
995
996
1000
1003
1008
1011
1014
1017
1022
1025
1024
1025
1021
1017
1013
1015
1011
1009
1000
990
984
982
980
976
973
967
966
966
970
969
968
965
962
961
962
962
961
957
956
959
960
962
960
958
957
960
963
965
966
967
967
970
978
986
997
1012
1037
1081
1131
1184
1231
1274
1296
1292
1247
1164
1063
978
921
901
907
919
919
909
904
897
893
887
882
880
881
888
893
890
885
881
876
881
894
904
913
913
918
930
944
953
964
972
975
983
986
992
994
992
992
995
1000
1000
999
1000
1002
1006
1009
1013
1012
1010
1005
1009
1015
1021
1021
1021
1020
1023
1026
1028
1029
1025
1023
1028
1036
1045
1044
1043
1039
1043
1050
1052
1054
1056
1058
1063
1066
1072
1076
1071
1071
1076
1079
1084
1085
1086
1088
1086
1086
1087
1081
1075
1068
1066
1065
1064
1058
1050
1044
1038
1036
1031
1026
1018
1010
1010
1009
1006
1001
995
988
985
984
983
980
975
972
975
973
971
965
962
960
959
963
965
963
960
960
958
960
960
956
954
955
957
961
964
963
960
958
958
958
959
960
960
963
962
965
965
963
961
958
959
963
961
964
960
961
958
963
961
956
955
954
955
961
961
958
955
953
953
954
954
951
953
951
954
955
956
953
950
948
948
952
953
956
956
957
963
965
970
967
968
972
977
983
989
994
991
992
997
997
998
996
994
991
989
983
976
968
956
950
950
950
948
944
941
936
932
936
935
935
933
931
933
934
938
932
930
929
927
934
939
938
936
934
936
938
942
943
944
953
969
991
1026
1071
1119
1171
1218
1255
1259
1219
1136
1039
953
897
874
876
889
891
885
882
876
869
858
852
853
860
861
858
854
848
851
856
862
868
872
877
889
905
920
930
939
944
949
955
960
960
959
963
969
974
977
971
972
973
978
982
987
990
986
984
988
995
997
998
995
998
1002
1008
1011
1012
1009
1009
1011
1016
1022
1026
1026
1030
1032
1036
1040
1040
1041
1041
1047
1053
1056
1055
1056
1058
1060
1062
1065
1063
1054
1056
1056
1055
1052
1042
1032
1025
1022
1021
1019
1013
1005
998
994
992
987
981
975
971
971
971
966
963
958
954
949
950
952
950
946
943
945
942
944
939
938
942
946
948
948
946
944
942
943
943
946
946
941
944
945
947
946
943
941
942
946
949
946
948
944
945
944
945
944
945
940
942
945
952
951
946
945
942
944
947
949
948
946
948
949
948
945
944
946
949
953
960
967
968
965
964
968
971
975
978
977
984
990
993
994
992
990
986
985
987
984
978
967
960
951
951
950
945
942
940
940
942
943
942
938
934
931
932
936
935
934
934
937
940
940
939
937
939
942
949
953
953
952
952
955
962
975
994
1021
1065
1119
1180
1234
1273
1287
1257
1179
1084
991
925
891
892
905
909
901
895
888
882
878
876
880
878
877
877
872
873
875
874
876
884
895
908
915
920
930
940
952
968
980
985
985
985
985
991
994
995
997
1001
1005
1009
1011
1010
1008
1007
1012
1017
1023
1025
1024
1025
1029
1031
1033
1033
1034
1038
1043
1049
1055
1055
1054
1057
1060
1067
1074
1076
1076
1081
1087
1092
1092
1091
1093
1098
1102
1105
1112
1110
1106
1101
1101
1100
1098
1094
1086
1080
1074
1073
1066
1058
1049
1042
1039
1036
1034
1028
1025
1015
1010
1009
1009
1007
1001
999
994
996
997
991
989
986
987
990
990
990
988
985
983
986
986
988
985
983
986
992
991
986
984
981
984
987
991
990
987
988
987
990
990
988
987
988
990
994
992
989
986
983
984
988
990
989
987
983
988
989
989
987
984
986
991
990
995
995
994
997
1001
1006
1012
1013
1014
1013
1022
1025
1032
1034
1032
1035
1038
1038
1037
1031
1029
1019
1014
1011
1005
997
993
989
987
986
985
981
977
975
976
979
981
978
973
969
968
971
973
971
972
972
974
977
977
976
974
972
979
986
990
997
1008
1030
1066
1121
1176
1229
1277
1307
1300
1244
1151
1043
955
908
905
924
934
929
920
909
902
896
896
897
899
900
899
898
896
890
892
897
911
923
932
941
948
959
970
983
989
994
996
998
1005
1008
1014
1010
1009
1010
1011
1017
1020
1023
1020
1021
1025
1024
1027
1027
1030
1031
1036
1040
1042
1044
1040
1042
1045
1052
1058
1058
1059
1062
1065
1072
1074
1077
1075
1079
1085
1089
1094
1095
1093
1090
1094
1101
1102
1103
1102
1099
1099
1099
1096
1089
1081
1074
1072
1070
1067
1060
1052
1043
1037
1032
1030
1025
1019
1013
1010
1009
1004
1000
992
987
986
988
989
984
978
979
979
977
980
974
972
973
976
980
981
976
974
973
974
978
980
976
975
974
979
980
978
977
973
974
977
981
984
980
975
970
973
975
979
977
975
973
973
978
976
973
971
967
973
976
979
977
975
974
976
980
990
991
991
996
998
1003
1003
1009
1008
1012
1020
1024
1025
1027
1022
1016
1014
1011
1006
1002
991
985
979
978
976
972
966
962
960
962
963
960
958
955
951
954
952
953
949
948
952
954
956
954
949
948
949
953
956
960
960
964
968
974
994
1017
1052
1098
1154
1211
1258
1284
1270
1206
1110
1014
938
899
890
903
914
913
904
894
886
881
877
885
886
889
885
880
876
879
884
886
896
902
911
918
929
937
946
955
969
980
985
985
987
986
990
992
996
996
995
995
998
1005
1008
1008
1006
1002
1006
1008
1010
1012
1012
1013
1017
1021
1022
1020
1021
1026
1030
1034
1041
1043
1041
1043
1047
1049
1051
1054
1055
1057
1063
1070
1074
1074
1072
1073
1076
1082
1084
1083
1080
1082
1080
1080
1075
1065
1058
1053
1053
1052
1048
1040
1028
1021
1016
1015
1012
1004
999
993
990
990
985
980
975
969
969
970
971
967
961
957
954
956
959
958
956
959
961
962
963
958
956
954
958
960
964
962
963
963
963
963
963
964
961
961
961
966
969
967
962
961
960
963
964
965
965
963
961
963
966
962
962
961
965
972
976
981
982
980
981
984
989
994
994
998
1003
1007
1013
1012
1010
1006
1006
1009
1006
1005
992
987
980
977
972
967
962
958
957
957
958
957
952
946
947
947
948
946
945
944
947
947
947
946
942
943
943
948
950
950
948
945
948
952
959
959
960
969
987
1009
1043
1085
1132
1179
1230
1265
1271
1230
1146
1047
959
908
887
892
902
902
897
894
893
886
876
869
871
874
875
876
873
869
867
874
878
885
890
896
906
916
929
944
952
961
968
976
975
977
975
973
980
984
991
990
991
991
993
994
996
996
995
996
1002
1006
1009
1011
1009
1004
1007
1015
1018
1018
1020
1023
1027
1031
1034
1035
1036
1036
1040
1047
1053
1056
1057
1056
1060
1064
1068
1070
1068
1072
1076
1083
1084
1085
1080
1077
1077
1077
1077
1074
1066
1059
1055
1051
1044
1037
1027
1021
1017
1016
1015
1007
1000
992
989
987
985
984
979
973
973
973
969
966
959
958
957
963
961
962
958
958
957
957
961
960
957
957
963
964
964
963
959
957
957
962
963
962
963
962
963
963
966
962
959
959
961
965
971
971
968
967
968
973
978
982
980
982
989
993
998
997
998
1000
1003
1008
1011
1011
1011
1007
1008
1006
1003
996
988
977
973
967
969
961
955
950
944
950
951
945
940
941
942
944
943
941
936
932
938
941
942
942
939
941
941
944
945
946
946
945
952
956
965
970
978
995
1024
1064
1119
1168
1218
1255
1266
1235
1167
1065
974
910
881
884
901
903
899
892
883
880
878
872
869
870
874
880
879
873
867
866
867
877
888
895
901
905
916
930
940
949
954
956
964
970
977
976
976
974
978
982
979
982
984
982
984
988
991
986
986
985
988
993
1000
1000
1000
999
1000
1004
1007
1007
1004
1007
1011
1017
1025
1024
1022
1024
1026
1028
1034
1037
1036
1039
1044
1053
1054
1054
1051
1054
1058
1062
1064
1062
1062
1057
1058
1058
1055
1049
1040
1035
1032
1031
1027
1019
1009
1001
995
990
988
981
975
967
971
968
966
964
956
951
947
947
948
946
944
941
942
941
942
939
935
932
932
937
938
936
935
928
931
931
935
933
934
930
933
938
940
936
935
932
933
936
939
936
934
934
936
937
939
936
932
928
934
937
937
941
944
946
948
951
953
953
956
958
964
968
974
979
976
972
974
976
977
973
971
970
967
965
960
947
939
932
930
931
929
926
922
920
918
918
916
913
912
909
910
914
916
916
910
906
906
907
906
906
907
908
913
916
919
919
917
917
917
928
938
955
980
1016
1065
1116
1163
1205
1224
1210
1154
1071
982
907
862
848
858
870
873
864
856
850
844
843
839
840
837
839
839
840
840
839
835
834
843
856
861
869
871
879
892
904
915
927
931
933
937
940
944
945
944
943
951
957
960
956
954
954
958
961
966
965
967
967
969
973
974
972
972
974
976
983
990
990
987
989
990
993
997
997
1002
1003
1009
1012
1017
1014
1014
1016
1021
1026
1031
1036
1035
1036
1040
1046
1043
1039
1035
1030
1033
1032
1029
1020
1015
1006
1001
997
993
985
979
974
969
970
965
958
951
945
943
944
943
939
935
932
930
930
929
927
922
922
925
930
931
929
924
922
924
925
928
925
928
924
929
931
933
927
925
921
926
928
929
930
928
926
928
930
