945
916
911
920
927
930
926
918
912
903
900
900
904
903
903
901
903
901
900
896
899
909
918
931
939
943
950
960
972
985
998
1002
1003
1008
1014
1018
1020
1019
1015
1020
1022
1028
1032
1031
1033
1034
1036
1039
1038
1041
1037
1039
1043
1049
1052
1054
1051
1050
1051
1058
1059
1060
1061
1063
1066
1072
1074
1075
1073
1073
1078
1083
1084
1088
1089
1091
1094
1100
1102
1099
1096
1098
1101
1105
1106
1109
1105
1105
1103
1101
1097
1091
1082
1082
1077
1077
1072
1063
1052
1046
1043
1045
1040
1035
1029
1026
1026
1024
1021
1015
1007
1004
1002
1004
1005
999
996
995
993
996
993
992
986
985
985
988
991
987
982
979
981
982
981
979
974
978
982
985
985
980
977
977
982
986
987
988
986
986
985
989
985
984
981
978
982
987
988
988
984
982
984
984
983
984
983
982
985
990
988
986
982
986
992
997
1001
1000
1000
1002
1007
1010
1014
1015
1017
1022
1022
1032
1033
1032
1026
1024
1025
1024
1019
1012
1005
999
994
993
989
983
977
975
974
974
975
974
970
969
970
969
964
961
956
958
957
965
964
963
960
959
961
964
964
962
962
963
969
972
975
979
981
991
1008
1037
1073
1112
1160
1211
1255
1288
1293
1250
1170
1077
991
930
905
904
915
920
917
916
909
898
891
886
889
892
895
897
895
891
889
888
890
893
899
906
917
925
934
940
950
959
969
986
992
995
996
997
1001
1005
1006
1003
1001
1004
1009
1015
1018
1017
1016
1016
1021
1023
1023
1022
1023
1022
1028
1033
1036
1034
1033
1031
1035
1039
1042
1047
1047
1051
1055
1057
1062
1061
1062
1062
1066
1074
1080
1079
1080
1081
1084
1090
1092
1091
1091
1094
1097
1100
1101
1099
1097
1092
1090
1090
1084
1079
1073
1067
1066
1061
1055
1052
1043
1035
1032
1031
1026
1022
1016
1012
1009
1007
1002
995
990
985
985
985
985
981
974
977
974
973
971
966
964
965
965
973
970
971
968
966
967
971
973
972
971
972
972
978
977
972
971
967
969
975
975
977
976
976
977
978
976
976
970
971
976
979
979
979
975
973
972
975
972
970
971
972
977
979
979
975
970
969
968
973
978
976
972
974
975
979
978
975
973
974
980
988
997
995
994
992
997
1001
1004
1007
1008
1014
1020
1025
1025
1022
1018
1017
1018
1019
1017
1011
1004
994
989
985
977
971
965
963
964
963
965
963
958
956
954
953
956
948
948
949
953
955
956
953
946
945
948
955
957
960
957
956
960
963
964
970
975
989
1014
1050
1096
1144
1195
1241
1269
1276
1227
1141
1048
963
909
892
900
909
909
897
891
886
884
879
874
876
879
881
880
870
871
869
870
881
889
894
899
907
915
930
941
953
964
972
974
979
981
978
977
978
983
988
990
991
988
987
989
992
994
993
993
994
999
1003
1006
1000
1002
1003
1008
1011
1014
1019
1015
1016
1026
1028
1030
1031
1031
1037
1041
1048
1051
1052
1048
1051
1057
1064
1065
1067
1067
1071
1072
1077
1074
1070
1064
1061
1061
1060
1058
1051
1044
1037
1031
1028
1024
1014
1009
1005
1004
1002
997
988
980
976
974
976
976
972
966
961
957
959
956
955
951
950
952
954
957
954
951
948
951
955
954
954
952
955
953
956
955
952
953
952
954
958
960
957
953
950
955
956
958
953
955
954
954
956
953
950
947
947
948
953
956
956
953
950
948
948
948
950
948
947
949
959
962
964
963
965
967
971
975
977
980
981
987
995
998
995
993
993
996
997
995
990
984
975
970
963
957
952
948
946
943
944
945
937
935
933
935
937
938
935
933
934
933
933
931
932
927
929
934
934
937
938
936
935
936
941
941
943
944
953
967
988
1015
1053
1097
1151
1206
1247
1254
1221
1146
1050
963
903
880
879
891
895
892
884
880
871
860
857
860
867
869
863
862
859
859
859
865
874
881
890
900
914
927
938
944
953
958
964
966
970
969
972
976
981
983
982
979
982
987
993
996
995
994
994
999
999
1001
1004
1002
1007
1012
1015
1018
1016
1020
1019
1024
1030
1034
1039
1039
1041
1043
1048
1051
1052
1054
1057
1064
1069
1074
1075
1071
1072
1076
1080
1078
1076
1074
1070
1068
1065
1060
1051
1046
1037
1040
1036
1030
1024
1014
1007
1004
1004
1000
997
993
991
988
985
982
977
973
969
971
974
973
972
968
963
963
964
969
968
968
968
970
972
971
970
969
966
970
970
971
973
971
968
971
976
975
974
973
975
980
982
982
982
976
973
977
981
984
983
981
981
980
982
982
981
977
976
983
986
987
984
977
976
977
986
994
998
999
999
1003
1007
1010
1012
1009
1016
1024
1030
1036
1035
1028
1029
1026
1027
1027
1022
1014
1004
1000
996
993
986
978
978
982
981
982
980
975
970
968
974
971
971
969
970
974
976
973
971
968
970
974
978
980
980
979
981
986
989
997
1007
1024
1057
1103
1161
1219
1268
1302
1306
1261
1176
1072
975
916
905
920
932
934
921
914
908
903
901
904
907
906
904
901
901
901
901
908
918
930
942
949
955
962
980
994
1005
1012
1014
1012
1012
1012
1017
1020
1021
1019
1026
1030
1030
1033
1031
1027
1029
1033
1037
1042
1041
1039
1042
1044
1048
1049
1051
1052
1055
1060
1067
1073
1070
1068
1070
1075
1083
1088
1087
1091
1094
1098
1103
1107
1107
1105
1108
1112
1118
1116
1112
1109
1107
1104
1104
1102
1095
1086
1079
1076
1071
1065
1058
1051
1047
1045
1044
1039
1035
1027
1017
1015
1014
1013
1010
1008
1002
1001
1000
998
996
994
995
997
999
997
997
992
991
993
995
996
998
995
996
997
1000
1000
995
990
989
994
1000
1004
1002
996
998
997
999
998
997
998
997
999
1002
999
998
992
990
993
997
998
996
993
988
989
988
990
989
986
989
990
993
994
995
990
990
992
994
998
1000
1002
1003
1011
1018
1019
1019
1019
1024
1029
1039
1044
1045
1048
1048
1048
1051
1048
1047
1045
1042
1035
1032
1026
1012
1001
997
995
994
997
994
989
985
984
985
985
983
979
979
982
984
985
981
978
973
976
983
988
989
986
984
990
989
992
990
992
1001
1014
1037
1067
1102
1143
1199
1256
1301
1321
1300
1232
1136
1039
970
929
921
929
936
935
931
927
919
908
901
901
909
911
909
904
902
904
912
916
923
928
936
947
960
978
988
997
1006
1014
1016
1016
1017
1013
1019
1023
1028
1029
1028
1029
1029
1029
1035
1039
1039
1037
1038
1040
1045
1046
1045
1045
1048
1052
1057
1060
1062
1058
1060
1064
1067
1072
1073
1076
1080
1084
1088
1092
1092
1091
1093
1097
1103
1109
1108
1107
1109
1110
1110
1113
1109
1105
1102
1101
1099
1093
1084
1078
1068
1065
1061
1059
1056
1048
1040
1038
1035
1031
1025
1018
1017
1017
1014
1011
1008
1001
999
996
1000
1004
1001
998
998
996
996
996
990
988
989
994
998
1000
999
994
992
992
994
996
995
993
994
994
996
996
994
992
991
995
997
1000
998
989
991
990
994
994
992
991
993
992
992
989
988
983
986
986
990
991
992
984
987
985
988
988
988
986
985
986
988
992
987
985
982
986
995
995
1002
1005
1004
1007
1009
1011
1014
1016
1018
1027
1033
1036
1036
1031
1029
1030
1030
1027
1025
1015
1007
1000
995
993
983
977
974
974
978
978
976
972
970
970
970
969
968
964
960
967
970
969
966
962
962
966
970
973
972
971
970
974
978
981
988
994
1014
1046
1089
1137
1188
1234
1269
1287
1266
1203
1110
1016
947
915
916
928
930
920
910
903
899
897
892
891
891
896
895
895
888
883
880
887
898
909
915
915
923
934
951
966
976
983
987
993
997
999
996
999
999
1004
1010
1014
1013
1010
1009
1011
1015
1014
1018
1016
1019
1019
1027
1027
1028
1026
1024
1030
1035
1037
1037
1037
1038
1044
1051
1051
1051
1049
1053
1057
1064
1069
1070
1070
1070
1074
1078
1081
1082
1081
1085
1086
1095
1092
1089
1083
1082
1084
1084
1080
1077
1069
1062
1058
1056
1051
1042
1036
1031
1026
1028
1025
1016
1010
1003
999
1002
999
993
989
990
990
990
986
980
975
970
973
979
981
978
974
969
975
977
975
975
974
977
978
979
981
979
974
973
975
978
982
981
977
977
979
978
977
978
975
977
980
982
981
981
975
972
973
978
977
976
973
975
977
979
977
974
971
973
975
978
979
979
976
976
978
980
987
987
991
997
1000
1003
1007
1004
1006
1009
1014
1022
1031
1032
1029
1030
1028
1026
1028
1024
1019
1016
1011
1005
999
992
985
979
978
979
980
977
976
974
973
973
972
969
967
966
970
974
974
973
970
968
971
975
975
976
976
975
981
987
987
988
994
1010
1035
1075
1124
1179
1230
1270
1298
1294
1250
1167
1076
987
939
923
932
941
935
927
920
917
913
906
904
907
907
910
907
902
898
896
901
911
924
927
933
940
947
964
978
991
998
1006
1012
1016
1020
1019
1016
1016
1023
1025
1031
1030
1031
1032
1034
1038
1040
1036
1036
1039
1041
1045
1050
1050
1048
1048
1052
1056
1062
1061
1064
1066
1071
1074
1077
1079
1078
1081
1084
1091
1096
1099
1096
1100
1100
1107
1109
1110
1110
1116
1117
1123
1121
1121
1114
1111
1110
1111
1107
1104
1094
1089
1085
1083
1076
1070
1062
1058
1056
1055
1053
1047
1040
1034
1032
1031
1027
1023
1017
1015
1014
1015
1013
1010
1004
1001
1000
1003
1003
1001
999
999
1002
1003
1003
1000
998
998
1000
1003
1005
1004
1005
1000
1001
1002
1006
1004
1003
1004
1005
1011
1010
1010
1008
1004
1006
1009
1013
1014
1013
1013
1012
1015
1018
1014
1011
1010
1013
1010
1016
1017
1013
1011
1012
1013
1008
1010
1009
1007
1013
1014
1013
1012
1008
1004
1007
1009
1012
1010
1010
1011
1015
1023
1025
1025
1023
1023
1029
1035
1039
1041
1039
1044
1048
1049
1053
1050
1044
1046
1053
1055
1054
1044
1036
1027
1022
1016
1009
1005
1002
999
1000
1000
998
992
992
992
991
994
995
991
988
987
990
989
990
986
984
984
984
994
993
994
991
990
992
995
998
1001
1003
1012
1031
1054
1084
1118
1156
1205
1253
1297
1325
1318
1270
1185
1089
1003
945
921
925
937
945
943
935
926
914
907
906
907
913
915
911
908
909
909
908
909
914
924
934
946
955
965
975
987
1000
1011
1015
1016
1014
1013
1016
1020
1026
1027
1024
1024
1022
1031
1030
1031
1028
1030
1032
1042
1040
1040
1035
1033
1034
1045
1051
1053
1053
1053
1058
1061
1061
1062
1061
1065
1072
1080
1084
1083
1083
1084
1088
1096
1099
1103
1102
1103
1109
1115
1118
1114
1111
1111
1114
1116
1119
1114
1108
1103
1100
1098
1094
1087
1077
1070
1071
1070
1065
1058
1049
1042
1038
1036
1032
1026
1018
1014
1014
1011
1009
1002
998
990
995
1000
998
996
991
986
986
990
990
987
987
988
990
995
994
990
986
985
990
995
995
992
991
991
993
995
995
996
990
991
997
1000
1000
996
992
989
992
996
993
992
989
990
991
994
994
989
981
980
986
986
989
985
985
985
987
986
982
979
976
979
981
985
980
976
974
972
976
976
980
976
979
985
994
1002
1001
998
997
1001
1010
1017
1019
1023
1028
1033
1036
1036
1033
1031
1028
1029
1031
1028
1024
1012
1002
993
991
989
987
983
979
975
978
978
974
968
961
960
963
966
967
966
959
958
958
962
961
957
954
958
961
966
968
962
957
955
961
967
975
982
994
1017
1057
1106
1157
1207
1246
1276
1278
1245
1171
1079
995
932
902
905
917
920
910
903
899
897
890
883
875
876
879
883
881
879
870
867
870
879
887
889
888
893
904
917
928
942
948
953
960
966
968
971
973
973
978
983
986
987
984
986
986
990
995
996
994
995
1000
1003
1005
1007
1002
1000
1006
1012
1016
1017
1015
1016
1017
1023
1027
1027
1028
1028
1032
1039
1044
1046
1042
1044
1044
1049
1053
1057
1057
1057
1061
1066
1066
1064
1062
1061
1058
1062
1062
1059
1056
1049
1042
1040
1034
1030
1022
1016
1012
1012
1011
1002
995
989
983
979
977
974
970
969
965
965
963
958
954
950
948
949
951
951
948
949
949
949
946
950
946
946
949
953
954
953
950
950
951
954
956
953
953
958
958
960
957
960
954
952
957
962
961
962
960
959
957
957
956
953
955
957
958
961
964
962
956
955
957
956
958
959
957
954
955
958
959
955
952
953
953
959
959
961
961
962
966
971
972
974
973
975
980
986
992
991
991
994
999
1001
1002
1003
1000
1003
1006
1005
1005
998
989
983
976
972
966
963
960
959
958
955
951
950
948
945
949
951
951
946
944
944
942
945
945
944
942
944
947
948
949
945
945
948
953
958
960
968
976
992
1020
1058
1105
1160
1207
1250
1273
1259
1208
1122
1027
946
896
885
892
903
901
896
889
886
882
874
866
866
871
874
876
874
869
866
861
867
870
876
883
892
901
916
927
936
944
954
965
969
974
975
975
976
978
985
987
986
985
987
989
994
998
999
998
999
1004
1007
1008
1005
1007
1008
1016
1022
1025
1027
1024
1026
1028
1034
1038
1039
1037
1041
1047
1053
1057
1058
1058
1058
1061
1071
1075
1076
1076
1079
1081
1087
1089
1087
1085
1088
1090
1094
1094
1089
1082
1077
1074
1068
1065
1056
1051
1047
1043
1042
1040
1031
1022
1016
1013
1011
1011
1008
1002
997
994
994
995
991
984
978
981
984
986
982
979
978
977
978
979
980
977
977
979
983
984
983
980
974
977
978
983
984
983
983
985
987
988
984
980
981
983
987
990
991
990
986
990
990
989
988
985
988
990
993
995
993
990
985
988
990
989
990
988
990
993
995
997
989
986
985
988
992
992
994
993
993
996
998
996
996
1000
1004
1008
1014
1017
1019
1018
1021
1027
1031
1037
1039
1043
1040
1046
1048
1047
1041
1039
1034
1030
1027
1022
1015
1008
1005
1003
999
997
991
987
988
989
994
994
989
988
986
982
984
986
984
981
981
985
990
989
985
984
985
987
992
994
993
995
1001
1009
1024
1043
1072
1110
1161
1217
1272
1310
1327
1301
1232
1137
1044
969
931
924
934
947
945
936
928
917
915
912
915
921
922
919
910
908
908
910
916
926
934
944
954
966
975
984
991
1007
1014
1018
1018
1018
1019
1022
1025
1028
1030
1029
1029
1034
1035
1039
1038
1035
1034
1038
1040
1047
1044
1046
1047
1053
1054
1056
1055
1056
1057
1064
1070
1073
1073
1072
1075
1079
1083
1086
1088
1090
1091
1096
1103
1107
1105
1104
1106
1108
1113
1119
1114
1112
1108
1106
1106
1105
1097
1092
1085
1083
1081
1076
1066
1056
1049
1048
1046
1045
1042
1034
1026
1025
1025
1022
1017
1008
1008
1011
1011
1010
1007
1002
997
996
999
998
997
996
992
996
997
998
993
991
991
995
999
1002
999
997
996
995
1001
1001
999
995
998
1002
1004
1006
1003
994
995
998
1004
1007
1004
1003
1002
1004
1007
1006
998
996
996
996
1002
1004
998
998
994
992
994
995
995
990
989
992
996
998
996
991
990
991
995
996
994
992
993
996
1001
1007
1007
1008
1008
1013
1023
1027
1028
1026
1027
1030
1040
1041
1040
1035
1039
1042
1044
1041
1033
1024
1016
1010
1006
1002
997
989
984
982
986
982
979
973
971
974
977
979
975
970
966
966
968
972
969
968
969
970
975
972
973
969
969
968
976
983
986
989
1002
1021
1050
1094
1142
1193
1243
1287
1311
1292
1221
1123
1023
950
915
913
924
930
925
919
911
905
895
888
890
894
902
901
895
888
885
888
897
907
912
919
926
938
953
967
976
983
986
995
1001
1005
1005
1003
1004
1003
1006
1008
1007
1007
1009
1013
1018
1021
1018
1015
1016
1020
1023
1025
1028
1029
1030
1033
1039
1038
1040
1038
1044
1050
1053
1059
1060
1058
1060
1066
1071
1076
1081
1080
1079
1086
1090
1091
1092
1092
1094
1095
1097
1098
1095
1087
1084
1075
1078
1073
1065
1059
1051
1048
1043
1039
1031
1022
1015
1012
1013
1013
1007
1002
993
987
987
988
984
979
979
982
983
981
975
970
966
970
975
978
976
970
968
966
967
970
966
964
963
967
971
971
968
964
966
967
970
974
971
969
967
967
970
970
968
967
966
966
972
971
968
963
962
964
967
969
968
965
962
966
969
968
965
958
960
965
967
969
962
962
959
960
962
965
965
966
972
979
982
983
983
982
988
992
999
1006
1013
1014
1008
1014
1009
1010
1008
1004
999
1000
995
989
977
970
963
964
965
966
960
958
956
956
955
953
952
949
950
952
954
957
955
952
951
949
951
955
958
956
955
960
964
963
964
967
977
998
1028
1071
1121
1174
1224
1266
1282
1253
1180
1082
992
926
900
902
916
920
912
904
901
897
890
884
879
884
886
886
881
875
873
876
886
895
903
903
909
920
935
949
959
971
976
984
987
990
987
983
984
992
998
1002
1005
1000
1001
1001
1005
1008
1007
1007
1007
1012
1016
1018
1017
1012
1015
1017
1024
1026
1032
1030
1030
1031
1039
1040
1041
1042
1045
1051
1059
1059
1060
1058
1063
1065
1071
1077
1075
1075
1074
1079
1082
1081
1079
1074
1069
1071
1073
1070
1060
1054
1047
1040
1039
1035
1027
1022
1016
1017
1012
1005
1001
993
985
984
986
984
980
976
974
972
969
968
966
965
964
965
969
967
965
961
962
959
967
969
963
966
965
962
966
966
965
961
962
963
967
968
967
965
966
966
969
971
970
968
970
968
971
969
965
964
965
968
970
971
971
971
967
966
963
969
968
965
966
971
973
977
975
973
974
978
982
990
994
990
993
998
1000
1004
1009
1013
1013
1018
1021
1022
1019
1011
1010
1005
1002
997
987
978
970
971
972
972
966
962
959
962
965
967
964
959
959
959
960
959
962
956
961
965
968
967
966
965
964
968
970
975
978
979
984
998
1023
1057
1105
1158
1217
1270
1302
1302
1248
1155
1050
965
916
905
920
927
921
913
907
899
890
885
883
891
897
896
889
886
883
883
891
905
914
921
933
945
957
974
983
990
993
997
1006
1008
1007
1006
1005
1005
1010
1014
1017
1019
1019
1021
1023
1024
1025
1023
1026
1030
1037
1042
1038
1039
1040
1042
1044
1049
1054
1054
1056
1062
1069
1070
1069
1069
1067
1076
1083
1089
1088
1085
1088
1091
1096
1098
1099
1098
1099
1103
1105
1101
1094
1086
1082
1076
1076
1071
1066
1057
1047
1043
1037
1033
1025
1020
1018
1014
1016
1010
1005
997
994
994
993
993
991
988
988
987
988
987
984
984
984
989
988
992
992
985
986
986
989
987
990
987
986
987
989
989
988
985
985
988
993
993
993
990
987
988
988
988
992
990
992
993
992
993
990
984
983
985
990
990
990
989
986
984
987
987
984
983
982
986
990
998
996
995
1000
1001
1003
