1020
1019
1016
1016
1017
1019
1025
1025
1028
1027
1029
1035
1035
1034
1031
1032
1036
1043
1048
1049
1049
1047
1050
1054
1057
1058
1060
1060
1063
1074
1079
1081
1078
1078
1081
1084
1085
1089
1088
1090
1092
1095
1100
1094
1092
1084
1084
1085
1084
1084
1077
1070
1067
1065
1061
1056
1046
1040
1034
1035
1031
1028
1022
1014
1009
1006
1006
1001
996
994
991
994
992
990
984
979
977
977
980
980
973
974
974
972
975
972
967
964
966
969
975
975
971
970
970
972
972
972
970
967
971
977
980
978
972
972
974
975
976
978
976
976
977
980
983
980
974
974
970
971
978
979
976
974
976
973
977
974
971
973
976
980
987
990
989
988
991
993
997
1000
1001
1005
1011
1019
1020
1022
1020
1017
1020
1021
1024
1019
1014
1009
1004
1000
995
983
975
970
969
971
972
969
967
962
961
958
961
960
956
953
955
962
961
961
958
952
954
954
955
958
956
957
961
965
963
960
960
961
967
972
982
998
1017
1041
1078
1122
1170
1216
1256
1278
1276
1226
1142
1037
953
900
888
900
914
914
904
898
892
888
886
882
880
882
882
881
883
883
878
882
885
895
904
908
911
920
930
946
963
973
973
976
976
980
984
984
985
985
986
992
993
994
990
988
989
994
1000
1002
1003
1002
1002
1005
1009
1009
1007
1006
1009
1013
1019
1022
1019
1018
1021
1023
1030
1030
1032
1034
1034
1039
1045
1050
1047
1045
1049
1056
1060
1062
1065
1059
1064
1063
1066
1064
1062
1058
1057
1058
1058
1054
1047
1037
1032
1029
1028
1024
1016
1010
1006
1002
998
989
983
974
975
976
977
973
969
963
961
960
960
956
954
952
951
953
955
953
949
944
946
945
946
948
949
945
946
949
952
947
945
942
944
948
955
955
952
950
949
950
951
951
949
949
946
952
957
954
951
948
950
952
952
948
950
948
948
950
951
950
946
943
945
948
954
957
954
954
959
961
966
969
968
969
971
979
984
987
991
990
989
994
996
994
992
988
987
985
984
975
961
955
948
947
946
946
943
937
936
933
929
930
928
925
923
927
929
929
923
918
919
921
923
921
923
921
924
924
931
931
928
928
929
938
943
953
960
975
999
1033
1073
1123
1170
1215
1250
1264
1249
1191
1103
1013
940
893
875
885
896
897
892
888
882
873
865
858
859
865
873
871
865
865
864
862
865
869
873
878
888
898
909
919
925
934
943
950
954
957
954
956
958
969
973
971
967
964
966
972
978
982
979
980
982
984
990
989
990
988
994
998
1006
1003
1003
1005
1006
1010
1020
1020
1020
1022
1025
1031
1039
1043
1042
1041
1043
1050
1056
1059
1059
1060
1064
1068
1073
1073
1070
1068
1071
1073
1075
1072
1067
1059
1055
1049
1049
1041
1034
1028
1025
1024
1021
1014
1005
997
993
989
990
987
981
979
975
974
974
969
961
957
959
959
961
964
960
955
951
954
956
958
953
953
952
958
960
957
953
948
953
957
963
963
961
958
957
960
960
961
960
960
962
968
973
970
966
963
962
964
965
967
966
966
965
969
967
966
962
964
962
970
971
971
970
967
970
976
984
985
985
984
990
995
1001
1004
1003
1007
1012
1014
1018
1022
1017
1016
1014
1014
1011
1004
997
987
983
980
978
977
970
965
962
965
966
965
963
960
958
958
956
954
953
952
955
959
960
963
958
954
954
958
960
964
967
967
973
981
990
1006
1030
1065
1113
1170
1229
1273
1292
1275
1211
1116
1021
945
904
900
913
924
923
915
905
895
889
891
895
899
898
890
886
884
891
891
901
908
917
925
936
946
953
959
968
980
992
995
994
995
996
999
1006
1004
1002
1003
1006
1012
1017
1018
1015
1014
1016
1019
1025
1024
1025
1027
1029
1034
1037
1036
1035
1033
1038
1044
1051
1054
1051
1053
1059
1062
1069
1069
1069
1070
1075
1081
1085
1085
1087
1084
1086
1091
1094
1094
1091
1089
1088
1087
1086
1080
1071
1064
1059
1059
1055
1052
1042
1037
1031
1029
1027
1022
1015
1011
1009
1009
1008
1001
995
990
987
988
986
986
981
979
977
978
980
978
974
973
975
978
983
977
972
970
972
976
978
978
977
979
981
982
982
978
976
975
976
979
985
984
983
980
979
977
980
982
980
979
982
984
983
981
976
975
976
978
984
983
981
979
978
977
980
979
976
975
976
979
984
985
982
977
977
983
990
994
996
994
999
1003
1008
1006
1008
1009
1015
1023
1033
1030
1027
1023
1020
1021
1020
1015
1004
998
988
987
984
979
972
969
970
971
974
970
967
965
963
962
963
963
961
960
963
965
967
965
963
961
962
966
970
973
973
973
975
980
990
1004
1027
1062
1108
1166
1223
1269
1289
1267
1197
1096
1006
938
908
913
925
929
922
913
902
895
892
890
896
897
895
887
885
884
888
893
903
909
916
924
937
946
954
968
977
986
990
992
990
990
991
993
996
999
1002
998
1001
1002
1007
1006
1007
1006
1008
1014
1018
1020
1019
1019
1020
1023
1026
1031
1033
1037
1040
1043
1046
1044
1045
1045
1049
1055
1062
1064
1064
1063
1064
1070
1074
1073
1075
1077
1081
1084
1084
1082
1078
1073
1068
1069
1070
1063
1055
1049
1041
1037
1034
1025
1016
1015
1009
1006
1007
997
992
984
982
982
981
980
976
972
969
969
970
966
962
961
964
966
970
965
963
958
959
960
967
965
966
963
961
965
966
966
964
964
962
968
969
969
966
962
961
963
965
965
964
962
962
965
963
961
956
954
954
958
963
962
958
956
954
955
957
956
954
952
955
956
962
958
959
962
965
972
980
982
980
979
985
988
999
999
1000
997
1002
1007
1010
1003
1000
992
985
979
976
968
962
955
954
953
952
948
944
941
938
944
945
943
939
935
934
937
936
933
930
929
934
937
939
938
935
932
935
938
943
944
947
947
954
970
996
1024
1064
1113
1167
1217
1254
1259
1219
1140
1042
953
897
875
885
897
896
889
879
871
862
854
854
858
865
866
862
852
848
849
857
862
869
873
882
893
902
912
922
930
940
949
951
958
957
958
958
960
966
966
965
966
969
975
978
978
977
974
974
977
982
984
984
984
987
992
991
991
991
994
997
1003
1010
1012
1011
1011
1013
1017
1024
1023
1027
1028
1030
1035
1039
1041
1038
1039
1043
1047
1050
1048
1042
1036
1032
1029
1030
1023
1017
1009
1005
1000
994
988
982
972
973
973
973
968
960
953
949
949
952
947
943
942
940
940
938
938
937
935
936
941
945
942
940
932
934
937
939
940
938
940
936
939
942
942
940
937
940
940
946
944
940
936
935
938
940
942
938
939
940
941
944
941
933
934
934
939
944
943
941
942
945
949
953
954
954
958
963
966
973
974
974
977
980
986
989
987
985
980
976
973
968
962
954
946
942
941
941
939
936
928
925
930
932
934
927
924
923
923
926
925
923
923
923
926
931
931
927
925
927
930
936
939
937
944
950
962
985
1016
1054
1103
1161
1216
1256
1264
1225
1141
1038
949
895
873
883
892
892
882
880
875
861
858
858
865
871
870
866
859
855
856
861
868
877
884
892
902
915
925
935
945
952
958
964
968
970
974
973
979
982
980
981
982
985
992
996
1000
995
994
996
999
999
1003
1004
1005
1007
1011
1019
1016
1015
1015
1017
1023
1031
1033
1035
1036
1038
1041
1045
1049
1050
1052
1054
1060
1064
1066
1066
1067
1069
1072
1077
1078
1079
1075
1073
1074
1073
1069
1062
1055
1048
1047
1047
1043
1035
1026
1018
1018
1017
1011
1005
999
997
997
997
991
986
979
974
977
979
978
975
974
971
974
972
970
969
966
967
969
975
976
971
968
966
969
970
971
971
970
969
974
977
975
969
968
968
969
972
973
974
972
974
973
976
974
972
969
973
974
975
974
974
968
969
971
976
976
970
971
976
977
977
977
973
969
973
978
986
990
990
991
994
995
998
1002
1004
1003
1009
1018
1024
1023
1019
1013
1015
1016
1015
1012
1004
996
987
982
978
976
970
965
965
967
968
964
959
952
953
956
957
955
953
952
954
955
957
954
953
951
954
956
964
965
965
963
965
962
975
987
1008
1034
1078
1127
1180
1229
1269
1287
1277
1226
1148
1056
972
918
899
907
919
913
909
900
896
891
888
883
885
883
882
883
886
880
879
882
888
899
911
914
917
929
939
951
970
976
980
982
984
987
986
989
989
990
991
998
1004
1005
1001
999
1001
1005
1009
1011
1011
1013
1014
1017
1020
1019
1017
1015
1020
1025
1030
1032
1034
1034
1036
1039
1041
1044
1045
1048
1053
1060
1062
1063
1065
1063
1065
1070
1073
1075
1077
1078
1079
1082
1083
1083
1078
1073
1070
1070
1072
1068
1060
1053
1047
1040
1037
1033
1026
1021
1017
1016
1013
1009
1000
992
987
984
985
984
979
977
973
972
969
969
964
962
962
962
966
969
963
962
960
962
964
961
959
958
961
964
968
967
964
960
958
961
963
964
966
965
964
966
968
970
966
964
963
967
972
970
967
965
961
962
964
964
965
963
965
966
969
964
960
957
958
958
964
962
964
966
969
974
979
981
980
981
984
989
995
999
1002
1003
1005
1010
1010
1009
1009
1006
1004
1005
1005
997
987
977
967
968
964
964
961
958
954
952
954
952
946
943
942
944
949
948
943
941
939
939
941
938
936
936
938
942
949
946
941
939
939
947
953
957
966
976
994
1022
1062
1102
1149
1192
1237
1265
1266
1222
1146
1056
971
910
886
887
894
899
897
892
885
882
873
863
861
863
869
870
866
865
865
861
870
875
878
880
886
892
907
918
928
936
946
954
958
959
960
961
964
968
975
974
972
972
968
973
975
978
980
979
982
983
989
989
988
986
988
993
998
999
999
1000
1001
1004
1007
1007
1007
1007
1012
1018
1025
1022
1024
1028
1030
1033
1036
1038
1039
1040
1039
1047
1050
1051
1048
1046
1043
1045
1047
1047
1046
1037
1030
1028
1023
1016
1009
1004
1000
999
994
986
979
971
964
967
966
960
956
949
946
948
947
943
936
932
931
934
937
936
934
930
927
927
931
930
928
927
929
932
933
933
929
926
926
929
933
935
935
932
929
934
933
935
930
929
929
932
940
939
937
933
930
930
935
935
934
929
931
931
936
936
928
928
927
929
935
939
941
944
944
950
954
952
950
951
952
961
968
972
974
974
972
978
978
977
972
965
963
958
958
950
942
930
927
927
927
925
923
917
917
921
919
916
913
911
907
912
915
917
912
911
909
909
909
907
907
912
914
921
922
923
920
919
921
928
939
949
969
995
1031
1080
1130
1179
1218
1239
1222
1172
1094
1005
924
872
858
866
878
878
870
861
856
853
851
846
843
839
843
845
844
841
839
838
843
853
861
868
871
878
886
898
911
923
932
936
941
944
946
948
944
946
949
958
962
965
962
959
960
961
967
968
969
972
973
976
979
977
976
976
978
985
989
992
992
994
994
997
1002
1002
1002
1004
1008
1015
1019
1021
1022
1021
1023
1027
1032
1036
1035
1036
1039
1045
1049
1051
1049
1046
1044
1045
1046
1043
1036
1031
1028
1024
1022
1015
1006
1001
997
996
998
991
986
977
974
971
970
964
959
955
952
956
956
951
948
942
937
941
944
941
941
938
938
940
943
942
939
936
937
941
943
945
945
941
942
942
941
943
942
944
945
946
951
948
948
946
941
942
946
942
945
944
943
949
948
949
945
943
942
944
947
950
949
947
947
950
950
950
952
952
959
962
970
969
969
972
973
978
982
984
987
990
994
998
999
997
991
987
985
984
980
975
966
956
953
950
951
947
943
938
940
939
942
940
937
933
935
933
933
930
931
930
930
935
938
938
934
932
931
935
942
941
943
942
945
953
960
967
982
1006
1043
1090
1147
1192
1233
1259
1252
1199
1115
1020
938
890
880
891
898
898
888
879
876
869
868
866
866
867
871
872
869
866
858
859
862
875
887
895
902
905
915
928
944
949
956
964
968
973
978
980
980
976
978
985
989
991
992
993
992
995
999
995
996
996
997
1003
1007
1009
1010
1010
1011
1015
1020
1021
1021
1021
1022
1033
1040
1040
1036
1037
1040
1046
1052
1054
1053
1057
1060
1063
1068
1068
1066
1064
1070
1074
1081
1081
1079
1077
1070
1073
1068
1063
1058
1054
1050
1047
1046
1038
1030
1019
1016
1013
1010
1007
997
995
990
991
990
984
977
972
970
971
973
971
967
963
960
959
961
955
956
954
952
959
963
963
960
958
956
954
957
959
955
957
958
959
961
963
959
955
957
955
961
964
962
957
958
959
960
956
958
953
956
959
963
963
956
951
955
955
955
957
958
955
960
964
970
972
972
972
975
980
981
988
986
988
995
998
1004
1002
1001
997
1000
1001
1001
1000
991
982
974
967
964
957
953
953
949
952
949
946
941
936
936
936
939
940
937
934
933
935
935
935
931
931
932
935
941
939
937
934
931
934
939
946
949
954
970
988
1016
1046
1083
1125
1178
1225
1256
1262
1226
1155
1061
974
909
877
875
886
894
895
891
880
872
864
857
857
863
866
865
865
864
863
864
863
866
874
878
888
900
907
918
926
938
952
960
963
962
960
964
968
972
979
978
974
973
977
981
983
983
983
986
989
990
992
988
987
992
992
998
1001
1001
997
999
1008
1013
1013
1013
1013
1017
1024
1027
1031
1031
1027
1033
1036
1042
1044
1045
1045
1050
1055
1058
1059
1059
1057
1058
1062
1064
1064
1062
1056
1049
1051
1048
1040
1033
1025
1019
1020
1019
1012
1007
998
991
988
983
981
976
975
969
969
967
961
958
952
950
950
953
953
950
947
947
945
944
944
942
940
939
944
946
948
946
942
941
938
944
943
942
941
939
944
949
947
943
939
937
938
942
944
942
944
943
943
944
943
941
936
937
941
942
943
940
939
935
937
939
939
937
936
940
946
950
953
952
950
953
956
961
965
966
965
971
973
980
982
977
976
976
977
981
976
968
960
952
948
943
938
933
928
926
928
928
922
915
913
913
913
914
918
915
911
909
912
912
910
906
905
904
910
914
914
910
907
906
912
917
916
921
926
939
957
986
1019
1058
1104
1151
1199
1229
1223
1171
1091
998
919
866
846
851
863
869
865
862
851
844
837
828
831
836
840
838
833
833
832
834
836
834
842
849
859
870
881
890
902
912
921
928
928
929
928
933
941
945
944
942
940
943
946
948
948
952
949
951
955
960
958
957
956
958
965
970
970
968
968
973
977
982
983
984
984
987
995
996
996
995
998
1002
1008
1013
1018
1019
1020
1022
1026
1028
1028
1024
1022
1025
1026
1028
1027
1017
1011
1009
1005
1002
998
991
985
980
977
974
969
961
949
944
946
945
944
942
935
931
931
930
923
919
914
915
920
923
921
918
914
911
911
914
914
913
913
914
915
919
915
911
910
913
912
918
918
915
914
914
920
919
919
918
914
917
918
921
922
916
914
915
916
918
918
916
914
914
914
917
914
909
911
915
920
927
928
927
929
927
928
932
935
935
939
943
950
954
954
955
949
949
951
952
951
944
938
933
926
919
914
911
905
901
905
908
904
902
897
896
895
897
898
897
894
893
892
896
890
890
890
893
896
899
902
901
900
899
899
906
911
919
929
955
990
1040
1091
1143
1187
1221
1222
1180
1092
990
899
842
822
836
845
848
840
832
827
824
820
815
813
810
815
816
812
805
805
809
817
828
835
844
852
863
879
895
903
910
911
913
914
917
921
924
924
926
931
930
931
933
931
932
938
944
947
947
945
946
950
953
955
959
959
962
967
973
974
974
975
980
985
991
997
998
1000
1002
1006
1010
1015
1011
1014
1019
1027
1033
1031
1030
1026
1025
1027
1026
1023
1017
1013
1008
1005
999
991
981
974
967
966
965
959
955
946
939
938
936
933
929
927
925
925
925
923
919
911
914
914
918
918
914
914
912
913
915
917
916
913
914
918
925
923
920
918
918
919
922
924
924
922
924
925
924
924
921
922
925
925
930
926
923
918
919
921
924
924
923
923
923
927
931
928
928
929
933
937
948
943
949
950
951
960
965
970
971
972
969
971
973
973
967
960
955
951
945
941
935
928
926
924
925
921
918
917
916
918
921
919
915
910
908
909
913
915
915
912
911
916
918
915
916
915
917
924
926
931
937
947
967
1002
1047
1100
1152
1199
1240
1254
1220
1144
1041
948
879
849
854
862
868
863
854
851
848
841
837
836
841
843
846
839
835
833
836
845
857
868
877
884
896
909
920
934
937
942
947
953
956
960
959
957
957
963
966
970
971
969
972
976
979
976
979
975
979
984
991
995
996
992
996
999
1004
1006
1008
1006
1013
1019
1026
1024
1027
1028
1029
1036
1043
1051
1052
1053
1054
1059
1061
1063
1063
1062
1064
1068
1070
1065
1062
1056
1053
1047
1045
1041
1035
1029
1023
1021
1016
1009
998
990
987
985
987
981
976
968
963
958
961
956
955
953
951
952
953
949
946
942
939
943
948
948
947
943
942
943
945
945
945
942
946
951
953
951
952
944
945
946
949
951
954
952
951
952
954
950
951
948
948
952
958
957
954
952
950
951
953
953
952
950
952
953
958
959
959
961
963
971
977
978
978
978
982
987
995
997
999
1003
1004
1006
1007
1003
998
990
986
981
976
969
963
959
954
954
953
951
949
945
945
946
944
943
938
936
932
938
942
943
942
936
936
937
942
945
942
940
947
952
959
964
974
995
1027
1077
1130
1186
1234
1264
1264
1219
1130
1020
922
873
866
881
897
895
885
875
863
864
869
871
875
870
866
865
866
873
878
891
900
912
921
934
945
955
964
971
976
984
984
984
982
987
992
995
995
992
996
999
1003
1001
1000
999
1003
1007
1013
1017
1016
1014
1014
1018
1024
1025
1026
1027
1032
1037
1040
1043
1042
1042
1044
1050
1056
1059
1062
1062
1066
1066
1071
1073
1075
1076
1079
1085
1086
1085
1079
1075
1069
1067
1067
1064
1057
1050
1044
1039
1038
1030
1021
1011
1011
1011
1008
1007
1000
990
986
985
982
983
979
974
974
972
