1036
1031
1024
1021
1021
1019
1012
1005
1002
999
1000
1001
997
995
990
987
990
988
985
980
979
980
985
985
981
979
976
977
982
983
983
983
981
985
986
989
986
982
982
979
986
987
986
987
985
987
988
989
982
980
982
983
988
991
988
983
980
979
981
982
980
978
977
979
982
985
977
974
971
971
976
977
979
976
976
975
977
978
977
973
973
974
978
983
985
987
989
992
995
1000
1001
1000
1003
1009
1015
1022
1022
1023
1024
1023
1026
1028
1027
1025
1021
1017
1014
1010
1000
988
982
981
983
986
981
978
972
970
968
969
968
968
965
964
967
971
965
963
960
961
962
968
967
967
967
968
969
971
970
967
968
972
981
988
996
1009
1032
1061
1107
1152
1196
1241
1269
1277
1254
1196
1108
1022
950
911
909
923
930
925
919
915
910
908
899
888
888
892
898
901
900
895
889
892
895
899
904
911
913
922
932
948
955
966
975
981
988
990
992
992
994
997
1002
1000
1002
1001
999
1002
1004
1010
1013
1010
1010
1011
1016
1015
1015
1018
1016
1017
1022
1029
1029
1029
1024
1025
1032
1035
1038
1035
1037
1039
1043
1051
1053
1052
1053
1053
1058
1062
1065
1064
1067
1071
1076
1079
1079
1074
1075
1077
1077
1080
1081
1079
1072
1072
1069
1070
1061
1054
1050
1047
1047
1045
1040
1027
1023
1020
1015
1014
1009
1006
1000
999
997
999
994
986
978
979
979
980
979
975
975
971
974
974
968
967
969
968
971
971
971
971
969
969
972
974
972
965
965
970
975
977
974
970
965
970
973
974
972
971
972
974
977
978
978
974
970
969
971
973
973
970
969
970
972
974
971
966
964
963
969
971
970
968
966
967
968
969
967
964
962
965
970
971
969
968
965
965
968
972
970
971
973
979
985
990
992
989
985
989
995
1001
1003
1006
1010
1013
1015
1015
1013
1008
1005
1005
1006
1008
1002
992
982
971
970
964
962
956
954
953
954
956
953
946
944
940
943
942
943
942
939
939
942
944
942
939
938
940
941
944
946
944
946
944
946
951
954
956
962
976
1001
1034
1070
1111
1156
1200
1236
1257
1236
1181
1098
1012
942
904
890
894
905
902
896
894
886
877
871
870
870
872
873
870
866
864
866
869
867
868
872
881
890
897
898
907
918
932
946
955
962
958
957
958
962
965
967
966
970
969
972
978
975
974
973
973
974
980
982
979
979
982
985
988
986
984
982
987
995
1001
1001
1001
999
1001
1007
1009
1011
1012
1011
1017
1020
1025
1029
1027
1026
1027
1031
1037
1039
1040
1040
1047
1052
1049
1053
1051
1048
1049
1050
1052
1051
1048
1043
1040
1038
1033
1024
1017
1014
1008
1008
1008
1003
997
993
988
984
982
975
970
966
965
970
969
965
959
956
953
954
955
955
952
950
951
953
954
952
946
945
945
946
951
950
951
945
952
951
952
951
948
947
950
952
952
953
951
948
949
951
954
954
953
949
951
951
955
952
948
944
948
951
954
954
952
950
949
950
952
950
948
947
949
951
956
959
952
952
953
956
963
966
967
967
972
976
979
979
980
985
991
996
1004
1003
1002
999
998
998
995
990
982
976
967
963
960
955
951
945
943
943
944
943
944
941
942
941
942
937
933
934
934
937
943
939
939
937
937
941
941
942
939
944
946
952
957
956
960
970
990
1023
1068
1117
1169
1213
1252
1263
1232
1157
1062
970
909
885
895
909
909
901
891
889
885
879
875
877
879
883
883
877
871
867
870
881
894
903
908
913
924
935
952
962
972
976
979
984
989
989
987
987
988
994
998
1001
998
996
998
1004
1008
1004
1001
1005
1012
1014
1019
1016
1017
1013
1018
1024
1028
1031
1032
1031
1038
1043
1046
1046
1046
1047
1050
1058
1063
1066
1068
1067
1070
1075
1079
1080
1083
1081
1086
1088
1089
1084
1082
1073
1073
1074
1072
1066
1061
1054
1047
1044
1041
1034
1029
1019
1018
1017
1018
1011
1004
999
995
997
999
995
993
990
990
991
990
984
980
980
975
982
987
984
980
977
977
979
980
982
980
979
979
981
985
981
979
975
976
979
981
983
980
980
979
981
984
982
981
979
984
988
987
988
983
979
982
984
987
986
985
983
983
984
985
985
984
983
985
986
990
991
990
986
988
993
999
1001
1004
1007
1008
1016
1016
1018
1016
1017
1023
1033
1039
1041
1038
1035
1032
1034
1032
1029
1023
1014
1009
1004
1001
992
986
981
981
981
983
979
977
974
975
975
977
973
967
966
970
974
978
973
969
969
969
972
972
978
972
974
978
983
990
990
991
999
1018
1045
1083
1126
1170
1220
1266
1294
1292
1244
1158
1058
978
928
917
928
931
929
919
915
915
907
901
899
903
907
910
906
897
898
899
906
918
927
929
935
944
952
971
983
992
998
1003
1008
1008
1010
1007
1009
1011
1014
1018
1020
1018
1019
1020
1023
1027
1023
1024
1024
1027
1033
1034
1033
1032
1029
1032
1038
1044
1046
1046
1047
1050
1056
1060
1060
1060
1062
1068
1074
1078
1080
1080
1078
1080
1086
1092
1094
1092
1095
1097
1097
1097
1093
1087
1082
1082
1080
1078
1073
1067
1059
1053
1047
1043
1039
1035
1027
1026
1021
1020
1014
1006
999
998
1002
1002
999
994
991
989
989
988
985
983
983
986
988
987
987
980
980
981
983
989
990
985
985
982
986
987
987
988
986
988
990
994
992
987
986
986
986
993
994
991
991
988
989
992
990
990
988
990
992
995
991
986
983
984
986
989
986
988
984
985
985
988
985
985
984
987
997
1000
1004
1003
1003
1004
1009
1015
1021
1023
1026
1030
1035
1036
1035
1029
1029
1030
1031
1032
1023
1012
997
995
991
989
988
984
979
976
975
975
974
970
970
969
971
974
973
967
964
962
967
971
970
971
970
969
973
975
973
972
975
980
995
1016
1040
1067
1105
1150
1202
1248
1276
1273
1231
1147
1050
967
917
903
919
931
930
925
917
906
895
892
895
901
902
900
895
895
898
897
901
905
915
922
931
944
953
966
977
986
994
996
1000
998
999
1003
1006
1010
1012
1011
1010
1012
1013
1019
1021
1020
1017
1020
1023
1027
1026
1024
1023
1026
1032
1038
1041
1040
1037
1040
1043
1046
1050
1050
1050
1054
1060
1063
1063
1064
1065
1066
1072
1079
1078
1079
1082
1086
1089
1092
1090
1086
1086
1083
1087
1090
1086
1079
1074
1067
1064
1061
1057
1050
1043
1039
1038
1034
1027
1016
1011
1007
1008
1010
1005
998
994
990
987
988
984
982
979
981
983
981
978
977
968
968
972
975
974
974
972
972
975
977
974
969
969
972
976
980
980
975
971
973
973
973
976
976
974
975
977
978
976
974
971
974
976
979
977
973
969
966
969
974
976
972
970
970
973
971
968
963
965
965
969
974
973
969
967
963
964
968
967
967
968
976
979
985
984
982
982
986
993
1001
1005
1006
1008
1008
1011
1008
1009
1009
1006
1007
1005
1003
993
979
969
963
964
966
963
961
957
953
956
956
951
950
947
948
948
949
949
946
942
937
941
949
949
950
948
946
949
952
952
950
955
961
975
1000
1025
1061
1102
1155
1201
1240
1253
1232
1170
1078
991
922
886
884
895
900
897
892
884
874
867
863
864
869
865
867
862
863
863
865
869
869
877
883
896
910
921
928
942
950
958
960
960
959
962
969
974
979
977
975
974
975
979
983
982
983
985
988
990
994
993
993
989
992
998
1002
1005
1006
1004
1007
1008
1015
1015
1017
1018
1019
1028
1033
1034
1032
1032
1037
1040
1047
1049
1049
1051
1053
1055
1057
1053
1050
1053
1054
1057
1054
1047
1043
1037
1028
1027
1023
1021
1017
1012
1007
1003
1001
995
986
981
977
979
981
974
972
962
963
961
962
960
959
956
956
960
962
959
954
953
955
957
963
962
960
959
960
960
962
960
955
955
960
963
966
964
962
956
957
958
961
963
960
961
957
961
961
960
955
952
956
957
962
961
959
955
955
953
957
957
955
953
953
957
958
958
952
948
948
952
954
956
954
952
955
957
958
957
958
960
965
970
979
982
980
979
982
986
993
998
1001
1003
1008
1012
1013
1011
1004
1000
999
998
996
989
978
969
967
965
968
965
960
958
957
961
963
961
956
951
951
955
954
954
950
951
952
954
958
956
954
953
954
960
963
966
963
967
969
979
996
1020
1052
1097
1151
1205
1249
1274
1264
1221
1141
1050
971
919
901
907
918
919
910
903
894
886
883
882
890
891
891
886
884
883
884
887
892
900
913
920
931
940
949
964
977
989
994
998
995
996
1000
1003
1009
1010
1011
1012
1015
1019
1023
1022
1019
1016
1018
1027
1032
1035
1034
1034
1034
1038
1040
1041
1042
1042
1048
1052
1059
1060
1057
1057
1060
1065
1072
1073
1075
1075
1077
1080
1083
1084
1084
1084
1089
1095
1098
1099
1096
1092
1090
1087
1086
1085
1080
1075
1071
1068
1063
1061
1052
1044
1040
1039
1036
1034
1028
1022
1021
1018
1017
1010
1004
1001
1004
1006
1005
1002
996
995
993
991
996
993
993
991
989
994
995
992
987
987
985
992
995
994
992
990
990
993
993
990
990
990
990
995
996
999
994
989
990
993
997
998
996
992
994
995
993
993
990
990
991
990
995
993
990
990
986
987
992
992
988
988
990
993
996
994
991
988
987
993
998
999
998
1000
1002
1009
1013
1015
1014
1017
1022
1029
1032
1035
1037
1036
1037
1039
1043
1043
1039
1037
1035
1036
1030
1022
1011
999
997
996
996
994
992
986
986
984
983
983
979
977
977
979
980
981
975
971
968
972
972
975
973
971
974
978
979
977
976
975
979
984
992
996
1003
1018
1036
1070
1111
1156
1198
1243
1280
1297
1280
1222
1138
1053
975
928
915
923
933
934
926
924
922
913
904
897
896
904
911
910
909
903
900
901
904
908
914
918
927
939
950
959
969
978
991
997
1005
1006
1003
1005
1009
1016
1020
1019
1019
1017
1020
1022
1025
1026
1025
1024
1029
1035
1037
1036
1035
1034
1033
1040
1044
1045
1043
1043
1044
1053
1057
1054
1054
1056
1059
1065
1071
1072
1071
1072
1074
1079
1085
1082
1084
1085
1089
1096
1100
1102
1097
1098
1101
1100
1103
1104
1101
1100
1098
1102
1098
1095
1088
1076
1072
1071
1070
1065
1059
1049
1048
1048
1044
1036
1028
1023
1020
1022
1020
1017
1010
1004
1004
999
1000
996
996
992
993
996
998
989
988
985
985
987
991
991
985
984
986
989
991
990
983
983
986
990
993
994
990
988
987
990
991
991
989
987
990
993
994
994
989
988
989
989
994
994
990
993
990
991
992
989
983
986
984
989
992
989
986
983
983
984
986
984
983
984
984
989
991
989
989
988
992
997
1003
1006
1010
1009
1015
1018
1020
1022
1021
1023
1028
1032
1041
1040
1038
1035
1034
1034
1036
1029
1023
1016
1011
1005
1000
993
989
983
980
981
982
980
977
976
974
976
976
974
969
966
966
967
970
971
970
968
968
971
972
971
966
967
968
974
977
981
980
981
984
995
1011
1031
1058
1093
1141
1192
1238
1273
1284
1263
1213
1137
1060
984
934
915
922
935
940
932
924
913
911
907
903
899
904
905
905
906
906
901
892
891
894
901
915
922
929
932
943
954
965
977
981
988
994
1000
1001
1002
1000
1000
999
1003
1009
1009
1009
1006
1011
1015
1016
1016
1014
1011
1012
1019
1023
1023
1022
1023
1024
1025
1029
1026
1023
1022
1030
1037
1042
1043
1039
1042
1044
1047
1051
1054
1054
1054
1057
1064
1068
1070
1067
1067
1071
1075
1080
1079
1078
1077
1081
1080
1083
1078
1075
1069
1067
1065
1062
1057
1051
1042
1041
1036
1033
1023
1018
1012
1010
1006
1007
1002
993
989
985
982
979
976
971
970
971
971
971
968
963
960
956
961
963
960
958
959
957
957
962
960
953
951
955
957
960
960
955
956
958
961
960
957
954
953
956
960
962
962
959
957
954
954
960
961
955
955
958
958
959
959
954
952
952
954
956
957
955
955
955
953
955
955
952
950
952
957
963
966
968
967
969
973
976
973
974
979
985
992
997
1000
999
998
997
997
1001
999
993
987
984
982
974
966
959
949
949
951
952
949
940
938
940
939
939
935
934
929
933
938
942
939
936
932
932
936
935
935
933
935
939
940
944
944
941
941
945
954
968
987
1013
1050
1097
1146
1193
1226
1235
1210
1149
1062
978
912
879
875
888
899
896
893
885
881
875
872
869
868
869
866
866
868
867
862
861
862
871
878
887
891
895
903
916
933
948
954
959
958
959
960
967
971
970
974
974
979
982
981
977
973
978
984
992
990
989
988
992
993
998
999
997
998
1003
1007
1011
1013
1012
1013
1015
1019
1024
1026
1029
1031
1036
1040
1042
1047
1044
1045
1048
1054
1060
1065
1062
1064
1067
1066
1069
1065
1060
1058
1060
1054
1058
1051
1041
1030
1027
1027
1023
1018
1012
1009
1004
1003
1001
991
984
980
979
979
980
976
972
968
965
964
966
963
959
957
960
966
967
963
960
957
959
961
963
964
962
957
962
964
967
965
961
959
962
964
969
969
964
965
966
967
969
968
967
967
969
974
977
975
972
968
969
972
972
972
970
970
972
972
974
972
969
968
968
972
978
977
977
978
979
981
990
990
988
988
995
1001
1008
1009
1011
1012
1016
1019
1024
1025
1023
1022
1021
1022
1020
1013
1005
996
990
987
987
985
979
975
974
973
971
968
965
965
964
967
968
967
964
961
961
962
964
964
962
962
964
967
969
969
965
968
965
970
979
983
986
991
1002
1023
1049
1081
1121
1168
1217
1258
1282
1275
1224
1143
1055
981
935
915
918
929
933
932
927
919
908
903
897
899
908
905
902
902
899
899
901
902
908
915
924
936
948
956
965
969
984
992
998
1000
1002
1005
1008
1012
1015
1016
1012
1011
1013
1019
1021
1022
1021
1023
1025
1028
1030
1030
1025
1027
1033
1039
1041
1042
1041
1041
1042
1046
1052
1050
1053
1055
1060
1066
1071
1071
1069
1068
1073
1078
1083
1088
1087
1088
1091
1096
1097
1098
1093
1094
1099
1100
1103
1097
1092
1086
1080
1078
1077
1072
1065
1058
1054
1050
1047
1043
1035
1029
1026
1027
1026
1022
1016
1011
1008
1008
1005
1004
998
996
995
999
1000
997
991
988
990
991
993
995
994
993
993
994
994
990
986
988
990
994
997
996
995
991
986
992
995
994
992
992
991
995
992
994
991
985
990
993
998
997
995
994
992
990
993
993
990
989
991
997
997
993
992
986
987
992
996
996
994
991
993
996
998
998
997
999
1008
1016
1023
1021
1022
1019
1021
1029
1035
1039
1043
1045
1047
1046
1047
1044
1039
1034
1033
1029
1030
1021
1008
1001
998
998
997
990
988
983
986
988
989
986
980
976
976
979
977
977
979
977
977
979
980
979
975
976
976
982
986
986
984
985
986
995
1008
1027
1053
1087
1136
1189
1239
1274
1292
1277
1223
1140
1049
973
929
920
929
942
942
934
923
915
911
908
912
914
912
907
906
905
907
908
915
922
932
940
943
950
960
974
986
1000
1007
1011
1009
1009
1009
1013
1014
1017
1017
1020
1020
1026
1030
1028
1026
1023
1028
1033
1037
1037
1035
1035
1038
1040
1046
1046
1045
1048
1053
1055
1060
1063
1056
1059
1061
1067
1071
1076
1077
1078
1081
1082
1090
1090
1087
1089
1093
1100
1103
1103
1100
1097
1096
1094
1091
1090
1081
1077
1073
1069
1066
1056
1047
1040
1041
1038
1036
1032
1024
1019
1012
1012
1010
1004
999
998
998
999
998
994
986
984
983
986
989
988
986
981
984
983
985
984
985
982
985
990
989
988
985
981
979
984
987
987
984
986
985
985
983
985
981
981
980
986
989
988
986
979
980
983
985
982
978
978
981
985
984
981
976
974
973
979
983
983
980
979
980
981
984
985
986
988
995
998
1002
1004
1002
1002
1005
1010
1018
1024
1022
1020
1020
1022
1021
1015
1013
1003
998
993
988
980
976
969
966
965
967
964
959
955
958
960
961
957
952
949
947
952
953
954
951
948
952
954
954
953
949
950
955
959
964
966
966
967
977
994
1022
1054
1095
1145
1200
1243
1262
1241
1175
1080
988
923
898
901
914
914
909
901
895
888
881
875
876
882
887
884
878
870
867
875
883
893
898
904
909
921
929
937
948
958
966
975
979
981
978
978
980
985
989
991
991
993
994
992
997
997
995
993
996
1004
1009
1008
1007
1007
1007
1013
1014
1013
1012
1016
1020
1025
1031
1031
1030
1029
1032
1037
1043
1046
1047
1049
1052
1059
1062
1060
1060
1061
1065
1070
1073
1070
1062
1063
1056
1055
1057
1052
1043
1036
1036
1032
1028
1022
1014
1004
1002
1002
1003
997
990
983
981
977
977
974
968
966
966
964
966
962
958
954
953
956
957
958
957
953
953
955
957
955
954
953
952
954
960
958
957
953
954
956
962
960
960
960
959
959
961
957
955
955
957
959
963
962
957
953
955
956
958
958
957
956
957
958
960
958
952
951
954
955
959
962
959
958
965
969
972
975
975
976
981
986
993
992
996
993
1001
1003
1007
1008
1010
1003
999
1001
997
993
983
973
967
968
968
965
962
957
954
954
958
953
949
948
949
953
950
946
944
941
943
945
950
948
946
949
949
951
953
950
952
952
957
965
975
983
997
1021
1060
1107
1157
1204
1241
1256
1240
1185
1103
1007
931
888
888
904
918
913
901
891
888
881
880
879
878
882
885
886
884
875
873
875
880
890
903
909
918
923
934
950
962
970
972
976
979
988
993
994
994
992
996
998
1001
1001
1001
1002
1005
1011
1017
1015
1010
1012
1013
1015
1022
1022
1025
1026
1028
1031
1034
1035
1034
1035
1038
1044
1048
1052
1050
1049
1052
1057
1062
1066
1069
1072
1074
1082
1084
1085
1082
1081
1086
1087
1091
1089
1084
1079
1076
1075
1071
1064
1060
1055
1047
1049
1045
1039
1032
1023
1021
1020
1018
1013
1009
1004
1001
999
998
991
989
987
987
990
990
988
985
982
982
982
988
985
984
986
986
986
987
985
982
982
984
990
991
992
990
989
985
991
994
993
993
992
992
995
997
993
991
990
991
995
998
997
995
991
989
994
995
997
995
992
994
999
1001
996
993
992
990
997
1003
1006
1003
1006
1010
1011
1019
1019
1022
1024
1030
1037
1042
1043
1043
1043
1042
1044
1049
1045
1043
1036
1031
1022
1016
1007
1003
996
997
997
997
994
991
986
985
984
989
988
983
981
981
984
987
983
979
978
979
982
988
991
987
987
986
988
994
998
1001
1011
1027
1055
1088
