961
957
955
952
956
961
959
958
956
956
956
959
958
956
955
954
955
960
953
951
953
952
952
953
953
953
951
953
956
959
958
957
956
963
969
973
974
977
978
984
989
993
992
992
995
997
1000
1000
1004
997
991
987
988
984
973
964
960
962
959
958
952
947
946
946
947
951
949
946
945
941
943
942
944
941
939
939
944
948
948
945
942
947
947
952
953
952
952
956
968
981
998
1024
1062
1115
1172
1226
1267
1279
1258
1188
1088
993
918
881
881
895
904
900
892
882
874
867
866
870
876
876
873
873
873
870
868
872
877
885
895
907
915
923
934
945
960
968
973
973
973
979
985
988
987
985
985
985
992
997
999
999
1000
999
1003
1006
1006
1003
1005
1012
1017
1024
1024
1024
1021
1021
1026
1037
1040
1041
1042
1047
1049
1052
1054
1055
1056
1062
1068
1072
1074
1074
1075
1076
1080
1086
1086
1085
1085
1085
1085
1083
1081
1072
1066
1059
1056
1056
1049
1039
1034
1029
1024
1020
1010
1006
999
998
996
997
991
981
978
977
978
978
976
974
972
970
971
970
968
966
964
967
974
975
973
965
966
968
973
978
977
975
975
974
977
976
975
974
973
972
976
982
980
981
974
974
978
978
978
977
977
978
982
983
980
975
973
973
979
981
979
978
976
975
978
979
978
976
976
979
981
981
983
978
977
980
986
996
998
999
1001
1003
1006
1007
1010
1010
1013
1021
1026
1032
1030
1029
1026
1026
1029
1025
1024
1011
1003
993
991
988
984
976
975
974
979
979
974
970
966
965
969
971
968
968
967
967
970
971
970
967
968
971
976
978
976
975
972
977
985
998
1019
1047
1085
1135
1193
1243
1283
1299
1269
1196
1105
1011
940
906
911
923
930
927
921
912
904
898
899
903
905
903
902
897
899
903
907
913
919
927
935
946
958
970
982
994
1002
1006
1006
1005
1007
1011
1017
1020
1023
1020
1017
1019
1019
1023
1023
1025
1022
1027
1032
1035
1034
1031
1034
1034
1038
1044
1043
1045
1049
1054
1055
1057
1060
1057
1063
1066
1071
1076
1077
1075
1071
1074
1082
1087
1089
1091
1088
1090
1094
1096
1095
1095
1091
1087
1089
1089
1084
1079
1069
1066
1063
1058
1049
1041
1035
1035
1030
1025
1020
1012
1005
1003
999
1003
998
993
988
982
984
984
978
975
974
976
979
981
976
970
966
965
969
975
975
975
975
972
976
974
974
972
970
970
972
975
977
973
966
969
969
972
970
971
970
972
972
977
972
968
963
965
967
971
969
964
961
962
962
959
961
957
959
960
962
965
963
960
958
959
966
974
975
978
979
982
988
992
990
993
993
1002
1011
1016
1012
1007
1004
1003
1001
1002
999
989
982
980
977
976
973
965
959
962
963
964
969
964
961
959
960
959
958
957
957
962
966
969
966
964
962
963
966
975
976
976
976
979
981
993
1006
1029
1063
1112
1168
1216
1253
1269
1251
1193
1107
1021
948
915
913
927
933
925
914
905
897
892
893
896
898
891
886
884
881
886
887
893
899
910
920
931
938
947
961
973
983
990
990
991
993
994
999
1003
1006
1008
1010
1014
1017
1019
1019
1018
1018
1021
1027
1031
1034
1034
1033
1035
1039
1043
1044
1045
1046
1055
1059
1066
1063
1063
1063
1071
1074
1081
1080
1081
1083
1087
1092
1095
1097
1098
1100
1102
1107
1108
1108
1101
1100
1096
1096
1094
1090
1086
1078
1071
1067
1064
1058
1049
1043
1035
1036
1032
1028
1022
1015
1012
1011
1009
1007
1006
1002
1000
1000
996
995
991
991
992
997
998
994
995
992
992
990
992
995
993
993
998
1000
1000
993
994
993
994
999
1003
1002
997
993
993
995
1001
1000
997
994
994
998
1001
999
995
992
990
993
997
996
994
993
995
997
996
995
994
992
995
996
1000
998
997
994
1002
1010
1016
1018
1017
1019
1022
1029
1033
1034
1035
1036
1036
1044
1048
1046
1038
1034
1027
1026
1023
1017
1008
1006
1002
998
997
994
988
984
986
985
989
987
983
978
977
974
976
978
978
975
975
979
980
979
976
973
976
981
985
987
987
988
995
1004
1022
1047
1081
1127
1181
1233
1276
1304
1289
1229
1135
1035
960
920
912
924
932
927
921
913
904
896
897
901
907
905
898
895
892
895
901
907
914
922
930
940
950
959
967
975
987
998
1005
1005
1006
1007
1008
1012
1014
1013
1014
1014
1016
1021
1024
1023
1024
1023
1024
1028
1033
1034
1034
1036
1041
1043
1046
1044
1043
1045
1051
1057
1059
1063
1063
1064
1066
1071
1077
1080
1078
1083
1088
1093
1095
1095
1095
1097
1098
1104
1108
1108
1104
1099
1096
1097
1096
1092
1085
1082
1080
1077
1074
1064
1052
1044
1039
1038
1039
1034
1024
1018
1015
1014
1012
1007
1001
998
996
996
1000
997
992
986
985
987
990
988
987
981
986
987
988
986
982
980
983
986
989
990
986
983
983
985
990
990
987
985
988
993
995
991
990
987
987
990
992
994
991
991
992
992
991
991
989
987
986
991
990
992
991
990
989
988
992
991
990
988
991
994
997
996
992
988
988
990
996
997
994
994
994
1000
1005
1011
1012
1013
1014
1021
1027
1024
1024
1026
1030
1039
1045
1047
1045
1040
1044
1044
1043
1040
1033
1025
1020
1015
1011
1005
1000
995
995
995
996
988
984
983
983
983
982
985
982
979
978
978
978
977
974
973
978
983
985
984
979
977
977
982
985
988
990
993
1004
1022
1043
1075
1114
1156
1208
1254
1288
1293
1257
1184
1089
1005
945
920
922
934
937
936
929
923
911
903
900
902
909
911
909
903
903
904
903
902
904
911
918
926
936
945
953
961
971
981
992
998
997
1001
1004
1008
1011
1011
1010
1007
1008
1011
1015
1015
1017
1016
1017
1020
1020
1019
1021
1016
1021
1028
1030
1033
1031
1030
1030
1033
1040
1040
1042
1043
1046
1050
1057
1060
1059
1058
1062
1068
1075
1076
1077
1079
1082
1086
1088
1088
1088
1089
1094
1097
1101
1100
1094
1091
1087
1090
1087
1086
1077
1070
1064
1063
1065
1060
1050
1044
1040
1039
1038
1035
1029
1024
1021
1015
1018
1013
1006
1002
1000
1001
1005
1001
998
993
990
991
989
986
986
982
985
989
990
989
983
981
983
984
984
983
981
980
982
986
989
985
982
976
978
983
984
984
983
981
985
989
986
985
980
975
976
984
986
984
980
977
976
976
980
977
975
976
979
980
984
982
977
975
975
977
981
979
979
981
979
981
983
981
975
974
974
979
981
981
979
978
977
978
981
980
980
980
988
993
998
997
997
998
997
1002
1005
1006
1008
1013
1023
1024
1026
1022
1017
1015
1013
1014
1014
1008
999
990
986
983
980
972
967
963
959
962
959
959
955
952
951
951
950
948
947
943
947
947
949
946
944
941
941
943
945
944
946
949
955
958
956
960
958
968
983
1010
1039
1072
1116
1167
1215
1252
1265
1238
1175
1084
1004
943
910
904
911
915
911
907
899
893
887
880
876
878
884
883
879
873
869
870
873
876
880
886
895
904
910
917
923
934
949
963
972
975
976
973
971
975
979
981
981
982
983
988
990
991
988
988
990
993
995
996
996
995
1001
1006
1008
1006
1006
1005
1006
1012
1019
1023
1022
1020
1023
1027
1031
1031
1034
1034
1041
1046
1049
1050
1047
1047
1053
1054
1063
1065
1063
1067
1071
1074
1077
1075
1071
1068
1066
1068
1068
1064
1058
1053
1048
1047
1045
1039
1029
1022
1020
1019
1020
1015
1008
1004
996
993
992
985
981
979
979
980
978
975
971
965
967
967
968
970
965
965
967
965
966
964
963
960
963
965
971
969
963
962
964
966
965
963
962
961
962
970
973
968
967
963
962
965
972
970
972
968
972
973
971
970
967
966
966
968
970
971
970
967
968
971
974
972
971
972
971
977
979
976
973
966
971
972
975
980
985
987
992
997
998
998
996
996
1000
1008
1015
1017
1020
1018
1019
1018
1016
1013
1007
1000
1001
1002
999
990
980
972
966
966
968
964
962
960
959
961
959
959
955
949
952
954
957
956
953
950
953
956
952
953
950
950
952
955
958
962
961
960
962
966
970
970
973
987
1011
1045
1090
1140
1188
1231
1266
1278
1254
1187
1099
1012
941
907
908
915
917
911
902
903
900
896
885
882
880
885
888
884
879
875
873
874
877
884
887
892
899
908
916
924
934
945
961
974
984
985
981
986
986
991
992
994
994
992
994
1001
1003
1008
1005
1005
1008
1010
1015
1017
1017
1016
1017
1023
1026
1025
1025
1028
1030
1034
1038
1044
1042
1043
1042
1045
1052
1055
1055
1057
1061
1065
1071
1071
1071
1071
1074
1076
1082
1083
1083
1081
1084
1086
1091
1088
1085
1082
1082
1080
1081
1078
1070
1066
1059
1057
1054
1046
1037
1033
1034
1032
1031
1027
1018
1014
1011
1009
1010
1008
1006
1001
1000
1001
1001
994
991
990
990
993
996
996
995
990
991
995
996
994
993
992
993
998
999
998
995
990
991
995
999
996
997
995
998
997
1001
996
993
996
996
998
1002
1000
999
994
993
996
997
994
995
989
991
997
1000
998
994
988
991
992
997
996
995
994
996
996
999
999
998
1001
1004
1013
1018
1021
1013
1016
1017
1021
1027
1031
1034
1036
1042
1045
1045
1045
1038
1034
1031
1030
1032
1026
1015
1006
999
998
998
994
990
988
986
988
991
989
984
979
977
981
983
980
978
978
979
980
983
978
977
976
980
985
991
992
993
987
991
1001
1013
1030
1055
1091
1144
1200
1249
1295
1310
1285
1214
1122
1034
964
931
931
942
948
945
936
928
920
915
913
916
916
915
910
911
909
908
905
907
915
924
933
942
947
950
962
975
990
1004
1007
1007
1005
1006
1009
1014
1013
1013
1015
1017
1022
1027
1026
1023
1022
1023
1026
1032
1032
1031
1031
1035
1042
1042
1041
1040
1038
1044
1049
1054
1055
1055
1058
1062
1065
1072
1072
1073
1076
1078
1082
1090
1089
1087
1089
1093
1098
1103
1104
1103
1104
1103
1107
1109
1106
1102
1098
1098
1095
1096
1092
1088
1080
1074
1068
1069
1064
1055
1049
1049
1049
1047
1040
1031
1023
1023
1020
1020
1018
1012
1009
1007
1009
1006
1003
998
996
995
998
998
999
992
992
992
995
993
988
988
987
989
996
998
997
994
988
990
991
992
993
989
989
992
994
998
993
992
987
988
990
995
994
992
986
986
992
991
990
986
986
986
990
991
989
986
984
983
985
985
988
985
986
989
991
993
991
986
988
996
1004
1011
1012
1012
1009
1011
1017
1022
1024
1026
1028
1035
1040
1039
1037
1029
1024
1025
1024
1018
1011
1002
995
990
989
987
983
978
977
976
980
980
978
972
966
966
968
972
972
972
966
967
965
968
967
964
963
969
973
976
976
972
972
979
991
1007
1032
1065
1110
1164
1217
1262
1287
1278
1230
1141
1050
972
927
912
920
930
932
926
916
904
900
898
893
898
900
894
891
888
888
886
891
898
903
910
917
923
929
941
951
964
976
986
985
983
980
981
989
992
994
991
994
996
1000
1002
1001
999
1000
1002
1005
1010
1011
1012
1009
1013
1012
1019
1018
1017
1018
1022
1029
1029
1034
1033
1031
1034
1040
1041
1047
1047
1048
1053
1056
1058
1057
1058
1059
1065
1071
1076
1074
1072
1072
1073
1074
1070
1068
1065
1063
1059
1056
1052
1047
1036
1027
1023
1021
1018
1015
1007
1001
996
994
991
988
979
972
974
973
974
969
967
959
958
962
962
960
959
957
957
957
959
955
953
951
949
958
958
959
958
952
954
956
956
954
956
955
955
958
959
959
955
953
956
960
961
959
961
959
960
962
960
958
955
953
957
961
962
965
961
958
957
959
962
963
963
962
966
972
979
980
977
974
980
984
993
995
1000
1002
1006
1008
1006
1004
1002
999
997
997
996
990
981
970
961
959
957
952
949
946
948
948
947
942
938
936
931
937
941
941
939
934
932
935
935
933
933
931
935
937
942
942
939
936
938
942
947
955
965
984
1014
1059
1109
1159
1199
1226
1229
1197
1124
1030
944
887
871
883
900
898
889
880
876
872
870
863
861
862
864
867
866
861
856
855
860
868
879
885
895
904
914
930
950
954
958
957
958
963
970
972
974
975
975
975
981
977
977
976
980
987
990
990
991
989
990
993
997
999
1001
1000
1003
1010
1014
1014
1014
1016
1019
1027
1034
1034
1036
1032
1037
1039
1047
1051
1050
1053
1060
1064
1068
1066
1061
1059
1061
1067
1067
1062
1059
1051
1047
1041
1038
1031
1022
1018
1013
1012
1010
998
992
987
982
981
982
979
973
968
965
967
967
964
961
959
960
962
963
960
958
956
956
957
966
963
961
961
961
962
963
960
961
959
963
968
970
967
963
959
958
964
966
966
965
963
966
964
966
966
962
961
961
964
970
970
968
966
966
967
970
973
975
977
983
988
994
990
988
987
994
1001
1009
1016
1017
1020
1019
1020
1022
1019
1015
1015
1013
1013
1011
1004
989
981
980
980
982
980
977
972
970
972
971
970
967
967
968
968
970
969
964
959
961
966
969
969
971
970
972
975
977
981
979
982
991
1010
1034
1061
1100
1146
1196
1249
1288
1291
1251
1168
1069
985
936
921
926
933
936
935
932
926
915
906
905
911
917
916
914
908
908
909
920
925
931
937
947
959
975
986
999
1003
1009
1016
1019
1019
1017
1019
1021
1025
1033
1030
1025
1025
1026
1029
1032
1033
1034
1031
1032
1036
1039
1036
1034
1034
1040
1045
1048
1047
1050
1049
1051
1057
1061
1064
1065
1067
1072
1078
1082
1081
1080
1081
1086
1094
1100
1101
1099
1100
1102
1106
1107
1103
1101
1096
1093
1095
1093
1086
1079
1073
1066
1064
1059
1052
1047
1042
1040
1037
1033
1026
1021
1013
1011
1011
1014
1010
1005
1001
996
993
993
992
990
988
988
991
991
990
986
979
979
982
984
987
982
982
983
983
984
981
980
979
982
985
987
988
983
984
986
987
992
989
988
987
986
994
994
992
986
986
987
992
999
998
995
992
992
989
996
997
997
994
1000
1010
1014
1013
1013
1016
1020
1026
1034
1038
1041
1042
1043
1045
1048
1048
1044
1042
1038
1035
1034
1023
1010
1001
997
996
995
992
986
982
981
981
981
979
977
977
981
980
985
981
978
973
974
973
980
981
979
979
979
982
982
987
986
990
998
1012
1038
1067
1101
1146
1197
1247
1284
1298
1274
1209
1119
1028
959
922
919
933
942
941
936
928
916
906
904
907
914
917
911
908
909
913
916
923
927
931
936
948
960
973
984
993
1001
1006
1009
1011
1009
1009
1012
1018
1022
1019
1014
1013
1016
1016
1023
1025
1026
1023
1025
1029
1029
1027
1028
1025
1033
1039
1042
1044
1042
1039
1041
1046
1054
1054
1055
1055
1061
1065
1066
1069
1069
1070
1073
1080
1086
1086
1085
1088
1088
1090
1095
1091
1089
1088
1085
1085
1088
1080
1070
1061
1059
1058
1058
1051
1045
1037
1033
1033
1026
1024
1015
1010
1008
1008
1008
1006
997
992
989
989
986
985
982
980
980
981
980
979
975
971
972
976
980
978
978
973
973
976
977
974
974
971
973
975
979
976
973
970
969
974
977
978
977
977
975
977
979
975
974
970
972
973
976
978
975
972
968
972
973
970
969
970
970
973
973
974
972
967
964
969
975
975
977
978
979
985
991
989
987
992
996
1004
1010
1011
1014
1014
1017
1018
1020
1021
1016
1017
1015
1012
1008
999
989
978
974
976
975
974
970
966
965
962
960
953
956
955
955
957
961
956
952
950
949
946
952
952
949
950
951
954
957
953
950
952
953
964
972
983
999
1023
1060
1115
1167
1217
1254
1269
1247
1186
1101
1011
934
890
886
901
914
909
900
891
884
879
875
871
870
874
877
877
879
877
869
871
875
884
894
899
907
915
927
942
958
964
964
964
968
974
978
981
983
982
979
983
986
986
987
988
992
995
1000
1000
1000
997
996
1001
1005
1006
1007
1009
1013
1016
1020
1018
1016
1016
1021
1024
1027
1033
1033
1032
1035
1038
1043
1046
1043
1048
1051
1053
1059
1058
1054
1052
1055
1057
1063
1057
1051
1051
1045
1043
1038
1029
1023
1021
1017
1016
1014
1007
1001
993
988
988
987
982
977
973
969
970
972
969
962
960
958
960
963
958
954
950
950
952
952
954
952
951
951
954
956
953
951
946
944
947
949
948
950
949
946
950
950
945
940
940
946
949
953
950
945
941
941
943
946
944
942
940
940
946
948
946
938
936
938
942
944
943
942
939
940
942
940
942
940
941
947
953
962
962
961
959
964
966
970
974
977
980
990
994
999
995
992
989
988
989
989
984
977
968
958
953
952
946
941
940
938
942
944
938
935
928
929
931
933
933
930
927
927
930
931
928
927
925
929
933
937
936
932
933
934
939
942
943
950
962
987
1023
1065
1114
1160
1205
1239
1246
1214
1138
1041
957
897
874
880
893
896
887
881
878
877
871
862
857
861
866
867
865
860
857
859
865
871
873
878
883
890
903
915
927
935
946
955
961
962
963
962
962
966
971
976
978
977
974
977
980
983
982
984
982
987
993
996
997
993
991
993
998
1003
1006
1008
1010
1012
1018
1021
1022
1015
1017
1023
1031
1037
1040
1041
1041
1043
1046
1050
1054
1053
1055
1059
1066
1067
1068
1065
1061
1060
1063
1063
1058
1056
1051
1050
1049
1043
1037
1027
1022
1020
1016
1013
1011
1003
998
996
992
990
983
977
971
972
973
973
971
965
959
958
957
956
953
952
952
954
953
957
955
953
948
949
950
953
955
953
954
954
955
957
955
954
951
955
958
961
959
960
954
958
960
962
963
961
961
962
963
968
967
962
959
961
961
966
967
965
964
966
967
966
964
959
959
962
966
969
970
964
966
964
969
971
972
977
980
984
985
990
988
990
988
996
1003
1015
1015
1013
1015
1011
1012
1012
1010
1006
1000
996
993
985
980
969
963
964
967
967
965
961
959
959
959
959
955
951
947
948
952
951
952
953
950
948
951
953
952
952
951
954
958
961
964
963
965
972
986
1009
1037
1075
1119
1170
1221
1262
1281
1276
1229
1154
1066
983
923
902
906
918
921
918
910
901
892
891
892
896
895
896
891
888
893
892
892
896
905
914
920
928
938
946
954
968
979
991
992
993
990
997
996
1003
1004
1004
1005
1007
1012
1017
1016
1013
1009
1011
1014
1022
1022
1023
1022
1022
1029
1031
1031
1029
1031
1033
1039
1046
1044
1045
1043
1045
1048
1056
1058
1057
1061
1063
1068
1075
1075
1074
1073
1074
1076
1085
1086
1086
1085
1086
1089
1090
1088
1083
1079
1077
1077
1073
1070
1065
1055
1048
1046
1045
