759
757
753
752
753
755
755
752
748
745
740
739
737
743
744
746
748
747
748
749
748
749
752
753
755
759
761
765
772
777
783
789
794
797
800
804
807
815
828
840
849
862
869
876
884
891
900
907
912
920
930
938
947
954
961
965
968
971
972
971
973
976
978
982
984
983
982
977
974
969
968
968
965
962
958
953
950
950
945
940
932
923
917
910
905
904
901
901
898
895
892
890
889
889
889
890
890
890
889
889
890
895
902
908
913
918
925
930
937
943
951
956
961
964
963
962
960
957
948
939
927
912
900
893
890
887
888
887
888
886
882
882
881
883
887
888
887
890
889
888
885
887
885
885
885
884
886
885
888
885
884
886
898
921
960
1012
1079
1163
1246
1322
1371
1380
1344
1273
1179
1081
986
906
844
798
768
749
747
756
774
797
814
830
833
833
829
824
821
818
815
817
821
820
820
821
817
817
816
811
812
813
813
815
819
819
817
812
816
816
818
821
824
828
829
833
837
842
845
850
851
853
858
862
866
873
882
892
898
904
908
913
916
922
932
940
953
960
968
976
981
988
994
999
1005
1009
1013
1019
1024
1030
1036
1042
1046
1046
1043
1042
1038
1038
1042
1042
1041
1039
1035
1029
1023
1019
1014
1012
1004
997
988
982
977
971
968
965
963
958
952
944
936
930
925
925
925
923
917
912
904
899
895
893
892
890
891
891
888
886
887
890
892
893
892
891
891
887
889
894
902
911
920
924
929
936
938
941
944
947
950
950
949
945
941
932
923
911
900
890
881
876
873
873
870
874
876
878
878
879
878
876
874
874
874
874
876
874
876
876
876
875
874
871
869
862
851
845
842
845
859
892
947
1019
1099
1182
1264
1341
1404
1447
1463
1449
1410
1355
1289
1220
1155
1092
1031
965
900
848
815
806
809
817
825
826
821
811
800
792
784
786
787
789
792
789
786
784
776
774
770
769
766
764
767
765
763
763
765
764
763
761
761
757
758
761
763
765
766
766
766
765
767
769
774
776
779
782
785
786
789
796
800
806
812
817
818
822
829
834
844
854
864
870
874
881
887
892
898
906
913
923
927
934
938
945
949
952
952
953
952
951
948
951
951
953
955
955
954
946
943
941
938
935
930
928
923
919
916
913
911
907
903
897
891
884
878
875
874
871
872
872
867
865
862
856
857
856
855
854
852
854
856
861
866
874
880
884
889
892
894
901
906
911
915
913
912
910
905
901
891
881
871
859
849
845
844
844
847
850
848
846
843
841
839
839
842
844
844
844
842
842
843
843
843
842
840
840
836
832
833
841
857
883
923
977
1043
1125
1211
1294
1347
1361
1325
1252
1156
1051
954
874
810
763
726
709
706
719
739
765
785
799
801
797
789
783
780
778
779
777
777
777
779
777
774
775
771
772
765
762
765
763
764
767
769
768
769
768
768
767
770
773
777
782
784
786
787
794
798
803
806
812
816
820
825
835
845
853
862
869
876
880
887
894
903
908
917
926
932
939
952
957
967
974
980
985
987
991
996
1002
1006
1007
1009
1006
1003
1000
997
994
993
989
985
978
977
972
970
967
963
956
949
943
936
932
928
925
923
919
912
907
899
896
888
885
882
879
875
873
873
873
874
873
873
870
866
863
861
862
867
874
882
891
896
900
904
905
907
908
913
916
917
918
918
914
913
907
899
891
878
868
860
853
847
846
848
846
847
845
843
840
839
838
839
841
841
843
842
842
843
846
848
848
846
844
838
830
830
830
836
850
880
926
985
1055
1134
1209
1282
1350
1407
1444
1456
1443
1400
1347
1284
1218
1149
1080
1007
938
878
833
808
803
805
813
815
813
806
796
792
786
784
786
785
785
783
777
776
773
771
771
766
765
762
762
761
764
763
763
760
756
753
753
752
755
759
764
765
765
766
765
766
767
770
773
773
775
778
779
784
794
799
807
815
819
826
831
840
847
852
857
866
873
881
890
897
905
911
917
920
925
932
937
943
951
954
958
955
956
954
955
953
954
952
951
950
950
951
947
944
942
937
932
923
915
915
911
910
909
906
899
892
884
876
870
863
860
860
859
860
858
858
856
854
851
850
849
849
848
850
851
850
856
859
865
868
872
879
886
891
895
900
903
908
911
915
919
916
912
903
894
882
872
864
858
852
847
846
843
844
839
840
842
844
844
845
843
842
844
846
845
849
848
847
847
844
847
846
848
848
846
844
844
847
861
888
929
983
1048
1123
1201
1271
1325
1339
1310
1252
1168
1074
983
898
835
784
749
726
717
719
727
740
755
770
781
787
788
788
783
779
777
775
777
778
779
775
774
771
770
770
772
774
778
778
778
776
771
767
765
767
767
773
775
778
781
784
785
789
790
793
795
797
799
801
807
811
815
824
826
835
837
846
848
856
861
868
875
879
889
894
904
911
918
923
929
933
935
941
946
954
960
967
969
972
970
973
975
977
976
977
976
974
974
970
967
963
960
954
949
941
935
932
925
925
924
918
915
910
902
896
889
885
882
880
876
875
869
864
862
856
853
850
849
845
845
844
844
846
846
849
849
849
848
845
843
844
846
850
855
862
869
874
879
884
888
890
892
894
896
895
894
889
888
883
878
872
862
852
844
834
827
827
827
828
832
831
830
827
826
825
825
823
824
820
821
819
816
815
814
817
821
835
852
874
900
936
970
1017
1066
1124
1180
1237
1289
1333
1369
1388
1395
1388
1362
1323
1266
1200
1127
1052
979
917
860
821
797
787
784
783
781
776
770
762
753
745
742
735
734
732
731
729
728
727
725
720
716
712
706
707
706
706
706
706
706
705
704
703
702
699
698
699
698
697
697
699
700
703
706
708
709
708
712
714
717
722
729
734
740
746
751
757
763
768
775
780
784
791
799
807
815
824
831
839
844
848
853
858
863
867
874
878
879
885
887
888
890
891
890
889
887
884
886
884
886
889
886
882
880
876
871
867
864
863
860
858
855
851
851
845
842
838
836
833
831
829
830
829
831
833
831
831
830
831
830
831
834
837
841
843
850
852
853
860
859
861
862
864
863
865
863
864
861
858
854
849
842
835
830
823
820
819
821
821
821
824
822
822
818
817
818
817
816
816
819
819
823
825
827
829
827
828
828
833
839
843
852
862
878
898
923
951
982
1017
1055
1086
1112
1129
1132
1118
1094
1059
1017
973
929
893
861
833
812
798
791
788
788
788
790
791
789
787
785
783
780
780
778
777
779
780
779
774
775
773
769
767
764
767
768
767
769
772
771
770
769
770
769
770
770
773
775
779
780
783
788
791
792
794
794
798
802
806
811
816
824
827
835
837
840
847
852
858
862
870
878
884
893
899
907
911
916
921
924
930
934
938
945
949
953
956
960
962
963
962
961
960
961
963
963
962
961
961
959
955
954
949
946
943
938
935
933
930
926
928
923
921
915
911
906
903
899
895
892
890
888
886
885
881
878
876
873
871
869
867
869
866
867
867
867
868
867
866
865
867
868
871
873
875
881
885
889
890
888
890
889
889
887
887
888
887
887
884
879
875
871
865
861
857
854
853
853
853
855
854
855
859
857
858
859
860
861
864
869
872
880
890
900
918
935
950
968
990
1013
1039
1064
1093
1121
1150
1177
1198
1219
1237
1246
1251
1245
1230
1211
1182
1149
1110
1070
1028
991
954
921
892
872
855
841
831
822
817
812
803
797
790
784
778
773
770
767
765
764
761
760
756
753
749
746
742
742
739
737
738
737
738
736
737
735
736
734
733
734
736
736
739
742
743
745
747
747
748
747
750
754
754
764
769
774
781
788
792
796
801
806
811
814
821
829
836
841
847
852
859
862
867
869
874
876
882
886
890
892
897
900
900
904
901
902
901
902
901
902
901
900
900
900
898
893
892
888
886
883
881
880
878
876
872
869
869
865
861
858
856
852
852
853
852
852
853
853
853
850
850
849
846
848
850
851
852
856
857
860
866
868
868
870
873
874
878
883
888
890
891
892
893
891
888
887
880
876
872
869
864
863
861
858
856
855
853
853
848
849
846
851
852
852
854
856
856
855
856
857
855
857
860
864
865
869
873
876
880
888
895
905
924
948
979
1016
1053
1093
1132
1163
1181
1181
1168
1137
1094
1046
996
948
908
871
841
817
803
794
795
798
798
803
809
810
810
810
810
809
808
806
803
799
797
796
797
798
799
798
801
801
801
800
799
799
796
796
798
796
799
800
803
805
809
809
807
810
809
810
816
820
825
830
834
835
840
843
845
848
852
855
862
867
873
880
883
890
894
902
909
913
915
916
923
929
936
944
952
956
963
965
968
970
972
973
980
984
989
994
994
995
994
993
991
985
982
978
973
971
967
965
961
960
954
949
941
936
932
926
924
920
919
916
910
908
901
897
892
887
883
880
876
875
872
871
875
877
873
872
873
871
870
868
869
871
870
875
875
881
883
886
889
893
896
900
905
909
913
917
919
923
922
918
914
911
906
900
894
888
883
879
878
873
872
869
866
866
865
863
864
858
858
856
856
856
854
854
859
869
879
899
923
953
984
1019
1058
1098
1140
1182
1222
1260
1300
1337
1370
1405
1434
1458
1468
1467
1456
1426
1384
1328
1267
1194
1125
1056
991
936
888
855
831
817
809
803
798
790
784
778
773
768
766
763
760
755
750
743
742
738
735
733
733
730
728
725
722
719
716
713
709
706
705
704
706
706
709
706
706
706
704
702
701
703
705
709
713
714
720
725
730
734
738
742
746
750
757
760
769
776
783
792
798
804
807
815
819
825
835
842
850
859
869
874
879
885
887
891
892
894
896
896
898
904
906
908
908
905
901
900
897
895
895
894
893
888
887
885
883
880
877
874
870
866
861
859
858
856
856
857
856
854
849
848
849
849
851
850
851
853
855
857
858
862
867
869
873
880
883
885
892
898
902
904
906
904
901
898
891
885
878
873
866
861
856
853
853
850
849
847
846
844
846
847
848
850
852
854
854
852
851
851
853
853
856
859
858
860
866
867
874
883
897
920
954
995
1047
1104
1168
1226
1272
1295
1295
1270
1224
1165
1097
1032
967
912
870
835
811
799
798
803
809
816
820
818
818
815
813
813
810
813
812
809
807
806
803
798
798
799
800
798
799
797
797
797
795
795
794
791
792
793
794
794
799
800
803
804
804
804
803
805
811
814
823
827
831
835
843
847
851
857
861
868
874
881
886
892
900
908
917
925
932
938
943
946
953
958
970
977
985
991
997
1000
1005
1007
1010
1012
1014
1020
1022
1024
1025
1025
1024
1021
1016
1012
1008
1005
1001
999
997
993
992
988
984
978
975
970
963
960
955
954
951
949
945
941
936
934
930
922
920
916
912
911
913
915
914
914
913
913
910
908
906
908
909
915
919
926
932
938
941
945
945
947
948
947
948
948
948
946
945
940
934
926
913
907
902
897
894
895
895
895
897
896
899
898
897
895
896
893
894
894
896
899
901
900
903
903
904
902
901
904
906
916
931
953
985
1026
1078
1135
1194
1251
1295
1323
1325
1302
1264
1217
1163
1107
1057
1011
968
933
910
890
880
875
871
869
865
860
857
852
846
838
837
833
831
832
831
831
832
830
829
827
825
821
819
820
818
821
821
822
821
823
824
824
823
822
824
825
825
828
829
833
835
839
840
845
844
848
848
850
852
856
861
867
875
882
886
892
895
899
904
908
916
921
930
934
941
945
949
953
956
961
965
968
972
975
979
980
984
985
985
986
985
982
983
978
977
975
974
975
973
972
971
969
966
962
959
954
946
945
942
939
936
934
932
928
925
919
913
909
907
908
908
910
911
910
910
909
905
908
907
905
903
903
908
911
918
922
924
926
930
930
932
938
938
946
948
951
952
953
952
949
944
938
931
924
918
914
911
908
907
908
910
906
907
905
903
902
903
903
905
907
910
909
910
910
909
910
912
912
912
913
918
924
932
942
956
974
996
1024
1062
1100
1142
1183
1218
1240
1244
1229
1196
1151
1100
1046
995
948
907
876
855
843
838
841
845
851
851
854
853
852
849
847
845
843
842
843
840
840
838
837
834
834
830
830
831
832
836
836
838
837
836
834
835
836
837
841
843
844
849
848
852
854
855
858
858
859
865
870
874
878
884
890
894
896
899
904
911
916
921
927
932
936
942
944
950
956
962
964
971
973
979
985
988
994
998
1004
1007
1008
1009
1007
1007
1007
1006
1009
1009
1006
1007
1005
1002
1000
994
991
987
982
978
975
970
967
966
963
960
957
950
946
943
939
935
934
932
931
929
929
927
926
926
925
924
923
921
922
920
922
925
929
931
932
935
939
942
944
948
952
956
960
962
963
965
962
963
960
955
949
943
938
931
925
923
918
917
912
907
907
906
905
903
905
905
907
908
908
909
909
909
909
910
910
910
911
912
915
918
921
928
930
937
949
968
994
1025
1063
1110
1164
1214
1258
1287
1295
1279
1250
1206
1156
1103
1052
1007
966
932
903
882
869
863
864
869
871
872
873
871
869
865
866
865
862
860
855
853
855
852
850
851
848
850
848
848
850
847
847
846
847
842
843
843
847
850
852
854
854
855
854
857
857
860
862
867
872
877
881
885
888
889
895
896
899
900
905
913
918
924
930
938
941
946
952
955
960
968
975
982
988
995
1000
1005
1009
1012
1018
1020
1022
1024
1027
1029
1031
1032
1037
1037
1036
1034
1035
1032
1028
1029
1028
1027
1027
1027
1026
1026
1021
1014
1011
1005
1002
1000
997
994
992
987
985
984
980
977
970
967
964
961
959
958
956
957
958
954
953
949
949
948
948
949
951
952
957
961
964
971
974
980
982
982
982
980
983
989
988
990
992
991
984
981
975
967
959
952
947
946
941
940
939
938
935
935
935
934
934
932
933
935
936
939
941
940
943
939
939
939
939
936
941
945
944
949
951
957
966
983
1006
1038
1076
1121
1173
1226
1276
1318
1339
1334
1309
1264
1203
1136
1070
1009
961
917
890
875
869
875
884
891
900
903
903
896
895
890
887
883
885
883
882
882
883
880
878
875
872
873
874
874
872
873
873
871
870
869
868
867
871
873
875
876
877
877
875
879
879
881
882
885
890
891
895
905
911
916
922
925
927
931
934
939
945
954
961
969
977
982
989
995
1005
1010
1019
1023
1032
1039
1046
1051
1057
1059
1062
1062
1066
1066
1070
1071
1073
1078
1079
1080
1081
1083
1079
1077
1073
1067
1065
1057
1054
1052
1052
1050
1046
1044
1041
1039
1034
1030
1025
1020
1017
1014
1011
1010
1005
1003
1000
995
992
989
986
982
979
977
976
978
975
974
971
968
967
966
967
969
976
979
983
989
993
997
998
1003
1007
1007
1009
1009
1007
1007
1004
1001
996
992
986
980
972
966
959
959
958
960
959
961
961
960
958
958
957
959
958
960
959
958
961
966
966
970
969
967
964
961
966
971
983
1002
1029
1064
1108
1160
1214
1267
1313
1348
1367
1365
1349
1316
1274
1230
1183
1143
1099
1059
1019
986
962
943
937
934
930
930
926
920
913
907
902
896
893
894
893
891
890
891
890
890
888
886
882
881
877
875
875
876
876
880
882
882
881
881
881
882
882
882
883
886
888
892
896
899
902
902
904
905
907
911
916
920
925
929
936
942
946
952
956
961
966
971
977
982
990
993
1000
1011
1015
1020
1021
1022
1027
1029
1033
1037
1040
1043
1048
1047
1048
1046
1046
1045
1045
1043
1043
1044
1043
1039
1037
1034
1033
1027
1022
1018
1013
1011
1008
1008
1007
1004
1002
999
996
990
987
982
979
972
973
972
969
969
970
970
970
968
966
966
961
964
967
971
971
973
972
976
979
982
984
988
992
992
998
1001
1003
1008
1014
1018
1020
1019
1018
1016
1013
1006
1003
998
994
992
985
980
976
973
971
971
969
969
968
970
971
971
973
977
976
975
977
974
974
974
976
979
982
986
987
988
989
991
994
1005
1022
1048
1080
1120
1164
1211
1260
1304
1335
1349
1337
1306
1256
1194
1133
1074
1024
976
942
915
900
897
897
903
911
916
922
924
926
922
920
919
918
917
916
914
913
909
906
906
905
906
910
911
912
910
908
908
905
905
906
907
910
910
913
915
916
917
916
919
919
920
922
925
930
935
939
946
947
950
955
956
961
966
972
977
986
989
993
1000
1005
1010
1012
1018
1021
1028
1033
1041
1049
1051
1058
1064
1067
1071
1076
1077
1077
1080
1079
1079
1079
1084
1082
1080
1080
1076
1072
1067
1064
1061
1061
1057
1056
1051
1048
1043
1036
1033
1028
1022
1016
1009
1004
1004
999
995
999
997
995
991
990
988
984
983
983
987
989
989
991
994
995
998
1002
1007
1007
1011
1016
1021
1024
1028
1033
1033
1033
1032
1030
1025
1021
1018
1012
1008
999
993
988
984
981
980
977
978
974
974
975
974
973
972
977
978
979
980
977
979
977
976
977
978
979
982
989
1002
1022
1049
1086
1129
1180
1237
1293
1351
1401
1443
1470
1478
1470
1449
1412
1362
1303
1241
1176
1111
1053
1009
976
960
951
948
944
938
931
922
919
914
910
909
908
905
901
898
894
892
889
886
884
879
879
876
875
876
876
879
876
875
873
871
871
872
874
874
877
879
879
879
879
881
882
885
887
891
893
899
906
911
916
920
923
931
938
942
948
956
965
970
979
986
996
1002
1007
1011
1015
1018
1021
1028
1034
1039
1046
1049
1050
1050
1049
