990
986
978
975
967
960
952
946
943
941
937
939
934
930
923
919
914
909
911
913
915
916
916
912
912
910
913
910
913
913
914
908
911
908
912
918
924
928
932
934
938
939
941
941
947
955
961
966
966
965
964
963
958
951
942
929
919
907
899
894
893
892
891
888
887
883
881
879
879
879
881
882
885
882
877
877
877
876
876
878
880
878
877
873
867
863
859
856
856
869
896
940
1001
1076
1163
1254
1340
1402
1428
1411
1359
1287
1201
1113
1030
967
909
859
810
769
741
736
749
771
793
810
819
822
814
809
804
802
800
797
796
792
790
789
790
794
793
794
792
791
786
781
779
776
776
777
779
781
781
782
781
782
785
784
786
784
784
782
784
787
796
801
803
807
809
809
810
809
817
824
830
838
844
851
858
864
870
877
882
889
892
897
904
914
920
928
937
941
947
950
953
960
965
971
976
983
984
987
988
991
995
995
993
991
988
984
980
978
977
979
979
975
972
965
957
950
944
939
936
932
925
922
920
916
913
910
908
904
898
894
892
889
888
889
892
894
894
892
889
886
886
887
890
897
901
906
910
913
914
914
920
920
926
926
928
929
931
930
931
928
921
908
895
883
871
863
861
859
860
863
865
864
862
858
856
854
854
857
858
859
857
857
859
858
860
861
860
862
860
856
854
854
853
852
850
851
862
877
913
965
1032
1115
1206
1298
1371
1421
1436
1416
1367
1305
1232
1155
1077
1002
933
869
815
782
771
781
802
825
841
845
843
833
826
822
820
821
820
821
818
813
813
812
811
813
813
811
809
808
806
806
807
807
806
805
805
800
800
801
802
805
811
811
811
809
811
810
813
815
822
828
831
834
837
838
841
846
851
859
867
872
879
884
888
901
909
919
928
934
944
948
955
961
970
980
990
1000
1005
1009
1012
1014
1017
1022
1027
1035
1040
1043
1045
1046
1048
1050
1049
1051
1050
1048
1046
1039
1036
1034
1038
1038
1038
1034
1031
1029
1022
1017
1012
1006
1006
1004
1000
996
990
984
977
972
968
967
959
953
949
942
939
938
940
942
939
938
933
930
927
926
926
929
929
932
933
933
935
937
940
945
947
952
953
956
956
960
968
973
979
982
980
976
970
962
953
943
934
924
918
911
905
899
895
894
897
899
904
906
906
906
905
906
907
907
906
907
904
902
899
899
901
905
905
902
901
894
890
891
901
923
958
1003
1055
1118
1194
1277
1354
1417
1447
1434
1386
1315
1233
1142
1058
984
921
874
838
823
826
841
860
882
898
906
906
902
896
892
885
884
882
883
886
887
886
888
885
887
886
888
890
891
888
885
885
881
881
883
886
889
895
897
898
899
903
906
912
915
919
922
925
929
934
940
950
957
963
969
972
977
984
993
1003
1013
1022
1027
1032
1038
1046
1056
1061
1066
1070
1077
1083
1086
1093
1098
1107
1111
1113
1110
1109
1105
1104
1107
1112
1112
1115
1113
1109
1102
1097
1092
1086
1084
1080
1075
1067
1061
1059
1055
1054
1050
1046
1039
1029
1019
1013
1011
1007
1009
1006
1003
995
981
972
961
955
952
951
944
942
935
931
930
931
931
928
924
924
920
926
931
936
936
939
938
935
931
933
934
939
945
954
960
964
969
976
985
992
996
997
995
992
988
983
979
973
967
957
947
934
922
914
915
917
920
925
924
923
923
918
918
922
923
927
923
921
919
918
919
921
923
928
929
928
922
913
905
901
910
934
973
1028
1097
1179
1270
1353
1421
1452
1442
1389
1311
1219
1126
1040
970
921
881
846
812
788
781
793
814
838
860
871
876
874
865
859
858
856
854
854
849
850
846
849
854
858
859
860
859
853
848
843
844
845
850
857
859
860
860
860
859
865
867
874
877
877
880
880
886
888
893
898
902
904
910
911
915
919
925
933
938
949
952
956
960
962
970
977
986
992
1000
1002
1007
1013
1016
1024
1028
1036
1041
1045
1049
1051
1051
1051
1055
1057
1056
1054
1050
1046
1045
1043
1036
1034
1032
1026
1024
1022
1018
1015
1008
1004
995
988
980
974
971
968
966
963
958
951
945
937
932
926
921
919
918
918
914
913
911
909
910
906
910
909
907
907
905
908
911
910
912
913
913
911
911
911
913
916
922
930
935
940
943
948
954
959
963
965
965
964
965
963
961
965
962
956
948
933
918
903
897
895
889
896
895
897
898
896
897
895
894
895
894
893
892
891
894
896
900
899
900
896
894
889
887
883
878
881
896
922
972
1045
1132
1233
1328
1405
1443
1433
1388
1318
1232
1141
1051
968
890
820
771
746
752
774
805
832
847
854
852
843
835
828
825
823
820
820
820
816
821
823
823
821
818
813
810
806
805
810
810
813
813
814
812
813
814
816
819
818
818
820
821
823
826
828
832
836
838
840
839
843
850
858
866
872
877
882
887
889
891
896
904
912
916
921
925
933
941
952
961
969
971
975
979
983
988
995
1000
1003
1006
1006
1002
1002
1002
1003
1003
1002
1000
995
990
987
985
985
985
981
976
967
959
955
947
947
944
940
939
935
930
924
920
916
914
910
907
901
903
903
903
905
906
908
908
906
903
902
899
903
905
911
915
921
924
928
929
936
939
942
941
947
950
948
954
955
956
954
947
936
925
910
896
888
881
880
879
879
880
878
873
873
874
874
875
875
872
872
872
871
873
874
873
874
873
871
866
865
863
863
862
860
862
869
893
931
983
1046
1113
1195
1276
1351
1406
1432
1414
1361
1291
1201
1112
1032
952
884
827
789
776
787
805
827
848
854
850
845
835
830
827
827
827
827
826
825
825
820
820
818
815
815
814
813
816
818
820
818
817
814
810
809
810
811
814
818
820
822
823
824
824
829
828
832
834
837
837
842
847
854
861
867
873
876
879
884
888
898
907
915
924
931
935
940
946
952
956
965
972
979
987
997
1001
1009
1018
1023
1027
1033
1035
1034
1037
1038
1043
1046
1049
1050
1049
1047
1040
1039
1036
1035
1031
1031
1026
1024
1022
1017
1015
1012
1011
1007
1002
995
989
988
985
984
981
978
979
974
969
962
956
952
949
950
953
952
951
948
946
945
949
950
949
948
948
947
949
951
956
964
971
978
979
982
982
981
986
990
995
999
1000
995
990
983
971
962
953
947
939
933
927
925
922
921
924
926
927
927
924
922
922
921
923
927
930
932
932
930
926
921
921
920
922
922
918
913
913
918
936
970
1022
1088
1166
1253
1344
1423
1479
1497
1483
1440
1379
1308
1232
1157
1086
1020
960
905
866
842
843
861
883
905
916
919
914
904
896
889
886
888
889
894
896
898
897
895
890
888
887
888
890
891
896
895
898
898
901
899
901
900
899
902
904
906
912
919
925
932
936
936
938
939
946
951
961
970
981
989
997
1001
1004
1008
1016
1023
1031
1041
1049
1056
1062
1069
1078
1086
1098
1104
1111
1114
1118
1122
1128
1134
1144
1147
1149
1151
1151
1149
1146
1144
1146
1147
1148
1151
1153
1153
1150
1147
1140
1136
1134
1129
1124
1119
1112
1108
1104
1105
1103
1101
1097
1092
1083
1075
1072
1065
1062
1059
1053
1047
1039
1029
1021
1016
1011
1006
1006
1000
993
991
987
984
987
986
985
984
982
980
977
977
978
978
982
982
985
983
985
985
985
988
993
999
1008
1014
1022
1024
1024
1027
1031
1031
1034
1034
1032
1032
1028
1027
1028
1022
1014
1005
994
980
971
963
959
959
962
967
968
964
962
961
962
963
964
965
966
964
963
960
964
968
971
974
971
966
961
957
949
945
948
961
987
1030
1087
1153
1228
1307
1384
1448
1488
1494
1457
1402
1339
1281
1221
1157
1085
1012
942
881
834
811
811
829
855
883
904
917
920
913
904
895
890
888
891
894
896
899
896
895
892
892
892
892
889
888
888
887
885
886
889
891
894
893
895
894
894
896
901
902
907
911
911
916
915
917
915
916
922
925
929
935
942
947
950
957
958
960
966
972
977
981
988
994
999
1003
1009
1016
1019
1023
1028
1031
1033
1038
1048
1055
1064
1071
1073
1074
1076
1077
1080
1086
1090
1090
1091
1091
1087
1085
1080
1082
1077
1078
1075
1072
1067
1061
1055
1051
1046
1045
1041
1038
1032
1022
1015
1011
1007
1007
1004
1000
996
989
983
977
972
966
962
960
956
950
947
945
945
945
946
949
948
944
941
940
938
943
945
947
947
949
947
947
946
949
950
957
960
966
973
976
982
984
990
995
999
996
994
993
989
990
989
985
978
970
957
945
938
927
923
923
925
925
924
923
922
926
925
928
927
928
926
924
921
919
920
922
926
929
928
925
922
916
911
908
908
920
947
993
1053
1130
1217
1310
1400
1462
1486
1467
1417
1345
1260
1173
1085
1000
919
849
805
786
796
818
848
873
886
886
883
874
867
864
862
860
861
860
858
855
853
856
857
856
854
852
851
850
849
849
851
851
852
852
853
851
852
851
853
854
855
857
857
858
862
867
874
878
882
884
887
887
890
895
900
907
912
917
923
931
939
942
953
960
967
971
974
980
987
995
1004
1014
1019
1026
1026
1028
1032
1037
1041
1048
1054
1058
1059
1060
1062
1065
1065
1066
1068
1066
1061
1058
1053
1051
1051
1052
1051
1048
1043
1037
1028
1022
1019
1015
1015
1013
1008
1001
993
990
988
983
976
975
974
969
965
964
962
967
968
971
970
968
962
957
955
956
962
967
973
978
981
986
990
992
995
998
1000
999
1003
1003
1003
1007
1005
1005
998
990
975
963
950
942
936
934
933
933
930
932
931
930
928
927
924
925
927
929
926
925
926
927
926
927
926
926
923
922
919
918
918
917
914
911
910
917
936
968
1013
1066
1131
1206
1289
1376
1441
1468
1454
1403
1330
1237
1145
1060
980
912
863
835
834
848
874
893
902
903
898
889
883
880
881
881
877
878
874
870
869
868
865
865
864
861
859
861
862
864
862
864
863
860
858
856
856
860
863
866
868
869
867
865
867
868
871
875
879
882
884
888
888
893
898
903
909
913
918
922
928
934
944
955
964
970
978
987
992
997
1004
1013
1023
1033
1041
1044
1049
1053
1057
1063
1069
1076
1078
1078
1082
1084
1087
1092
1091
1094
1092
1091
1087
1081
1079
1078
1079
1077
1075
1074
1069
1065
1061
1055
1052
1048
1042
1038
1033
1026
1022
1017
1018
1012
1010
1001
997
992
986
984
982
984
984
984
981
979
980
977
977
977
975
976
978
979
983
988
995
1004
1008
1010
1011
1010
1010
1011
1016
1023
1028
1028
1026
1020
1010
999
987
979
968
961
954
952
951
955
957
958
959
956
956
952
950
950
948
952
954
955
956
952
951
952
952
953
950
947
943
938
932
937
953
989
1041
1106
1189
1280
1372
1448
1490
1488
1446
1383
1302
1216
1142
1080
1026
979
930
887
863
862
875
897
919
933
928
923
912
901
894
893
897
900
905
907
905
900
894
891
889
887
888
888
888
887
887
888
887
889
889
892
890
892
895
898
903
910
915
917
923
926
931
934
942
950
957
965
973
981
990
1000
1014
1028
1035
1041
1049
1051
1058
1064
1074
1086
1096
1110
1121
1129
1137
1140
1144
1148
1155
1160
1165
1168
1170
1176
1179
1181
1178
1177
1173
1168
1163
1161
1159
1161
1160
1159
1158
1151
1145
1139
1136
1129
1126
1118
1111
1105
1100
1098
1094
1090
1084
1076
1066
1055
1049
1042
1042
1038
1038
1036
1031
1030
1026
1022
1019
1019
1017
1016
1018
1022
1024
1027
1030
1030
1028
1022
1018
1018
1019
1022
1030
1038
1047
1055
1061
1062
1063
1066
1071
1075
1078
1077
1076
1076
1069
1061
1053
1042
1032
1022
1014
1005
999
992
990
992
994
998
999
1001
997
995
991
991
992
994
994
995
991
989
989
988
989
989
988
985
979
976
970
970
977
999
1036
1089
1153
1231
1320
1404
1470
1499
1488
1437
1358
1266
1168
1079
1004
944
898
862
843
840
851
870
893
914
929
939
941
936
927
918
911
909
910
911
912
911
914
912
912
910
912
911
911
908
905
902
907
909
910
914
917
918
918
918
919
921
928
930
936
942
945
952
954
957
961
962
964
966
971
975
982
989
999
1007
1012
1017
1020
1025
1032
1038
1046
1055
1064
1069
1077
1085
1088
1092
1095
1097
1100
1099
1103
1105
1108
1114
1117
1120
1118
1116
1112
1106
1102
1100
1096
1097
1094
1091
1087
1083
1078
1071
1064
1057
1051
1041
1036
1033
1028
1027
1024
1022
1017
1005
997
989
983
979
978
977
976
974
972
974
972
969
970
966
965
962
965
966
969
971
976
976
976
973
975
974
977
976
978
980
982
986
991
1000
1006
1012
1017
1018
1021
1019
1022
1026
1027
1031
1033
1035
1030
1019
1007
991
978
968
965
964
962
962
963
963
960
960
960
961
960
961
960
960
960
961
965
966
965
964
957
957
951
951
948
947
944
945
950
971
1003
1049
1103
1163
1229
1300
1372
1438
1486
1499
1474
1419
1345
1257
1160
1072
989
918
860
822
811
824
845
873
896
911
915
912
908
900
898
897
894
894
894
892
889
891
889
889
886
883
882
882
881
881
887
887
884
882
879
879
878
877
879
882
886
889
891
890
890
887
890
893
895
898
901
903
906
910
915
922
927
928
932
932
934
936
943
952
959
967
971
977
979
985
990
997
1004
1014
1021
1028
1033
1039
1047
1055
1061
1067
1071
1072
1070
1072
1073
1077
1080
1087
1090
1090
1089
1086
1084
1078
1076
1076
1076
1072
1069
1064
1059
1052
1052
1048
1044
1041
1035
1029
1022
1015
1015
1011
1012
1010
1008
1004
998
997
993
992
992
995
999
999
999
999
998
996
997
998
997
1002
1004
1007
1010
1016
1023
1026
1033
1035
1039
1039
1036
1039
1043
1051
1053
1055
1053
1047
1040
1027
1015
1000
992
984
977
973
967
966
967
967
969
969
969
965
962
962
962
964
968
970
970
970
971
966
966
966
963
959
958
954
951
952
969
998
1049
1115
1195
1283
1375
1457
1511
1534
1517
1472
1408
1332
1250
1171
1095
1023
955
901
872
870
886
912
935
947
952
946
936
927
920
913
915
917
922
925
924
923
920
915
914
912
912
912
912
912
911
911
912
913
914
914
916
914
913
912
911
914
916
923
927
930
931
933
934
938
943
951
958
962
970
977
986
995
1005
1014
1020
1026
1029
1037
1043
1052
1067
1075
1082
1088
1094
1098
1107
1112
1121
1128
1130
1136
1142
1146
1149
1152
1157
1157
1154
1153
1150
1146
1148
1147
1150
1150
1150
1144
1138
1132
1129
1127
1126
1124
1123
1120
1114
1108
1102
1098
1095
1091
1084
1081
1074
1065
1059
1055
1053
1055
1054
1053
1050
1044
1039
1038
1036
1035
1038
1038
1040
1039
1036
1033
1039
1042
1048
1054
1061
1064
1068
1066
1070
1074
1081
1087
1090
1095
1097
1097
1092
1092
1088
1088
1082
1074
1067
1056
1047
1039
1035
1030
1032
1031
1032
1035
1034
1037
1036
1038
1041
1042
1044
1042
1042
1039
1041
1042
1042
1050
1052
1053
1048
1047
1043
1041
1037
1038
1043
1059
1083
1124
1175
1229
1287
1350
1415
1477
1524
1538
1524
1477
1412
1338
1255
1178
1107
1047
1001
966
947
946
962
985
1007
1024
1033
1031
1021
1012
1006
1001
1002
999
1000
998
996
997
999
999
999
1000
996
994
989
985
982
987
992
995
997
997
994
993
991
992
997
1002
1010
1014
1016
1018
1015
1013
1017
1024
1033
1041
1048
1052
1055
1059
1063
1069
1080
1087
1096
1100
1104
1109
1109
1113
1119
1127
1133
1142
1148
1154
1160
1166
1170
1174
1178
1182
1182
1184
1186
1190
1192
1197
1198
1200
1197
1196
1194
1189
1191
1189
1189
1189
1184
1175
1172
1164
1157
1152
1149
1149
1150
1147
1143
1137
1126
1120
1112
1106
1101
1097
1092
1086
1081
1074
1067
1062
1057
1051
1048
1041
1035
1029
1020
1016
1016
1014
1013
1012
1009
1007
1003
1000
1000
1002
1004
1004
1005
1004
1004
1006
1007
1005
1006
1009
1011
1013
1019
1023
1036
1043
1052
1058
1061
1066
1066
1065
1067
1067
1065
1062
1053
1042
1030
1018
1012
1004
1001
994
992
989
986
986
988
989
989
988
987
988
985
985
983
985
988
988
987
986
985
986
985
988
984
979
975
968
972
993
1033
1094
1167
1254
1343
1421
1481
1514
1516
1479
1421
1345
1257
1163
1068
989
918
863
827
822
835
860
886
908
924
933
934
930
926
920
917
912
905
905
906
906
905
905
908
907
905
906
905
906
906
903
902
900
900
901
904
913
918
919
918
919
918
918
919
923
929
932
935
939
944
949
955
960
967
970
971
973
976
983
990
999
1008
1018
1020
1023
1026
1029
1034
1040
1049
1057
1065
1071
1077
1078
1085
1087
1092
1097
1100
1101
1102
1103
1103
1105
1109
1111
1110
1106
1101
1096
1091
1086
1085
1080
1079
1080
1075
1068
1062
1054
1046
1043
1038
1033
1029
1021
1015
1010
1007
1003
1001
997
993
988
981
976
975
973
974
974
977
977
971
967
962
964
965
966
969
972
971
974
973
973
976
978
979
980
982
982
986
989
996
1005
1010
1016
1019
1018
1018
1018
1020
1022
1021
1020
1014
1004
991
978
968
962
957
955
949
943
939
936
936
936
937
935
928
913
897
878
863
861
882
926
986
1059
1140
1215
1278
1307
1288
1217
1122
1032
964
922
891
860
826
789
755
731
724
734
759
786
821
855
880
898
905
907
906
899
895
894
896
899
902
904
899
899
895
895
893
894
896
895
894
890
891
891
895
900
901
904
901
899
899
899
900
905
911
913
918
918
922
929
933
937
942
948
953
956
963
970
975
981
991
1001
1009
1013
1016
1021
1024
1030
1038
1046
1055
1062
1067
1071
1074
1078
1086
1093
1098
1102
1103
1105
1109
1111
1117
1118
1120
1117
1113
1108
1106
1099
1100
1098
1096
1093
1090
1083
1074
1067
1062
1054
1051
1048
1043
1035
1030
1027
1025
1026
1026
1023
1018
1014
1009
1008
1007
1007
1012
1013
1011
1011
1009
1005
1005
1005
1005
1007
1004
1005
1005
1004
1005
1007
1009
1009
1006
1005
1006
1004
1003
1005
1006
1008
1013
1013
1015
1017
1022
1025
1029
1034
1034
1034
1037
1038
1041
1045
1043
1038
1032
1020
1007
996
987
977
975
972
968
966
962
961
959
959
961
960
960
961
960
963
967
971
971
967
965
965
963
963
967
970
966
963
959
963
981
1017
1075
1147
1233
1322
1410
1471
1505
1499
1463
1401
1327
1248
1176
1111
1054
997
944
902
880
878
895
920
940
950
952
946
935
925
918
914
913
