1079
1082
1081
1083
1085
1087
1091
1087
1082
1079
1071
1065
1064
1062
1059
1057
1048
1043
1038
1036
1033
1031
1025
1021
1014
1005
997
992
988
986
984
981
975
973
966
962
960
959
958
956
952
949
946
943
945
947
950
955
957
954
953
951
951
949
955
958
963
966
966
962
962
961
960
961
965
968
969
967
967
967
967
971
973
972
971
970
969
969
971
972
975
978
977
973
972
968
969
971
974
977
978
976
977
974
977
977
979
983
986
985
983
985
983
983
984
983
981
983
987
991
998
1002
1009
1009
1010
1007
1005
998
995
999
998
993
986
977
970
967
966
969
971
970
970
966
967
969
968
970
971
972
970
969
970
970
973
975
975
971
968
969
969
970
968
966
962
961
970
990
1025
1075
1133
1204
1280
1357
1420
1465
1472
1447
1393
1323
1246
1163
1077
998
925
860
818
804
811
836
864
885
903
910
911
909
903
899
896
895
897
897
896
893
891
885
885
881
880
880
882
890
890
897
897
897
893
892
893
891
897
900
902
905
909
911
912
914
921
922
923
924
929
931
935
941
948
953
957
958
956
957
959
966
974
981
988
994
996
999
1003
1007
1008
1015
1023
1027
1031
1035
1039
1044
1050
1056
1061
1066
1071
1073
1077
1082
1088
1093
1098
1101
1100
1098
1095
1094
1093
1093
1094
1092
1088
1084
1080
1077
1073
1069
1063
1054
1047
1039
1030
1026
1025
1021
1019
1015
1009
1001
997
988
987
985
987
988
986
986
986
986
989
989
989
991
989
989
986
984
985
987
988
991
993
996
997
1001
1007
1012
1019
1024
1028
1033
1034
1034
1031
1032
1034
1033
1030
1023
1009
1000
988
978
971
970
966
962
957
951
947
944
945
945
947
952
950
946
945
945
943
943
945
946
944
944
944
942
944
942
944
941
937
931
927
933
952
988
1041
1106
1179
1256
1335
1405
1450
1465
1442
1390
1316
1232
1147
1060
982
910
847
801
781
781
797
818
846
865
879
883
885
881
875
871
865
861
858
855
853
855
853
855
854
852
852
848
847
847
847
847
845
842
839
840
842
848
850
852
850
849
847
845
847
849
856
861
868
871
874
878
882
888
893
901
907
911
915
921
925
932
941
948
959
963
967
973
978
984
993
1001
1009
1020
1025
1031
1036
1041
1046
1051
1054
1054
1057
1056
1059
1061
1067
1070
1068
1065
1062
1056
1050
1046
1045
1045
1041
1038
1031
1022
1016
1009
1009
1005
998
992
986
981
979
975
973
971
965
959
953
946
941
937
938
940
941
941
940
937
938
936
938
938
943
945
949
955
961
969
978
986
991
994
995
995
995
997
1002
1004
1001
997
987
974
963
951
940
934
927
925
920
923
920
922
923
926
926
927
926
923
917
916
917
919
924
926
928
927
926
925
923
923
917
915
913
918
935
971
1027
1098
1180
1270
1354
1417
1444
1424
1370
1286
1185
1080
982
899
835
792
775
781
805
832
862
882
888
888
882
871
864
857
855
855
855
856
858
854
852
848
847
843
843
842
843
840
838
834
834
834
835
839
842
841
840
838
839
842
847
850
855
859
860
864
869
873
880
885
892
898
905
910
915
920
929
938
949
958
967
973
979
985
992
999
1012
1023
1031
1037
1043
1051
1058
1065
1071
1074
1075
1076
1077
1078
1082
1085
1087
1090
1088
1085
1082
1077
1073
1070
1066
1064
1060
1060
1056
1051
1047
1043
1039
1036
1029
1023
1021
1017
1015
1013
1009
1004
996
990
982
977
973
972
973
971
969
969
963
964
961
956
958
959
958
962
966
969
975
983
992
999
1005
1009
1012
1014
1017
1020
1023
1027
1027
1022
1015
1009
1000
991
978
969
962
955
948
943
944
947
951
956
957
959
956
951
948
947
947
947
951
953
954
953
953
952
948
949
949
947
946
944
939
945
959
984
1024
1071
1131
1200
1275
1347
1404
1427
1408
1350
1264
1166
1066
981
921
877
844
824
815
816
830
852
878
900
910
914
909
899
890
883
883
884
887
890
891
889
883
879
876
874
875
878
879
880
876
876
877
880
880
883
884
885
885
885
887
887
889
897
904
911
914
914
916
920
927
932
939
943
949
962
968
979
985
992
995
998
1000
1006
1011
1022
1031
1039
1049
1055
1061
1064
1068
1071
1076
1082
1087
1091
1097
1101
1104
1105
1106
1104
1098
1092
1087
1084
1083
1079
1084
1082
1079
1073
1065
1059
1052
1048
1042
1036
1033
1027
1022
1019
1018
1016
1013
1006
1000
991
982
977
973
973
969
966
965
962
959
957
955
957
954
953
953
952
952
954
954
958
961
965
968
974
979
984
993
1002
1006
1013
1016
1020
1022
1023
1024
1024
1019
1012
1004
994
982
974
965
959
953
950
951
949
950
950
951
953
953
958
958
956
954
951
954
956
955
957
955
955
952
950
950
948
945
941
946
960
996
1047
1114
1190
1272
1351
1414
1449
1447
1404
1336
1247
1151
1055
972
898
839
805
792
801
822
845
866
883
892
895
891
887
883
877
875
873
874
875
873
873
871
867
864
863
860
865
866
867
868
869
864
860
858
859
864
867
868
872
870
872
873
877
884
884
886
889
894
897
902
908
920
925
928
932
935
940
946
955
963
972
978
985
993
997
1003
1008
1014
1019
1024
1030
1038
1047
1053
1058
1064
1063
1065
1067
1068
1069
1069
1068
1071
1071
1071
1068
1065
1062
1059
1056
1053
1047
1040
1032
1027
1022
1019
1016
1010
1008
1000
993
986
979
976
973
970
970
965
960
957
954
950
949
949
945
943
938
939
941
944
953
958
964
968
969
974
981
984
992
998
1004
1006
1006
1007
1009
1009
1006
1001
992
980
967
955
944
937
933
933
932
931
931
927
927
925
927
928
929
930
931
931
928
931
932
931
932
931
929
930
930
929
929
928
924
924
925
946
979
1030
1091
1168
1253
1336
1399
1435
1432
1388
1323
1245
1162
1075
989
915
849
807
787
791
809
838
863
881
886
887
879
874
866
863
862
857
855
857
856
855
853
850
849
845
843
843
843
848
850
848
848
843
840
836
838
843
844
848
852
851
856
860
864
867
869
872
873
875
877
884
892
899
909
916
916
925
927
936
943
951
963
973
980
988
992
996
1003
1009
1017
1024
1028
1033
1041
1047
1055
1064
1068
1076
1079
1077
1075
1073
1072
1073
1076
1074
1078
1077
1073
1067
1064
1057
1051
1051
1049
1044
1036
1032
1027
1025
1021
1018
1013
1008
1003
996
988
983
980
981
982
979
974
962
954
948
947
947
948
946
946
946
943
942
939
938
939
937
939
941
942
946
952
957
968
976
983
988
988
991
992
996
996
996
993
990
982
971
958
950
942
931
926
921
917
915
916
914
919
920
922
924
921
921
917
917
917
920
921
924
923
924
923
923
922
921
922
918
914
908
910
914
932
960
1007
1061
1126
1199
1276
1351
1408
1432
1417
1365
1291
1206
1114
1027
955
902
863
836
817
813
818
837
859
881
896
904
903
898
891
882
875
875
876
880
883
883
882
880
878
873
870
868
869
872
872
874
875
872
872
869
871
874
876
874
874
877
880
884
890
895
899
902
905
907
908
912
917
925
932
938
944
950
954
961
969
978
984
993
998
1004
1008
1015
1023
1031
1039
1048
1052
1057
1060
1067
1071
1076
1084
1092
1098
1102
1107
1105
1105
1101
1098
1097
1096
1098
1097
1096
1096
1093
1091
1087
1083
1078
1071
1067
1060
1055
1050
1048
1049
1049
1046
1040
1032
1023
1014
1009
1008
1005
1002
1001
996
993
986
984
979
973
967
960
954
948
947
948
952
956
957
956
952
947
942
940
943
953
964
972
980
984
990
992
996
998
1004
1008
1011
1012
1014
1013
1013
1012
1005
995
981
965
953
943
939
937
940
941
945
946
943
939
939
938
939
941
941
941
940
942
942
944
948
948
950
947
946
942
941
938
938
936
938
952
978
1017
1066
1127
1193
1265
1338
1396
1434
1438
1403
1335
1251
1155
1062
981
909
850
806
782
783
801
827
853
873
891
895
891
885
879
871
872
871
875
877
875
872
870
866
866
864
867
867
864
864
862
862
867
865
868
869
869
872
873
874
878
884
887
889
891
891
891
896
899
905
910
913
916
922
924
931
937
946
952
957
959
964
969
974
983
992
1001
1011
1018
1023
1027
1034
1038
1044
1052
1055
1060
1063
1063
1071
1075
1084
1089
1092
1089
1087
1081
1077
1074
1072
1072
1068
1068
1064
1063
1058
1054
1050
1045
1040
1034
1028
1022
1017
1014
1010
1005
1002
997
989
982
974
970
967
964
960
958
955
952
949
948
948
948
946
941
941
939
942
944
949
953
953
953
956
960
966
978
982
986
992
997
998
1002
1003
1003
1002
996
988
979
965
954
948
943
937
934
927
920
919
918
919
920
923
926
924
923
923
922
925
926
927
925
925
926
923
925
925
925
923
918
915
920
933
965
1020
1090
1173
1263
1348
1414
1455
1460
1426
1359
1270
1168
1065
975
900
841
800
781
779
795
816
841
862
872
877
872
866
859
850
848
847
847
846
843
840
834
834
831
835
835
839
842
838
837
832
830
831
831
834
835
839
838
840
843
845
850
853
855
858
860
860
865
868
875
886
892
900
905
909
914
918
923
930
939
944
951
958
964
972
979
989
996
1000
1009
1014
1017
1023
1029
1038
1043
1049
1052
1053
1052
1055
1053
1055
1056
1057
1056
1055
1053
1051
1047
1044
1041
1037
1033
1027
1022
1017
1012
1012
1011
1009
1005
998
988
979
972
967
966
966
966
964
959
954
949
942
939
934
930
925
927
927
928
929
931
932
934
934
937
942
944
952
960
965
971
973
974
981
985
989
989
988
985
980
970
960
946
936
929
926
921
915
910
906
904
904
906
908
909
908
906
905
906
908
909
911
910
908
908
909
910
913
914
914
913
907
900
899
903
920
954
1002
1063
1130
1204
1283
1356
1413
1440
1438
1398
1328
1244
1151
1062
979
911
856
815
792
783
792
811
833
854
870
875
876
873
867
857
855
848
848
851
850
850
848
846
846
848
846
847
847
846
843
844
842
841
844
849
853
857
859
861
862
863
866
869
873
876
879
883
887
895
901
911
915
921
924
930
936
945
955
966
975
986
991
995
1000
1004
1012
1021
1028
1036
1044
1049
1058
1064
1072
1078
1080
1077
1074
1075
1075
1079
1084
1089
1089
1084
1076
1074
1066
1061
1057
1052
1048
1044
1040
1036
1033
1032
1024
1019
1012
1004
1001
994
992
989
984
982
979
973
970
966
962
959
956
951
945
943
942
943
942
941
940
943
942
945
949
959
965
971
979
983
988
994
1001
1007
1013
1014
1013
1009
1001
995
987
981
971
966
958
951
945
942
940
938
938
934
937
935
938
942
943
944
943
941
941
939
938
936
940
943
942
940
939
936
935
937
944
964
992
1038
1094
1164
1244
1331
1400
1442
1438
1386
1301
1202
1100
1010
937
884
842
814
798
799
816
841
865
885
896
899
891
886
881
880
878
877
875
874
871
868
866
865
865
865
865
867
868
870
874
874
872
870
869
866
867
871
874
880
883
886
885
883
885
890
896
903
908
915
919
922
927
930
939
944
949
954
960
962
966
974
982
992
997
1004
1008
1014
1017
1023
1025
1032
1039
1051
1057
1062
1066
1073
1073
1075
1078
1077
1076
1072
1071
1069
1071
1071
1073
1069
1066
1059
1052
1046
1042
1040
1038
1035
1031
1027
1020
1016
1007
1003
1000
997
991
982
978
970
968
968
966
961
958
954
952
944
942
940
942
944
944
946
944
943
941
944
945
950
955
957
961
968
972
981
986
992
996
996
993
993
994
993
992
992
989
982
969
953
940
930
924
922
919
918
919
918
915
918
914
917
919
919
918
915
911
910
913
914
916
920
923
922
919
914
912
909
907
905
905
911
928
961
1009
1068
1138
1210
1289
1363
1417
1442
1431
1386
1317
1230
1136
1044
955
880
819
784
777
790
817
843
864
879
879
874
865
860
855
850
847
846
845
846
847
850
848
843
841
835
833
833
833
834
835
837
832
831
833
834
835
834
836
836
834
834
838
840
845
852
859
861
864
867
870
876
884
891
898
903
910
917
924
933
943
950
957
963
971
975
984
996
1004
1017
1025
1032
1036
1040
1042
1048
1056
1060
1065
1065
1065
1066
1071
1074
1076
1074
1069
1065
1058
1054
1053
1054
1052
1050
1046
1039
1035
1031
1025
1021
1016
1012
1008
1003
997
995
991
988
985
978
971
966
961
956
952
954
954
955
953
950
952
948
949
952
955
958
962
965
968
977
982
988
992
995
999
998
998
999
997
995
990
982
970
958
951
941
938
932
929
926
927
928
928
929
932
932
931
927
926
924
924
926
928
933
932
935
934
934
932
929
927
925
924
924
931
953
989
1042
1106
1182
1263
1341
1412
1452
1459
1427
1368
1288
1203
1113
1030
956
895
849
822
813
825
847
872
896
907
910
907
901
895
889
884
880
879
878
878
881
884
886
885
885
881
878
877
875
874
873
874
875
876
879
881
883
882
885
886
888
893
894
900
905
912
916
923
927
929
932
936
939
947
955
964
969
976
983
990
995
1004
1009
1015
1021
1028
1031
1039
1050
1060
1068
1078
1083
1088
1091
1095
1097
1100
1102
1105
1105
1104
1106
1107
1110
1109
1109
1106
1102
1096
1088
1083
1081
1080
1078
1077
1071
1065
1061
1056
1051
1050
1043
1040
1037
1028
1026
1019
1013
1011
1008
998
991
981
976
972
968
970
972
973
970
966
963
960
959
960
961
962
962
963
963
965
969
974
980
990
995
1000
1005
1008
1009
1018
1022
1029
1030
1030
1027
1023
1014
1009
1001
993
985
976
967
963
957
952
952
953
953
955
953
948
948
948
950
953
957
953
955
951
953
956
958
960
959
958
956
953
950
949
955
971
1000
1046
1104
1179
1264
1350
1422
1469
1472
1431
1360
1273
1177
1084
1001
929
872
830
807
804
819
843
870
891
904
907
902
892
886
883
883
884
889
887
885
885
883
883
884
883
884
882
882
880
880
881
884
882
883
884
884
888
894
898
902
908
910
914
915
916
920
922
928
933
934
940
948
955
965
971
975
979
983
988
994
1000
1012
1021
1029
1037
1042
1045
1048
1052
1059
1069
1071
1077
1079
1082
1086
1093
1099
1102
1103
1102
1100
1095
1092
1092
1092
1089
1090
1084
1081
1076
1073
1070
1064
1061
1051
1048
1045
1040
1036
1031
1029
1019
1015
1007
1000
994
990
990
987
987
983
978
972
968
966
963
964
966
964
963
963
962
962
964
965
969
969
973
977
978
983
989
999
1006
1013
1019
1022
1023
1024
1024
1022
1020
1014
1008
1000
988
981
974
967
963
954
948
946
945
942
945
947
948
949
949
947
947
946
946
945
944
946
946
946
945
945
948
950
952
948
944
942
937
941
960
995
1041
1103
1166
1239
1314
1379
1429
1454
1451
1409
1349
1271
1185
1102
1021
951
890
840
810
800
806
825
849
871
890
900
901
898
892
885
878
873
871
870
871
874
874
874
873
871
867
866
866
864
866
864
864
864
864
866
866
867
869
871
871
871
871
873
874
879
883
887
893
896
899
902
907
910
918
922
926
934
946
951
959
968
972
977
982
987
992
999
1006
1015
1023
1033
1042
1049
1055
1059
1065
1070
1077
1082
1086
1088
1091
1092
1095
1098
1099
1098
1099
1095
1091
1087
1083
1081
1081
1079
1078
1071
1067
1060
1052
1046
1044
1038
1037
1032
1027
1020
1017
1012
1010
1005
998
993
988
980
979
976
974
978
980
980
977
972
969
965
966
966
968
969
972
974
980
987
993
1002
1008
1013
1014
1016
1019
1024
1028
1034
1037
1031
1023
1010
996
984
972
962
956
953
949
949
948
947
948
948
945
945
944
944
945
943
947
950
953
953
951
950
949
947
948
946
946
944
942
942
947
965
1001
1049
1110
1178
1254
1334
1404
1450
1464
1438
1380
1300
1204
1104
1016
941
879
835
812
807
823
845
873
894
908
913
909
897
889
880
877
877
879
884
885
885
883
880
874
868
865
863
865
870
870
868
870
869
869
868
872
873
875
875
877
879
882
885
890
892
896
899
901
903
908
911
916
925
931
937
943
952
957
966
974
980
986
991
996
1004
1013
1021
1028
1038
1044
1052
1059
1066
1073
1075
1083
1091
1098
1101
1105
1107
1109
1107
1106
1107
1104
1105
1103
1101
1097
1097
1097
1096
1093
1086
1081
1072
1064
1059
1058
1058
1056
1057
1051
1048
1040
1031
1025
1023
1021
1016
1012
1008
1001
994
991
992
988
990
985
981
976
973
969
968
970
974
974
976
973
973
971
971
974
979
991
998
1006
1012
1017
1021
1026
1031
1034
1036
1035
1032
1029
1025
1021
1013
1007
997
989
978
969
961
958
953
956
958
960
965
963
963
962
961
960
961
963
960
959
959
959
960
962
965
967
965
962
960
957
954
953
956
972
998
1035
1088
1148
1217
1294
1368
1422
1444
1424
1370
1292
1206
1122
1042
978
930
888
859
836
827
830
846
869
894
911
919
922
916
907
898
894
893
894
896
897
894
893
892
892
893
891
891
887
882
883
885
890
893
897
898
899
900
901
902
904
908
910
911
917
921
923
929
935
940
947
950
955
957
960
968
973
980
989
992
996
1001
1007
1013
1020
1029
1037
1048
1054
1060
1064
1068
1075
1081
1088
1098
1103
1106
1108
1108
1112
1117
1121
1125
1129
1127
1123
1119
1113
1110
1107
1110
1110
1106
1102
1097
1087
1083
1077
1074
1074
1067
1059
1053
1048
1048
1048
1049
1043
1042
1029
1019
1013
1009
1009
1004
1002
1001
993
987
987
983
984
984
985
980
978
975
976
976
979
979
984
984
990
997
1002
1009
1015
1022
1026
1031
1035
1039
1042
1047
1050
1050
1044
1038
1029
1018
1007
998
992
983
978
973
970
971
969
969
971
970
971
969
967
968
970
971
973
971
970
969
967
968
969
969
967
963
961
967
987
1018
1069
1131
1199
1278
1353
1421
1468
1471
1438
1374
1295
1206
1115
1032
962
903
859
828
820
827
846
868
891
907
913
912
910
904
895
894
893
892
894
891
890
887
885
881
878
881
883
883
884
882
885
882
879
881
882
883
882
881
887
891
894
902
904
910
910
909
911
914
919
925
936
942
946
952
955
962
968
976
983
987
992
999
1004
1012
1021
1030
1039
1047
1051
1054
1058
1062
1069
1077
1084
1088
1092
1094
1094
