1037
1039
1037
1040
1038
1038
1034
1034
1033
1031
1033
1031
1028
1023
1017
1008
1003
996
994
992
990
984
975
969
964
959
956
953
949
942
936
932
931
931
932
931
928
928
924
921
919
919
919
921
922
926
930
936
946
952
959
963
964
965
967
972
977
978
979
974
963
951
937
925
914
906
898
893
891
892
893
894
897
899
897
896
893
890
888
889
891
893
896
897
896
896
894
889
888
888
886
885
880
880
881
888
908
941
989
1045
1115
1195
1278
1352
1404
1418
1393
1337
1268
1184
1100
1027
962
907
853
812
787
780
788
810
835
854
865
863
862
852
845
838
836
836
838
841
842
839
837
830
827
823
822
823
824
825
824
823
819
820
818
819
819
817
819
816
816
818
822
822
826
828
831
832
833
834
840
848
856
864
873
877
884
890
893
897
904
914
923
932
939
949
960
971
983
991
999
1007
1011
1016
1024
1034
1043
1048
1052
1055
1055
1057
1057
1062
1064
1064
1059
1062
1059
1057
1057
1059
1058
1054
1050
1045
1039
1037
1033
1032
1032
1030
1027
1022
1018
1009
1003
999
994
991
984
978
973
969
970
968
970
966
963
957
953
949
947
950
953
954
954
955
954
957
961
970
975
981
985
986
987
990
993
1000
1001
1003
999
991
982
969
957
946
935
927
919
913
914
914
915
915
914
911
907
906
907
908
913
917
916
918
915
912
912
912
910
912
910
907
904
903
906
925
955
1000
1060
1132
1217
1301
1371
1414
1412
1370
1301
1217
1127
1046
978
924
880
842
813
799
801
819
844
867
882
888
884
875
869
866
864
868
867
866
867
861
860
859
857
857
857
855
853
852
857
855
855
858
860
858
856
852
853
856
859
865
870
875
877
879
884
887
894
901
910
915
920
926
935
941
952
960
970
976
978
983
988
995
1007
1018
1028
1036
1045
1049
1054
1058
1062
1069
1075
1080
1082
1088
1092
1095
1096
1094
1093
1093
1088
1085
1082
1080
1079
1078
1078
1073
1067
1061
1054
1049
1042
1039
1035
1034
1031
1023
1020
1013
1011
1010
1004
1000
996
986
981
974
970
967
965
962
959
954
950
945
944
943
942
942
938
936
935
936
937
940
944
948
953
955
960
966
975
983
990
997
1003
1006
1006
1006
1007
1001
999
998
992
983
975
965
953
944
939
934
931
928
926
928
928
928
930
930
932
932
931
929
929
927
925
928
930
931
932
931
931
929
926
926
925
923
930
949
980
1025
1074
1128
1190
1256
1321
1377
1414
1414
1380
1317
1234
1143
1055
973
907
851
807
781
774
784
802
826
847
863
871
877
876
872
867
863
860
856
854
854
855
856
859
859
855
852
847
845
844
847
847
849
848
846
848
850
851
850
854
856
857
857
859
863
871
877
880
889
892
894
896
900
905
911
916
926
936
942
947
954
957
963
970
977
980
987
992
1001
1011
1019
1028
1037
1042
1047
1050
1049
1056
1061
1064
1069
1072
1075
1074
1073
1075
1079
1078
1077
1073
1067
1062
1059
1055
1056
1055
1053
1047
1043
1036
1028
1021
1016
1015
1012
1007
997
996
989
984
981
976
970
965
960
957
954
952
952
950
950
946
945
942
940
943
945
943
946
949
950
953
959
965
973
981
984
987
991
993
999
1005
1011
1014
1012
1008
1001
991
978
969
958
947
936
932
929
926
928
927
931
932
930
925
924
921
921
925
926
930
927
928
920
919
920
921
922
924
924
921
916
914
916
924
946
979
1028
1083
1151
1225
1305
1373
1418
1428
1399
1340
1266
1187
1107
1031
958
894
840
794
771
771
789
817
844
865
873
874
863
853
845
841
843
847
848
850
850
845
841
838
834
831
830
833
832
834
834
832
835
835
835
832
827
824
825
827
832
836
841
843
845
847
849
851
856
862
869
874
879
886
891
898
902
910
918
923
928
936
944
955
964
975
985
994
998
1006
1009
1017
1024
1028
1034
1039
1043
1046
1051
1055
1059
1059
1060
1059
1057
1052
1051
1052
1053
1053
1053
1048
1040
1036
1032
1027
1023
1020
1017
1013
1009
1004
1001
997
994
989
985
980
973
965
960
956
954
954
952
952
951
945
940
934
932
932
932
934
936
935
934
939
940
947
953
958
963
967
971
972
974
979
985
990
992
993
991
988
977
970
964
954
945
933
928
920
910
907
905
906
909
909
910
907
903
902
904
906
907
908
908
906
904
901
903
903
906
908
907
905
903
900
894
894
898
912
940
980
1027
1089
1161
1239
1314
1379
1416
1415
1378
1315
1240
1155
1075
1010
957
910
866
825
799
791
800
821
846
867
876
873
866
856
849
843
843
842
843
840
840
839
838
838
838
836
837
832
828
825
822
822
820
821
822
824
824
824
824
824
825
827
827
829
829
832
834
839
847
852
858
862
866
870
873
881
889
900
910
919
926
935
941
947
956
966
973
981
988
996
1006
1015
1027
1035
1042
1046
1049
1051
1055
1059
1060
1063
1066
1067
1069
1068
1065
1064
1062
1061
1059
1054
1052
1049
1044
1041
1040
1037
1034
1030
1024
1019
1015
1011
1008
1007
1004
1001
997
993
986
980
978
974
970
964
960
959
959
959
962
961
961
959
953
952
951
955
958
968
973
977
982
983
984
987
990
992
996
998
1000
1001
999
1000
996
987
979
965
952
938
930
923
920
920
922
925
925
926
922
922
921
920
920
919
919
920
921
923
927
929
931
930
928
925
922
918
915
914
918
929
946
982
1030
1091
1162
1243
1326
1392
1430
1425
1387
1327
1257
1180
1109
1045
984
926
873
836
818
819
837
865
888
901
905
897
891
881
876
874
872
872
872
869
873
869
870
870
868
864
860
857
854
857
857
858
859
859
856
855
851
853
853
855
857
861
861
862
867
869
876
878
884
884
888
891
900
908
918
925
936
946
951
958
965
971
979
985
995
1002
1010
1019
1027
1036
1045
1051
1060
1065
1070
1073
1078
1083
1090
1098
1100
1104
1104
1100
1100
1098
1095
1097
1097
1099
1100
1100
1096
1092
1087
1085
1083
1080
1078
1073
1072
1067
1063
1059
1057
1055
1050
1046
1041
1034
1028
1020
1016
1014
1012
1010
1005
1000
998
991
986
987
981
980
978
976
975
976
978
980
984
989
990
993
996
999
1006
1012
1017
1021
1026
1026
1026
1027
1025
1020
1014
1004
991
979
965
956
949
944
944
942
940
938
938
938
939
938
940
939
937
935
932
932
931
930
931
931
931
933
933
935
937
937
933
929
930
937
955
987
1033
1083
1140
1198
1260
1324
1377
1410
1406
1365
1291
1200
1105
1017
944
891
852
833
825
833
849
870
890
903
907
902
901
899
896
894
891
889
889
890
887
888
887
885
883
881
881
881
882
882
880
876
873
872
871
875
877
881
886
888
888
892
893
899
905
909
915
919
924
930
940
949
959
967
970
977
984
988
996
1006
1015
1025
1035
1045
1052
1060
1067
1073
1076
1081
1082
1086
1093
1097
1102
1107
1111
1111
1109
1108
1104
1100
1102
1100
1100
1096
1094
1089
1085
1081
1079
1076
1073
1068
1061
1056
1051
1047
1043
1041
1036
1030
1019
1016
1012
1007
1001
996
992
987
983
972
970
961
960
958
958
955
954
955
955
957
959
957
954
952
948
947
948
955
961
971
979
986
994
1001
1005
1012
1017
1019
1019
1017
1012
1007
1001
991
982
972
962
952
943
934
929
928
931
933
934
935
935
935
933
936
938
938
936
933
930
929
930
934
937
939
936
934
930
926
922
925
934
960
995
1044
1105
1176
1255
1328
1393
1432
1435
1401
1332
1241
1140
1048
965
894
839
798
777
774
790
815
839
864
873
875
873
868
863
859
857
855
856
852
851
848
851
852
855
855
855
855
851
849
848
846
846
849
850
851
853
855
859
862
863
864
865
863
866
872
877
885
892
900
905
904
908
910
914
919
928
937
946
953
962
968
972
978
987
991
997
1003
1009
1016
1023
1031
1040
1044
1051
1055
1057
1057
1059
1061
1065
1070
1076
1075
1075
1077
1072
1073
1068
1065
1062
1057
1053
1049
1048
1044
1043
1042
1039
1031
1024
1018
1009
1005
1001
997
994
990
985
982
974
969
963
961
959
956
953
951
945
945
945
943
944
946
945
943
941
938
938
939
942
947
952
956
962
965
970
976
980
983
990
993
999
1003
1007
1010
1011
1007
1004
997
985
973
960
953
947
943
937
935
930
927
924
923
922
922
924
921
922
922
921
920
921
923
921
926
923
921
917
921
920
920
921
920
916
913
915
931
960
1005
1063
1132
1204
1280
1352
1398
1413
1388
1329
1242
1151
1056
971
901
841
799
775
772
785
808
831
850
862
863
862
856
851
844
842
842
842
846
845
844
836
832
827
825
825
827
829
828
830
827
822
821
821
825
825
824
826
830
834
837
837
841
843
846
851
854
861
867
874
882
891
897
902
910
916
924
931
937
945
949
956
961
970
981
991
1000
1010
1015
1020
1026
1030
1040
1049
1056
1059
1059
1063
1062
1060
1065
1067
1068
1067
1066
1066
1063
1060
1060
1055
1052
1047
1040
1032
1025
1020
1016
1015
1014
1009
1003
997
992
986
981
977
969
962
958
954
952
954
955
955
951
946
944
942
939
938
942
945
950
954
958
963
970
978
984
987
988
993
997
1000
1003
1004
1004
1001
992
980
965
952
934
929
921
916
912
910
910
911
914
913
914
912
907
905
905
903
905
910
913
914
911
910
909
907
904
903
902
900
896
898
911
937
977
1032
1093
1163
1241
1317
1377
1410
1402
1355
1279
1189
1091
998
916
850
802
779
781
798
825
852
870
878
877
871
859
852
844
840
840
842
844
843
846
844
839
832
830
829
829
826
826
827
826
825
825
825
826
826
827
826
824
825
827
830
835
841
844
847
847
853
854
860
866
875
882
887
895
900
910
919
927
938
942
951
959
963
970
980
994
1004
1012
1020
1026
1030
1040
1043
1051
1058
1060
1063
1066
1069
1069
1073
1074
1073
1072
1073
1067
1062
1061
1061
1057
1056
1053
1045
1042
1038
1034
1033
1030
1021
1021
1014
1009
1005
1004
1003
1000
996
988
979
972
966
963
963
964
965
962
960
955
952
951
950
950
950
952
951
949
956
961
967
976
985
991
995
997
1001
1006
1006
1008
1011
1012
1014
1011
999
990
979
968
957
947
938
935
932
933
930
933
931
932
930
929
927
929
929
931
934
935
934
933
927
925
924
924
925
925
924
923
923
924
938
966
1004
1054
1111
1180
1249
1319
1373
1406
1404
1361
1286
1194
1096
1003
927
867
822
795
784
788
806
835
856
873
881
879
873
865
858
855
855
857
858
858
861
856
850
846
843
844
844
844
845
844
846
842
846
846
847
845
846
845
844
847
852
857
862
865
872
871
875
876
878
884
894
904
910
916
923
929
937
942
949
956
961
965
970
977
987
994
1002
1015
1022
1027
1033
1034
1036
1042
1047
1056
1063
1067
1071
1072
1072
1074
1074
1078
1074
1071
1070
1071
1067
1064
1063
1061
1058
1054
1048
1041
1035
1029
1026
1022
1018
1011
1011
1006
1003
998
996
993
988
981
973
965
960
956
955
952
951
947
940
935
930
925
926
928
929
933
932
932
929
927
929
929
934
936
941
949
957
962
971
979
985
989
992
993
992
989
989
990
990
983
974
964
956
942
933
926
920
918
915
912
911
911
915
921
923
925
921
920
917
916
914
916
919
921
922
923
924
921
919
914
912
910
912
926
952
994
1051
1120
1194
1276
1347
1402
1433
1435
1405
1343
1267
1179
1090
1002
923
854
802
769
762
774
797
822
845
862
868
865
864
858
853
849
842
840
839
838
841
843
844
844
841
837
834
832
829
831
831
830
830
832
832
835
838
841
841
842
841
840
840
843
846
852
859
866
869
872
877
880
882
888
892
900
909
913
916
921
928
933
941
948
954
957
962
970
976
985
999
1006
1014
1022
1022
1023
1026
1032
1035
1042
1047
1050
1049
1054
1055
1057
1056
1054
1052
1051
1048
1043
1040
1037
1038
1036
1032
1030
1024
1019
1012
1006
999
995
993
990
987
981
975
970
964
960
956
952
948
948
943
938
934
932
930
930
928
927
923
921
918
920
922
922
927
930
933
939
944
949
955
962
966
971
977
980
982
985
987
987
988
986
982
973
961
951
937
926
922
915
911
905
904
901
903
903
902
904
906
903
902
901
902
901
904
903
900
898
892
894
893
895
895
893
891
885
884
890
906
936
983
1042
1116
1196
1278
1350
1397
1402
1370
1303
1216
1121
1028
943
872
814
775
755
753
766
786
807
831
841
846
848
845
840
835
833
830
830
830
829
827
826
823
821
818
816
814
816
818
818
814
813
810
803
803
806
809
814
815
818
817
818
820
822
826
828
832
835
839
844
851
858
867
874
879
883
887
893
901
912
922
931
935
945
951
959
968
979
988
995
1002
1012
1019
1027
1035
1043
1046
1049
1050
1050
1051
1050
1052
1054
1056
1056
1055
1050
1047
1046
1041
1037
1036
1029
1025
1020
1017
1015
1013
1011
1006
999
994
988
983
979
974
971
964
963
960
955
948
945
945
942
942
938
933
933
931
935
935
937
938
938
940
941
944
949
958
965
972
977
981
984
988
989
992
992
986
980
973
963
953
944
936
928
919
911
902
896
895
896
895
897
897
897
899
896
895
897
897
897
898
896
893
894
891
895
896
896
894
890
886
885
892
916
956
1011
1079
1156
1239
1320
1387
1432
1447
1422
1366
1283
1187
1086
995
914
851
804
778
774
788
812
838
855
863
860
853
846
839
836
834
836
836
836
833
831
824
823
822
822
822
824
828
827
826
824
822
821
821
823
820
826
828
827
831
835
839
845
847
850
848
855
858
867
875
884
891
896
900
903
907
912
919
931
942
953
962
970
979
988
995
1003
1010
1014
1022
1025
1033
1040
1046
1053
1059
1061
1066
1067
1067
1067
1069
1072
1074
1076
1074
1070
1065
1059
1058
1054
1051
1045
1037
1033
1028
1023
1021
1021
1021
1019
1014
1007
1000
988
982
980
978
976
968
962
958
948
950
945
945
939
933
927
921
915
916
917
916
921
920
918
917
914
916
920
926
934
942
950
957
962
969
973
977
980
981
981
979
975
970
963
951
939
926
914
903
901
899
901
905
907
907
907
905
904
902
902
900
899
898
898
901
904
906
909
910
908
904
896
889
883
885
891
908
935
973
1024
1092
1171
1253
1331
1388
1408
1382
1316
1231
1132
1034
946
877
818
774
746
736
745
766
791
818
836
850
851
847
843
838
830
831
828
825
826
826
828
828
827
827
825
820
817
819
818
819
819
820
819
821
824
829
833
833
836
837
836
838
842
847
854
863
868
871
875
880
884
890
897
903
910
918
924
935
942
951
962
969
975
978
984
989
994
1001
1011
1022
1027
1033
1040
1044
1049
1051
1049
1048
1046
1044
1044
1043
1048
1049
1043
1040
1036
1027
1020
1012
1007
1006
1004
1002
996
992
987
978
972
968
961
954
951
947
942
940
938
936
934
928
921
915
910
903
901
903
905
908
911
914
915
916
917
916
915
915
919
925
934
947
955
963
968
971
972
973
976
976
977
971
966
958
949
941
929
921
914
908
902
899
899
897
901
897
899
899
902
900
899
899
899
901
900
902
902
903
904
903
903
902
898
892
886
889
902
930
975
1033
1108
1188
1273
1350
1408
1440
1434
1389
1316
1227
1135
1045
962
888
831
781
753
748
758
777
807
831
846
852
852
843
833
824
818
815
815
816
818
817
814
809
811
811
810
811
809
808
804
802
802
804
806
808
813
814
811
810
807
806
808
810
813
817
818
822
829
831
835
843
848
854
858
859
860
866
874
885
895
906
911
919
923
927
935
942
954
963
972
980
986
991
998
1006
1011
1017
1023
1024
1027
1030
1031
1036
1040
1040
1039
1037
1031
1027
1024
1023
1019
1018
1016
1014
1010
1001
997
993
992
988
982
975
967
961
960
955
952
952
949
945
936
928
920
916
918
919
917
916
915
913
910
908
909
910
908
911
912
916
920
930
940
950
953
953
959
961
963
966
967
968
964
960
953
941
932
922
911
903
896
888
884
882
883
884
886
885
887
882
882
882
882
883
884
886
884
885
885
886
887
887
883
879
876
871
870
879
903
944
996
1064
1141
1223
1308
1377
1420
1431
1401
1341
1258
1167
1071
982
900
833
784
760
760
778
807
833
852
855
851
842
831
823
820
818
818
820
817
817
816
813
813
812
814
811
808
802
797
796
798
801
804
804
805
805
806
803
805
810
809
814
816
819
821
828
831
838
845
850
853
856
864
871
877
888
898
906
918
924
934
943
954
963
973
979
985
992
1000
1009
1020
1026
1033
1037
1038
1042
1044
1048
1050
1056
1057
1059
1059
1056
1056
1053
1049
1046
1043
1043
1039
1034
1031
1027
1023
1021
1020
1016
1009
1003
997
992
988
988
985
983
978
973
966
961
958
955
950
949
944
943
939
938
939
938
938
935
932
930
926
924
927
934
942
949
958
963
968
971
971
973
978
981
982
984
981
975
972
963
952
940
924
911
900
892
889
889
894
895
897
895
892
891
890
889
891
892
893
891
893
889
892
893
897
899
898
897
893
887
882
882
885
896
916
946
988
1036
1091
1152
1221
1295
1358
1398
1397
1357
1284
1194
1098
1008
932
876
831
800
782
779
786
803
824
846
859
864
861
854
845
840
837
838
842
840
840
839
834
833
830
831
832
831
828
824
823
823
824
825
825
825
825
825
824
822
824
826
834
839
843
846
849
854
859
861
870
873
875
880
882
889
898
903
910
922
928
937
943
952
960
969
979
985
994
999
1004
1011
1018
1025
1032
1038
1040
1046
1047
1047
1048
1053
1054
1053
1057
1052
1050
1044
1041
1037
1037
1036
1033
1027
1021
1014
1009
1006
1002
994
983
986
982
979
977
975
968
961
951
943
937
933
930
928
926
923
918
913
908
905
903
901
900
899
896
895
893
893
894
900
902
906
908
912
918
924
928
939
947
952
958
957
962
962
965
962
954
943
930
919
908
903
900
898
894
891
888
886
889
888
887
886
886
887
