843
842
840
837
832
833
835
839
843
844
847
848
848
848
850
856
857
861
866
867
871
874
882
887
894
899
903
909
916
925
933
945
957
965
974
978
982
989
995
1005
1013
1020
1030
1036
1044
1051
1060
1065
1070
1072
1074
1076
1071
1071
1069
1072
1077
1081
1084
1079
1074
1072
1068
1067
1064
1065
1062
1057
1055
1049
1046
1045
1042
1036
1032
1026
1020
1014
1008
1003
1002
1001
1000
996
990
983
975
972
971
971
972
971
971
970
970
972
974
974
974
974
972
973
976
980
989
995
1005
1010
1015
1017
1018
1022
1025
1029
1029
1028
1029
1023
1018
1012
1002
993
984
973
963
959
952
952
953
956
958
963
962
960
961
958
956
955
959
961
965
966
965
967
967
967
966
965
963
961
960
957
955
960
973
997
1037
1089
1148
1218
1292
1364
1426
1469
1486
1470
1425
1352
1270
1181
1099
1022
963
913
876
853
849
858
876
901
919
933
935
929
921
912
910
909
911
911
914
912
905
901
896
893
894
896
898
897
897
896
895
894
895
898
899
903
903
905
906
907
905
913
917
920
924
929
933
935
935
936
941
946
953
959
963
966
970
973
974
981
990
998
1007
1016
1022
1031
1037
1043
1049
1051
1053
1056
1056
1063
1070
1079
1086
1091
1093
1095
1092
1096
1098
1099
1100
1102
1100
1098
1097
1091
1090
1088
1085
1083
1076
1070
1063
1057
1051
1049
1043
1043
1042
1039
1034
1026
1020
1010
1007
1002
1001
999
996
988
981
973
968
964
960
958
955
952
945
938
937
939
939
939
940
940
940
938
937
937
935
937
941
943
944
942
944
945
944
948
950
957
966
972
977
980
983
990
992
997
1000
1003
1003
998
998
997
990
984
975
960
950
940
931
929
930
930
936
937
938
938
935
934
931
929
929
929
928
930
930
931
930
931
934
936
936
933
928
922
920
915
916
922
948
982
1031
1089
1154
1220
1290
1355
1405
1431
1422
1382
1318
1238
1152
1065
989
922
868
823
799
795
805
824
844
862
873
880
879
874
871
866
864
866
867
867
864
864
864
861
862
862
859
858
857
853
852
854
856
858
861
863
862
861
860
858
859
862
866
869
874
879
881
884
885
888
891
894
898
900
904
909
913
922
928
934
937
939
942
942
948
954
961
970
977
984
989
993
996
1001
1007
1010
1018
1023
1028
1032
1036
1039
1041
1045
1049
1049
1049
1049
1046
1046
1046
1044
1048
1048
1048
1042
1036
1032
1026
1021
1015
1011
1006
1003
1001
999
994
989
984
980
972
967
961
959
953
950
947
945
946
945
942
938
936
933
931
933
933
934
934
935
938
936
934
932
930
929
928
931
933
936
937
943
947
950
956
961
963
968
969
971
972
974
980
986
990
989
983
977
968
957
947
938
932
927
923
914
910
906
899
900
899
900
903
903
901
902
903
903
905
903
905
905
904
900
901
902
902
905
905
902
898
892
893
907
935
983
1046
1119
1204
1290
1371
1432
1460
1455
1418
1357
1283
1204
1119
1040
969
904
848
811
792
795
812
833
855
869
876
874
870
865
861
857
855
856
854
854
853
854
850
848
844
842
843
848
849
850
849
850
846
844
845
845
846
853
853
855
858
858
859
859
862
867
870
872
876
878
883
889
897
902
905
911
914
916
923
927
936
948
956
965
970
974
980
986
998
1005
1014
1019
1025
1030
1036
1041
1050
1057
1062
1070
1072
1073
1076
1081
1086
1090
1091
1091
1092
1089
1085
1081
1076
1075
1073
1066
1063
1059
1055
1054
1053
1048
1045
1038
1028
1022
1016
1012
1013
1011
1010
1007
1000
998
993
990
988
987
986
983
982
981
982
986
987
987
985
984
983
986
989
996
1005
1016
1022
1030
1032
1037
1041
1043
1047
1048
1047
1044
1042
1038
1034
1032
1039
1052
1075
1106
1143
1192
1248
1313
1375
1433
1476
1510
1534
1551
1563
1569
1574
1574
1568
1557
1544
1531
1516
1512
1508
1502
1493
1475
1454
1422
1382
1333
1280
1224
1168
1113
1059
1006
957
917
888
862
842
824
813
804
801
799
798
797
794
791
781
776
773
765
762
759
760
757
757
753
748
741
736
730
728
727
723
726
727
727
726
727
726
728
729
731
731
731
733
739
748
758
767
773
779
781
784
790
795
809
821
833
844
856
866
878
890
903
912
921
930
938
949
958
970
980
989
995
1003
1002
1004
1008
1012
1014
1018
1024
1030
1031
1033
1036
1036
1037
1039
1039
1036
1037
1035
1034
1033
1031
1029
1029
1028
1026
1022
1020
1017
1013
1010
1009
1006
1007
1009
1006
1004
1000
998
996
992
994
995
996
994
995
993
992
994
996
994
995
994
992
990
990
991
993
994
995
993
991
988
986
986
989
990
994
994
993
992
988
991
993
996
1000
998
999
1000
1005
1010
1018
1029
1034
1037
1037
1038
1035
1037
1039
1042
1042
1037
1034
1024
1015
1000
991
982
976
971
966
961
965
967
970
972
971
972
969
963
962
961
964
966
969
971
971
971
969
967
964
964
961
956
952
950
957
980
1023
1082
1149
1223
1298
1375
1442
1485
1497
1466
1404
1313
1205
1094
994
909
844
808
800
813
840
869
891
905
911
911
911
910
904
903
899
895
894
896
899
903
904
902
898
895
894
894
894
895
897
899
901
904
907
908
910
914
917
917
914
914
917
921
925
931
939
944
946
947
951
950
958
958
963
968
973
979
984
993
1000
1008
1014
1018
1022
1026
1030
1032
1040
1046
1054
1056
1065
1070
1075
1081
1089
1098
1104
1111
1116
1118
1118
1120
1124
1127
1128
1126
1123
1120
1120
1116
1114
1114
1114
1107
1103
1092
1082
1074
1070
1061
1057
1050
1042
1035
1031
1026
1022
1017
1013
1004
998
989
983
981
983
982
982
983
981
977
975
976
978
978
980
979
979
978
980
982
987
988
987
986
984
984
988
994
1004
1013
1019
1023
1023
1024
1022
1025
1027
1027
1026
1023
1015
1008
998
986
979
974
968
961
956
951
948
947
947
952
954
956
955
954
950
948
946
949
951
953
954
951
950
952
952
952
952
950
946
940
934
939
959
1001
1062
1142
1233
1324
1407
1471
1497
1483
1439
1373
1308
1231
1153
1069
985
908
845
807
794
804
830
858
882
900
907
905
903
897
892
887
882
881
881
883
886
887
886
882
880
876
874
874
875
875
875
877
876
876
877
878
883
885
886
888
887
887
887
888
892
896
903
907
911
912
913
916
920
924
924
933
937
943
949
953
959
965
971
978
985
990
994
998
1006
1014
1023
1031
1038
1039
1044
1045
1049
1057
1062
1071
1078
1083
1085
1088
1089
1091
1095
1095
1098
1094
1090
1087
1087
1086
1084
1082
1085
1079
1072
1066
1058
1054
1049
1046
1041
1034
1029
1025
1018
1012
1008
1006
1003
1001
990
988
987
985
986
987
989
987
984
982
982
984
983
987
990
990
992
993
999
1005
1014
1021
1024
1027
1029
1033
1036
1040
1043
1048
1045
1038
1030
1017
1005
997
989
983
977
973
966
962
960
960
960
960
962
958
956
952
953
953
957
957
960
961
957
954
953
950
950
950
946
945
940
936
942
963
1004
1062
1131
1212
1297
1379
1444
1490
1508
1488
1439
1363
1274
1176
1083
997
924
865
833
825
839
864
891
909
921
924
919
910
901
896
893
895
898
900
901
900
895
891
886
888
884
884
886
889
888
888
888
889
890
888
892
891
891
891
893
897
904
907
911
914
914
914
915
917
921
930
938
942
952
954
960
965
971
977
985
992
1000
1006
1011
1017
1030
1039
1052
1058
1066
1071
1075
1080
1087
1097
1104
1113
1120
1125
1126
1128
1129
1130
1131
1137
1137
1139
1139
1136
1137
1135
1136
1135
1133
1128
1122
1118
1107
1108
1106
1104
1104
1099
1091
1086
1079
1072
1070
1065
1061
1058
1052
1051
1046
1041
1037
1036
1033
1031
1027
1021
1017
1018
1014
1015
1017
1021
1021
1022
1020
1019
1020
1025
1029
1035
1043
1051
1054
1057
1059
1061
1065
1065
1072
1073
1073
1071
1069
1064
1054
1049
1043
1031
1021
1010
1000
994
990
991
993
994
995
1000
998
994
993
993
994
994
998
998
997
996
993
993
994
994
995
994
991
986
977
971
976
991
1020
1063
1119
1180
1243
1313
1385
1447
1491
1510
1499
1455
1394
1318
1242
1164
1093
1033
981
939
912
899
905
918
940
962
977
985
983
978
972
964
958
958
958
961
970
973
972
970
968
965
963
965
965
966
967
966
966
963
963
962
964
967
971
972
972
975
976
980
987
992
1000
1002
1001
1000
1004
1008
1013
1019
1029
1040
1049
1053
1058
1063
1072
1082
1091
1098
1102
1106
1110
1116
1125
1134
1145
1152
1154
1156
1157
1163
1170
1176
1183
1184
1186
1185
1182
1180
1176
1180
1180
1178
1175
1174
1171
1170
1168
1165
1159
1154
1147
1136
1128
1122
1120
1120
1118
1114
1109
1102
1095
1087
1081
1072
1063
1056
1046
1039
1031
1028
1024
1020
1018
1011
1003
995
991
986
987
987
990
991
992
993
995
994
996
997
998
999
998
998
1001
1007
1015
1022
1032
1036
1036
1039
1042
1048
1053
1057
1059
1053
1047
1040
1032
1021
1011
1002
992
986
975
970
970
971
976
982
982
981
978
975
970
969
971
974
978
982
980
980
974
972
970
967
964
962
958
954
957
976
1010
1067
1135
1217
1304
1388
1457
1497
1495
1462
1398
1325
1241
1156
1074
1005
939
882
839
819
819
838
863
888
912
922
929
926
917
911
903
901
899
898
905
907
907
908
904
903
899
897
898
899
899
899
900
900
901
902
903
905
910
911
909
910
912
911
918
923
928
931
937
939
940
940
945
952
958
964
971
975
977
980
983
988
997
1002
1009
1015
1019
1026
1035
1040
1049
1058
1065
1068
1072
1075
1079
1086
1091
1099
1103
1107
1108
1110
1110
1112
1116
1117
1118
1116
1114
1108
1106
1103
1104
1102
1102
1097
1092
1083
1075
1069
1065
1061
1058
1057
1055
1050
1044
1036
1031
1025
1019
1018
1013
1011
1008
1004
999
995
992
987
988
982
979
978
976
976
978
981
983
986
987
987
984
986
985
983
984
987
990
993
998
1001
1004
1010
1015
1021
1027
1030
1029
1030
1032
1036
1041
1046
1051
1051
1048
1042
1034
1020
1009
1000
989
982
979
973
969
967
966
967
970
970
971
973
970
969
966
963
963
965
968
968
968
965
964
962
963
963
960
959
954
945
941
945
958
985
1031
1090
1164
1247
1333
1411
1470
1494
1479
1430
1354
1259
1162
1070
992
923
870
834
818
826
849
873
898
916
923
924
921
916
910
909
907
907
906
908
907
907
905
903
902
902
901
901
903
902
902
902
900
897
898
898
902
905
907
911
913
913
913
913
916
919
923
927
930
935
938
946
952
959
965
971
974
976
977
987
995
1004
1014
1021
1027
1034
1040
1045
1051
1059
1066
1075
1085
1093
1097
1104
1112
1118
1123
1127
1128
1127
1130
1130
1135
1139
1141
1144
1147
1146
1141
1138
1134
1130
1129
1128
1127
1126
1121
1118
1113
1107
1106
1104
1098
1093
1086
1078
1073
1069
1067
1067
1065
1062
1056
1051
1042
1038
1035
1033
1035
1036
1037
1036
1033
1029
1030
1027
1026
1027
1026
1028
1030
1031
1037
1045
1055
1063
1069
1074
1073
1074
1077
1080
1087
1092
1097
1093
1089
1083
1074
1063
1053
1044
1034
1024
1017
1014
1015
1023
1042
1068
1101
1140
1177
1219
1263
1312
1358
1402
1433
1461
1484
1507
1529
1546
1560
1570
1577
1575
1569
1559
1543
1529
1521
1513
1511
1506
1500
1490
1475
1458
1434
1402
1363
1314
1261
1203
1147
1095
1050
1007
968
933
902
877
860
851
848
845
845
845
843
839
836
833
828
823
818
815
808
806
803
800
799
794
792
787
785
785
784
787
787
786
781
776
774
771
773
776
781
786
792
796
797
803
808
814
819
824
831
837
843
850
857
870
883
889
900
908
916
925
937
949
961
973
984
993
1004
1015
1025
1034
1044
1055
1063
1070
1077
1081
1087
1089
1096
1100
1102
1103
1105
1103
1101
1100
1096
1100
1098
1100
1098
1095
1092
1088
1083
1080
1075
1072
1069
1062
1059
1054
1054
1052
1052
1048
1042
1036
1028
1023
1023
1021
1023
1025
1026
1023
1020
1017
1016
1016
1013
1017
1019
1018
1016
1014
1014
1017
1016
1020
1020
1018
1015
1013
1009
1009
1013
1020
1026
1032
1036
1040
1039
1042
1044
1050
1055
1061
1064
1065
1065
1064
1062
1061
1057
1050
1039
1026
1013
1003
998
992
987
986
983
981
979
975
975
976
978
978
978
977
980
978
978
979
979
979
979
977
977
973
972
967
961
956
954
964
987
1030
1083
1149
1223
1305
1383
1448
1484
1486
1448
1383
1301
1204
1103
1013
935
870
822
794
791
807
832
860
883
895
907
910
909
908
904
904
902
900
897
894
892
894
892
894
893
890
890
892
893
896
896
898
896
896
898
899
905
911
913
917
921
924
925
929
932
936
938
943
946
948
952
957
963
971
978
982
985
990
993
999
1005
1011
1020
1030
1040
1046
1053
1059
1065
1072
1079
1087
1093
1099
1101
1109
1115
1119
1121
1123
1121
1120
1119
1120
1122
1127
1128
1130
1123
1118
1111
1103
1098
1093
1087
1084
1080
1074
1068
1063
1055
1049
1043
1039
1029
1021
1012
1006
1001
998
996
995
993
988
983
978
973
973
972
973
975
973
974
972
970
975
977
981
981
982
981
979
977
979
978
984
986
992
994
998
1002
1006
1005
1015
1019
1026
1031
1031
1033
1032
1031
1027
1027
1021
1009
998
986
972
964
959
955
955
954
952
950
947
949
947
950
955
957
958
957
954
953
951
950
952
950
952
948
945
941
939
934
928
927
933
949
979
1027
1087
1156
1239
1321
1393
1448
1467
1448
1396
1321
1234
1142
1053
975
902
844
801
785
793
817
848
877
898
905
904
899
895
890
890
888
888
887
883
882
879
881
882
879
881
878
875
871
871
871
869
872
871
870
868
870
872
876
881
884
886
887
886
884
883
884
888
893
899
905
908
911
911
914
920
925
932
937
940
945
949
955
962
971
978
986
991
996
1002
1007
1013
1021
1030
1042
1049
1055
1058
1062
1062
1066
1070
1075
1080
1085
1087
1090
1092
1093
1095
1094
1096
1094
1094
1090
1085
1083
1080
1080
1079
1077
1075
1067
1061
1055
1047
1042
1038
1034
1031
1026
1020
1014
1011
1008
1005
1002
1000
996
994
995
994
996
1000
999
999
996
995
993
996
1001
1006
1015
1020
1024
1028
1030
1029
1034
1037
1041
1043
1044
1042
1042
1037
1033
1026
1017
1003
989
978
970
964
961
959
964
968
968
969
964
964
964
963
963
962
961
958
956
957
958
962
966
966
962
959
953
946
940
938
946
966
1003
1055
1122
1201
1285
1368
1435
1480
1486
1461
1406
1335
1247
1163
1078
1001
930
876
849
850
871
898
925
941
945
938
925
914
908
902
904
905
902
903
900
900
900
901
904
903
907
900
896
893
889
890
892
896
898
898
900
897
898
898
900
903
906
908
910
910
913
915
922
929
933
934
940
943
949
957
967
977
987
996
1003
1009
1014
1018
1028
1037
1048
1056
1063
1073
1084
1095
1107
1117
1124
1128
1130
1130
1129
1134
1139
1146
1153
1157
1161
1161
1158
1155
1155
1155
1155
1153
1152
1148
1144
1140
1139
1137
1137
1135
1133
1128
1119
1114
1109
1106
1104
1106
1102
1097
1092
1086
1080
1077
1074
1070
1068
1066
1061
1060
1057
1059
1060
1062
1061
1061
1058
1055
1054
1056
1058
1063
1067
1069
1075
1080
1086
1096
1103
1107
1115
1120
1122
1126
1129
1135
1134
1137
1134
1128
1116
1105
1093
1083
1079
1075
1072
1065
1059
1057
1054
1054
1054
1055
1057
1057
1056
1059
1059
1060
1063
1061
1062
1059
1055
1050
1049
1050
1050
1049
1043
1038
1033
1038
1053
1082
1131
1197
1272
1354
1427
1482
1503
1487
1435
1363
1275
1181
1100
1033
980
940
908
893
891
906
929
952
972
981
982
976
971
966
958
952
951
950
950
948
949
949
945
943
942
941
935
937
935
936
936
934
933
931
932
932
934
940
941
947
948
952
952
953
952
955
959
963
966
973
977
986
994
998
1001
1003
1007
1008
1011
1014
1019
1029
1039
1052
1061
1069
1074
1077
1079
1085
1091
1096
1104
1109
1115
1115
1118
1122
1126
1129
1133
1134
1135
1132
1132
1133
1132
1134
1128
1123
1112
1109
1105
1103
1103
1101
1098
1095
1089
1082
1075
1069
1059
1055
1050
1045
1040
1033
1027
1021
1020
1016
1014
1009
1002
996
989
979
971
967
967
965
965
964
963
958
955
950
950
949
950
951
953
952
956
957
959
962
964
963
964
964
967
973
980
991
1002
1010
1018
1021
1023
1023
1024
1023
1021
1019
1009
1002
994
986
978
969
965
957
949
943
939
935
939
941
946
950
950
948
945
942
940
942
942
944
946
948
945
945
944
941
939
935
926
922
922
934
969
1023
1089
1165
1243
1322
1387
1435
1464
1459
1423
1363
1285
1195
1101
1009
926
851
799
772
774
793
818
843
864
880
888
890
889
887
882
873
868
865
864
862
867
868
869
870
870
868
865
864
862
862
863
860
862
863
862
867
872
876
882
884
884
883
882
880
885
889
897
903
906
911
912
914
917
922
928
934
940
946
950
957
961
970
977
984
991
993
997
1002
1008
1015
1023
1035
1040
1048
1052
1054
1058
1062
1068
1074
1080
1083
1085
1085
1085
1085
1083
1083
1085
1086
1083
1078
1074
1071
1069
1065
1063
1057
1051
1040
1034
1029
1025
1020
1019
1014
1011
1005
1000
995
989
983
983
977
973
968
963
957
955
954
956
957
956
957
954
946
944
946
950
953
955
959
960
960
959
961
963
969
975
981
988
989
993
998
1000
1004
1010
1013
1015
1015
1012
1008
1005
1001
994
988
976
963
955
946
935
929
929
928
931
932
930
931
929
927
929
932
931
930
929
924
926
928
926
929
929
930
930
925
918
910
902
903
908
925
948
986
1036
1100
1172
1251
1329
1393
1439
1449
1426
1379
1309
1234
1150
1075
1004
938
878
825
794
783
796
822
850
877
895
898
893
885
876
869
865
865
867
870
870
866
864
865
861
862
863
859
859
859
856
857
856
860
861
861
861
861
857
852
853
853
856
862
865
868
870
871
872
873
875
878
881
885
889
895
897
901
907
918
925
934
936
942
944
951
963
973
982
992
1000
1003
1009
1014
1017
1025
1035
1043
1053
1060
1065
1069
1073
1079
1083
1087
1089
1090
1090
1087
1089
1090
1091
1094
1092
1093
1090
1087
1082
1077
1073
1073
1072
1070
1068
1063
1058
1052
1046
1043
1039
1037
1029
1023
1017
1010
1008
1007
1004
1005
1002
998
993
990
988
988
991
995
995
994
994
992
993
997
1002
1007
1012
1015
1019
1026
1029
1034
1038
1046
1047
1050
1050
1047
1041
1038
1031
1022
1012
1002
991
977
968
968
967
970
972
972
971
971
965
966
966
