1003
1006
1007
1008
1004
999
988
981
968
958
950
945
941
936
931
926
920
917
915
916
919
919
921
921
921
920
921
922
922
920
915
911
912
912
912
914
916
914
906
902
899
908
926
967
1016
1078
1138
1203
1266
1328
1379
1407
1402
1366
1305
1225
1139
1051
970
893
829
783
757
754
766
791
813
835
847
854
853
848
843
838
831
828
828
826
828
827
824
823
819
819
813
818
816
816
816
812
808
806
803
804
808
809
812
812
810
810
809
809
813
815
818
824
827
831
835
836
840
845
849
854
859
862
868
876
885
894
902
909
915
920
925
932
941
951
960
969
975
983
989
995
1001
1007
1012
1016
1017
1020
1021
1025
1029
1032
1035
1038
1034
1032
1028
1026
1023
1021
1020
1020
1018
1015
1011
1008
1004
999
993
989
980
975
968
965
961
960
959
955
949
942
937
931
928
925
925
928
927
927
925
923
920
917
916
917
920
924
927
932
936
943
950
955
959
962
961
962
961
960
963
967
968
969
965
956
944
930
917
906
901
896
895
895
895
894
893
894
892
893
892
891
892
887
889
890
889
894
897
899
900
898
897
895
892
890
891
889
889
889
898
919
955
1005
1069
1141
1222
1298
1360
1401
1412
1390
1340
1266
1182
1100
1018
942
876
823
793
782
790
813
840
861
871
872
867
857
851
843
840
839
842
841
841
840
840
837
834
828
823
818
819
821
823
824
823
822
818
817
817
818
819
819
820
824
825
827
830
831
832
835
838
839
842
844
847
854
861
870
879
886
892
898
902
906
914
922
930
941
951
957
966
973
981
990
1000
1008
1015
1016
1025
1031
1037
1045
1051
1054
1055
1054
1053
1053
1054
1052
1060
1060
1060
1057
1053
1053
1049
1046
1042
1038
1033
1029
1022
1018
1014
1009
1009
1010
1007
1002
996
985
979
975
971
967
964
958
950
945
944
940
942
940
938
934
933
926
928
929
930
931
934
936
937
936
944
952
959
967
969
971
977
977
980
984
985
985
978
969
958
947
934
927
920
913
911
905
903
901
900
902
906
908
907
907
906
902
902
901
906
904
905
903
904
906
907
911
910
910
907
901
902
909
941
987
1052
1128
1211
1294
1364
1405
1406
1368
1300
1216
1124
1041
978
927
886
849
818
799
795
805
826
850
866
873
874
872
865
859
856
855
859
860
862
861
859
856
851
849
846
847
849
850
850
850
850
850
852
854
853
855
855
860
861
863
868
871
875
880
883
885
891
893
905
915
923
931
934
939
942
946
954
961
973
982
990
1000
1009
1012
1021
1024
1033
1039
1045
1046
1052
1057
1064
1072
1079
1086
1088
1088
1089
1086
1087
1088
1087
1090
1090
1086
1084
1078
1073
1069
1066
1061
1057
1053
1046
1046
1041
1036
1034
1031
1025
1019
1015
1008
1000
996
995
992
988
982
974
964
958
952
949
946
940
937
937
934
934
935
937
936
937
933
931
931
928
935
940
950
959
967
974
980
986
991
997
1000
1003
1002
1003
998
996
995
992
984
973
958
946
934
924
921
921
927
928
929
929
927
926
926
924
927
927
931
929
929
929
932
933
932
934
927
928
923
918
915
915
918
929
950
982
1029
1086
1152
1227
1301
1365
1398
1397
1360
1294
1210
1120
1032
956
899
857
823
794
777
779
793
813
840
859
874
876
878
870
868
863
860
857
857
857
856
860
861
864
863
860
856
853
847
846
850
849
853
858
861
860
858
857
860
862
864
872
878
884
887
893
899
904
908
911
914
917
925
933
945
951
958
963
967
969
976
979
988
996
1001
1008
1012
1020
1032
1042
1052
1059
1061
1062
1064
1063
1064
1069
1073
1076
1078
1076
1077
1076
1071
1068
1067
1062
1057
1052
1048
1046
1044
1046
1044
1040
1028
1021
1009
1003
998
994
994
990
982
979
975
970
965
962
956
951
945
941
935
935
935
934
934
935
932
932
931
931
931
933
935
936
937
942
945
951
959
965
974
982
985
989
993
997
1002
1004
1003
996
987
976
965
954
942
936
927
925
922
921
922
924
923
921
917
913
914
914
917
919
921
925
922
920
918
914
915
911
909
908
903
899
904
921
951
995
1050
1115
1187
1267
1338
1382
1386
1347
1275
1179
1072
974
886
817
765
738
735
750
774
803
825
845
853
852
844
835
828
822
820
823
824
825
824
825
822
820
817
816
815
811
810
808
805
801
807
810
813
813
811
808
806
808
812
813
818
823
827
827
830
833
837
842
848
855
858
861
869
874
882
892
899
905
910
913
914
920
925
935
944
955
966
973
979
984
990
997
1000
1008
1012
1017
1017
1021
1020
1023
1025
1028
1029
1029
1024
1022
1020
1017
1017
1015
1012
1009
1003
997
992
987
982
977
973
968
963
958
953
948
944
940
936
929
924
917
911
909
909
907
908
908
906
904
902
897
895
895
894
896
900
903
905
915
921
934
940
946
948
948
951
952
957
961
965
964
960
950
940
924
915
904
896
889
885
883
885
886
890
894
893
895
892
884
883
881
877
883
886
890
893
890
890
889
887
888
888
889
889
886
883
882
883
895
923
967
1024
1091
1169
1252
1326
1377
1392
1361
1301
1219
1128
1037
961
895
840
799
770
755
760
778
803
829
845
851
849
839
831
824
821
822
823
827
826
826
822
817
809
809
808
810
810
810
810
809
809
810
811
811
809
810
809
811
815
819
825
831
835
838
841
845
849
856
862
867
874
880
885
890
900
907
917
924
930
935
940
949
960
970
978
989
997
1003
1006
1011
1016
1022
1027
1033
1037
1037
1038
1040
1040
1044
1043
1043
1041
1035
1031
1027
1027
1024
1024
1020
1016
1009
1002
994
990
986
981
976
973
970
964
963
958
953
949
942
936
928
922
919
918
918
917
916
914
911
908
906
905
906
904
902
901
902
906
914
923
932
943
946
947
950
954
956
961
966
972
973
969
962
955
944
933
924
914
907
901
895
891
892
894
898
898
896
895
896
894
896
898
901
904
903
904
904
903
903
903
903
903
903
904
898
896
895
903
917
943
980
1026
1075
1126
1182
1248
1315
1366
1379
1353
1289
1204
1104
1010
928
866
820
789
771
768
778
792
813
831
847
857
860
859
854
847
843
845
845
847
846
844
841
837
836
837
836
838
842
842
839
838
836
836
835
837
839
840
843
842
844
846
851
858
863
867
866
866
865
868
873
881
889
896
903
907
909
913
917
922
934
941
947
953
961
962
969
977
986
996
1002
1007
1010
1013
1018
1028
1037
1045
1053
1058
1060
1060
1060
1059
1058
1060
1064
1065
1065
1063
1061
1057
1056
1054
1051
1046
1039
1033
1023
1020
1018
1016
1017
1015
1012
1006
999
989
983
979
978
976
971
967
963
956
948
944
942
935
933
927
922
915
913
912
915
915
917
915
914
908
906
906
908
912
919
926
932
940
947
953
956
962
966
970
972
975
976
978
975
974
972
963
952
939
929
920
912
914
914
914
912
914
911
910
909
909
909
909
911
910
910
911
913
916
919
919
919
916
914
908
907
904
906
911
926
958
1006
1068
1144
1228
1308
1379
1424
1428
1394
1327
1238
1134
1030
940
863
804
766
753
762
787
815
839
856
864
867
862
855
848
841
840
837
837
835
836
838
838
837
832
829
828
828
828
828
829
829
827
828
829
831
833
832
833
835
836
838
841
846
850
858
862
864
867
868
870
874
880
887
894
902
906
911
917
927
932
939
944
950
951
955
962
972
982
991
1000
1004
1008
1009
1015
1022
1025
1029
1032
1033
1033
1033
1031
1031
1031
1033
1032
1028
1023
1019
1014
1013
1010
1008
1004
994
983
976
971
968
966
963
961
956
949
941
935
930
929
925
919
915
911
907
905
903
908
912
908
907
907
902
899
900
901
905
911
917
925
936
942
949
953
957
959
959
958
958
960
962
963
963
957
946
933
916
904
894
888
885
884
884
885
884
883
881
883
879
881
883
880
879
879
880
883
887
888
891
890
889
888
883
881
879
877
876
878
887
899
934
978
1037
1107
1185
1269
1344
1399
1420
1407
1356
1285
1196
1105
1018
941
871
814
773
753
753
770
799
825
841
849
849
842
834
827
821
819
817
818
818
821
822
819
817
812
808
804
802
804
808
808
810
808
802
801
797
798
800
803
803
805
808
807
813
817
821
829
832
831
830
832
833
838
845
855
864
869
876
881
886
891
898
905
914
924
932
937
944
950
954
963
973
980
987
988
998
1005
1010
1022
1029
1035
1038
1039
1040
1036
1033
1032
1035
1035
1038
1037
1034
1030
1027
1023
1021
1017
1013
1007
998
994
988
986
983
984
982
976
968
962
957
949
944
943
940
940
936
927
926
921
918
917
914
913
910
907
905
901
901
901
905
908
911
913
918
923
929
937
944
950
956
960
963
966
969
968
967
967
961
955
946
936
929
922
914
907
901
893
888
887
886
891
896
899
899
899
897
894
891
892
897
897
897
897
898
899
900
902
904
905
901
898
895
900
923
961
1016
1079
1155
1237
1317
1383
1420
1420
1379
1308
1223
1130
1039
960
899
849
814
788
779
779
791
812
834
854
866
871
869
864
858
854
846
844
842
840
844
844
844
843
840
842
842
841
841
841
840
836
834
837
839
843
848
851
851
852
849
853
858
863
869
875
880
886
887
890
893
899
905
908
913
918
924
930
938
947
958
967
973
974
978
984
989
996
1005
1016
1026
1030
1031
1035
1042
1046
1051
1055
1059
1060
1062
1059
1060
1063
1063
1066
1066
1066
1057
1051
1044
1041
1038
1036
1036
1034
1031
1028
1023
1017
1011
1006
998
994
989
982
980
977
976
973
969
965
957
949
947
939
934
931
926
923
925
924
919
915
913
913
912
911
911
908
909
907
907
909
915
922
930
937
943
946
949
955
962
967
972
977
979
979
977
978
972
970
966
962
958
946
933
924
917
908
905
906
907
908
905
904
904
908
907
910
911
910
909
907
905
905
906
910
911
913
913
912
910
907
905
902
902
908
924
956
1000
1050
1105
1174
1247
1319
1379
1411
1403
1356
1278
1190
1098
1013
937
870
811
769
747
742
755
779
806
831
846
852
853
850
844
843
844
840
839
835
832
837
839
840
841
841
839
832
830
830
831
834
834
838
838
838
838
839
840
843
844
846
849
849
849
851
854
860
864
870
875
881
882
882
886
893
898
907
915
920
926
932
936
943
946
949
955
962
966
973
982
990
999
1009
1014
1018
1022
1025
1027
1032
1036
1039
1039
1041
1040
1039
1038
1040
1037
1036
1031
1027
1021
1015
1013
1009
1007
1007
1001
996
989
981
974
971
967
960
954
952
945
941
937
934
929
924
918
910
905
905
906
908
907
907
904
903
900
898
898
901
902
909
915
921
928
937
945
946
952
954
953
954
955
955
957
960
958
952
941
926
913
903
895
887
884
881
880
881
883
884
886
887
887
884
883
878
874
875
875
879
884
884
886
885
881
878
877
872
868
863
864
871
891
925
977
1043
1116
1198
1278
1346
1386
1385
1350
1283
1196
1100
1004
912
839
786
749
735
739
765
795
818
835
841
842
837
829
821
814
810
811
812
816
817
816
815
811
810
805
800
799
798
798
801
802
801
800
801
799
801
801
805
803
802
804
806
808
815
819
825
830
833
835
841
845
850
856
862
870
876
882
889
897
905
912
917
924
927
935
943
956
966
975
984
989
995
1000
1007
1009
1014
1018
1022
1027
1026
1027
1029
1034
1037
1033
1029
1024
1021
1019
1018
1018
1018
1017
1011
1007
1003
996
991
987
982
980
977
975
968
965
957
954
953
947
942
937
931
926
924
921
926
925
925
924
919
918
915
914
916
918
922
927
931
939
943
951
954
958
963
962
965
965
967
970
972
972
970
966
952
937
924
913
907
901
896
899
899
896
895
898
900
900
898
895
894
891
888
893
894
898
901
902
902
898
896
894
893
893
896
895
896
897
908
931
971
1025
1093
1172
1259
1339
1400
1425
1411
1364
1295
1215
1130
1055
989
929
876
833
802
793
802
824
848
862
871
869
863
851
846
839
838
837
836
838
839
841
837
833
829
825
821
817
823
822
824
825
825
824
823
824
823
824
823
821
825
825
828
831
838
844
846
849
851
855
858
864
873
879
887
893
894
901
909
915
922
933
942
947
955
963
976
985
996
1003
1010
1013
1011
1019
1027
1034
1041
1047
1052
1055
1057
1058
1055
1056
1056
1055
1055
1051
1050
1049
1048
1046
1045
1042
1034
1029
1023
1016
1015
1013
1009
1004
1000
996
994
990
986
980
975
970
962
956
953
948
948
948
947
944
938
936
930
929
929
928
934
935
937
941
947
954
960
969
975
977
980
980
983
988
991
999
1003
1004
999
991
981
969
958
949
941
933
928
925
924
925
926
927
926
926
925
915
919
914
920
923
925
927
924
921
921
922
923
924
924
922
918
915
918
934
964
1009
1071
1151
1237
1326
1405
1456
1474
1449
1386
1303
1208
1113
1021
942
881
836
812
810
827
852
876
895
902
899
891
879
871
867
866
868
868
871
870
866
863
859
854
852
850
853
853
853
850
852
853
852
854
853
855
852
853
854
855
863
868
874
877
881
884
888
892
898
907
912
921
928
932
942
950
957
966
975
985
992
997
1004
1014
1022
1031
1036
1045
1052
1060
1066
1071
1078
1082
1085
1088
1092
1095
1098
1099
1101
1104
1098
1091
1089
1088
1085
1084
1081
1080
1078
1072
1066
1060
1054
1051
1050
1050
1042
1039
1033
1026
1020
1015
1011
1011
1006
1000
992
983
976
974
968
967
971
967
961
957
950
946
946
949
948
949
950
949
951
952
956
962
967
974
977
980
983
988
995
1004
1013
1016
1021
1024
1024
1020
1016
1009
995
983
971
959
951
947
948
947
949
946
944
941
938
939
941
944
946
951
950
948
946
941
941
942
945
946
950
949
948
948
948
943
941
942
953
980
1022
1077
1147
1226
1308
1381
1435
1460
1438
1382
1307
1224
1145
1063
992
930
876
832
806
803
815
835
858
878
890
894
893
892
889
886
887
886
883
877
874
869
867
867
868
867
869
870
872
874
874
874
871
873
872
872
873
875
878
880
883
885
886
889
890
894
899
904
907
913
915
920
924
927
934
940
947
953
956
961
967
975
982
992
1001
1007
1012
1014
1017
1021
1025
1036
1044
1053
1059
1064
1069
1073
1076
1079
1082
1085
1087
1088
1086
1084
1086
1089
1090
1089
1084
1078
1071
1067
1062
1057
1055
1056
1054
1047
1040
1035
1029
1025
1021
1016
1013
1008
1003
998
994
992
988
984
978
974
968
962
958
956
953
955
956
955
952
949
944
942
940
942
943
948
949
951
948
952
952
954
959
963
968
975
979
985
992
997
1004
1010
1015
1016
1014
1013
1007
1006
1004
1002
993
981
971
961
952
947
947
945
946
944
942
937
935
937
936
938
943
943
940
938
937
937
935
939
944
944
944
944
941
938
935
933
935
945
969
1010
1066
1134
1213
1294
1374
1436
1470
1475
1437
1373
1289
1200
1108
1023
949
885
832
796
783
788
811
836
858
875
884
887
882
879
873
868
864
863
861
859
856
858
858
858
859
859
857
854
854
853
853
853
849
848
850
853
853
856
859
859
863
865
863
867
868
871
876
883
886
890
895
896
902
906
911
916
923
927
930
936
940
947
954
963
970
978
983
988
990
995
1002
1013
1023
1029
1035
1040
1042
1048
1051
1057
1060
1069
1070
1074
1073
1072
1075
1072
1071
1072
1069
1062
1057
1055
1051
1050
1048
1047
1044
1035
1029
1023
1013
1008
1005
1001
997
993
991
986
979
976
971
970
965
959
954
950
947
948
950
955
958
957
956
952
947
948
949
955
961
967
974
979
984
994
1001
1006
1006
1010
1012
1013
1015
1016
1018
1019
1018
1015
1006
993
977
963
954
946
942
940
941
937
941
938
937
936
936
937
936
934
932
933
934
934
939
939
938
935
934
931
931
931
932
930
929
930
937
960
993
1042
1101
1169
1244
1317
1381
1433
1454
1440
1391
1319
1233
1140
1048
966
894
835
802
792
803
827
857
881
894
900
894
888
879
871
869
865
867
868
870
873
871
868
864
857
852
852
852
854
858
859
860
857
855
854
854
853
855
858
857
861
862
864
868
875
880
883
886
887
886
889
895
904
912
922
929
936
941
944
948
954
962
967
974
983
989
998
1006
1016
1024
1031
1038
1046
1049
1056
1063
1072
1080
1085
1091
1096
1096
1095
1094
1092
1091
1094
1094
1095
1094
1091
1089
1081
1077
1078
1075
1070
1064
1057
1050
1047
1041
1037
1035
1031
1025
1021
1014
1008
999
996
991
985
980
975
975
974
973
973
971
969
962
956
957
959
957
956
956
959
962
966
973
981
988
998
1004
1012
1014
1018
1022
1025
1029
1024
1022
1014
1008
995
986
977
967
962
956
951
952
951
953
952
951
952
949
949
947
948
950
952
956
954
954
953
951
951
953
952
953
953
952
950
951
960
985
1024
1075
1144
1223
1305
1383
1442
1471
1459
1402
1327
1235
1141
1048
970
915
869
836
819
817
827
854
880
901
913
917
909
900
891
886
885
887
889
886
886
883
883
877
875
876
878
882
885
886
886
883
882
882
883
884
884
883
886
889
892
898
906
910
915
917
920
920
925
933
942
951
955
962
963
968
972
979
987
992
1000
1008
1016
1021
1026
1036
1045
1053
1059
1063
1068
1072
1078
1087
1093
1098
1105
1107
1107
1109
1108
1110
1112
1111
1109
1109
1103
1099
1098
1099
1099
1096
1091
1083
1078
1074
1067
1065
1061
1058
1056
1048
1040
1034
1026
1024
1022
1019
1014
1014
1012
1003
996
990
987
985
984
982
977
971
966
966
965
967
971
974
975
972
969
967
965
964
965
969
971
979
984
989
999
1010
1017
1019
1021
1023
1023
1026
1031
1035
1035
1037
1033
1022
1010
1000
988
977
968
964
964
962
963
965
963
964
962
962
960
954
954
954
955
959
964
964
965
962
960
958
957
957
957
957
956
953
954
958
975
1006
1057
1116
1186
1263
1344
1411
1464
