963
987
1024
1073
1134
1208
1290
1373
1443
1485
1486
1444
1373
1288
1196
1107
1029
961
905
855
824
808
812
829
854
879
900
913
917
914
903
897
892
891
889
890
888
888
890
894
895
897
894
890
887
885
885
884
885
889
892
893
895
898
898
902
904
905
906
905
907
911
914
918
926
934
937
941
944
946
948
952
959
963
972
976
983
989
992
992
994
1000
1005
1009
1019
1026
1032
1038
1046
1052
1058
1065
1068
1072
1075
1077
1080
1085
1090
1095
1099
1100
1098
1095
1090
1088
1086
1084
1085
1083
1078
1072
1068
1061
1059
1056
1053
1048
1041
1032
1022
1016
1014
1014
1013
1009
1003
993
985
976
969
966
966
965
962
959
954
949
944
939
938
938
935
933
930
928
928
931
935
937
940
942
940
941
939
938
938
943
945
947
948
945
944
948
952
960
969
975
976
979
981
985
993
998
1001
1003
996
988
977
961
950
942
936
931
928
927
924
922
920
921
921
920
919
918
918
922
929
927
928
928
924
922
919
918
920
921
920
915
910
905
907
922
956
1013
1082
1165
1253
1339
1409
1466
1495
1487
1445
1374
1281
1176
1070
967
881
816
780
769
784
810
838
861
874
882
881
876
871
864
860
858
859
861
861
862
862
859
855
851
850
850
851
853
856
858
856
852
850
849
849
850
855
857
859
860
862
863
867
871
873
876
876
876
876
880
886
894
899
903
906
910
907
910
916
923
930
935
943
945
951
957
964
968
973
977
981
983
987
992
998
1005
1013
1019
1022
1025
1026
1024
1027
1027
1029
1034
1035
1037
1033
1031
1029
1027
1023
1019
1017
1011
1004
998
996
991
993
988
984
977
970
961
955
948
946
945
941
942
935
932
930
929
926
924
922
921
920
922
923
927
932
934
935
933
932
929
926
930
933
941
946
954
962
965
966
970
970
974
977
977
979
977
979
976
971
970
964
953
938
926
916
907
902
904
905
907
906
907
907
904
904
902
904
905
902
903
902
902
903
903
906
908
908
905
900
894
888
884
883
888
902
927
965
1017
1083
1159
1248
1336
1412
1458
1460
1422
1356
1269
1177
1089
1016
947
885
835
805
802
814
839
866
882
887
882
872
863
859
856
856
858
864
863
861
858
857
854
854
851
849
848
847
847
846
848
850
854
853
851
849
850
847
846
848
853
859
859
862
864
867
866
871
873
878
880
883
886
888
893
899
906
912
918
924
927
930
936
943
951
961
968
979
986
992
996
1001
1007
1015
1022
1032
1039
1040
1048
1052
1059
1064
1070
1072
1078
1078
1076
1077
1076
1080
1082
1086
1089
1089
1084
1077
1070
1067
1063
1066
1065
1062
1063
1056
1051
1044
1043
1039
1037
1037
1030
1025
1020
1015
1010
1007
1006
1006
1000
998
993
989
986
987
988
990
993
994
992
990
988
986
986
990
994
999
1003
1007
1009
1014
1016
1021
1025
1029
1032
1032
1031
1033
1032
1033
1031
1023
1016
1004
989
979
969
960
959
959
957
960
959
957
955
956
955
952
953
951
951
950
947
946
944
949
950
952
952
948
946
940
936
936
933
931
932
939
958
988
1039
1111
1198
1291
1386
1462
1504
1505
1471
1416
1342
1267
1192
1126
1062
1001
939
892
864
860
875
902
923
933
934
929
917
910
906
906
905
907
909
910
906
903
902
902
903
902
901
899
899
898
900
903
906
908
908
907
906
903
902
903
906
912
917
921
923
928
933
936
942
949
954
959
959
966
972
978
985
993
1002
1010
1015
1026
1032
1039
1049
1059
1071
1082
1088
1097
1103
1107
1112
1121
1129
1139
1146
1151
1158
1162
1164
1167
1169
1174
1178
1179
1176
1178
1177
1176
1177
1178
1178
1177
1177
1171
1166
1163
1157
1154
1154
1151
1150
1148
1143
1137
1131
1126
1121
1116
1111
1105
1102
1096
1093
1087
1081
1079
1074
1069
1063
1057
1053
1046
1040
1037
1035
1033
1030
1027
1024
1022
1022
1022
1021
1023
1025
1029
1029
1032
1032
1032
1031
1032
1037
1042
1045
1049
1053
1057
1058
1063
1072
1078
1083
1086
1088
1083
1081
1079
1076
1075
1069
1059
1049
1034
1023
1013
1001
1001
1001
1002
1004
1004
1001
996
994
992
999
999
1001
997
995
992
992
991
993
998
999
1002
1000
997
992
988
985
986
998
1016
1050
1104
1169
1246
1331
1414
1483
1529
1536
1506
1449
1379
1306
1231
1157
1082
1011
944
891
857
843
857
881
911
937
952
955
952
944
937
932
931
930
929
930
928
927
924
927
927
926
924
922
921
917
917
916
920
921
924
927
926
926
929
932
933
934
937
940
944
947
951
954
958
963
966
971
973
975
975
979
986
992
998
1006
1010
1016
1022
1030
1036
1043
1049
1057
1064
1066
1070
1074
1082
1090
1100
1110
1115
1118
1120
1122
1126
1128
1131
1133
1138
1138
1133
1127
1125
1120
1121
1120
1118
1113
1108
1102
1099
1095
1089
1084
1076
1067
1058
1053
1049
1045
1044
1042
1035
1028
1021
1013
1005
999
995
993
990
985
981
979
978
978
978
977
978
974
971
968
970
972
974
977
980
978
977
975
975
974
976
978
981
984
989
997
998
1009
1015
1016
1019
1020
1020
1025
1030
1035
1040
1042
1041
1032
1021
1009
995
983
971
969
966
962
962
959
957
959
960
962
962
960
956
958
958
958
961
960
966
967
965
963
962
957
956
954
953
947
945
945
955
982
1026
1089
1170
1265
1360
1443
1507
1540
1539
1497
1425
1329
1225
1116
1015
929
860
816
800
808
833
864
888
902
907
907
902
894
891
885
880
879
882
881
882
880
876
875
869
867
864
863
864
867
868
868
871
867
864
864
863
863
867
867
868
869
871
871
873
877
879
882
881
882
884
888
895
900
905
910
911
912
914
916
920
924
933
941
946
952
956
961
965
971
978
982
985
991
995
999
1007
1015
1021
1031
1040
1045
1047
1047
1050
1051
1054
1057
1062
1066
1070
1068
1067
1065
1064
1061
1059
1056
1055
1053
1047
1045
1043
1038
1036
1033
1030
1027
1021
1016
1012
1007
1006
1007
1007
1005
1003
998
994
987
991
988
990
991
995
997
1000
1000
998
1000
1001
1001
1002
1005
1004
1008
1012
1019
1026
1036
1040
1046
1048
1046
1046
1049
1048
1055
1060
1064
1061
1054
1046
1034
1024
1014
1003
996
991
986
985
984
986
984
990
990
989
987
985
982
981
983
985
987
989
991
990
990
988
988
990
989
989
985
982
977
976
983
1001
1041
1092
1161
1239
1328
1412
1489
1535
1542
1512
1457
1387
1308
1230
1158
1093
1031
975
929
903
896
908
932
954
972
978
977
968
958
950
948
946
947
952
955
956
951
948
944
943
940
941
944
947
948
949
949
948
946
944
944
950
951
950
953
954
957
962
965
969
976
976
980
982
987
993
1001
1009
1017
1021
1029
1039
1047
1054
1063
1068
1077
1081
1090
1097
1107
1120
1129
1142
1149
1153
1157
1163
1169
1175
1182
1189
1195
1197
1199
1202
1200
1202
1206
1207
1203
1197
1196
1195
1193
1194
1193
1191
1186
1179
1172
1170
1167
1163
1162
1158
1156
1149
1146
1140
1135
1129
1125
1117
1112
1103
1099
1097
1095
1096
1095
1091
1084
1078
1071
1069
1071
1070
1074
1077
1075
1078
1076
1078
1078
1081
1087
1090
1095
1100
1108
1115
1124
1131
1141
1147
1151
1154
1152
1152
1153
1152
1151
1148
1142
1134
1123
1113
1103
1096
1097
1097
1107
1123
1147
1184
1224
1265
1312
1361
1412
1455
1499
1533
1561
1582
1603
1621
1632
1641
1641
1642
1631
1619
1605
1592
1581
1573
1566
1558
1546
1530
1505
1471
1427
1373
1317
1261
1210
1170
1140
1115
1086
1055
1021
986
956
928
912
910
909
912
913
911
906
898
891
882
877
873
869
865
861
857
853
852
851
847
843
838
829
825
818
816
814
813
812
810
809
810
807
810
811
813
813
814
813
815
817
821
825
833
843
850
857
861
868
873
880
889
898
909
915
928
938
945
953
963
971
976
986
996
1006
1012
1022
1028
1038
1047
1051
1055
1055
1054
1055
1057
1061
1066
1068
1072
1070
1065
1063
1059
1057
1055
1054
1053
1051
1047
1043
1044
1042
1042
1037
1039
1030
1022
1015
1009
1007
1008
1008
1011
1011
1011
1008
1005
1005
998
997
997
999
998
997
996
999
999
1003
1003
1004
1003
1001
999
995
998
1000
1006
1010
1008
1008
1005
1006
1002
1004
1002
1005
1008
1011
1016
1022
1031
1038
1044
1049
1047
1047
1047
1048
1051
1056
1060
1063
1064
1061
1054
1039
1025
1010
996
991
988
985
988
989
989
988
986
984
981
982
979
980
980
982
981
986
987
989
987
986
983
979
976
976
973
966
959
963
978
1011
1063
1135
1222
1316
1407
1480
1522
1520
1483
1413
1321
1218
1110
1015
929
861
817
799
805
829
862
892
912
926
931
932
927
923
916
913
910
913
915
918
919
918
916
913
910
907
907
910
913
915
918
916
916
916
917
919
922
929
928
928
930
934
939
944
949
950
954
956
958
956
961
968
976
982
989
993
999
1004
1007
1016
1023
1030
1035
1041
1043
1051
1059
1067
1075
1080
1083
1087
1087
1091
1096
1104
1114
1123
1130
1132
1134
1135
1137
1139
1140
1143
1142
1143
1141
1140
1137
1137
1133
1133
1131
1124
1117
1108
1098
1092
1089
1084
1079
1074
1068
1059
1049
1043
1037
1032
1029
1028
1025
1022
1019
1019
1018
1016
1017
1019
1016
1014
1013
1011
1016
1019
1021
1025
1025
1025
1024
1022
1022
1022
1023
1028
1033
1035
1042
1045
1051
1056
1061
1063
1066
1068
1069
1073
1073
1078
1077
1075
1069
1058
1045
1035
1031
1035
1051
1078
1109
1142
1181
1224
1273
1324
1374
1418
1459
1492
1520
1545
1567
1580
1590
1597
1594
1584
1571
1555
1545
1536
1529
1530
1529
1526
1518
1504
1483
1453
1416
1371
1315
1256
1192
1130
1072
1020
975
938
904
882
865
851
840
832
826
824
821
822
821
817
813
808
801
793
785
784
778
775
773
771
769
765
759
757
753
750
745
744
742
736
738
737
741
744
744
745
746
749
749
751
753
760
768
776
783
787
798
804
811
820
826
834
847
859
868
883
896
913
926
937
948
956
965
976
985
997
1009
1017
1026
1036
1041
1050
1057
1062
1065
1067
1070
1073
1073
1076
1080
1082
1084
1085
1082
1079
1078
1072
1074
1074
1075
1077
1075
1070
1067
1062
1060
1059
1056
1057
1053
1053
1050
1049
1051
1052
1055
1055
1055
1051
1047
1046
1045
1046
1049
1051
1054
1055
1057
1054
1053
1053
1054
1055
1056
1060
1059
1058
1062
1066
1067
1069
1070
1070
1073
1077
1084
1092
1100
1108
1110
1115
1115
1116
1119
1120
1123
1121
1118
1109
1102
1088
1078
1067
1060
1053
1049
1044
1041
1044
1041
1043
1047
1048
1050
1054
1053
1053
1053
1057
1058
1057
1056
1055
1054
1055
1059
1062
1065
1065
1062
1060
1067
1090
1130
1186
1255
1333
1413
1486
1542
1574
1572
1543
1485
1410
1322
1232
1149
1078
1023
982
959
953
963
984
1010
1030
1043
1051
1052
1048
1042
1039
1037
1035
1033
1033
1034
1034
1035
1034
1032
1030
1030
1029
1031
1031
1032
1032
1028
1025
1023
1025
1029
1036
1044
1051
1052
1054
1056
1056
1060
1063
1067
1070
1074
1076
1084
1089
1095
1102
1107
1112
1117
1122
1125
1130
1138
1146
1154
1161
1168
1173
1179
1183
1191
1198
1200
1203
1208
1216
1220
1223
1228
1231
1235
1238
1240
1244
1246
1246
1245
1248
1252
1251
1250
1248
1244
1238
1233
1229
1228
1228
1226
1222
1217
1208
1199
1188
1182
1174
1169
1161
1152
1144
1136
1132
1125
1120
1115
1111
1102
1096
1088
1081
1071
1067
1062
1062
1060
1054
1052
1046
1043
1040
1038
1041
1042
1044
1045
1043
1045
1044
1042
1042
1043
1045
1044
1042
1038
1036
1039
1044
1050
1059
1064
1070
1072
1075
1074
1074
1078
1083
1085
1088
1087
1088
1083
1080
1074
1067
1054
1043
1026
1018
1013
1009
1008
1012
1013
1014
1012
1008
1002
998
998
999
1002
1006
1010
1011
1008
1004
1002
1000
1000
1001
999
995
990
981
976
973
977
998
1033
1080
1138
1202
1269
1338
1402
1455
1494
1502
1475
1420
1345
1251
1154
1060
977
904
851
824
823
843
873
901
925
937
942
937
929
921
918
916
917
921
925
922
920
917
913
910
908
909
911
910
910
909
909
909
911
912
915
914
913
914
914
915
914
919
923
925
929
928
929
929
931
937
943
947
954
959
961
963
965
970
975
981
984
989
994
997
1003
1012
1019
1027
1030
1035
1039
1042
1046
1052
1060
1068
1075
1081
1084
1086
1087
1092
1094
1093
1095
1096
1097
1097
1098
1098
1097
1097
1095
1088
1084
1075
1071
1069
1065
1063
1061
1058
1050
1043
1037
1034
1027
1024
1019
1016
1012
1008
1008
1007
1005
1002
999
998
993
988
988
988
989
998
1000
1002
1003
1000
999
999
1001
1007
1011
1017
1023
1026
1034
1039
1044
1048
1051
1050
1049
1048
1049
1048
1050
1047
1042
1035
1022
1009
997
986
976
973
965
965
965
967
967
966
967
969
969
966
963
964
961
959
960
963
966
970
972
971
969
966
960
956
951
946
945
951
965
992
1029
1089
1154
1232
1316
1396
1457
1488
1482
1443
1381
1305
1220
1138
1063
992
927
875
844
839
856
883
911
933
940
939
930
922
916
910
911
909
909
910
910
911
910
909
908
908
903
900
896
895
894
896
898
901
900
896
893
892
891
893
895
897
898
898
899
896
899
904
906
909
914
914
916
920
923
931
938
944
954
961
966
969
975
981
987
996
1009
1016
1024
1030
1034
1038
1047
1056
1065
1074
1081
1090
1095
1102
1110
1115
1124
1131
1137
1140
1139
1139
1140
1139
1144
1147
1151
1152
1152
1152
1148
1142
1137
1138
1135
1135
1133
1129
1126
1120
1117
1115
1115
1110
1107
1101
1094
1089
1086
1083
1082
1081
1080
1075
1071
1064
1058
1057
1055
1056
1057
1056
1058
1056
1056
1057
1054
1055
1057
1057
1058
1061
1063
1067
1074
1082
1091
1096
1099
1102
1099
1098
1102
1105
1110
1114
1112
1107
1096
1084
1072
1060
1050
1044
1039
1036
1033
1030
1028
1028
1031
1031
1031
1027
1027
1023
1018
1017
1017
1020
1022
1025
1024
1021
1019
1016
1010
1010
1007
1005
1003
997
997
1006
1026
1067
1124
1191
1270
1356
1435
1496
1522
1520
1486
1432
1367
1293
1215
1138
1065
996
941
908
898
910
937
964
982
990
990
981
976
967
962
960
962
962
964
969
973
974
973
970
967
966
963
966
968
971
975
980
982
984
983
986
992
995
999
1001
1003
1007
1012
1019
1026
1035
1041
1048
1049
1052
1055
1064
1073
1083
1094
1103
1114
1122
1130
1137
1143
1153
1159
1169
1176
1183
1190
1199
1208
1217
1225
1230
1232
1236
1237
1241
1246
1248
1252
1253
1253
1250
1249
1247
1245
1241
1236
1227
1226
1222
1220
1217
1216
1211
1203
1195
1186
1178
1175
1174
1171
1170
1163
1157
1147
1138
1127
1120
1110
1105
1098
1090
1085
1076
1074
1068
1064
1055
1047
1043
1036
1035
1031
1033
1035
1040
1039
1038
1037
1032
1033
1034
1037
1038
1040
1044
1047
1052
1060
1067
1074
1078
1079
1083
1081
1081
1076
1078
1078
1078
1069
1059
1045
1030
1015
1008
1006
1005
1004
1003
1002
1001
996
1000
1000
1000
1000
999
996
993
988
986
991
992
989
993
991
989
985
983
975
972
966
960
967
983
1016
1067
1135
1213
1300
1382
1446
1480
1473
1429
1363
1278
1188
1095
1011
937
876
832
808
809
826
849
875
896
913
920
924
920
914
909
908
903
899
898
900
898
901
903
904
903
900
896
894
893
893
894
897
898
900
903
902
904
904
907
912
911
912
913
916
917
925
931
937
941
946
946
945
946
948
949
957
966
976
984
986
992
996
1004
1008
1015
1021
1027
1033
1037
1040
1047
1053
1063
1069
1075
1079
1084
1083
1084
1094
1100
1103
1108
1106
1108
1104
1102
1103
1103
1102
1101
1099
1097
1093
1088
1085
1078
1076
1072
1066
1059
1051
1045
1039
1036
1035
1033
1030
1028
1020
1012
1006
997
992
988
988
984
981
978
974
973
971
969
967
962
962
958
957
958
959
964
967
970
968
968
966
965
963
963
967
972
979
988
992
997
1001
1005
1008
1012
1016
1017
1019
1019
1023
1025
1024
1025
1024
1019
1012
999
984
971
962
957
953
951
951
951
948
944
942
942
940
944
945
947
945
945
944
943
943
944
942
941
939
938
935
934
931
928
925
924
925
935
956
998
1054
1126
1211
1294
1376
1438
1464
1454
1410
1343
1267
1186
1107
1034
967
902
853
822
816
831
858
882
899
906
901
895
889
885
883
883
881
881
880
877
877
875
874
871
869
868
866
868
868
871
870
866
864
862
860
862
864
869
870
871
870
867
868
869
869
873
875
880
883
885
891
896
904
909
916
920
923
927
932
940
945
955
963
971
980
986
993
999
1008
1018
1025
1032
1038
1043
1052
1058
1066
1072
1077
1079
1080
1080
1079
1081
1084
1085
1092
1092
1093
1091
1089
1085
1082
1080
1076
1072
1067
1063
1060
1058
1051
1050
1046
1042
1037
1030
1025
1021
1017
1016
1014
1011
1005
1004
999
995
994
993
991
990
991
990
987
987
991
994
994
995
997
998
999
1004
1009
1016
1022
1029
1031
1034
1035
1038
1039
1040
1035
1028
1016
1004
991
981
973
967
962
959
957
956
954
956
956
958
961
960
961
959
958
957
957
958
959
959
959
958
957
958
960
958
954
952
949
956
973
1013
1067
1131
1200
1272
1346
1406
1452
1471
1456
1412
1348
1271
1188
1108
1034
979
930
900
890
892
910
933
950
961
964
963
960
957
957
955
956
957
956
957
957
960
964
963
961
961
959
955
955
955
958
961
962
960
960
959
961
969
971
975
979
979
979
981
983
987
992
997
1001
1007
1012
1017
1023
1032
1041
1049
1056
1060
1066
1072
1078
1085
1090
1102
1107
1112
1116
1120
1126
1131
1135
1144
1150
1156
1158
1158
1157
1158
1158
1159
1160
1160
1157
1155
1154
1152
1149
1146
1139
1139
1134
1124
1118
1113
1109
1106
1103
1100
1094
1089
1081
1074
1070
1063
1059
1053
1044
1037
1032
1027
1022
1017
1015
1008
1000
994
986
979
975
970
968
967
968
961
957
952
950
948
948
953
954
956
959
958
960
961
961
959
962
965
966
974
982
991
999
1004
1008
1011
1011
1013
1014
1016
1016
1012
1008
1001
991
979
965
955
947
942
937
933
930
928
927
932
935
938
940
937
936
930
928
924
922
925
929
932
935
934
930
927
924
919
913
909
910
918
942
984
1043
1117
1204
1291
1368
1427
1461
1458
1420
1358
1282
1196
1106
1020
940
865
812
772
760
768
791
818
840
858
863
864
860
856
852
848
846
842
843
842
843
845
845
847
846
845
839
835
835
836
834
834
834
836
837
837
839
846
848
848
851
848
846
848
848
852
856
864
869
873
879
881
882
886
890
894
900
905
911
916
921
927
934
938
947
950
953
954
959
965
972
981
991
998
1004
1008
1011
1014
1019
1022
1027
1033
1036
1036
1036
1039
1037
1038
1037
1034
1033
1029
1026
1023
1018
1016
1012
1009
1005
999
992
985
