1021
979
960
967
982
997
1003
1002
1002
1005
1003
1002
996
991
987
987
983
986
982
978
978
983
984
984
984
981
980
981
985
983
978
980
979
978
975
975
970
964
965
966
969
969
968
965
964
969
971
977
978
976
979
987
988
988
985
981
980
981
984
987
985
982
982
985
990
993
996
995
999
1000
1005
1004
1001
996
995
994
996
995
994
994
988
988
991
990
990
987
989
988
990
991
988
986
983
985
986
985
984
981
983
986
989
989
986
983
985
984
990
994
996
994
992
995
1005
1008
1010
1009
1007
1007
1010
1015
1015
1010
1012
1015
1018
1021
1025
1026
1026
1031
1042
1048
1047
1046
1046
1045
1046
1047
1046
1042
1041
1043
1047
1042
1037
1031
1030
1031
1034
1036
1034
1031
1026
1026
1027
1025
1022
1015
1017
1018
1020
1020
1017
1013
1011
1010
1013
1015
1014
1013
1014
1018
1021
1023
1025
1026
1028
1030
1037
1036
1034
1030
1027
1029
1032
1037
1038
1037
1040
1047
1050
1055
1052
1053
1055
1055
1058
1059
1057
1055
1056
1055
1058
1060
1057
1054
1052
1052
1051
1053
1050
1047
1046
1046
1046
1044
1040
1034
1027
1026
1028
1028
1026
1023
1020
1023
1023
1025
1023
1018
1019
1020
1025
1025
1023
1019
1017
1022
1022
1026
1025
1028
1031
1035
1039
1041
1038
1040
1040
1043
1046
1050
1051
1052
1057
1064
1067
1067
1068
1067
1067
1067
1067
1067
1067
1068
1071
1072
1070
1066
1064
1059
1059
1062
1072
1094
1123
1161
1201
1240
1262
1261
1230
1177
1117
1067
1043
1034
1032
1036
1035
1033
1030
1024
1020
1015
1012
1017
1019
1021
1019
1016
1016
1022
1027
1031
1030
1031
1028
1033
1036
1039
1039
1039
1038
1046
1052
1060
1062
1068
1068
1070
1076
1077
1077
1077
1075
1073
1077
1074
1069
1066
1063
1065
1068
1071
1065
1061
1056
1057
1056
1055
1054
1049
1045
1047
1043
1042
1043
1041
1039
1037
1037
1037
1034
1030
1028
1031
1032
1030
1028
1025
1026
1029
1033
1032
1030
1028
1028
1031
1035
1036
1037
1035
1031
1034
1035
1035
1032
1029
1034
1039
1045
1046
1045
1044
1045
1045
1049
1050
1051
1048
1047
1047
1048
1044
1041
1036
1038
1038
1042
1043
1044
1044
1042
1043
1046
1045
1039
1041
1039
1037
1038
1034
1032
1027
1024
1024
1022
1019
1016
1012
1012
1013
1016
1016
1015
1012
1011
1011
1016
1016
1018
1018
1017
1023
1025
1026
1027
1025
1024
1028
1030
1031
1033
1032
1030
1034
1036
1038
1042
1044
1047
1051
1053
1055
1055
1059
1059
1066
1063
1059
1060
1056
1055
1054
1056
1055
1053
1049
1047
1045
1044
1042
1037
1034
1032
1035
1039
1035
1034
1029
1027
1027
1027
1028
1025
1023
1019
1019
1021
1023
1020
1017
1016
1018
1021
1023
1023
1022
1023
1025
1030
1033
1031
1030
1032
1034
1036
1035
1032
1033
1033
1038
1045
1047
1053
1056
1060
1065
1065
1066
1062
1058
1060
1075
1105
1139
1179
1215
1240
1244
1219
1164
1101
1060
1041
1044
1049
1057
1053
1044
1035
1032
1029
1022
1021
1014
1011
1010
1012
1009
1008
1009
1007
1011
1014
1012
1010
1011
1010
1016
1020
1021
1023
1017
1020
1023
1029
1023
1017
1012
1013
1019
1023
1024
1023
1019
1022
1031
1035
1039
1037
1037
1036
1040
1043
1050
1051
1048
1046
1043
1045
1045
1041
1040
1038
1038
1037
1035
1033
1026
1023
1022
1020
1016
1008
1006
1005
1004
1004
1003
999
996
990
989
988
986
983
982
983
983
986
986
990
990
991
994
998
999
1000
999
998
999
1004
999
1000
999
998
999
1001
1002
1006
1006
1009
1014
1017
1021
1022
1020
1018
1023
1025
1024
1023
1019
1018
1019
1021
1021
1018
1013
1012
1012
1010
1007
1004
1001
997
998
996
990
986
981
981
982
984
981
978
970
963
966
966
967
967
967
967
969
972
973
970
969
970
974
981
987
985
982
981
983
984
986
982
977
977
979
982
988
991
990
993
999
1005
1008
1013
1012
1013
1011
1018
1015
1012
1007
1004
1007
1010
1010
1011
1009
1008
1008
1004
1003
997
996
995
995
998
991
981
972
976
988
1011
1044
1079
1116
1138
1139
1114
1059
994
946
927
931
949
959
966
965
965
965
968
964
965
960
962
963
967
971
969
965
963
963
964
966
969
972
973
975
978
980
976
976
977
984
989
992
996
992
988
989
993
993
997
997
995
999
1000
998
993
989
988
988
990
990
986
981
976
978
979
977
971
966
963
961
960
955
951
947
947
947
945
944
942
941
939
941
942
941
941
939
939
938
941
940
940
940
936
936
939
939
936
935
934
938
940
944
948
950
953
953
962
965
967
965
961
956
963
960
957
952
955
956
959
960
957
953
951
954
958
965
961
960
957
957
959
958
952
951
951
950
951
951
949
947
946
945
946
943
941
935
938
941
941
939
939
940
941
949
957
959
960
955
956
957
957
962
960
959
961
962
968
972
970
970
971
975
978
979
980
975
972
975
979
980
979
978
976
977
978
979
977
975
969
976
978
978
978
971
968
969
968
966
964
963
962
966
968
969
963
960
964
966
968
968
963
961
961
962
966
970
972
969
969
973
973
978
981
987
985
984
986
988
989
988
992
999
1005
1007
1007
1009
1013
1018
1024
1024
1023
1020
1017
1017
1020
1020
1018
1016
1015
1018
1018
1016
1013
1010
1012
1011
1010
1007
1008
1004
1005
1005
1006
1004
1001
996
992
991
995
994
989
987
984
986
986
987
986
983
987
989
993
997
1002
1005
1011
1015
1015
1015
1021
1021
1016
1016
1016
1029
1058
1095
1141
1185
1219
1230
1216
1166
1096
1044
1018
1016
1028
1037
1045
1048
1049
1047
1046
1042
1041
1044
1043
1042
1038
1035
1033
1034
1034
1032
1029
1026
1022
1022
1026
1026
1021
1016
1012
1015
1018
1016
1011
1010
1007
1012
1013
1012
1012
1009
1009
1014
1017
1015
1021
1020
1025
1027
1034
1037
1035
1031
1031
1034
1040
1044
1042
1041
1044
1049
1056
1058
1058
1058
1061
1068
1073
1069
1066
1059
1055
1053
1057
1057
1054
1050
1045
1045
1042
1039
1033
1029
1030
1028
1027
1023
1019
1013
1011
1010
1009
1007
1002
1000
1000
1002
1006
1003
1001
999
997
1003
1007
1004
1007
1006
1009
1016
1023
1027
1025
1024
1027
1031
1037
1042
1041
1045
1050
1057
1062
1064
1064
1063
1063
1067
1067
1066
1062
1062
1060
1066
1067
1066
1065
1060
1056
1055
1056
1056
1055
1048
1045
1045
1047
1044
1041
1040
1041
1039
1040
1038
1033
1029
1026
1026
1031
1033
1034
1028
1026
1021
1016
1011
1010
1022
1050
1093
1145
1192
1230
1244
1227
1183
1124
1069
1035
1023
1025
1038
1048
1050
1056
1050
1052
1057
1062
1064
1071
1073
1077
1081
1084
1082
1079
1074
1076
1081
1079
1082
1073
1072
1071
1074
1074
1069
1063
1056
1058
1056
1059
1057
1054
1051
1049
1045
1044
1041
1038
1035
1035
1035
1037
1035
1032
1031
1030
1034
1039
1038
1037
1040
1042
1047
1049
1052
1048
1045
1045
1050
1053
1053
1050
1049
1043
1045
1049
1053
1053
1053
1054
1057
1060
1060
1060
1057
1057
1054
1055
1056
1053
1052
1053
1055
1056
1056
1052
1047
1044
1047
1047
1045
1040
1034
1031
1033
1032
1033
1029
1023
1020
1021
1022
1022
1017
1015
1012
1018
1022
1019
1018
1018
1019
1024
1028
1032
1033
1029
1025
1026
1032
1032
1033
1032
1031
1036
1041
1044
1046
1045
1049
1054
1061
1063
1064
1064
1067
1069
1072
1068
1065
1059
1060
1063
1065
1063
1059
1054
1053
1059
1061
1058
1058
1055
1052
1052
1054
1052
1048
1041
1039
1037
1037
1033
1029
1026
1025
1024
1024
1026
1025
1021
1024
1027
1032
1030
1030
1031
1033
1037
1040
1037
1038
1036
1035
1041
1042
1045
1045
1049
1054
1059
1065
1066
1069
1071
1071
1072
1072
1069
1066
1064
1064
1066
1071
1071
1068
1064
1063
1068
1068
1065
1062
1056
1056
1057
1059
1055
1050
1045
1037
1036
1037
1037
1033
1027
1024
1023
1022
1027
1024
1026
1026
1028
1032
1027
1031
1028
1032
1036
1038
1038
1037
1033
1037
1033
1035
1038
1036
1034
1037
1045
1049
1054
1055
1055
1058
1062
1063
1062
1071
1088
1121
1162
1200
1233
1251
1250
1219
1162
1107
1063
1045
1046
1054
1058
1058
1051
1043
1037
1031
1036
1034
1031
1028
1025
1024
1028
1031
1029
1027
1024
1022
1024
1026
1027
1022
1024
1025
1028
1034
1038
1042
1043
1047
1051
1051
1057
1057
1059
1056
1060
1061
1063
1064
1065
1065
1070
1075
1074
1075
1073
1071
1069
1071
1072
1068
1068
1064
1065
1066
1065
1059
1056
1053
1050
1049
1048
1043
1037
1035
1034
1034
1029
1022
1016
1008
1007
1006
1005
999
993
994
991
993
991
988
988
986
990
994
995
993
989
990
992
996
998
998
997
999
1003
1008
1010
1015
1017
1023
1030
1036
1039
1037
1038
1040
1043
1044
1043
1039
1035
1035
1037
1038
1040
1036
1035
1036
1034
1034
1032
1027
1023
1021
1019
1020
1016
1011
1005
1004
1004
1004
1003
1001
1000
997
999
998
996
990
984
988
995
998
998
997
996
997
1001
1000
1003
1000
997
995
999
1006
1002
1002
1001
1002
1006
1007
1012
1015
1017
1018
1022
1024
1025
1024
1024
1021
1022
1020
1016
1016
1013
1015
1017
1018
1013
1006
1003
1000
1001
1003
1003
998
992
985
986
986
986
982
976
972
974
979
981
979
972
973
976
975
982
982
981
979
978
977
969
964
964
977
1005
1044
1086
1118
1122
1096
1045
995
960
944
948
964
991
1010
1023
1023
1016
1012
1010
1010
1009
1005
999
997
996
999
995
992
990
989
989
990
986
981
974
972
975
974
970
965
960
956
962
963
962
963
959
958
961
965
966
966
963
964
971
975
975
974
969
969
969
973
975
975
972
975
978
981
982
982
980
982
984
986
990
990
989
991
993
995
996
989
980
982
981
980
976
973
971
970
973
971
961
955
951
948
948
947
940
936
932
932
932
933
932
930
923
922
926
930
934
934
930
933
937
943
945
945
946
947
947
947
946
947
944
945
949
950
953
956
958
959
963
964
972
975
971
969
968
969
966
969
969
973
975
975
968
968
966
967
969
969
967
963
963
960
959
959
952
943
935
925
920
921
939
964
1008
1055
1094
1103
1073
1010
956
922
912
916
926
942
952
963
966
968
961
958
957
960
963
970
971
973
969
973
980
982
989
991
994
996
997
997
996
992
992
995
998
1001
1003
1002
996
993
994
994
995
993
989
986
985
984
981
972
972
969
969
967
966
962
958
956
957
961
959
955
952
950
951
957
962
965
964
963
963
963
962
961
959
956
956
956
959
962
962
963
965
968
968
970
972
979
986
988
988
983
984
986
991
993
994
993
992
992
993
996
995
992
991
990
991
990
987
987
981
981
981
984
984
981
976
976
978
978
976
978
973
973
977
979
980
980
981
987
994
998
999
998
995
996
999
1003
1005
1004
998
1004
1008
1017
1017
1017
1014
1018
1024
1028
1027
1027
1026
1026
1030
1032
1035
1029
1028
1025
1025
1027
1029
1029
1027
1027
1027
1025
1024
1020
1017
1013
1016
1021
1018
1014
1011
1010
1010
1014
1015
1011
1010
1006
1013
1016
1017
1014
1012
1017
1022
1027
1031
1031
1030
1031
1035
1038
1039
1036
1034
1035
1037
1040
1039
1040
1044
1046
1052
1055
1062
1062
1060
1062
1062
1069
1069
1067
1060
1058
1055
1054
1061
1077
1107
1149
1194
1235
1263
1262
1215
1139
1070
1036
1030
1037
1044
1041
1034
1032
1026
1024
1024
1025
1026
1027
1025
1027
1026
1032
1037
1043
1043
1043
1043
1045
1051
1053
1054
1055
1055
1060
1067
1072
1074
1074
1073
1075
1078
1084
1081
1078
1078
1077
1077
1077
1078
1076
1068
1070
1070
1070
1070
1068
1063
1059
1056
1055
1052
1052
1047
1044
1046
1047
1047
1041
1040
1038
1039
1037
1037
1033
1026
1027
1033
1030
1030
1028
1030
1033
1038
1042
1042
1042
1038
1037
1042
1046
1049
1047
1049
1051
1058
1063
1065
1068
1068
1069
1070
1074
1073
1072
1069
1071
1074
1075
1075
1072
1069
1065
1067
1068
1068
1063
1060
1055
1052
1053
1053
1049
1048
1045
1046
1047
1045
1042
1037
1037
1039
1043
1045
1046
1045
1045
1047
1044
1039
1030
1025
1033
1057
1087
1128
1164
1202
1231
1245
1240
1202
1152
1098
1071
1068
1083
1093
1099
1096
1093
1091
1092
1087
1086
1084
1081
1084
1083
1084
1080
1078
1075
1075
1076
1075
1070
1067
1067
1068
1066
1063
1060
1054
1052
1047
1053
1049
1041
1039
1037
1036
1039
1042
1038
1036
1034
1036
1039
1037
1038
1035
1043
1046
1050
1049
1051
1052
1054
1056
1060
1060
1058
1057
1060
1063
1066
1068
1068
1068
1072
1077
1079
1079
1073
1072
1071
1071
1075
1072
1069
1065
1063
1065
1065
1064
1062
1059
1059
1061
1066
1064
1060
1054
1055
1056
1056
1053
1046
1043
1041
1043
1044
1044
1041
1036
1036
1037
1040
1039
1039
1037
1037
1038
1040
1043
1044
1039
1044
1047
1053
1052
1054
1049
1050
1052
1053
1054
1053
1048
1049
1050
1056
1058
1059
1059
1064
1068
1070
1072
1073
1075
1077
1082
1084
1081
1078
1075
1074
1076
1080
1076
1071
1069
1067
1066
1068
1063
1060
1056
1056
1054
1052
1046
1039
1035
1034
1034
1037
1036
1034
1031
1030
1032
1034
1031
1029
1024
1026
1030
1031
1033
1031
1029
1027
1034
1038
1041
1041
1038
1039
1043
1044
1043
1044
1042
1041
1043
1048
1050
1048
1051
1055
1062
1068
1069
1071
1072
1077
1079
1084
1082
1082
1080
1078
1077
1079
1079
1076
1073
1075
1075
1074
1071
1067
1061
1061
1062
1059
1056
1051
1049
1046
1043
1045
1041
1031
1030
1024
1026
1029
1028
1024
1021
1021
1023
1029
1031
1028
1032
1035
1043
1046
1050
1048
1045
1043
1050
1070
1097
1130
1164
1196
1221
1228
1212
1168
1113
1066
1042
1045
1056
1070
1078
1081
1083
1082
1078
1072
1069
1065
1068
1065
1068
1067
1065
1064
1066
1066
1066
1062
1056
1056
1056
1058
1057
1050
1048
1045
1044
1044
1040
1036
1031
1032
1033
1033
1030
1028
1023
1025
1027
1028
1028
1025
1023
1022
1027
1025
1025
1024
1022
1020
1027
1032
1027
1028
1029
1029
1036
1039
1041
1040
1043
1043
1047
1050
1050
1047
1048
1044
1049
1050
1047
1042
1037
1037
1038
1039
1036
1032
1026
1022
1021
1023
1021
1018
1013
1011
1009
1008
1003
995
993
991
992
990
989
984
980
974
978
981
980
975
973
975
979
983
986
986
985
988
988
993
995
995
991
991
992
998
999
997
998
1001
1005
1008
1009
1009
1010
1012
1016
1019
1021
1024
1023
1021
1022
1026
1026
1022
1023
1020
1024
1028
1028
1025
1024
1022
1024
1025
1023
1020
1012
1011
1008
1010
1005
1002
995
992
990
990
978
965
953
947
952
973
1002
1037
1076
1119
1144
1141
1100
1038
987
958
953
960
974
984
986
986
983
988
989
988
988
988
995
1004
1008
1010
1010
1012
1015
1017
1014
1010
1008
1008
1011
1013
1012
1010
1004
1001
1001
1004
1002
999
992
993
992
990
988
982
983
983
984
987
987
986
983
979
982
983
983
979
975
976
976
977
974
972
976
973
975
978
978
976
975
975
975
975
973
969
965
964
963
968
964
965
965
968
967
968
971
967
970
970
974
978
977
974
971
971
974
975
972
970
963
964
969
968
967
962
959
958
960
959
956
955
954
950
953
953
951
944
939
939
938
938
940
937
940
940
945
950
949
952
952
955
961
964
963
963
963
964
965
969
968
964
966
964
967
969
967
971
973
972
980
984
986
989
990
995
1001
1005
1002
1001
999
998
1000
998
996
989
985
983
984
986
983
978
974
975
973
974
970
963
963
959
961
963
959
957
954
952
952
950
947
945
949
972
1010
1058
1101
1129
1128
1095
1037
977
940
924
933
949
966
976
979
974
973
971
973
976
979
981
982
986
995
1003
1004
1006
1011
1014
1023
1026
1029
1029
1027
1026
1029
1030
1028
1028
1029
1026
1027
1026
1023
1018
1013
1009
1007
1005
997
994
990
988
990
989
985
982
975
978
979
983
981
980
979
979
983
985
988
987
987
989
991
991
989
986
985
985
987
990
987
985
981
982
984
991
991
990
986
987
993
1000
1000
1004
1004
1004
1006
1010
1007
1008
1008
1009
1013
1012
1011
1009
1008
1008
1008
1009
1008
1003
1001
1001
1004
1005
1003
998
992
989
993
995
997
1000
998
999
1003
1010
1010
1010
1010
1013
1016
1020
1023
1022
1020
1018
1023
1027
1025
1023
1022
1024
1028
1030
1028
1027
1027
1031
1035
1043
1043
1047
1045
1046
1049
1050
1049
1047
1046
1050
1051
1056
1054
1050
1046
1040
1039
1040
1034
1030
1032
1031
1033
1033
1030
1026
1026
1025
1028
1026
1023
1021
1017
1015
1019
1022
1023
1019
1018
1019
1022
1024
1025
1022
1020
1024
1028
1033
1036
1037
1040
1042
1043
1047
1045
1050
1047
1052
1056
1059
1060
1061
1062
1065
1071
1076
1077
1073
1074
1071
1071
1074
1076
1072
1068
1069
1070
1071
1068
1063
1057
1054
1053
1053
1047
1040
1040
1038
1039
1038
1037
1034
1031
1032
1034
1036
1035
1032
1031
1031
1034
1037
1036
1038
1039
1041
1045
1048
1049
1048
1047
1045
1047
1049
1047
1047
1046
1047
1049
1052
1054
1056
1058
1059
1066
1069
1071
1074
1075
1082
1089
1092
1094
1092
1092
1092
1097
1096
1093
1091
1092
1105
1135
1175
1211
1239
1253
1238
1202
1141
1083
1048
1038
1037
1046
1051
1054
1050
1044
1041
1040
1042
1038
1038
1036
1037
1042
1044
1042
1041
1038
1041
1047
1049
1046
1048
1042
1042
1049
1054
1054
1055
1054
1056
1062
1070
1072
1072
1070
1075
1081
1085
1085
1081
1077
1078
1076
1079
1077
1075
1072
1075
1079
1079
1071
1069
1065
1062
1065
1066
1065
1061
1058
1055
1057
1058
1056
1054
1051
1052
1052
1051
1054
1051
1048
1049
1051
1054
1051
1051
1047
1047
1046
1047
1042
1041
1039
1036
1036
1041
1036
1035
1034
1038
1043
1044
1044
1049
1051
1058
1064
1068
1063
1067
1062
1062
1062
1063
1062
1063
1059
1059
1057
1057
1056
1052
1048
1050
1054
1053
1050
1049
1043
1043
1041
1042
1040
1036
1036
1033
1036
1037
1038
1035
1034
1034
1040
1045
1044
1043
1039
1039
1041
1045
1043
1040
1041
1042
1044
1047
1042
1043
1041
1045
1049
1051
1055
1057
1057
1060
1063
1067
1071
1075
1073
1074
1077
1079
1080
1076
1073
1075
1079
1082
1079
1072
1069
1066
1067
1066
1064
1060
1057
1055
1054
1051
1047
1043
1038
1038
1039
1042
1037
1036
1034
1033
1034
1034
1031
1030
1030
1031
1034
1041
1043
1043
1041
1039
1043
1044
1041
1039
1037
1037
1039
1044
1042
1041
1043
1048
1050
1053
1056
1056
1057
1060
1060
1066
1066
1065
1065
1067
1068
1071
1072
1067
1067
1068
1067
1072
1069
1067
1063
1065
1066
1065
1062
1060
1058
1053
1051
1052
1049
1043
1039
1039
1037
1037
1030
1025
1022
1023
1027
1034
1034
1037
1038
1041
1046
1050
1049
1051
1050
1053
1054
1057
1053
1053
1052
1052
1054
1058
1058
1060
1055
1058
1064
1069
1069
1069
1061
1059
1062
1076
1101
1132
1166
1199
1227
1244
1241
1203
1153
1102
1072
1063
1066
1069
1072
1072
1069
1069
1062
1056
1051
1046
1048
1047
1045
1036
1031
1027
1029
1030
1029
1027
1023
1020
1022
1024
1029
1029
1031
1032
1038
1041
1043
1041
1040
1046
1049
1047
1045
1043
1039
1039
1044
1050
1051
1055
1049
1053
1057
1062
1067
1064
1065
1066
1067
1068
1065
1063
1059
1060
1066
1068
1064
1062
1059
1058
1059
1058
1052
1045
1040
1038
1034
1035
1031
1029
1027
1025
1023
1022
1018
1009
1006
1003
1001
1001
996
992
984
989
988
993
990
