956
963
964
962
959
962
964
968
970
968
966
967
968
970
968
966
961
961
961
964
961
957
952
955
957
960
958
955
954
952
951
953
953
949
950
950
954
957
957
956
953
956
959
963
965
966
963
963
967
973
974
972
970
971
976
979
979
978
975
980
983
984
982
985
980
984
989
991
990
988
985
988
991
993
990
991
990
989
992
992
993
990
989
991
994
995
994
988
986
985
986
988
984
983
979
976
980
983
980
978
973
974
976
979
980
973
974
977
981
983
985
984
986
989
992
997
999
997
996
999
1004
1005
1008
1008
1011
1017
1031
1047
1064
1081
1090
1105
1111
1105
1080
1052
1031
1022
1024
1027
1025
1022
1020
1019
1018
1017
1017
1010
1008
1008
1010
1011
1010
1006
1005
1007
1007
1008
1008
1006
1003
1006
1007
1009
1007
1006
1003
1003
1002
1003
1002
1000
999
1001
1003
1006
1001
1003
1003
1003
1009
1014
1013
1012
1009
1013
1016
1021
1018
1018
1017
1019
1025
1029
1029
1027
1026
1028
1032
1035
1033
1033
1032
1030
1031
1034
1030
1027
1025
1025
1028
1028
1028
1025
1021
1019
1019
1018
1016
1011
1009
1008
1007
1005
1005
1001
1000
998
996
997
995
994
990
990
995
996
995
989
992
992
996
996
998
994
993
994
995
996
997
999
997
999
1004
1007
1005
1004
1006
1008
1009
1017
1014
1015
1016
1017
1022
1025
1027
1027
1025
1029
1033
1035
1034
1031
1030
1030
1032
1033
1034
1035
1030
1029
1033
1036
1030
1029
1029
1032
1032
1032
1029
1026
1023
1025
1026
1027
1022
1017
1018
1018
1018
1017
1017
1013
1010
1011
1010
1010
1009
1001
1004
1015
1036
1055
1077
1088
1100
1100
1094
1077
1053
1033
1024
1021
1029
1035
1036
1034
1030
1034
1035
1036
1037
1036
1036
1038
1040
1047
1045
1041
1041
1042
1041
1045
1043
1039
1040
1040
1043
1041
1041
1039
1036
1037
1039
1038
1035
1034
1031
1033
1034
1032
1027
1026
1023
1023
1023
1023
1022
1017
1014
1011
1015
1019
1016
1016
1013
1013
1014
1018
1018
1015
1014
1015
1019
1022
1020
1024
1021
1023
1025
1028
1028
1026
1026
1027
1030
1031
1030
1028
1028
1030
1031
1034
1034
1029
1026
1028
1027
1033
1032
1026
1024
1026
1024
1026
1028
1025
1023
1023
1024
1024
1023
1020
1017
1015
1017
1018
1017
1010
1010
1006
1008
1010
1008
1007
1006
1008
1010
1011
1012
1011
1011
1012
1015
1019
1016
1015
1020
1030
1051
1078
1097
1112
1114
1104
1081
1067
1055
1051
1049
1056
1059
1062
1058
1053
1048
1047
1048
1051
1045
1044
1042
1040
1043
1041
1045
1040
1038
1038
1037
1036
1036
1031
1029
1028
1031
1030
1029
1023
1021
1022
1023
1024
1021
1020
1016
1015
1018
1021
1018
1018
1014
1014
1019
1020
1019
1016
1015
1016
1022
1023
1024
1023
1022
1024
1024
1030
1029
1026
1024
1028
1032
1033
1034
1033
1034
1034
1036
1038
1035
1033
1028
1028
1032
1033
1032
1031
1029
1027
1031
1033
1031
1029
1024
1024
1025
1028
1025
1021
1017
1016
1016
1020
1016
1014
1010
1009
1008
1010
1008
1007
1003
1003
1002
1003
1005
1004
1004
1002
1006
1010
1009
1005
1006
1007
1012
1015
1018
1014
1011
1012
1017
1021
1031
1046
1062
1083
1103
1120
1123
1111
1093
1075
1063
1061
1056
1059
1055
1054
1053
1050
1046
1037
1036
1034
1032
1035
1031
1030
1029
1028
1030
1029
1029
1023
1022
1022
1020
1024
1020
1014
1011
1012
1012
1013
1010
1005
1004
1001
1003
1004
1001
998
994
994
995
997
997
993
993
994
998
1000
997
998
996
999
1003
1007
1005
1003
1001
1004
1003
1007
1010
1009
1008
1010
1017
1019
1018
1016
1015
1015
1016
1015
1013
1008
1006
1004
1008
1010
1007
1002
999
999
999
1000
997
994
989
987
991
991
985
984
980
980
980
981
983
976
978
978
979
980
977
974
972
976
977
977
978
975
973
973
976
975
977
974
969
973
976
980
976
975
975
977
978
982
982
981
979
982
988
993
993
990
990
993
999
1003
999
998
994
994
997
999
997
993
990
992
992
993
990
990
986
986
987
986
984
979
974
974
975
972
971
964
961
961
960
962
962
957
954
954
956
958
958
957
955
956
960
961
964
959
957
960
961
964
964
962
959
962
963
965
966
964
964
965
969
973
976
976
977
981
982
992
990
990
987
993
1005
1020
1031
1043
1052
1053
1044
1024
1002
981
971
969
973
977
978
977
972
970
967
965
967
965
958
958
957
958
955
954
950
952
954
956
952
950
951
951
951
955
952
951
949
952
957
962
962
956
962
961
962
967
967
964
962
968
968
973
973
970
973
973
973
981
983
982
978
978
983
985
986
980
980
976
979
982
979
975
973
973
975
973
967
962
958
956
955
954
951
944
941
938
938
937
933
928
923
924
925
926
923
921
917
917
920
920
919
916
915
914
914
920
923
921
919
922
925
930
930
928
927
931
935
939
942
943
942
945
949
956
957
959
956
959
963
968
967
968
967
966
969
972
970
966
966
966
966
971
971
968
963
964
965
964
962
958
956
954
954
955
952
945
946
946
945
948
947
944
943
944
945
947
944
945
942
946
946
951
951
948
946
947
950
952
952
949
948
949
950
953
952
950
950
954
956
960
959
959
962
967
973
976
981
982
985
990
995
1000
1001
1000
995
997
1002
1008
1014
1023
1040
1058
1073
1082
1076
1055
1032
1008
1002
997
997
998
998
999
999
996
991
987
986
984
987
989
990
984
981
984
986
988
986
984
979
983
988
992
992
991
989
991
995
996
994
993
993
992
996
1000
999
999
998
999
1005
1009
1009
1010
1011
1016
1019
1023
1022
1022
1020
1026
1026
1028
1027
1025
1023
1028
1030
1031
1029
1027
1024
1024
1022
1026
1022
1019
1014
1013
1012
1012
1010
1004
999
995
997
995
991
986
984
983
985
988
988
986
983
984
989
988
989
987
986
988
993
993
993
991
989
987
991
995
994
990
992
992
997
999
1000
1000
999
1007
1009
1014
1014
1015
1015
1020
1021
1026
1024
1021
1019
1019
1024
1025
1024
1019
1014
1016
1017
1017
1016
1017
1015
1009
1012
1014
1013
1012
1010
1009
1013
1013
1011
1009
1008
1007
1008
1012
1007
1005
1005
1006
1008
1011
1011
1010
1008
1009
1013
1011
1013
1011
1008
1012
1014
1017
1015
1014
1012
1014
1017
1018
1019
1018
1016
1022
1025
1029
1032
1027
1029
1033
1038
1041
1039
1038
1035
1039
1041
1042
1039
1035
1037
1037
1037
1038
1035
1031
1028
1028
1026
1029
1027
1022
1020
1019
1018
1020
1019
1013
1014
1013
1018
1020
1018
1017
1016
1019
1019
1022
1021
1018
1014
1019
1022
1026
1025
1022
1023
1024
1027
1033
1033
1031
1030
1032
1042
1052
1065
1082
1101
1115
1127
1123
1107
1081
1057
1051
1053
1056
1055
1054
1051
1051
1051
1052
1047
1043
1038
1035
1036
1036
1033
1029
1024
1027
1028
1029
1023
1019
1018
1020
1021
1021
1019
1014
1011
1012
1015
1017
1017
1016
1014
1016
1019
1021
1024
1023
1023
1025
1026
1032
1032
1029
1028
1029
1033
1032
1034
1034
1033
1035
1038
1041
1042
1039
1041
1044
1050
1054
1052
1052
1053
1056
1059
1060
1059
1055
1050
1051
1054
1056
1052
1049
1047
1045
1046
1045
1041
1037
1033
1031
1032
1031
1025
1019
1015
1015
1016
1014
1008
1005
1003
1004
1005
1006
1002
1001
1000
1001
1004
1006
1005
1005
1002
1003
1007
1009
1012
1014
1010
1010
1013
1015
1016
1012
1010
1013
1016
1019
1019
1019
1018
1019
1026
1027
1031
1029
1028
1032
1032
1036
1032
1032
1031
1035
1036
1038
1038
1035
1032
1032
1036
1035
1031
1027
1026
1026
1023
1022
1021
1015
1013
1013
1009
1013
1008
1003
999
998
998
999
999
995
996
1001
1004
1006
1005
1005
1004
1007
1010
1013
1012
1013
1008
1009
1013
1012
1015
1012
1012
1017
1021
1026
1027
1030
1031
1034
1039
1043
1044
1038
1038
1039
1044
1041
1042
1042
1039
1041
1043
1044
1043
1037
1038
1035
1037
1039
1037
1032
1026
1027
1031
1030
1028
1023
1022
1021
1020
1024
1019
1016
1014
1014
1016
1017
1019
1018
1015
1016
1019
1017
1018
1013
1016
1016
1020
1022
1021
1021
1017
1019
1021
1026
1024
1022
1019
1022
1029
1031
1032
1035
1033
1036
1040
1043
1039
1034
1036
1040
1043
1045
1046
1046
1043
1044
1045
1051
1049
1048
1045
1042
1051
1056
1067
1080
1096
1112
1123
1121
1103
1075
1049
1030
1022
1025
1022
1018
1011
1011
1009
1010
1007
1003
999
1001
1002
1005
1003
1003
1001
1003
1003
1007
1010
1007
1004
1005
1009
1011
1011
1010
1012
1016
1017
1023
1021
1022
1023
1026
1031
1033
1032
1029
1026
1029
1031
1033
1029
1028
1024
1025
1027
1029
1025
1021
1018
1020
1020
1022
1018
1014
1013
1013
1014
1014
1014
1011
1004
1005
1006
1007
1004
1001
996
996
999
1002
999
996
993
994
992
995
992
991
987
987
988
991
991
986
985
983
984
986
987
983
983
986
989
993
994
993
991
995
1001
1003
1003
1001
999
1001
1002
1005
1004
1000
1001
996
998
998
997
996
993
994
995
997
993
991
987
988
990
990
987
981
975
979
977
978
976
972
969
971
974
977
975
975
974
975
980
978
979
979
975
978
980
982
979
976
977
978
982
986
984
982
978
980
984
985
985
984
984
986
988
992
993
993
992
994
996
998
995
995
994
993
991
993
992
988
986
987
988
990
988
982
981
980
981
981
980
970
971
970
971
973
972
967
964
966
968
970
967
964
962
968
968
974
970
968
968
974
978
981
981
975
972
974
977
978
984
997
1010
1029
1043
1051
1048
1031
1009
990
979
980
988
993
997
1005
1011
1010
1010
1006
1007
1006
1007
1009
1007
1000
998
998
997
998
995
989
987
986
986
984
979
974
971
968
971
968
965
965
960
959
963
962
960
959
958
961
963
964
963
960
959
960
964
965
964
964
964
962
967
968
969
967
962
966
968
972
970
966
966
969
971
975
974
974
972
975
978
981
982
981
978
977
981
980
976
973
972
971
971
971
969
964
962
961
964
967
963
957
953
949
953
953
949
945
942
941
938
940
941
936
938
939
941
944
943
941
941
942
947
946
946
945
942
944
945
947
947
944
945
948
952
954
953
951
949
949
953
955
957
953
954
959
962
968
968
968
967
971
975
977
979
976
977
976
976
980
979
976
977
978
978
980
977
977
973
971
971
973
972
967
966
967
966
966
964
957
955
954
959
958
959
955
951
954
957
957
957
953
951
951
955
958
955
956
956
959
965
967
968
968
968
971
975
977
978
977
974
979
980
983
982
981
981
985
992
996
998
998
996
998
998
1002
1000
998
997
1000
1002
1003
1003
998
998
998
1002
1004
1003
1000
999
999
1003
1004
1003
998
992
994
1001
1013
1022
1039
1055
1071
1079
1071
1044
1019
1000
993
996
1003
1004
1006
1000
1003
1004
1001
1002
997
995
996
1002
1000
1000
995
995
1000
1001
1004
1006
1007
1006
1010
1020
1021
1022
1022
1019
1024
1027
1029
1023
1023
1021
1026
1030
1032
1028
1026
1024
1026
1025
1025
1023
1019
1018
1013
1013
1013
1011
1004
1002
1002
1001
999
1000
994
993
993
995
998
997
993
990
991
994
997
997
994
992
995
997
1000
999
995
993
994
995
995
996
994
993
991
995
998
997
996
996
1000
1005
1010
1009
1007
1008
1014
1017
1020
1022
1022
1022
1023
1027
1027
1025
1024
1023
1025
1029
1030
1024
1022
1020
1024
1027
1027
1024
1022
1017
1018
1017
1019
1019
1015
1010
1011
1013
1012
1008
1005
1007
1009
1010
1009
1009
1007
1008
1005
1012
1010
1009
1010
1007
1014
1014
1018
1013
1006
1006
1006
1017
1036
1056
1075
1096
1113
1125
1121
1102
1082
1066
1059
1056
1055
1056
1053
1053
1054
1053
1053
1050
1045
1043
1045
1046
1048
1046
1045
1042
1045
1047
1048
1046
1042
1040
1039
1042
1044
1041
1037
1034
1033
1034
1027
1026
1023
1020
1021
1023
1021
1020
1018
1017
1020
1022
1025
1021
1018
1019
1021
1022
1024
1024
1020
1022
1022
1025
1026
1025
1023
1021
1025
1027
1028
1028
1027
1025
1026
1030
1031
1031
1030
1027
1031
1032
1032
1033
1029
1025
1027
1028
1033
1030
1027
1026
1027
1030
1030
1029
1025
1021
1024
1027
1030
1028
1026
1025
1024
1023
1024
1020
1016
1015
1017
1016
1017
1014
1010
1008
1011
1011
1012
1010
1005
1004
1009
1012
1013
1011
1007
1010
1011
1014
1017
1016
1015
1016
1018
1018
1021
1018
1016
1015
1020
1023
1023
1022
1022
1022
1026
1030
1032
1034
1031
1031
1032
1039
1042
1042
1041
1038
1042
1044
1046
1045
1040
1039
1039
1042
1043
1040
1036
1035
1036
1036
1036
1034
1030
1030
1028
1030
1030
1026
1022
1020
1019
1017
1022
1017
1013
1011
1014
1015
1018
1017
1014
1015
1018
1018
1023
1021
1021
1019
1022
1023
1024
1024
1023
1023
1022
1026
1028
1030
1027
1031
1033
1037
1039
1042
1040
1040
1043
1046
1047
1043
1044
1041
1042
1047
1048
1049
1051
1058
1076
1096
1114
1122
1125
1114
1096
1076
1058
1044
1033
1031
1033
1035
1034
1026
1021
1016
1013
1012
1012
1010
1005
1003
1003
1007
1010
1010
1008
1009
1014
1016
1018
1023
1020
1021
1026
1030
1033
1029
1027
1030
1032
1034
1038
1037
1036
1034
1040
1043
1047
1044
1043
1041
1045
1048
1049
1049
1048
1047
1047
1048
1051
1051
1049
1048
1049
1051
1050
1045
1041
1042
1041
1044
1038
1037
1033
1031
1031
1030
1030
1027
1023
1018
1015
1013
1014
1009
1007
1001
1003
1007
1005
1001
1001
1000
1000
1003
1004
1002
1002
1002
1003
1005
1009
1009
1006
1002
1008
1011
1013
1013
1010
1014
1019
1020
1023
1025
1024
1026
1029
1033
1033
1031
1031
1030
1031
1037
1036
1033
1031
1027
1029
1031
1029
1025
1021
1020
1018
1021
1019
1017
1012
1007
1009
1008
1005
1004
998
998
999
1000
1000
994
992
991
994
999
999
998
995
998
997
1003
1005
1008
1006
1006
1009
1011
1008
1010
1007
1007
1012
1016
1018
1019
1018
1017
1019
1020
1019
1016
1015
1013
1014
1017
1017
1013
1011
1009
1011
1013
1014
1015
1014
1014
1014
1016
1017
1015
1010
1010
1010
1013
1014
1010
1005
1004
1003
1008
1006
1003
999
994
993
1004
1013
1023
1034
1043
1054
1064
1066
1052
1028
1009
995
990
989
992
992
994
996
996
997
995
995
991
996
999
1000
999
1001
1001
1005
1008
1008
1008
1006
1007
1008
1008
1008
1008
1006
1004
1007
1008
1010
1005
1001
999
995
1000
998
995
993
990
992
990
994
990
986
985
984
986
989
987
982
983
984
986
986
985
982
981
982
982
984
981
979
977
979
983
982
980
979
977
977
981
983
981
979
977
978
980
977
975
975
973
977
981
979
981
979
978
978
979
981
976
974
972
973
976
975
974
969
968
970
969
973
968
962
963
963
964
962
960
953
953
954
954
950
951
944
945
945
946
944
942
939
938
942
944
944
944
944
943
946
951
952
952
951
950
951
956
958
956
949
953
955
959
960
958
960
961
960
969
970
970
967
968
967
971
968
966
962
961
963
962
966
962
957
957
958
957
960
956
954
950
952
953
949
946
944
941
939
940
939
935
935
930
931
934
931
929
929
927
929
932
932
932
934
931
936
937
942
942
941
940
942
944
946
945
946
945
950
954
958
957
954
958
961
965
969
972
968
970
975
976
981
977
975
971
976
977
979
978
974
974
976
978
977
974
971
970
970
980
992
1006
1019
1031
1042
1042
1034
1007
978
959
948
945
942
944
945
943
945
947
947
945
942
943
944
947
950
949
949
949
952
955
955
956
953
953
957
958
961
962
960
961
963
964
969
970
971
969
973
979
982
985
984
985
986
990
990
987
986
989
990
992
992
987
985
984
982
984
982
979
970
971
968
969
968
964
960
960
959
959
958
956
952
953
950
953
955
949
944
946
949
951
952
953
953
951
954
956
957
955
954
955
958
958
964
960
961
963
966
972
972
974
974
974
974
976
979
984
982
982
983
984
987
986
987
989
990
994
997
995
994
994
996
998
997
998
994
993
993
994
989
988
982
979
982
983
984
982
978
977
980
981
983
980
975
974
977
980
982
981
981
980
983
988
991
989
987
988
983
993
993
988
988
989
990
996
996
996
996
997
1001
1004
1006
1007
1006
1006
1009
1012
1014
1012
1011
1010
1014
1016
1016
1012
1009
1006
1007
1008
1008
1007
1003
1001
1001
1003
1003
1005
1000
999
1002
1001
999
996
994
994
995
998
999
996
994
993
997
998
1003
1002
1004
1005
1011
1014
1018
1016
1013
1016
1022
1034
1054
1073
1090
1101
1108
1097
1074
1049
1031
1022
1019
1022
1025
1024
1024
1022
1021
1022
1024
1020
1019
1018
1018
1023
1025
1021
1018
1017
1016
1014
1015
1015
1009
1005
1006
1005
1005
1001
1000
1000
1001
1003
1002
999
995
994
997
1000
1001
999
998
1000
1001
1008
1009
1007
1008
1006
1009
1015
1014
1017
1012
1014
1018
1022
1021
1020
1020
1021
1025
1027
1027
1027
1028
1027
1031
1033
1031
1030
1025
1024
1026
1027
1025
1023
1020
1019
1020
1023
1018
1015
1010
1004
1006
1007
1006
1003
999
997
995
995
997
992
988
988
989
991
989
986
982
981
983
986
987
986
984
985
989
996
997
996
995
998
1004
1008
1009
1008
1008
1009
1011
1013
1014
1013
1014
1015
1020
1022
1020
1023
1021
1023
1026
1029
1030
1030
1025
1027
1028
1031
1030
1029
1026
1022
1023
1022
1023
1016
1007
1006
1015
1030
1050
1072
1086
1102
1106
1096
1073
1044
1026
1015
1017
1018
1013
1006
999
998
999
996
996
995
991
992
992
999
1000
998
996
999
1004
1008
1011
1010
1010
1012
1014
1020
1022
1019
1022
1023
1026
1027
1028
1025
1027
1029
1026
1031
1032
1030
1027
1026
1027
1032
1031
1028
1026
1025
1024
1026
1025
1021
1017
1013
1014
1016
1013
1011
1007
1003
1003
1007
1005
998
992
990
990
987
986
982
981
979
979
979
981
980
978
977
978
984
987
985
986
982
986
992
993
991
990
991
994
998
997
999
999
1000
1005
1008
1009
1008
1008
1009
1012
1017
1014
1016
1012
1015
1020
1021
1022
1020
1017
1015
1018
1017
1017
1011
1009
1007
1008
1010
1007
1003
996
999
1000
1000
999
998
993
990
987
988
989
986
982
980
981
985
985
985
983
982
987
992
992
994
992
993
997
1000
1002
1002
1000
1000
998
1004
1003
1004
1004
1004
1004
1008
1006
1005
1002
1010
1025
1048
1072
1089
1097
1096
1081
1056
1033
1015
1006
1010
1015
1015
1016
1008
1006
1000
1002
1004
1004
999
998
997
997
999
997
992
989
986
988
989
990
988
982
985
989
989
990
991
988
988
992
997
997
999
999
997
999
1002
1003
1001
1002
1003
1006
1009
1012
1011
1009
1012
1012
1013
1020
1018
1016
1013
1011
1017
1013
1013
1010
1009
1008
1009
1009
1002
998
993
991
990
991
984
980
978
978
979
980
976
973
972
971
974
972
971
965
967
965
967
966
967
966
966
966
969
968
969
969
970
973
977
979
976
974
977
980
986
983
982
982
981
987
