1039
1043
1044
1043
1035
1033
1031
1031
1027
1025
1021
1017
1018
1018
1015
1011
1010
1006
1004
1001
1001
996
993
991
993
994
996
993
992
988
988
993
998
995
992
994
995
1000
1004
1001
1000
998
999
1001
1002
1006
1005
1004
1007
1014
1014
1014
1012
1009
1014
1014
1019
1016
1014
1011
1011
1011
1011
1010
1008
1004
1003
1004
1004
1000
996
992
993
995
997
993
989
988
988
988
992
989
988
982
986
986
992
990
987
981
986
990
992
988
987
986
987
989
993
990
990
989
993
996
1002
1002
1001
1000
1003
1005
1008
1008
1002
1002
1005
1002
1004
1005
999
997
995
997
998
993
990
987
987
986
987
987
979
976
974
977
978
974
971
966
969
968
972
970
968
966
964
969
972
969
972
976
978
983
987
988
983
981
982
985
988
986
984
983
987
991
995
995
994
994
998
1001
1005
1004
1002
999
1001
1000
1003
999
998
996
995
999
1000
999
994
991
994
993
992
989
986
981
986
998
1012
1028
1040
1049
1053
1046
1029
1002
978
965
960
963
967
971
970
968
968
968
971
969
967
963
966
968
970
971
967
968
970
974
979
979
978
976
981
987
987
988
988
989
989
992
993
993
989
987
985
988
989
988
983
981
981
982
983
980
977
973
971
971
971
965
963
959
959
958
960
958
954
952
954
953
959
957
955
953
955
957
960
959
958
954
956
959
961
959
957
955
954
960
961
959
955
955
955
961
963
962
959
957
959
966
967
967
966
962
967
966
966
968
968
966
967
964
970
967
963
963
962
963
962
961
959
953
954
956
957
951
949
944
943
945
945
944
940
936
938
941
940
942
940
937
941
942
946
944
944
945
947
949
951
952
951
946
950
953
958
958
956
955
957
962
968
966
967
962
965
968
969
968
966
965
966
967
971
970
967
963
964
968
970
969
967
966
966
970
971
970
967
965
964
968
968
965
962
963
962
964
965
962
959
958
959
961
966
967
966
964
968
974
977
977
977
974
974
976
982
981
979
976
979
981
986
988
987
988
989
993
995
993
990
986
986
988
992
992
988
987
987
989
990
987
985
984
984
984
985
984
979
978
980
982
985
985
981
979
977
981
986
984
980
980
982
983
985
982
980
983
982
988
989
990
990
986
993
996
1000
1001
1001
998
1003
1007
1014
1015
1015
1016
1019
1023
1026
1029
1033
1042
1057
1078
1093
1103
1110
1105
1091
1067
1045
1025
1015
1014
1019
1023
1023
1020
1014
1009
1008
1006
1009
1006
1004
1001
999
1001
1003
1002
999
999
997
999
1000
999
999
998
1001
1003
1006
1005
1006
1010
1014
1019
1022
1025
1023
1023
1026
1030
1031
1032
1029
1029
1031
1037
1041
1040
1039
1039
1041
1048
1053
1052
1050
1047
1046
1048
1051
1052
1048
1047
1045
1046
1047
1043
1040
1034
1031
1031
1031
1027
1021
1018
1020
1019
1017
1013
1009
1005
1002
1004
1005
1001
1000
995
997
1000
996
996
991
992
991
996
1002
998
999
998
999
999
1005
1003
1000
1004
1007
1008
1015
1015
1013
1015
1020
1023
1029
1028
1030
1032
1037
1038
1043
1042
1040
1040
1043
1047
1046
1045
1044
1036
1038
1039
1039
1038
1032
1031
1033
1032
1033
1031
1027
1025
1023
1021
1021
1021
1017
1013
1014
1015
1016
1014
1012
1009
1011
1015
1017
1014
1013
1010
1012
1017
1023
1023
1020
1019
1020
1021
1026
1023
1019
1019
1021
1023
1030
1030
1029
1031
1033
1039
1045
1045
1047
1051
1053
1054
1056
1055
1053
1052
1052
1055
1057
1056
1053
1050
1051
1050
1051
1052
1049
1045
1043
1045
1046
1042
1040
1034
1036
1034
1037
1035
1031
1029
1029
1030
1030
1029
1024
1024
1024
1027
1030
1028
1028
1027
1027
1035
1038
1036
1036
1037
1039
1042
1044
1041
1041
1041
1052
1074
1097
1114
1125
1129
1130
1123
1103
1082
1060
1051
1048
1052
1056
1056
1053
1046
1047
1050
1050
1047
1045
1043
1046
1047
1049
1047
1044
1042
1044
1045
1044
1041
1038
1034
1033
1033
1035
1035
1030
1026
1025
1024
1029
1025
1025
1027
1029
1031
1031
1034
1035
1033
1035
1037
1040
1039
1038
1037
1035
1038
1041
1041
1040
1039
1044
1045
1047
1049
1047
1046
1049
1052
1053
1053
1052
1051
1050
1054
1053
1052
1048
1046
1046
1048
1046
1045
1039
1035
1035
1035
1035
1031
1027
1019
1022
1022
1023
1019
1013
1010
1014
1014
1015
1015
1013
1010
1009
1011
1012
1010
1009
1008
1010
1013
1018
1020
1018
1018
1023
1026
1030
1030
1029
1027
1031
1031
1034
1036
1033
1033
1035
1037
1038
1039
1034
1034
1031
1035
1036
1034
1029
1030
1029
1030
1032
1027
1024
1022
1026
1025
1027
1024
1021
1019
1016
1021
1019
1016
1014
1012
1011
1011
1014
1013
1009
1010
1007
1007
1006
1002
1002
1006
1020
1039
1060
1079
1096
1100
1101
1090
1073
1052
1038
1035
1035
1042
1046
1046
1043
1040
1043
1046
1049
1048
1045
1046
1048
1050
1053
1052
1047
1045
1045
1049
1049
1048
1042
1039
1040
1042
1046
1039
1035
1031
1031
1029
1031
1026
1024
1022
1019
1020
1021
1019
1013
1012
1010
1010
1014
1011
1006
1007
1008
1009
1011
1008
1007
1006
1008
1013
1014
1015
1014
1012
1015
1015
1018
1018
1016
1016
1019
1022
1028
1026
1027
1026
1029
1027
1033
1032
1026
1028
1027
1030
1031
1027
1026
1019
1023
1023
1026
1025
1016
1015
1018
1022
1024
1021
1017
1012
1013
1013
1015
1013
1008
1004
1003
1003
1005
1003
1002
1000
1001
1003
1005
1004
1001
1001
1002
1005
1006
1007
1005
1002
1000
1005
1008
1005
1004
1003
1004
1009
1010
1009
1012
1014
1017
1020
1021
1024
1023
1024
1024
1029
1031
1027
1027
1023
1026
1028
1028
1026
1023
1020
1019
1022
1019
1016
1014
1010
1008
1011
1012
1007
1006
1001
1003
1001
1003
1002
997
998
998
998
1001
998
998
995
999
1001
999
1003
1001
996
999
1002
1003
1003
1000
998
1000
1003
1005
1005
1005
1004
1006
1010
1016
1014
1013
1012
1013
1018
1019
1018
1014
1010
1012
1015
1016
1013
1008
1009
1009
1011
1012
1008
1010
1008
1007
1008
1009
1012
1019
1035
1051
1068
1081
1082
1064
1039
1016
1002
1001
1002
1004
1003
1003
1003
1002
1001
999
997
999
1000
1000
1001
998
1003
1005
1011
1014
1015
1013
1014
1014
1017
1017
1014
1010
1009
1008
1008
1009
1009
1004
999
1003
1000
1002
998
994
991
988
988
984
984
981
982
980
982
979
976
975
973
974
974
979
976
975
973
975
977
981
981
978
975
981
984
983
981
982
979
980
982
985
988
986
986
989
991
993
993
992
992
992
992
994
990
987
986
985
986
987
983
979
978
978
979
979
976
970
974
970
970
973
970
964
960
961
962
962
959
958
956
955
954
959
955
956
955
956
958
963
965
961
961
963
964
967
967
965
965
967
971
975
977
979
981
985
989
990
986
982
978
977
986
996
1015
1035
1052
1062
1059
1048
1024
1004
995
992
992
995
994
991
987
985
983
981
976
970
968
968
969
970
966
960
963
962
964
965
965
960
960
963
965
967
965
962
963
962
964
966
965
964
962
965
969
973
970
970
970
974
973
978
977
975
974
977
977
978
981
977
972
973
976
976
972
970
969
968
965
966
960
955
952
953
952
949
944
942
940
939
942
941
941
937
936
937
939
942
941
941
938
944
947
951
951
952
951
953
957
961
957
958
959
960
964
966
967
966
969
971
974
975
975
973
971
972
974
974
972
969
967
968
971
971
971
965
962
964
966
966
966
960
961
964
964
968
967
965
960
962
963
965
962
964
960
961
965
967
965
965
963
966
971
973
975
974
971
973
978
979
977
977
977
982
984
990
991
991
990
993
998
1003
1002
999
997
998
1001
1002
1000
997
996
997
998
998
998
994
988
988
991
989
987
983
981
977
981
982
977
975
974
975
981
981
979
976
976
976
981
984
984
986
983
986
989
994
995
991
992
993
995
999
999
997
1000
999
1004
1011
1012
1011
1013
1018
1023
1026
1024
1023
1023
1023
1027
1028
1026
1025
1022
1021
1022
1025
1024
1022
1016
1018
1014
1016
1015
1009
1006
1005
1004
1008
1003
1000
997
1000
998
1002
999
996
995
997
1000
1003
1003
1003
1004
1007
1011
1016
1015
1015
1014
1018
1019
1023
1021
1018
1018
1023
1027
1029
1030
1029
1032
1035
1039
1044
1045
1043
1045
1047
1047
1050
1051
1050
1046
1049
1055
1054
1055
1052
1051
1053
1055
1066
1078
1091
1106
1122
1137
1143
1136
1114
1087
1063
1050
1044
1040
1035
1031
1035
1035
1036
1033
1028
1030
1030
1033
1036
1037
1031
1028
1031
1033
1035
1032
1030
1031
1034
1038
1043
1043
1045
1047
1050
1052
1060
1061
1058
1058
1061
1061
1061
1057
1057
1056
1058
1059
1060
1055
1052
1050
1051
1050
1052
1050
1045
1043
1046
1045
1042
1038
1031
1028
1034
1034
1035
1032
1029
1027
1026
1028
1031
1028
1024
1027
1027
1030
1033
1033
1032
1030
1032
1036
1037
1034
1031
1030
1033
1037
1038
1038
1038
1035
1037
1041
1043
1043
1043
1039
1040
1043
1044
1043
1038
1038
1041
1045
1046
1042
1044
1039
1040
1041
1041
1039
1036
1037
1037
1036
1035
1033
1030
1027
1025
1027
1028
1024
1023
1021
1022
1025
1027
1023
1023
1022
1024
1026
1029
1029
1029
1028
1031
1034
1037
1038
1038
1037
1039
1044
1044
1046
1047
1048
1052
1056
1060
1059
1060
1062
1062
1064
1067
1061
1062
1058
1059
1057
1056
1053
1058
1065
1084
1108
1130
1149
1158
1160
1152
1131
1108
1089
1074
1068
1065
1063
1060
1056
1049
1042
1041
1045
1040
1038
1033
1032
1031
1032
1035
1033
1031
1030
1030
1034
1041
1040
1038
1034
1036
1042
1044
1045
1043
1045
1046
1051
1054
1057
1052
1055
1055
1059
1062
1059
1055
1055
1055
1059
1058
1052
1053
1049
1049
1050
1050
1048
1043
1042
1045
1043
1045
1044
1039
1036
1035
1036
1037
1034
1030
1026
1027
1029
1030
1027
1023
1023
1022
1026
1028
1027
1025
1025
1027
1031
1034
1035
1035
1032
1035
1038
1041
1042
1042
1044
1045
1049
1052
1053
1055
1056
1058
1060
1062
1058
1056
1056
1053
1055
1056
1054
1048
1046
1046
1048
1050
1042
1038
1037
1034
1034
1035
1034
1031
1027
1028
1028
1025
1023
1021
1019
1020
1024
1024
1023
1017
1016
1021
1023
1024
1025
1024
1020
1023
1027
1031
1030
1027
1024
1027
1031
1036
1033
1030
1032
1035
1041
1043
1046
1044
1047
1051
1055
1056
1057
1055
1055
1057
1058
1055
1053
1049
1044
1044
1045
1048
1042
1035
1035
1034
1039
1039
1036
1032
1027
1027
1029
1029
1025
1022
1019
1021
1021
1023
1022
1021
1020
1022
1024
1026
1026
1024
1026
1029
1032
1036
1035
1033
1033
1033
1039
1039
1040
1039
1044
1049
1053
1059
1059
1061
1064
1066
1071
1074
1077
1072
1071
1076
1078
1083
1095
1108
1122
1139
1156
1165
1157
1138
1105
1077
1059
1055
1048
1047
1043
1041
1038
1036
1030
1021
1017
1017
1021
1021
1017
1016
1012
1015
1020
1019
1019
1018
1018
1019
1022
1024
1023
1021
1022
1024
1027
1030
1029
1031
1028
1034
1038
1041
1043
1043
1044
1047
1048
1052
1051
1049
1048
1049
1052
1053
1045
1046
1044
1042
1043
1044
1042
1039
1035
1035
1035
1035
1033
1027
1023
1020
1022
1020
1019
1015
1012
1010
1011
1011
1008
1006
1005
1002
1008
1007
1006
1004
1003
1005
1007
1007
1005
1003
1000
1000
1005
1003
1000
1001
1002
1000
1009
1010
1010
1009
1006
1009
1011
1014
1011
1010
1005
1005
1010
1011
1008
1007
1003
999
1002
1001
999
993
992
991
992
990
987
981
982
983
986
985
985
982
979
982
985
989
989
986
986
988
990
993
993
990
990
992
993
997
997
996
997
1001
1006
1008
1008
1007
1005
1007
1011
1011
1010
1006
1002
1002
1005
1005
1003
998
997
996
996
996
994
989
985
984
984
980
978
974
969
967
969
968
965
961
961
964
968
971
971
969
968
971
977
976
978
977
978
980
983
985
982
982
987
1004
1027
1051
1069
1075
1074
1063
1042
1018
996
983
984
991
999
999
1000
995
991
989
986
989
989
986
984
984
987
986
983
980
976
978
976
978
975
972
969
968
970
970
970
965
965
966
968
968
971
967
968
970
971
976
974
975
975
978
980
981
981
981
980
983
987
985
988
983
984
990
992
995
992
990
990
988
991
992
987
984
982
979
981
979
971
970
967
969
969
967
965
957
953
953
953
952
949
945
943
943
945
943
942
940
940
940
945
943
941
940
940
944
950
952
952
953
954
956
958
959
960
958
957
960
963
967
970
969
973
976
980
986
984
983
981
983
986
986
985
982
978
977
980
981
978
976
973
973
977
977
977
973
969
966
968
969
966
960
957
954
957
958
956
954
953
953
958
954
956
953
955
960
964
967
968
966
966
971
971
970
972
971
972
975
976
983
983
984
986
990
997
998
999
1002
1005
1008
1008
1011
1011
1006
1009
1021
1043
1067
1083
1094
1098
1092
1072
1046
1023
1006
997
1000
1003
1009
1008
1005
1006
1005
1005
1004
1001
998
995
993
996
995
994
992
990
989
992
995
994
990
991
994
998
1001
997
996
995
996
998
1002
1001
1000
1001
1003
1008
1010
1011
1011
1012
1014
1019
1020
1022
1019
1020
1021
1024
1027
1025
1023
1020
1021
1023
1023
1021
1016
1013
1014
1013
1013
1008
1005
1000
1004
1000
1002
999
994
990
989
990
988
989
986
984
985
987
987
985
984
984
987
994
995
996
996
997
1000
1004
1008
1008
1007
1008
1009
1016
1018
1021
1020
1022
1026
1030
1031
1030
1029
1027
1027
1029
1030
1028
1026
1024
1025
1023
1023
1020
1019
1017
1016
1020
1019
1016
1011
1009
1009
1011
1006
1006
999
996
996
995
998
994
992
989
990
994
995
994
993
990
994
996
997
998
999
999
1001
1005
1007
1006
1002
1002
1005
1005
1007
1006
1005
1008
1010
1015
1020
1021
1021
1021
1028
1032
1034
1032
1032
1032
1031
1031
1036
1035
1030
1030
1030
1031
1033
1031
1027
1027
1026
1026
1027
1028
1022
1018
1018
1014
1018
1015
1012
1008
1009
1008
1006
1004
1002
1001
1001
1002
1003
1001
999
999
1002
1006
1008
1008
1007
1006
1008
1011
1012
1008
1007
1010
1012
1018
1020
1020
1020
1023
1025
1031
1035
1033
1032
1032
1035
1035
1037
1038
1035
1034
1033
1039
1036
1037
1038
1035
1039
1041
1043
1041
1040
1038
1041
1043
1044
1043
1047
1058
1076
1099
1118
1130
1142
1137
1119
1095
1066
1045
1031
1029
1030
1031
1031
1025
1021
1022
1020
1022
1023
1023
1017
1016
1020
1022
1023
1025
1023
1022
1028
1030
1035
1035
1034
1033
1035
1039
1042
1043
1039
1039
1038
1040
1040
1038
1033
1029
1033
1033
1032
1030
1022
1022
1023
1023
1024
1024
1021
1022
1021
1021
1023
1021
1016
1017
1017
1016
1019
1016
1014
1012
1012
1013
1014
1013
1012
1010
1014
1015
1018
1018
1014
1012
1010
1012
1015
1010
1010
1006
1007
1012
1013
1012
1011
1010
1011
1017
1019
1020
1018
1016
1017
1017
1019
1017
1015
1014
1014
1013
1014
1011
1009
1008
1005
1006
1003
1000
997
996
997
997
996
995
991
990
989
989
991
989
987
988
990
993
996
996
995
994
999
1002
1002
1006
1006
1005
1008
1010
1012
1010
1008
1007
1011
1014
1015
1017
1017
1018
1021
1024
1025
1027
1026
1027
1028
1031
1032
1030
1027
1023
1025
1023
1027
1024
1018
1018
1020
1020
1021
1015
1011
1010
1011
1009
1010
1006
1003
998
994
996
993
988
988
985
982
982
981
981
977
979
979
983
985
986
984
987
990
993
995
995
992
992
995
1000
1002
998
993
995
999
1005
1006
1009
1008
1008
1008
1015
1015
1019
1017
1016
1018
1019
1020
1020
1017
1014
1017
1016
1017
1016
1011
1009
1009
1008
1011
1007
1000
1000
999
1001
1002
998
996
993
992
992
991
988
987
984
986
988
990
990
988
985
992
996
996
993
990
990
991
993
995
994
990
990
994
995
1000
1004
1003
1007
1008
1017
1023
1022
1021
1019
1022
1026
1028
1027
1022
1021
1021
1022
1025
1021
1019
1019
1021
1023
1023
1021
1020
1021
1022
1021
1021
1019
1023
1037
1054
1075
1090
1099
1099
1090
1069
1048
1026
1009
997
994
997
1000
999
994
991
988
990
992
991
992
988
988
988
990
987
990
981
988
988
992
993
993
992
993
996
997
996
998
996
995
996
999
999
996
996
995
996
999
1000
998
998
996
995
993
997
992
987
985
981
985
984
984
979
975
975
976
976
974
972
967
968
972
967
970
968
968
969
970
972
972
972
969
974
973
973
971
971
968
968
970
972
972
972
970
973
976
978
977
979
978
979
984
982
981
975
974
974
975
976
972
970
964
964
965
965
965
962
959
959
957
959
956
953
952
952
955
956
955
953
950
947
949
949
948
945
945
946
946
948
946
945
945
950
951
951
949
949
947
951
952
953
952
949
949
950
956
957
958
957
958
961
965
968
967
967
964
962
966
965
964
962
960
958
961
959
955
955
950
950
951
952
946
941
936
935
937
939
935
932
930
931
935
933
933
936
934
936
937
941
944
944
944
949
950
952
952
949
948
949
953
953
952
949
948
952
957
960
961
961
963
965
970
972
970
965
965
969
970
969
963
957
952
953
957
971
984
1001
1017
1029
1025
1008
972
949
931
927
934
938
941
937
934
935
934
929
932
924
925
925
927
930
930
929
931
935
938
945
944
943
943
945
950
950
952
950
952
955
958
964
965
965
964
968
973
976
975
972
970
973
971
971
969
963
963
960
960
959
955
947
944
942
941
942
938
935
931
931
934
931
928
925
923
924
925
930
927
923
922
926
930
932
931
930
927
930
936
938
935
938
935
940
945
948
952
952
952
959
963
964
967
965
963
968
968
970
969
967
965
969
969
971
970
965
963
967
970
969
968
965
962
964
964
964
963
957
954
957
957
957
955
952
947
950
951
952
947
948
947
949
954
956
954
954
952
954
959
963
957
956
959
957
960
964
966
964
965
966
972
976
976
975
975
980
986
991
991
990
992
995
998
1001
999
999
998
996
999
1003
998
995
994
995
996
995
994
990
990
989
989
992
987
984
984
985
986
989
985
984
983
986
997
1008
1020
1038
1052
1069
1082
1079
1063
1037
1013
1000
993
994
997
997
995
999
1001
1001
1000
1002
1002
1005
1010
1013
1013
1011
1011
1014
1019
1018
1016
1014
1011
1013
1015
1019
1015
1014
1012
1013
1012
1016
1014
1009
1007
1008
1009
1008
1004
1001
997
998
1000
997
994
991
989
990
990
992
989
989
987
991
991
993
993
991
991
993
997
1001
1000
998
995
997
999
1001
1001
1001
999
1001
1003
1003
1006
1004
1003
1006
1009
1009
1008
1003
1003
1004
1003
1005
1002
998
997
996
1002
1001
998
997
994
996
997
997
996
992
988
986
990
991
991
985
982
984
987
988
988
982
981
980
982
985
987
985
984
986
990
995
996
993
992
995
997
998
999
998
997
1002
1003
1008
1010
1012
1010
