985
981
983
983
980
981
982
985
987
988
985
984
983
982
983
982
981
980
979
984
982
976
963
949
941
945
960
994
1038
1081
1108
1108
1071
1008
956
936
942
966
984
994
992
990
988
990
995
996
991
983
981
980
982
985
980
976
978
978
982
984
983
977
974
973
973
973
967
966
969
976
982
983
982
975
973
970
971
974
975
975
976
976
981
985
979
979
975
976
977
981
979
976
974
975
975
978
974
970
969
973
976
976
972
967
964
968
969
971
969
965
960
967
970
974
970
962
954
950
948
949
951
949
948
945
944
943
938
934
934
936
938
940
941
936
933
934
937
936
939
934
933
933
935
938
941
937
930
930
929
927
931
932
932
939
948
953
952
949
945
946
947
948
949
945
941
944
947
949
953
950
945
946
945
952
953
958
957
961
959
959
954
953
948
948
947
949
950
943
942
940
942
947
948
946
941
941
943
942
942
940
934
930
930
931
931
928
929
931
934
933
930
927
926
931
932
937
937
932
934
933
930
932
932
929
931
933
935
934
931
928
925
926
930
932
933
934
938
940
945
951
951
951
950
956
959
960
956
947
939
931
931
937
956
989
1031
1076
1112
1124
1095
1031
968
928
915
916
922
937
950
957
957
958
957
955
953
955
956
956
953
951
950
950
950
954
952
949
949
951
953
954
952
950
950
949
957
955
955
956
956
960
958
960
963
961
962
963
963
967
964
964
967
970
972
975
974
981
983
989
998
1002
1003
1001
1002
1006
1010
1010
1006
998
999
998
1000
1002
1003
1001
997
994
991
990
985
980
976
975
970
970
967
966
964
961
961
961
960
956
950
950
956
956
956
950
949
951
952
957
956
952
952
949
954
955
952
950
952
955
954
956
954
954
954
956
959
959
959
960
961
965
969
971
971
973
975
978
985
989
997
1004
1006
1013
1019
1017
1012
1015
1014
1020
1021
1022
1027
1024
1027
1029
1024
1020
1014
1008
1009
1009
1010
1009
1006
1001
997
1001
1000
1000
998
996
993
997
1001
1003
1001
998
996
998
1000
1005
1004
1002
1002
1003
1007
1010
1004
1005
1001
1003
1003
1004
1005
1002
1001
1001
1005
1006
1006
1006
1003
1004
1005
1007
1008
1007
1009
1010
1012
1014
1012
1011
1010
1013
1016
1021
1016
1016
1015
1017
1028
1033
1036
1041
1046
1057
1065
1068
1065
1062
1061
1064
1064
1058
1054
1053
1067
1095
1129
1161
1191
1211
1217
1203
1163
1104
1050
1021
1014
1021
1031
1036
1029
1028
1022
1023
1025
1023
1025
1022
1022
1023
1028
1030
1030
1028
1027
1027
1029
1035
1035
1033
1031
1031
1028
1029
1026
1025
1025
1030
1032
1031
1031
1027
1027
1029
1032
1036
1037
1036
1032
1036
1040
1040
1040
1037
1039
1044
1050
1052
1059
1056
1061
1066
1070
1072
1074
1072
1072
1071
1071
1072
1066
1062
1058
1057
1061
1064
1058
1050
1042
1040
1041
1040
1035
1029
1025
1020
1020
1023
1020
1018
1018
1015
1014
1012
1011
1010
1008
1006
1005
1000
998
996
997
1000
1002
1002
997
999
995
999
1001
1003
1002
1002
1002
1003
1007
1012
1010
1010
1004
1006
1009
1015
1019
1020
1022
1027
1032
1035
1034
1034
1036
1041
1042
1044
1041
1035
1035
1040
1044
1044
1040
1038
1030
1026
1023
1026
1036
1055
1086
1128
1167
1203
1226
1222
1186
1127
1073
1041
1031
1031
1035
1034
1031
1025
1022
1022
1023
1025
1027
1024
1024
1020
1020
1021
1026
1026
1027
1024
1022
1022
1023
1024
1029
1027
1029
1029
1033
1037
1035
1035
1036
1042
1048
1052
1055
1051
1048
1049
1054
1055
1052
1047
1044
1045
1048
1048
1047
1043
1039
1041
1047
1047
1049
1045
1043
1042
1044
1044
1042
1037
1033
1031
1032
1030
1027
1024
1021
1019
1017
1016
1011
1010
1005
1004
1007
1006
1001
997
994
994
999
1002
1004
1002
998
997
995
994
993
992
994
997
996
993
993
993
997
1005
1012
1014
1012
1014
1019
1025
1031
1034
1031
1027
1022
1021
1025
1027
1028
1025
1021
1023
1024
1026
1026
1019
1017
1016
1023
1026
1028
1027
1024
1026
1029
1025
1022
1015
1014
1015
1018
1019
1014
1010
1012
1014
1016
1019
1018
1014
1008
1010
1010
1012
1012
1009
1008
1010
1013
1016
1013
1013
1009
1012
1012
1012
1011
1009
1009
1013
1019
1021
1020
1013
1006
1000
997
1000
1013
1036
1067
1108
1144
1172
1176
1147
1090
1037
1009
1001
1009
1017
1024
1030
1033
1035
1031
1024
1020
1021
1021
1021
1023
1021
1021
1021
1021
1022
1016
1010
1007
1008
1008
1002
1002
998
997
1003
1004
1002
998
995
996
993
998
998
995
992
990
992
995
995
995
988
992
995
999
1002
1006
1003
1002
1002
1005
1010
1009
1006
1004
1005
1013
1015
1016
1011
1008
1009
1009
1007
1008
1004
1001
1003
1004
1006
999
998
997
998
999
996
993
988
985
983
986
982
979
977
977
977
979
980
977
974
972
973
972
973
967
963
962
964
964
960
957
953
952
952
955
953
950
948
947
947
947
949
948
945
944
942
944
943
942
942
943
944
946
945
946
946
948
956
961
969
968
968
968
967
970
973
967
961
957
959
961
963
965
961
963
964
967
972
969
965
963
961
962
961
958
959
962
964
967
971
970
968
965
967
965
968
968
963
962
965
973
975
973
971
969
970
969
969
965
961
966
965
968
963
958
956
958
960
963
962
960
959
954
957
955
952
952
948
950
954
958
960
962
959
958
964
969
969
966
964
962
964
965
963
961
961
960
967
966
962
954
949
960
988
1020
1052
1079
1106
1118
1116
1091
1043
990
957
942
945
952
962
964
964
961
956
957
960
959
955
955
956
962
964
962
959
955
953
957
959
959
957
956
960
960
962
960
955
949
951
951
953
950
950
948
950
956
957
955
952
951
950
950
949
946
944
942
942
947
950
951
948
946
943
938
934
933
929
931
938
938
937
937
936
933
935
939
939
938
934
932
933
935
935
932
930
928
927
927
930
929
924
928
931
930
928
927
922
917
916
923
922
922
920
922
928
932
930
931
928
931
937
942
947
945
941
945
946
950
953
948
944
942
946
951
954
952
947
944
941
947
951
952
952
951
952
953
952
952
949
949
954
956
951
948
946
944
948
952
953
956
953
952
955
960
960
959
959
960
962
965
968
967
963
961
967
971
973
972
970
973
978
979
981
982
982
980
982
983
987
982
976
968
969
975
989
1012
1042
1070
1095
1106
1094
1057
1014
979
961
960
963
973
979
985
990
994
996
997
994
988
989
993
993
992
990
990
989
989
990
985
987
991
991
992
992
990
989
993
996
1000
1002
1000
1000
999
1004
1008
1007
1010
1011
1011
1014
1019
1020
1022
1022
1018
1019
1019
1018
1014
1012
1007
1008
1008
1008
1006
1003
1003
1003
1007
1010
1008
1004
1000
1004
1005
1006
1004
1000
997
994
993
994
993
988
984
986
989
986
988
986
986
986
991
992
993
994
992
994
997
997
995
994
990
990
998
998
995
995
994
998
1000
1000
1003
1000
1005
1006
1012
1014
1017
1017
1021
1021
1023
1024
1023
1020
1020
1022
1024
1022
1019
1016
1017
1015
1013
1013
1009
1008
1006
1005
1006
1008
1006
1004
998
1000
999
1000
993
992
994
1000
1003
1007
1004
1003
999
1000
1001
999
999
998
998
999
1003
1008
1005
1005
1003
1002
1007
1008
1011
1008
1008
1013
1016
1018
1021
1020
1022
1024
1029
1030
1031
1028
1029
1038
1042
1041
1040
1039
1041
1049
1052
1054
1054
1053
1053
1052
1055
1056
1050
1044
1042
1040
1044
1043
1041
1037
1032
1030
1030
1033
1042
1062
1093
1127
1155
1173
1171
1155
1112
1066
1038
1026
1025
1027
1028
1029
1027
1029
1026
1024
1021
1023
1025
1026
1025
1025
1027
1028
1031
1030
1028
1025
1024
1026
1024
1026
1026
1024
1026
1026
1031
1032
1031
1033
1034
1040
1042
1044
1044
1044
1049
1054
1058
1058
1057
1056
1055
1055
1059
1060
1055
1049
1046
1047
1047
1049
1047
1045
1043
1043
1047
1045
1041
1035
1031
1030
1032
1032
1029
1025
1023
1023
1025
1025
1021
1016
1013
1015
1016
1016
1013
1009
1010
1012
1014
1008
1008
1003
1001
1004
1006
1006
1002
1001
1002
1001
1003
1003
1002
1001
998
1003
1007
1008
1011
1009
1009
1015
1020
1023
1025
1021
1021
1026
1025
1027
1017
1013
1011
1016
1018
1019
1016
1015
1013
1014
1013
1017
1014
1012
1010
1008
1011
1014
1012
1010
1007
1008
1010
1007
1005
1004
1003
1008
1008
1012
1009
1008
1006
1006
1006
1004
1007
1004
1006
1011
1014
1012
1010
1007
1005
1013
1014
1016
1015
1013
1014
1014
1019
1020
1020
1022
1024
1027
1030
1031
1028
1028
1031
1035
1036
1035
1031
1026
1024
1027
1028
1025
1023
1021
1025
1028
1031
1034
1035
1032
1033
1035
1031
1030
1030
1028
1024
1023
1027
1024
1023
1021
1019
1024
1026
1027
1026
1023
1021
1021
1028
1028
1025
1021
1022
1020
1020
1012
1009
1006
1007
1009
1014
1014
1014
1011
1012
1013
1018
1017
1015
1015
1013
1013
1014
1018
1018
1016
1021
1024
1028
1032
1034
1031
1030
1040
1065
1101
1135
1173
1202
1218
1215
1181
1125
1070
1035
1024
1026
1033
1032
1029
1023
1020
1026
1023
1022
1020
1020
1023
1028
1029
1028
1027
1026
1030
1031
1029
1027
1026
1022
1023
1026
1029
1026
1023
1023
1025
1028
1027
1025
1022
1022
1024
1025
1023
1025
1020
1021
1022
1023
1022
1018
1015
1015
1019
1026
1022
1024
1022
1020
1023
1029
1032
1030
1029
1025
1026
1031
1033
1030
1029
1027
1030
1033
1027
1023
1015
1010
1006
1006
1001
993
989
986
987
990
985
980
979
976
977
981
984
980
976
973
970
972
972
973
968
964
962
963
963
965
961
962
968
969
971
970
969
971
967
963
964
964
961
963
963
967
964
963
963
960
963
965
961
961
960
964
969
978
985
986
979
974
974
976
973
971
968
966
965
973
976
973
972
965
966
966
967
965
966
965
967
967
971
970
963
955
946
934
923
930
953
993
1044
1092
1128
1132
1101
1045
986
953
942
945
959
970
977
976
971
967
962
961
965
968
967
966
964
965
970
972
972
969
968
972
975
980
977
981
982
984
989
997
998
995
992
992
999
999
1000
996
991
990
992
989
990
985
977
971
968
965
959
956
954
951
952
951
947
943
941
939
941
947
945
942
940
936
938
937
937
936
933
932
929
931
932
931
926
924
927
924
923
917
914
919
923
926
922
920
916
914
917
921
921
919
915
915
920
926
930
927
928
933
944
950
952
956
954
959
962
959
960
964
965
971
973
972
970
965
960
959
954
952
949
941
932
928
931
930
931
927
920
917
920
922
919
915
910
909
911
910
912
913
910
909
911
914
913
908
904
903
909
912
917
912
912
912
913
917
922
922
918
914
912
916
918
919
919
923
928
935
939
938
938
939
945
948
951
953
954
958
961
967
971
966
964
965
969
968
966
961
955
950
945
942
933
921
916
926
954
988
1027
1059
1078
1073
1040
977
917
884
877
887
908
926
934
933
924
924
925
931
933
930
929
930
934
932
930
923
922
924
928
932
932
932
933
931
936
941
944
943
944
948
955
963
967
969
971
971
973
976
981
982
983
986
992
993
994
989
983
977
977
974
970
967
964
961
963
967
966
965
959
957
957
957
960
957
956
950
949
949
949
947
943
942
946
947
945
942
940
937
938
939
938
935
931
932
932
941
942
940
933
931
937
938
943
942
940
942
950
957
961
963
960
966
970
979
982
984
985
987
994
1000
999
998
997
997
999
1001
1003
999
992
985
984
983
984
982
982
982
984
984
982
978
977
977
981
986
988
988
984
981
975
973
966
952
936
933
947
985
1039
1100
1148
1172
1151
1090
1013
966
953
967
987
997
989
983
981
985
990
994
990
985
980
978
979
987
991
996
997
1001
1007
1015
1019
1025
1025
1024
1029
1030
1030
1028
1024
1024
1027
1030
1025
1020
1013
1010
1013
1014
1013
1009
1007
1005
1009
1012
1012
1008
1002
998
1005
1008
1010
1004
1006
1008
1011
1011
1011
1010
1008
1007
1009
1007
1008
1005
1001
1001
1002
1001
1002
1004
998
996
994
993
987
992
986
984
982
981
979
980
980
982
984
982
984
987
987
986
990
995
1001
1005
1008
1011
1014
1013
1011
1005
999
996
996
998
1002
999
995
998
1003
1004
1001
994
989
986
988
991
994
989
988
985
990
992
991
990
991
991
994
996
998
995
992
992
991
997
997
992
993
990
996
997
999
1000
998
999
1002
1002
1001
1002
999
1005
1006
1008
1006
1008
1007
1011
1012
1015
1018
1018
1019
1022
1026
1030
1032
1033
1031
1032
1034
1035
1038
1033
1027
1024
1023
1026
1025
1022
1020
1019
1023
1024
1022
1023
1013
1012
1012
1012
1009
1003
1002
1002
1007
1008
1002
1001
999
999
998
1004
1003
1001
996
992
996
998
1000
998
992
992
990
1000
1002
1004
1008
1009
1010
1014
1013
1006
1006
1006
1009
1011
1010
1006
1006
1008
1016
1016
1009
1007
1012
1039
1078
1120
1155
1187
1209
1215
1203
1161
1096
1040
1009
1004
1010
1025
1029
1026
1017
1018
1018
1019
1019
1018
1014
1015
1018
1016
1012
1011
1005
1003
1007
1010
1010
1007
1005
1005
1007
1009
1008
1006
1004
1000
1003
1005
1007
1004
1003
1001
1004
1008
1008
1008
1007
1004
1007
1010
1011
1011
1008
1012
1017
1023
1024
1023
1029
1035
1040
1041
1036
1034
1030
1029
1032
1034
1035
1031
1028
1027
1027
1029
1033
1036
1036
1037
1040
1043
1044
1039
1031
1025
1021
1018
1018
1016
1011
1009
1006
1002
998
994
990
988
991
988
990
985
978
975
974
975
978
976
971
972
970
973
969
963
957
960
962
966
966
962
960
960
963
961
965
965
963
962
967
969
972
978
979
982
984
990
991
989
987
987
993
997
999
1001
996
995
998
1004
1005
1006
1002
1002
1009
1012
1012
1006
1002
1002
1005
1012
1011
1006
995
987
986
990
992
997
995
995
995
996
995
993
989
995
998
1001
1000
997
993
992
994
995
992
989
987
984
985
987
988
985
980
978
977
977
973
972
969
968
968
973
977
976
976
975
980
982
982
981
980
982
987
989
988
984
982
983
983
989
991
992
991
989
989
991
991
987
985
988
986
991
983
979
974
974
976
981
978
977
975
968
968
971
973
970
971
967
969
971
972
970
969
970
971
972
971
966
958
958
961
965
966
964
963
965
971
977
976
976
974
975
977
979
980
979
982
982
983
984
983
981
979
979
979
983
982
981
977
975
982
985
985
982
979
976
975
978
979
979
978
975
970
969
968
965
961
958
961
961
960
957
956
956
957
959
958
954
948
946
946
946
945
944
943
943
944
946
949
943
939
937
940
944
943
944
940
939
942
943
943
942
941
941
943
944
946
943
942
944
951
955
958
956
953
956
958
958
956
956
953
952
957
964
965
961
957
954
951
950
954
954
955
956
958
958
954
948
942
938
937
941
939
938
936
932
933
937
938
933
928
926
927
927
927
924
916
914
917
918
914
915
912
914
918
919
915
913
905
903
905
908
908
902
898
895
896
900
903
901
898
901
907
916
921
920
922
923
920
919
919
920
933
963
1004
1044
1077
1094
1096
1066
1008
954
915
901
902
911
924
927
930
925
918
915
915
916
913
910
905
906
909
912
911
906
900
898
900
903
903
904
902
901
904
907
908
906
902
899
900
904
905
902
896
897
897
896
899
893
891
890
892
894
891
891
887
889
892
897
900
903
904
906
916
922
922
920
919
919
924
925
928
934
938
942
948
952
954
951
950
952
958
959
961
960
957
955
955
957
957
956
955
957
957
957
957
954
955
955
953
950
949
946
942
943
944
944
943
941
939
936
935
936
936
933
930
934
935
935
934
930
928
927
933
934
933
929
920
916
915
921
920
924
923
925
929
934
940
941
937
941
944
947
945
941
939
941
949
953
953
955
952
953
958
964
965
964
958
958
960
960
965
965
963
963
965
967
967
967
965
969
971
972
975
972
976
978
980
981
980
982
981
983
987
990
990
986
985
981
986
990
989
986
983
984
985
987
987
982
978
979
982
982
982
977
974
969
974
978
983
983
984
981
979
983
985
983
980
982
981
984
981
984
984
989
991
996
996
998
998
1001
1002
1006
1006
1004
1000
1001
1005
1009
1008
1005
1003
1002
1006
1006
1003
1000
1003
1030
1076
1126
1168
1197
1205
1193
1159
1102
1038
995
978
982
997
1009
1010
1004
1000
993
992
995
992
992
988
989
995
996
992
987
986
987
998
1005
1011
1015
1016
1020
1024
1027
1026
1019
1013
1012
1014
1019
1020
1017
1015
1016
1022
1030
1027
1025
1018
1016
1020
1022
1020
1018
1016
1014
1015
1018
1019
1016
1016
1015
1016
1017
1015
1013
1011
1014
1018
1020
1022
1017
1016
1011
1012
1015
1015
1011
1008
1009
1009
1012
1010
1006
1001
997
993
995
991
988
982
976
976
981
984
981
984
983
988
990
991
991
990
992
996
997
994
996
994
997
1001
1006
1007
1007
1011
1009
1018
1025
1026
1026
1026
1026
1026
1030
1030
1027
1024
1022
1025
1029
1029
1028
1023
1023
1024
1028
1025
1022
1017
1017
1020
1023
1023
1021
1018
1018
1019
1022
1019
1016
1011
1008
1009
1010
1008
1003
998
998
999
1002
1007
1007
1006
1005
1004
1007
1010
1009
1009
1013
1016
1020
1023
1024
1026
1029
1037
1039
1039
1033
1029
1032
1034
1039
1040
1039
1037
1042
1046
1051
1048
1047
1046
1047
1048
1051
1045
1041
1036
1033
1033
1031
1035
1042
1057
1083
1120
1149
1178
1192
1191
1158
1106
1050
1010
998
1005
1017
1024
1026
1024
1016
1010
1005
1004
1006
1007
1004
1002
1003
1008
1012
1014
1012
1007
1010
1014
1020
1020
1019
1019
1025
1027
1034
1035
1034
1037
1036
1038
1038
1037
1032
1031
1033
1033
1038
1041
1041
1040
1040
1043
1042
1043
1038
1033
1035
1038
1043
1041
1040
1035
1036
1043
1048
1045
1042
1043
1041
1043
1048
1049
1046
1040
1040
1041
1039
1035
1031
1026
1023
1029
1032
1030
1026
1019
1016
1015
1018
1021
1016
1007
1003
1003
1005
1003
1003
1002
999
1002
1005
1004
1000
997
992
994
997
996
996
996
994
1001
1007
1005
1004
1004
1002
1007
1008
1012
1012
1010
1012
1014
1014
1012
1006
1002
1004
1009
1013
1016
1012
1005
1003
1006
1010
1012
1012
1015
1014
1019
1024
1023
1021
1018
1017
1016
1021
1019
1018
1019
1019
1022
1020
1019
1018
1019
1021
1026
1030
1027
1027
1029
1036
1040
1048
1048
1051
1044
1044
1043
1047
1045
1031
1019
1003
996
1000
1011
1034
1064
1101
1140
1179
1194
1173
1121
