990
991
990
989
989
990
992
988
987
984
984
987
987
987
982
978
976
976
976
975
971
966
964
964
965
963
960
956
952
953
954
952
951
946
947
951
952
952
950
949
952
957
961
962
964
960
962
962
964
963
963
966
979
998
1022
1038
1042
1030
1007
986
974
969
971
978
982
988
991
991
986
982
980
982
983
982
980
977
976
977
977
978
974
970
968
967
967
967
964
960
955
959
958
956
953
947
945
942
946
948
945
941
941
943
947
948
948
946
950
952
955
957
958
957
959
962
965
968
968
965
965
968
970
970
973
970
968
973
978
976
974
971
970
970
970
969
967
962
961
961
960
960
955
951
952
951
950
948
943
941
940
941
941
938
936
932
929
929
928
929
925
923
920
923
924
923
924
923
922
925
927
930
929
927
927
928
929
931
930
930
927
934
936
938
938
938
935
941
946
950
947
947
949
949
954
955
956
956
958
959
961
961
955
956
957
958
958
957
953
953
952
950
956
957
952
949
948
949
950
949
945
943
940
940
942
943
942
936
937
937
938
941
938
938
937
939
941
941
943
939
940
944
946
947
947
945
947
950
953
954
954
953
952
955
960
960
958
959
962
967
972
970
972
972
974
976
979
978
977
975
975
978
980
979
977
972
973
975
976
975
972
968
968
970
970
968
968
965
962
965
966
967
965
963
963
965
966
969
966
966
971
982
998
1016
1029
1042
1052
1054
1040
1013
989
969
963
963
972
974
978
975
976
979
978
979
979
979
981
987
991
994
995
993
998
1001
1004
1007
1005
1004
1003
1005
1005
1009
1009
1000
1006
1005
1004
1003
1001
998
997
995
994
990
988
982
981
981
983
984
976
974
973
972
975
973
972
969
967
970
971
972
966
966
967
968
972
974
972
969
971
974
975
979
977
976
975
977
979
980
978
976
977
979
982
982
980
976
980
984
989
990
991
993
993
997
1002
997
1000
997
997
999
1001
1001
997
995
994
993
995
993
989
989
984
986
986
983
983
975
978
980
983
982
981
976
978
979
981
979
977
975
977
980
981
976
975
973
975
977
980
981
978
976
974
980
978
979
978
975
977
981
982
982
981
979
982
987
990
993
993
991
992
1003
1007
1012
1012
1011
1012
1014
1018
1018
1014
1012
1013
1014
1016
1014
1013
1010
1008
1008
1007
1006
1003
999
1000
998
999
995
992
985
987
985
986
985
981
977
975
976
977
973
973
971
972
976
980
983
980
980
980
981
983
986
984
984
985
987
987
986
983
984
984
981
988
989
988
987
988
992
994
995
996
995
1000
1007
1013
1015
1014
1016
1020
1023
1027
1026
1026
1024
1021
1025
1027
1027
1027
1022
1021
1025
1027
1033
1043
1058
1074
1091
1102
1104
1091
1065
1038
1019
1010
1004
998
996
993
993
993
989
985
981
979
981
982
982
981
982
979
986
990
991
991
991
994
994
998
997
997
994
996
1001
999
1005
1002
1000
1001
1006
1008
1008
1007
1010
1014
1019
1022
1027
1028
1025
1026
1031
1031
1030
1028
1025
1025
1025
1029
1026
1025
1024
1021
1023
1027
1022
1018
1015
1012
1013
1015
1011
1005
1002
999
998
999
997
990
989
989
986
988
985
983
981
982
981
984
983
981
978
978
980
981
979
978
978
979
980
984
984
984
982
985
987
988
991
989
987
987
991
997
994
998
997
998
1003
1008
1011
1011
1010
1013
1012
1015
1015
1013
1010
1010
1010
1016
1015
1012
1007
1006
1006
1008
1008
1004
1001
1000
1001
999
999
995
990
987
986
984
984
977
978
976
975
976
974
973
969
967
971
976
974
972
972
972
973
978
981
981
980
980
983
988
985
985
984
981
987
988
990
989
991
990
996
1001
1003
1004
1003
1009
1015
1019
1021
1021
1017
1020
1023
1027
1027
1022
1021
1021
1022
1026
1027
1026
1025
1023
1021
1025
1022
1018
1015
1014
1019
1026
1037
1053
1069
1084
1093
1089
1068
1037
1010
994
986
986
988
986
987
988
988
988
985
982
980
980
986
987
987
986
986
984
986
988
987
986
984
984
988
992
992
992
988
992
995
1002
1000
1003
1004
1007
1012
1017
1018
1014
1015
1017
1019
1022
1025
1024
1023
1022
1024
1027
1028
1026
1023
1022
1020
1023
1023
1020
1014
1011
1008
1005
1005
998
991
991
990
990
989
986
982
981
980
981
981
975
974
974
977
979
974
976
972
976
976
981
976
974
974
975
979
981
979
977
975
975
982
984
986
986
984
988
994
1000
1000
1000
998
997
997
999
1001
993
993
998
999
998
1001
996
993
993
995
999
997
995
993
992
992
996
995
988
984
983
983
983
982
976
973
969
972
973
972
970
966
968
967
969
970
969
967
966
969
974
974
973
970
970
973
975
973
972
974
970
974
976
979
978
980
982
985
990
994
993
992
992
991
993
997
1007
1023
1046
1070
1089
1094
1093
1073
1048
1026
1009
1000
999
999
999
998
1001
996
991
986
983
982
983
982
978
976
975
976
975
971
970
965
965
965
969
970
969
965
967
970
970
971
971
970
972
977
980
978
974
973
972
974
977
974
975
974
976
980
984
982
981
981
984
990
993
997
993
989
993
994
997
993
993
990
990
989
990
987
984
979
979
980
981
977
974
968
965
965
965
960
956
951
950
951
952
946
941
940
938
939
942
944
942
942
943
947
951
951
950
950
950
952
956
957
957
956
954
957
962
958
960
958
959
965
969
970
966
967
971
974
978
977
979
976
973
972
976
975
973
971
969
969
974
970
969
966
964
964
969
964
960
958
955
956
957
952
946
942
938
939
941
938
936
935
935
935
940
940
940
933
935
935
940
939
940
941
944
945
950
950
950
949
950
952
956
955
954
955
954
960
964
964
967
970
969
974
977
975
973
973
975
977
980
976
971
969
967
970
971
970
964
963
961
960
961
959
954
947
943
944
947
946
943
940
939
942
944
944
946
945
941
944
948
947
946
948
949
951
957
955
951
953
955
957
960
962
960
957
960
966
975
978
976
978
981
990
1008
1034
1057
1081
1094
1105
1100
1077
1042
1007
988
984
988
991
992
992
986
991
992
988
981
977
975
974
974
972
969
963
961
963
966
965
960
959
958
961
963
965
964
963
966
967
970
970
967
968
966
969
972
975
973
973
976
976
981
980
980
981
980
985
991
992
993
991
995
1000
1004
1006
1007
1004
1005
1003
1010
1008
1005
1003
1004
1006
1007
1002
999
993
992
992
991
986
981
979
977
978
980
973
969
964
965
965
966
965
961
961
960
964
966
965
962
959
960
964
966
964
966
966
967
970
971
970
969
969
970
977
981
981
976
982
983
992
997
1000
1001
1000
1001
1005
1010
1009
1010
1006
1011
1014
1020
1019
1017
1018
1016
1017
1018
1014
1011
1007
1006
1009
1009
1007
1001
997
995
994
998
993
987
986
985
987
988
988
986
983
986
987
991
989
991
990
992
993
996
996
993
992
993
993
993
992
990
989
988
997
998
1001
1000
998
998
1001
1007
1010
1006
1008
1009
1014
1016
1014
1015
1013
1010
1015
1017
1013
1013
1011
1011
1012
1011
1010
1007
1005
1003
1005
1008
1004
1001
997
996
996
1002
999
993
992
989
990
991
991
990
988
989
990
993
993
990
990
992
993
998
1002
1000
1002
1002
1005
1008
1008
1008
1005
1009
1012
1017
1018
1016
1015
1016
1018
1021
1021
1027
1039
1062
1090
1117
1137
1147
1141
1120
1086
1057
1040
1032
1031
1036
1038
1040
1035
1027
1023
1018
1019
1021
1016
1011
1007
1006
1004
1005
1001
998
992
988
990
993
992
991
991
993
995
1001
1002
1000
1001
997
1005
1008
1008
1006
1001
1005
1005
1009
1011
1009
1008
1007
1010
1017
1019
1016
1014
1017
1021
1026
1028
1030
1027
1030
1036
1038
1039
1039
1037
1037
1039
1043
1038
1035
1032
1032
1033
1030
1025
1022
1017
1015
1012
1010
1006
1002
999
994
992
990
989
984
981
980
980
979
978
975
972
973
975
978
979
979
979
980
983
986
986
989
989
988
992
993
994
993
990
992
995
997
996
992
992
999
1005
1009
1007
1008
1005
1012
1014
1018
1018
1014
1012
1010
1012
1018
1015
1014
1011
1008
1012
1014
1011
1008
1000
1002
1002
1005
1004
1001
998
999
997
997
996
990
986
984
987
985
986
983
980
984
985
988
989
991
991
992
997
1003
1002
999
998
998
1001
1004
1004
1000
998
997
1001
1006
1009
1004
1005
1010
1011
1015
1014
1015
1011
1016
1017
1020
1018
1016
1014
1015
1016
1018
1015
1012
1011
1012
1011
1012
1009
1008
1004
1003
1005
1006
1004
999
994
993
994
997
994
991
988
986
990
991
991
986
986
985
990
992
994
993
992
994
997
1002
1003
1000
997
997
1002
1003
1001
1001
1001
1004
1011
1013
1010
1013
1012
1017
1020
1024
1022
1020
1017
1017
1016
1021
1022
1022
1019
1019
1018
1022
1018
1013
1011
1011
1013
1013
1012
1005
1004
1003
1004
1003
999
993
990
988
991
994
990
987
985
987
990
993
992
992
990
993
995
996
996
998
995
995
997
1003
1001
1001
999
1002
1004
1009
1012
1009
1011
1014
1018
1022
1023
1022
1024
1024
1024
1027
1027
1024
1022
1023
1026
1027
1032
1044
1060
1084
1112
1135
1145
1138
1111
1074
1045
1028
1023
1018
1012
1009
1006
1007
1000
996
990
989
990
993
992
991
987
989
993
995
992
992
991
995
1001
1004
1004
1001
1003
1005
1006
1007
1008
1004
1006
1008
1015
1019
1020
1019
1018
1020
1024
1027
1025
1022
1017
1020
1021
1024
1023
1019
1014
1015
1013
1013
1013
1009
1008
1007
1005
1005
1001
997
991
992
991
992
985
983
978
977
980
979
979
973
973
973
974
977
975
973
972
972
975
979
978
977
976
981
985
983
986
983
981
982
989
992
993
992
995
998
1002
1004
1003
1001
997
999
1001
1006
1005
1002
998
997
998
997
997
992
988
988
989
991
986
980
974
974
972
973
973
969
965
967
967
967
963
962
960
960
966
966
967
964
961
962
965
971
974
972
971
973
978
984
984
983
981
984
986
992
995
996
994
995
1000
1005
1004
1002
1002
1001
1001
1006
1005
1004
999
1004
1007
1009
1008
1003
999
997
999
1000
995
993
986
987
981
984
978
974
972
971
970
972
967
962
960
959
963
962
964
960
958
957
956
964
962
963
961
963
967
971
971
969
965
970
975
982
982
984
983
989
992
996
992
988
986
988
1001
1026
1052
1073
1091
1100
1091
1061
1026
1001
989
990
998
1006
1006
1001
993
996
997
997
995
989
982
980
980
981
975
972
966
961
964
966
963
961
961
960
964
968
965
961
963
965
965
971
971
971
969
971
975
976
974
974
973
974
977
978
980
980
982
985
990
992
990
989
986
986
987
992
990
987
985
985
985
987
984
980
976
971
976
975
970
962
958
957
953
954
948
946
941
945
946
944
938
942
938
941
943
944
943
940
937
937
939
945
948
946
947
952
955
957
956
957
953
955
959
965
967
964
967
969
976
982
981
981
982
982
986
985
985
983
981
983
984
989
987
984
980
981
985
986
984
979
978
977
978
980
978
974
969
969
969
968
964
955
946
940
943
953
973
999
1032
1059
1075
1066
1031
989
961
955
962
976
983
985
983
982
983
985
986
986
987
990
995
1005
1004
1008
1008
1012
1018
1021
1018
1014
1016
1015
1019
1023
1019
1015
1014
1014
1016
1014
1012
1008
1001
1003
1003
1002
996
992
986
986
989
989
987
984
979
981
982
982
979
976
974
977
979
985
984
983
983
982
986
986
986
984
984
986
986
986
985
983
978
982
984
989
990
988
988
992
996
1000
1001
999
996
1004
1004
1006
1004
1002
1003
1005
1007
1008
1009
1005
1005
1006
1008
1009
1008
1004
1003
1005
1006
1008
1003
1003
1000
998
998
1001
998
992
990
993
993
996
992
989
985
987
992
994
992
991
989
992
995
999
1000
997
1000
1001
1005
1009
1008
1010
1008
1006
1011
1013
1013
1013
1014
1013
1014
1012
1013
1017
1031
1063
1098
1133
1158
1173
1177
1165
1140
1106
1076
1057
1048
1050
1052
1054
1049
1041
1031
1028
1027
1027
1019
1016
1013
1013
1013
1012
1010
1006
1002
1003
1004
1001
1001
1003
999
999
1000
1005
1007
1004
1002
1004
1008
1010
1009
1009
1011
1016
1016
1022
1019
1016
1015
1018
1021
1023
1023
1019
1020
1021
1026
1032
1031
1029
1032
1035
1038
1044
1047
1046
1043
1045
1048
1045
1044
1043
1041
1041
1042
1044
1040
1036
1032
1029
1030
1028
1026
1019
1013
1007
1008
1007
1007
1004
998
1000
999
998
989
991
988
987
988
988
987
984
982
979
984
989
988
987
984
990
991
997
1002
1006
1009
1011
1017
1020
1020
1017
1017
1018
1022
1023
1024
1021
1019
1027
1030
1034
1032
1031
1031
1034
1037
1039
1039
1035
1035
1036
1038
1038
1037
1033
1031
1031
1032
1034
1031
1030
1026
1027
1026
1028
1024
1021
1018
1018
1019
1021
1018
1011
1006
1007
1008
1006
1002
1000
1001
1000
1001
1003
1002
999
995
996
1002
1005
1003
1003
1001
1003
1008
1011
1013
1015
1014
1013
1017
1017
1019
1017
1017
1018
1025
1029
1031
1032
1033
1036
1038
1043
1040
1041
1043
1044
1045
1046
1044
1040
1037
1037
1039
1040
1037
1034
1035
1035
1036
1038
1032
1029
1027
1030
1028
1028
1026
1022
1016
1011
1012
1015
1013
1010
1006
1007
1008
1008
1005
1003
1000
1000
1002
1001
999
1001
1000
1000
1004
1005
1007
1008
1008
1012
1012
1018
1014
1016
1016
1016
1019
1019
1018
1018
1015
1018
1021
1028
1031
1030
1033
1037
1042
1051
1051
1048
1046
1043
1049
1050
1051
1050
1048
1050
1051
1053
1048
1047
1044
1046
1047
1050
1047
1042
1042
1041
1042
1045
1050
1062
1081
1109
1134
1158
1171
1172
1152
1112
1065
1033
1016
1014
1012
1017
1020
1020
1015
1015
1011
1009
1014
1018
1019
1019
1017
1020
1022
1023
1022
1019
1022
1025
1028
1031
1032
1029
1029
1031
1032
1039
1040
1037
1032
1034
1040
1045
1046
1046
1045
1048
1052
1053
1049
1048
1046
1045
1047
1047
1045
1041
1036
1035
1036
1035
1029
1031
1023
1026
1025
1024
1021
1015
1014
1015
1015
1016
1012
1015
1014
1014
1015
1018
1016
1010
1009
1011
1016
1019
1017
1017
1014
1012
1014
1020
1017
1017
1015
1016
1017
1020
1021
1019
1019
1020
1021
1022
1021
1017
1014
1015
1016
1018
1015
1014
1013
1010
1009
1009
1007
1007
1004
1007
1010
1014
1014
1006
1004
1002
1006
1006
1002
1000
997
995
995
998
995
989
986
986
989
987
987
988
986
987
992
995
993
993
992
994
995
1000
1002
1003
1001
1001
1004
1005
1005
1003
1001
1004
1011
1018
1018
1018
1020
1023
1028
1031
1032
1027
1028
1028
1030
1031
1030
1028
1025
1026
1028
1027
1026
1018
1016
1017
1020
1022
1021
1016
1011
1009
1006
1004
1000
996
991
989
991
991
987
985
984
986
992
999
999
997
998
1002
1001
1004
1002
993
993
1004
1019
1051
1079
1101
1115
1114
1098
1060
1016
985
972
973
985
996
1003
1010
1014
1017
1020
1022
1021
1020
1019
1026
1027
1029
1028
1023
1021
1019
1019
1021
1016
1016
1011
1012
1016
1016
1011
1009
1007
1005
1006
1006
1003
1002
995
996
996
995
993
988
985
987
986
986
984
980
980
980
982
983
981
980
980
982
986
989
991
990
993
998
1005
1008
1006
1004
1001
1001
1003
1006
1004
1001
1002
1005
1012
1015
1012
1010
1006
1009
1012
1014
1012
1006
1004
1002
1003
1004
1001
997
993
994
992
992
988
983
981
981
983
984
983
974
969
969
970
972
967
964
960
960
961
964
962
960
958
959
963
967
966
962
964
968
967
970
971
969
972
988
1011
1044
1072
1098
1128
1163
1194
1209
1201
1168
1119
1076
1048
1037
1037
1034
1032
1029
1024
1021
1018
1015
1011
1010
1010
1009
1008
1003
999
995
994
994
992
988
984
982
981
981
977
971
964
962
963
962
958
953
947
949
949
948
945
942
937
939
935
941
941
939
935
938
941
942
941
938
938
939
943
947
944
945
945
944
947
948
946
947
948
948
951
954
953
950
952
954
957
962
960
962
958
963
969
971
968
962
965
966
970
972
972
973
974
977
980
980
984
979
979
978
975
976
974
975
973
973
972
974
971
970
968
969
969
968
967
966
964
967
970
976
973
972
966
968
969
987
1011
1043
1079
1115
1139
1144
1125
1080
1034
1007
997
1000
1007
1010
1010
1015
1016
1019
1015
1013
1014
1018
1023
1026
1023
1021
1018
1020
1024
1022
1020
1019
1020
1019
1022
1022
1021
1015
1011
1011
1010
1010
1008
1005
1001
1001
1001
1003
1000
998
996
999
1002
1001
1001
998
999
1001
1006
1009
1009
1008
1006
1006
1010
1015
1015
1012
1012
1010
1011
1010
1010
1004
1001
1004
1001
1004
1001
1002
999
1001
1004
1009
1009
1008
1007
1010
1014
1015
1012
1008
1007
1009
1011
1014
1013
1007
1004
1003
1006
1006
1004
1001
1000
1001
1002
999
999
992
993
995
993
991
990
987
984
982
988
992
991
991
991
996
996
995
994
997
1012
1047
1086
1123
1150
1157
1145
1105
1059
1023
1010
1010
1020
1027
1032
1038
1034
1032
1028
1032
1040
1042
1038
1033
1033
1033
1037
1037
1035
1031
1029
1029
1029
1029
1027
1023
1021
1019
1018
1019
1013
1008
1009
1006
1008
1008
1005
1003
999
1000
1001
1003
1003
1002
1001
1004
1006
1009
1009
1007
1009
1011
1017
1016
1017
1011
1013
1013
1015
1018
1017
1016
1012
1013
1016
1017
1014
1013
1013
1016
1020
1021
1018
1013
1013
1014
1020
1024
1024
1022
1022
1028
1029
1034
1034
1031
1028
1028
1028
1032
1028
1022
1021
1017
1019
1020
1016
1013
1007
1004
1007
1008
1003
999
996
994
993
991
990
987
983
983
986
988
984
980
978
984
988
991
992
991
995
999
1001
1003
998
996
997
1000
1002
1004
1003
1002
1002
1007
1012
1018
1018
1018
1019
1025
1029
1029
1032
1030
1029
1029
1032
1031
1028
1028
1027
1026
1030
1031
1030
1028
1029
1031
1034
1035
1032
1029
1026
1028
1029
1030
1025
1021
1015
1019
1016
1016
1009
1009
1003
1004
1003
1001
1001
1003
1000
1002
1003
1009
1003
1004
1004
1006
1012
1015
1016
1013
1011
1012
1015
1015
1012
1012
1013
1018
1022
1027
1029
1029
1027
1030
1035
1036
1038
1037
1035
1039
1041
1038
1034
1035
1029
1032
1036
1040
1038
1036
1033
1033
1031
1034
1033
1029
1029
1028
1028
1029
1027
1025
1022
1021
1019
1015
1016
1026
1046
1075
1106
1134
1151
1153
1138
1102
1063
1036
1014
1008
1016
1024
1030
1028
1027
1024
1022
1022
1022
1021
1018
1014
1014
1019
1025
1026
1028
1027
1026
1030
1034
1041
1043
1041
1040
1041
1043
1044
1042
1042
1038
1039
1040
1042
1039
1034
1031
1033
1031
