997
1000
1001
1004
1003
1001
1002
1004
1009
1011
1006
1004
1001
1004
1006
1009
1008
1007
1005
1006
1007
1010
1012
1008
1009
1013
1016
1018
1015
1011
1008
1007
1009
1009
1004
998
999
998
1004
1006
1006
1004
1004
1007
1014
1016
1014
1012
1013
1011
1012
1014
1015
1011
1013
1010
1010
1011
1009
1006
1005
1005
1006
1009
1009
1005
1007
1010
1017
1019
1020
1018
1021
1023
1025
1027
1027
1025
1026
1030
1033
1041
1039
1038
1038
1035
1027
1019
1022
1038
1075
1118
1160
1194
1210
1201
1158
1110
1076
1054
1041
1037
1043
1051
1054
1050
1040
1029
1021
1017
1016
1016
1012
1007
1008
1008
1012
1015
1019
1017
1015
1015
1019
1020
1017
1015
1017
1018
1021
1025
1024
1025
1026
1029
1028
1028
1028
1028
1028
1035
1042
1048
1049
1048
1050
1054
1059
1059
1054
1052
1051
1050
1051
1051
1045
1042
1038
1037
1038
1037
1030
1025
1022
1020
1021
1018
1013
1008
1003
1001
998
996
994
987
985
985
986
985
979
977
978
979
983
981
976
974
978
984
991
995
1000
1001
1003
1004
1007
1012
1011
1010
1008
1012
1015
1020
1023
1020
1024
1029
1030
1031
1030
1027
1026
1030
1032
1034
1032
1028
1026
1027
1025
1023
1021
1017
1017
1015
1014
1011
1005
1000
997
996
997
995
988
982
984
985
988
987
984
982
980
980
986
985
990
987
987
991
993
993
993
993
992
993
992
995
994
991
997
1006
1013
1017
1020
1026
1028
1035
1039
1038
1037
1031
1031
1031
1031
1031
1025
1020
1017
1019
1023
1023
1021
1014
1013
1014
1014
1010
1005
1000
1000
999
998
998
994
989
987
988
989
992
992
987
987
988
993
995
994
992
997
1002
1009
1005
1000
992
994
1014
1050
1089
1127
1155
1168
1157
1120
1064
1017
995
990
1007
1027
1042
1046
1042
1039
1037
1036
1042
1038
1038
1030
1033
1032
1029
1026
1023
1020
1018
1016
1014
1010
1003
1002
1003
1001
1002
999
997
993
996
997
997
996
993
997
996
999
998
999
1000
1005
1006
1003
1008
1006
1005
1004
1008
1009
1010
1011
1010
1012
1017
1022
1022
1025
1022
1029
1034
1039
1040
1039
1034
1032
1032
1031
1037
1035
1034
1032
1035
1037
1036
1031
1025
1020
1019
1021
1022
1019
1012
1009
1008
1005
1002
997
992
991
990
992
991
992
993
991
993
997
998
1001
1002
1006
1010
1013
1012
1011
1009
1009
1013
1015
1016
1015
1013
1017
1019
1024
1025
1024
1024
1027
1031
1035
1032
1030
1027
1027
1027
1030
1030
1033
1028
1028
1028
1030
1032
1030
1030
1031
1034
1033
1032
1028
1025
1023
1023
1026
1022
1020
1016
1013
1015
1018
1016
1014
1010
1008
1010
1013
1017
1019
1017
1017
1018
1025
1026
1028
1025
1021
1022
1025
1025
1024
1024
1026
1030
1036
1038
1039
1041
1044
1046
1049
1047
1044
1039
1040
1040
1043
1042
1039
1033
1035
1037
1039
1039
1039
1035
1038
1041
1045
1043
1040
1036
1033
1035
1033
1031
1029
1025
1026
1026
1027
1027
1023
1023
1021
1024
1028
1031
1029
1029
1031
1037
1040
1046
1044
1041
1039
1055
1083
1122
1157
1188
1209
1206
1172
1120
1074
1050
1049
1061
1076
1080
1076
1069
1065
1063
1063
1061
1060
1056
1054
1053
1053
1050
1046
1041
1039
1041
1043
1043
1038
1033
1032
1030
1030
1029
1027
1023
1020
1022
1023
1024
1023
1023
1021
1023
1027
1028
1031
1032
1030
1035
1041
1039
1042
1039
1038
1044
1047
1049
1049
1049
1057
1061
1067
1069
1070
1068
1070
1075
1075
1076
1071
1065
1063
1062
1064
1064
1060
1058
1053
1052
1051
1052
1045
1042
1039
1038
1037
1031
1024
1017
1018
1014
1019
1018
1014
1010
1007
1008
1011
1012
1009
1003
1004
1006
1012
1018
1018
1016
1017
1021
1023
1026
1024
1022
1021
1024
1029
1032
1036
1039
1040
1043
1051
1049
1052
1053
1053
1054
1055
1054
1053
1050
1047
1053
1054
1052
1048
1048
1048
1047
1048
1045
1040
1036
1035
1035
1034
1033
1025
1021
1020
1020
1020
1021
1019
1016
1017
1021
1024
1028
1023
1023
1024
1028
1034
1033
1031
1027
1026
1028
1029
1035
1032
1034
1036
1040
1046
1046
1047
1044
1046
1047
1052
1055
1049
1047
1044
1049
1052
1052
1052
1047
1045
1044
1044
1044
1042
1039
1039
1040
1037
1036
1034
1029
1033
1031
1032
1030
1025
1020
1017
1020
1023
1022
1017
1013
1017
1022
1022
1029
1029
1028
1030
1033
1037
1036
1033
1030
1032
1035
1037
1039
1037
1039
1044
1055
1057
1062
1062
1062
1063
1066
1068
1068
1062
1056
1056
1055
1060
1059
1058
1051
1049
1044
1047
1045
1042
1038
1035
1037
1038
1037
1031
1030
1022
1021
1022
1023
1021
1017
1016
1019
1021
1020
1018
1018
1019
1023
1027
1030
1029
1026
1026
1025
1028
1030
1030
1028
1028
1030
1033
1038
1042
1042
1042
1049
1051
1056
1057
1054
1055
1055
1058
1056
1056
1051
1051
1053
1057
1058
1056
1051
1048
1049
1051
1052
1047
1044
1041
1042
1044
1046
1037
1033
1028
1025
1026
1039
1069
1104
1140
1175
1191
1183
1145
1087
1047
1024
1023
1034
1037
1040
1041
1041
1043
1039
1036
1034
1035
1037
1040
1045
1045
1045
1046
1050
1053
1055
1057
1054
1057
1055
1052
1055
1050
1050
1049
1052
1053
1053
1051
1045
1047
1048
1050
1051
1049
1044
1041
1040
1045
1042
1038
1035
1030
1030
1035
1034
1035
1033
1034
1035
1040
1038
1039
1041
1046
1049
1053
1055
1055
1052
1050
1053
1055
1051
1050
1048
1048
1050
1052
1050
1051
1048
1049
1054
1056
1059
1055
1049
1050
1051
1049
1044
1040
1039
1033
1035
1035
1033
1030
1024
1022
1024
1021
1018
1015
1011
1005
1008
1005
1001
997
991
992
992
990
990
989
984
983
986
988
988
988
991
989
992
996
999
1002
1000
1003
1006
1008
1008
1013
1015
1020
1022
1028
1030
1031
1032
1035
1035
1039
1040
1038
1038
1038
1039
1043
1041
1039
1035
1034
1034
1032
1034
1032
1029
1026
1026
1027
1030
1026
1022
1020
1022
1019
1015
1013
1010
1009
1010
1012
1008
1003
1001
998
995
998
1001
999
997
994
996
1000
1000
998
996
999
1001
1006
1007
1006
1005
1006
1011
1013
1014
1012
1008
1010
1015
1019
1022
1020
1018
1021
1025
1028
1027
1030
1029
1032
1034
1033
1033
1033
1033
1030
1032
1029
1032
1027
1022
1015
1011
1010
1014
1023
1042
1071
1103
1122
1128
1114
1078
1038
1002
982
968
967
973
985
995
998
999
994
986
984
986
989
992
985
984
990
991
995
997
993
989
991
992
994
998
998
997
998
998
1001
1006
1008
1008
1009
1014
1018
1022
1019
1016
1016
1017
1016
1017
1013
1009
1005
1005
1005
1006
1005
1002
1000
1001
1004
1005
1000
998
997
1000
1002
999
994
988
987
988
990
990
985
979
975
972
976
974
973
969
966
969
971
972
971
969
968
970
970
966
965
962
960
960
963
965
964
960
962
968
971
975
975
974
978
982
987
990
991
988
988
989
988
992
991
987
983
983
986
980
979
972
970
972
974
970
967
962
961
961
963
965
961
958
955
958
962
960
956
954
952
952
953
956
954
953
954
960
964
963
964
962
965
968
968
969
964
963
964
966
969
970
972
972
973
978
981
985
987
985
982
983
985
982
979
979
979
981
981
979
977
975
976
974
976
974
969
968
964
967
964
963
957
954
951
952
952
951
948
944
941
945
945
949
947
946
947
950
954
958
960
962
961
968
970
966
960
953
951
959
977
1004
1031
1056
1076
1082
1068
1034
993
962
951
957
965
979
992
993
994
993
993
991
988
982
984
987
986
985
981
979
975
977
976
973
971
966
962
961
961
959
955
950
949
952
952
952
947
947
944
945
951
953
950
950
951
956
958
961
962
966
965
969
973
973
970
968
971
972
977
976
976
976
978
980
986
988
988
986
986
991
992
994
991
989
987
990
989
989
986
978
981
980
979
977
974
971
970
972
972
968
964
960
956
958
959
959
955
951
952
950
950
952
953
951
949
952
952
951
949
943
950
953
958
957
960
961
963
968
972
972
973
973
975
980
986
989
989
987
988
991
995
997
997
996
999
1001
1004
1003
1001
1000
1001
1004
1007
1006
1002
1000
1001
1001
1000
1004
999
996
996
994
995
994
994
988
988
987
989
988
986
981
982
981
986
986
986
985
985
986
987
989
991
993
993
997
1001
1005
1004
1008
1010
1013
1016
1016
1012
1011
1008
1005
1011
1026
1049
1078
1110
1139
1157
1155
1133
1095
1056
1025
1003
999
1004
1009
1017
1023
1027
1027
1022
1019
1018
1020
1020
1019
1013
1009
1003
1009
1011
1013
1007
1003
1002
1000
1003
1001
1001
999
996
998
1000
1001
1000
997
1000
999
1003
1004
1005
1004
1010
1014
1017
1015
1014
1014
1013
1016
1019
1021
1022
1020
1022
1027
1031
1037
1038
1039
1039
1041
1042
1045
1042
1040
1038
1037
1037
1036
1030
1025
1023
1021
1021
1018
1011
1005
1000
997
998
996
991
987
984
986
988
988
986
982
982
984
985
986
983
981
981
986
988
986
987
986
985
991
994
997
997
996
997
1001
1003
1003
1004
1002
1001
1007
1009
1013
1015
1013
1019
1022
1026
1030
1032
1032
1036
1039
1042
1039
1038
1034
1028
1034
1036
1034
1031
1029
1027
1024
1027
1021
1018
1010
1006
1003
1005
999
998
993
989
992
993
992
992
988
987
988
990
990
990
985
987
992
993
994
996
995
996
1000
1002
1000
998
998
1000
998
1005
1008
1006
1005
1009
1012
1021
1022
1024
1024
1027
1031
1035
1038
1039
1035
1036
1036
1037
1040
1050
1068
1098
1125
1153
1158
1141
1105
1068
1037
1023
1011
1007
1009
1012
1014
1014
1011
1005
999
998
1002
1003
1004
1005
1002
1003
1006
1009
1009
1012
1013
1011
1014
1015
1016
1013
1010
1011
1012
1014
1014
1015
1014
1017
1022
1027
1030
1027
1028
1029
1036
1038
1038
1034
1032
1033
1032
1034
1033
1031
1025
1025
1023
1026
1022
1024
1018
1018
1016
1013
1016
1013
1006
1004
1001
1004
1000
998
996
995
997
998
997
994
991
992
993
996
997
996
994
998
1000
1005
1005
1007
1006
1008
1010
1016
1016
1014
1015
1016
1022
1021
1024
1027
1023
1023
1025
1028
1028
1023
1021
1020
1023
1022
1018
1015
1013
1010
1012
1012
1012
1010
1000
997
999
998
995
994
988
990
989
992
990
988
987
989
992
994
997
996
996
997
1003
1007
1008
1004
1002
1001
1004
1007
1009
1006
1007
1008
1013
1019
1025
1026
1025
1028
1034
1039
1041
1040
1036
1032
1040
1041
1038
1033
1031
1026
1026
1028
1026
1021
1018
1019
1017
1017
1015
1010
1007
1005
1007
1005
1005
1000
994
991
992
994
993
988
985
981
986
989
990
988
989
990
994
998
1001
1001
1000
999
1003
1004
1003
1002
1000
1003
1004
1011
1011
1014
1013
1016
1021
1022
1023
1023
1023
1023
1025
1027
1025
1020
1020
1020
1020
1022
1024
1023
1023
1023
1025
1027
1027
1023
1021
1018
1020
1019
1019
1015
1010
1009
1006
1006
1007
1003
1000
1000
1002
1007
1008
1003
1005
1006
1010
1011
1011
1021
1035
1061
1087
1114
1132
1134
1117
1082
1050
1026
1016
1011
1016
1020
1026
1032
1032
1031
1028
1027
1029
1029
1029
1027
1026
1022
1024
1025
1020
1019
1015
1014
1014
1013
1012
1013
1007
1005
1004
1003
1003
1000
997
992
996
999
998
998
999
1000
1001
1003
1002
1000
1000
1000
1003
1008
1010
1007
1006
1006
1009
1010
1007
1007
1006
1003
1006
1009
1010
1010
1008
1009
1013
1015
1019
1019
1017
1020
1023
1024
1024
1020
1017
1015
1014
1017
1015
1008
1003
1000
1001
999
996
993
987
984
981
983
980
973
966
965
967
969
967
965
960
961
963
963
962
965
962
965
969
974
978
979
980
979
984
987
989
987
986
986
989
992
992
991
991
993
997
1001
1002
998
1001
1004
1008
1011
1011
1005
1004
1001
1002
1002
1005
1003
999
996
997
1001
998
994
988
984
984
985
981
976
968
966
965
965
965
961
957
957
957
958
957
956
955
954
957
960
963
962
963
965
967
972
971
973
971
973
977
980
978
976
974
976
979
985
991
990
988
991
994
997
996
994
992
990
991
993
994
991
987
986
985
987
986
984
982
978
978
977
975
970
963
962
963
964
961
958
953
951
949
952
952
949
946
945
947
951
955
954
952
957
961
964
966
967
963
965
965
971
970
970
968
971
973
975
978
991
1010
1039
1065
1084
1083
1059
1023
996
975
975
977
979
982
983
983
982
980
977
971
967
968
969
965
963
957
953
953
957
954
950
947
947
946
947
947
945
944
944
946
951
953
951
951
952
957
961
957
958
954
953
956
960
963
962
963
962
968
973
976
974
974
973
972
978
978
975
972
973
971
973
972
969
963
966
965
964
961
957
952
947
952
951
948
941
935
935
935
938
934
927
926
925
929
929
928
927
927
928
929
935
935
934
932
933
936
941
941
939
941
941
945
948
948
945
943
945
951
954
955
956
955
958
961
962
958
956
955
957
954
957
956
954
952
950
949
952
950
947
943
941
940
942
939
936
935
932
935
934
932
929
928
929
930
930
930
932
930
931
935
939
937
938
937
940
945
948
948
949
946
950
955
959
962
962
962
966
968
973
977
976
974
977
976
981
981
977
973
972
974
980
995
1014
1031
1051
1065
1062
1038
1005
977
959
954
961
965
970
969
968
969
968
965
964
961
959
960
963
963
963
963
961
966
971
973
975
973
973
976
978
978
977
976
980
983
987
988
989
990
992
998
1002
1004
1004
1002
1001
1003
1008
1008
1006
1003
1000
1005
1004
1001
998
993
993
993
993
990
983
981
977
977
977
977
977
972
971
971
976
972
970
964
963
960
966
964
963
959
961
964
967
968
968
966
969
971
974
974
974
973
973
981
986
989
991
992
993
996
999
1000
1002
999
1001
1001
1005
1004
1001
999
995
997
999
999
998
996
995
995
996
992
989
985
985
987
990
988
984
982
982
985
990
990
988
984
986
990
991
994
993
994
994
998
1002
1004
1005
1001
1004
1007
1005
1012
1014
1013
1015
1020
1024
1030
1030
1031
1033
1035
1038
1037
1036
1034
1030
1036
1040
1035
1032
1028
1028
1028
1029
1028
1023
1018
1017
1017
1017
1015
1009
1003
1004
1002
1004
1002
1000
995
992
995
997
995
994
989
992
994
995
994
998
994
996
1002
1003
1003
1003
999
997
1002
1003
1004
1003
1002
1005
1012
1019
1023
1025
1025
1031
1034
1041
1043
1040
1039
1048
1063
1087
1113
1132
1145
1151
1149
1133
1105
1075
1052
1036
1034
1039
1040
1037
1033
1025
1023
1021
1018
1016
1012
1011
1011
1014
1013
1011
1008
1004
1010
1014
1014
1011
1009
1013
1017
1020
1020
1019
1013
1015
1018
1018
1019
1018
1013
1014
1016
1022
1025
1026
1024
1027
1031
1037
1038
1036
1035
1035
1039
1035
1034
1034
1031
1032
1032
1035
1035
1031
1030
1029
1031
1035
1033
1028
1026
1022
1024
1024
1022
1018
1013
1012
1012
1010
1008
1008
1000
1002
1004
1006
1006
1004
1002
1004
1006
1013
1012
1010
1010
1012
1013
1015
1016
1013
1011
1011
1015
1018
1019
1016
1017
1020
1023
1024
1029
1029
1026
1024
1027
1029
1028
1024
1024
1022
1024
1023
1022
1016
1014
1014
1014
1013
1009
1005
1002
998
1000
1004
1001
997
993
994
993
994
996
990
991
992
993
996
997
992
997
998
1001
1006
1008
1007
1006
1008
1010
1011
1015
1013
1013
1015
1018
1024
1027
1029
1028
1029
1036
1037
1037
1034
1031
1029
1033
1033
1028
1030
1028
1027
1027
1029
1029
1027
1022
1021
1023
1024
1020
1016
1010
1009
1009
1008
1007
1005
998
997
996
1000
998
997
995
991
994
996
996
995
994
999
1002
1009
1009
1010
1008
1009
1008
1009
1011
1010
1010
1017
1017
1021
1023
1025
1024
1025
1026
1031
1030
1025
1023
1022
1025
1025
1023
1024
1021
1020
1019
1022
1016
1014
1012
1011
1014
1014
1009
1002
1002
1000
1002
1004
1002
1001
1000
997
1001
1006
1005
1003
1003
1004
1006
1013
1013
1012
1010
1010
1012
1013
1012
1012
1009
1008
1014
1017
1020
1023
1021
1021
1029
1034
1037
1036
1035
1034
1035
1037
1035
1033
1031
1029
1033
1035
1035
1026
1029
1032
1047
1070
1091
1108
1118
1121
1107
1082
1048
1019
1004
1000
1005
1006
1003
1002
997
993
996
997
999
996
995
996
999
1002
1000
1002
1002
1003
1003
1005
1006
1003
1003
1004
1010
1014
1015
1014
1012
1015
1022
1025
1030
1030
1027
1028
1030
1033
1033
1031
1030
1028
1032
1035
1034
1031
1026
1024
1027
1027
1025
1019
1016
1013
1014
1011
1008
1006
1000
998
997
995
999
997
994
991
993
994
994
992
991
990
989
992
994
993
989
989
990
992
990
990
984
985
988
990
992
991
987
989
992
998
1000
997
998
1000
1002
1005
1008
1005
1001
1003
1005
1004
1005
1001
997
996
997
999
999
998
993
993
993
994
993
986
987
985
987
989
985
981
976
974
973
977
977
975
972
973
973
975
974
974
972
973
974
979
979
981
979
978
980
983
981
982
979
975
978
984
987
988
988
992
996
1001
1004
1002
1002
1004
1005
1006
1006
1004
1004
1003
1003
1005
1008
1005
1002
1000
999
1002
999
993
987
982
983
987
1002
1018
1038
1061
1082
1091
1080
1055
1027
1005
994
991
993
994
995
997
996
998
996
992
989
989
991
994
993
993
990
990
991
992
988
987
985
989
991
996
996
998
996
994
998
1001
1002
1000
999
995
997
1001
999
996
992
991
993
993
992
988
984
984
985
987
984
981
976
974
975
973
970
968
964
960
961
962
959
956
951
949
948
951
952
947
949
946
947
948
946
946
943
944
948
950
951
949
948
948
954
956
958
958
958
960
967
971
972
971
971
973
979
982
981
979
976
973
976
980
978
976
974
973
972
971
972
965
965
964
965
966
962
960
954
956
956
954
953
949
944
947
946
947
946
941
940
942
945
949
948
945
945
942
942
945
948
957
970
997
1021
1044
1060
1058
1039
1011
987
973
968
968
972
977
981
986
985
985
980
978
982
985
985
981
978
975
978
974
973
970
970
969
967
971
968
967
962
958
961
960
962
957
956
955
952
952
953
948
943
945
947
948
946
947
941
940
943
946
947
946
945
948
948
951
952
948
947
949
951
954
951
948
946
947
950
952
950
952
950
951
950
951
950
949
946
945
945
946
947
940
940
934
939
940
941
940
936
934
935
936
935
934
928
929
931
933
931
928
925
930
933
936
935
933
934
936
938
945
942
942
944
945
949
953
954
952
952
951
952
957
955
952
958
972
994
1020
1049
1070
1075
1073
1061
1041
1021
1005
995
992
996
999
998
994
989
987
987
985
983
980
974
973
974
973
971
969
963
960
962
964
961
955
953
949
953
956
955
956
952
951
955
957
960
958
955
956
964
969
968
968
968
968
972
974
975
975
973
976
977
982
982
981
981
983
989
993
994
992
992
994
994
997
993
993
990
989
989
988
988
984
978
972
974
974
971
966
965
964
966
967
964
958
956
952
958
960
958
955
949
954
953
955
957
955
953
953
956
959
961
960
961
