1020
1020
1016
1018
1014
1013
1006
1003
1005
1001
999
992
987
978
982
982
982
981
978
977
980
989
986
990
988
991
992
996
1000
995
996
998
999
1003
1006
1005
1002
1002
1004
1005
1013
1011
1010
1014
1021
1025
1029
1031
1031
1032
1036
1040
1042
1041
1038
1035
1038
1036
1036
1036
1031
1028
1032
1027
1027
1027
1024
1019
1021
1019
1016
1010
1005
1004
1005
1005
1001
996
991
990
988
987
986
985
984
984
987
992
998
1000
996
995
997
1000
998
997
992
989
994
998
996
992
989
989
991
993
999
1002
1006
1008
1016
1022
1028
1028
1029
1031
1036
1041
1040
1037
1033
1030
1034
1034
1036
1034
1030
1026
1024
1023
1023
1012
1013
1029
1063
1109
1154
1182
1200
1201
1176
1123
1059
1013
983
979
990
1002
1005
1006
998
989
990
993
995
992
989
991
996
1002
1004
1005
1001
1002
1005
1009
1011
1010
1007
1009
1014
1016
1018
1023
1020
1022
1027
1033
1034
1036
1036
1036
1039
1037
1034
1032
1031
1026
1028
1026
1023
1024
1016
1014
1017
1019
1017
1009
1004
1002
1002
1002
1002
998
992
991
989
990
990
988
984
985
984
986
989
988
988
986
991
993
997
998
995
997
998
1000
999
996
991
991
992
995
996
994
991
989
991
991
996
997
995
1002
1008
1011
1017
1015
1018
1019
1024
1029
1026
1021
1016
1015
1019
1023
1026
1025
1027
1022
1023
1021
1023
1019
1015
1009
1010
1008
1004
999
993
988
985
984
983
976
968
964
965
964
965
961
958
961
962
964
964
965
965
967
971
974
976
973
971
970
972
973
976
972
974
974
979
982
987
988
987
993
997
1004
1010
1012
1009
1002
993
975
970
977
1001
1039
1086
1135
1166
1171
1143
1095
1045
1012
996
994
999
1006
1014
1018
1013
1005
997
990
986
987
984
982
978
976
976
975
978
975
972
971
972
973
979
976
975
976
979
983
983
982
979
975
975
977
979
978
976
975
974
983
988
991
990
994
999
1005
1008
1010
1009
1007
1008
1011
1012
1010
1008
1007
1007
1009
1004
998
995
993
996
999
997
989
986
979
977
978
976
971
966
959
956
951
955
952
948
947
947
954
956
957
958
960
963
969
970
969
969
969
973
975
974
975
972
970
968
973
978
977
974
973
974
984
987
990
991
988
986
988
988
987
986
983
988
986
982
983
980
975
973
974
973
971
965
960
957
957
953
948
946
944
945
948
946
943
936
939
941
941
934
925
909
903
912
932
963
1001
1049
1097
1127
1129
1087
1025
968
936
926
933
947
962
974
980
985
988
990
992
992
996
1000
1001
1001
999
997
997
999
999
999
995
993
993
989
990
987
988
983
983
984
981
979
974
968
967
964
965
963
959
954
950
951
952
953
950
947
944
946
949
949
949
946
946
950
957
957
956
953
958
955
957
957
955
955
955
958
961
963
962
960
959
965
970
974
971
968
966
971
972
972
967
967
967
968
969
968
967
968
967
971
974
979
978
976
973
973
972
973
970
968
966
966
967
965
960
955
956
958
960
956
957
954
953
955
960
961
959
958
959
965
970
968
970
967
966
967
971
977
980
980
986
988
995
999
997
993
990
984
974
961
951
954
980
1023
1075
1129
1169
1181
1163
1114
1056
1010
988
984
991
997
1000
996
988
980
972
972
971
970
969
966
964
967
968
971
972
970
969
972
976
977
977
976
976
980
985
990
988
986
988
993
992
996
995
994
998
1001
1009
1013
1015
1011
1014
1015
1018
1020
1016
1016
1017
1019
1020
1019
1014
1011
1010
1011
1010
1008
1007
1004
1001
1000
998
999
992
987
984
982
983
979
974
969
965
960
964
964
959
960
960
962
962
966
964
965
969
974
979
982
983
981
986
991
993
996
995
993
993
995
997
1002
1000
1005
1006
1012
1014
1017
1016
1012
1011
1014
1016
1019
1017
1010
1009
1011
1013
1012
1008
999
997
1001
1003
1003
1000
995
990
991
989
987
984
981
979
977
978
979
976
972
969
972
974
974
975
971
971
972
976
975
978
975
973
978
982
985
986
984
988
992
998
1005
1005
1007
1007
1014
1021
1025
1027
1026
1023
1026
1028
1025
1027
1026
1025
1026
1025
1025
1022
1022
1018
1019
1018
1018
1016
1011
1010
1010
1010
1004
1003
996
993
994
994
993
991
986
980
982
982
981
982
982
980
985
987
990
989
988
988
992
997
996
997
996
992
996
1000
1002
998
993
1003
1035
1080
1129
1170
1203
1222
1214
1174
1111
1056
1024
1014
1018
1030
1034
1033
1026
1016
1018
1017
1013
1010
1006
1003
1001
1002
1004
999
996
991
988
988
988
985
981
980
981
985
983
983
983
984
987
992
997
993
992
992
995
1000
1001
1001
997
995
999
1001
1002
1003
1002
1003
1006
1010
1011
1013
1014
1017
1023
1030
1032
1035
1034
1034
1034
1036
1035
1032
1030
1034
1036
1038
1036
1031
1028
1026
1023
1023
1018
1012
1007
1003
999
998
994
990
984
980
980
981
980
976
973
969
967
973
973
972
971
971
975
976
979
980
977
974
976
977
977
976
975
975
978
978
984
983
984
986
993
999
999
1001
999
999
1003
1006
1007
1006
1003
1002
1004
1003
1007
1004
999
995
996
996
997
991
990
991
994
996
994
993
990
986
986
982
980
976
973
971
970
973
969
966
965
965
968
973
975
976
976
977
980
981
977
975
975
975
978
982
985
984
984
984
986
991
994
996
995
995
997
999
999
997
997
995
1001
1002
1003
1004
1002
999
1001
996
999
995
991
990
990
992
988
982
981
977
978
976
973
969
963
966
969
973
973
972
973
971
973
975
979
979
979
977
982
987
990
991
988
989
988
994
997
999
999
998
995
994
1001
1025
1065
1111
1153
1174
1172
1137
1073
1017
983
976
980
990
998
1004
1004
1004
1001
995
987
984
989
987
986
987
985
982
986
985
985
982
976
975
975
975
975
973
970
971
975
979
980
979
982
984
995
1001
1004
1002
1000
997
996
1002
1006
1002
1004
1005
1006
1010
1017
1014
1018
1019
1024
1025
1027
1024
1022
1019
1022
1022
1023
1021
1016
1010
1009
1009
1008
1005
998
996
993
992
989
985
978
972
977
975
971
969
962
957
957
958
960
955
951
950
951
954
956
952
949
949
951
957
957
959
959
962
965
969
969
971
972
976
980
988
992
993
996
998
1003
1007
1007
1008
1008
1007
1004
1004
1004
1002
999
996
994
995
999
994
988
989
989
988
986
980
977
975
972
972
967
964
959
957
957
955
954
950
947
946
951
950
950
950
950
946
949
953
954
954
956
957
958
963
965
964
963
961
960
962
965
965
965
969
972
979
980
979
977
981
985
991
993
991
989
986
990
990
992
992
987
986
985
983
983
979
974
974
971
969
968
965
959
958
958
960
958
954
947
945
946
946
947
945
942
942
946
947
951
949
949
951
951
957
960
959
960
956
957
960
957
961
960
962
966
972
972
974
976
977
986
988
991
991
989
986
988
987
986
981
977
976
978
980
980
979
977
977
976
978
978
973
970
970
966
966
963
959
954
950
945
941
944
967
1008
1060
1102
1124
1108
1050
981
930
908
909
925
941
951
956
952
950
949
950
949
949
956
963
967
969
970
969
976
981
985
989
984
984
984
983
982
981
979
980
980
979
978
972
965
965
965
969
971
970
964
961
961
959
957
954
953
950
951
954
952
955
952
951
953
954
956
955
953
955
962
963
967
967
963
962
966
969
968
963
962
960
964
964
969
972
968
972
974
978
977
974
971
973
976
977
977
974
966
965
963
964
962
961
955
954
954
953
954
950
944
940
940
939
938
934
930
927
931
935
936
936
933
934
935
942
946
948
946
949
954
957
958
954
951
951
955
957
957
958
955
958
960
965
969
969
971
973
977
981
984
986
987
984
983
987
984
982
985
983
987
985
987
986
981
981
980
982
981
977
978
972
974
975
977
974
969
971
970
966
967
963
953
943
944
952
967
988
1016
1049
1095
1131
1150
1130
1081
1019
978
962
966
978
989
995
998
995
996
990
987
989
992
994
992
996
994
993
1000
1008
1008
1008
1007
1004
1004
1005
1004
1008
1003
1001
1005
1004
1004
999
995
993
995
999
998
995
993
988
990
990
986
986
979
979
979
983
981
975
969
971
973
976
977
975
971
971
974
980
985
985
984
984
985
985
986
984
980
981
982
986
983
985
982
986
990
997
998
997
995
1000
1004
1007
1010
1005
1001
997
1002
1005
1007
1007
1003
999
998
1001
997
994
990
989
992
992
990
988
983
980
981
982
980
976
974
972
972
973
971
965
957
958
961
961
963
962
959
962
963
969
974
974
975
976
978
981
979
977
978
975
983
985
988
989
988
991
996
1002
1001
998
989
977
968
967
985
1021
1065
1117
1164
1194
1206
1186
1135
1080
1034
1009
1001
1004
1012
1019
1022
1017
1005
999
993
989
988
988
987
982
977
975
977
980
979
977
974
971
976
979
980
982
977
978
978
984
985
984
988
989
990
990
991
991
989
986
995
998
998
1001
1000
1001
1006
1013
1016
1016
1011
1013
1015
1017
1020
1018
1013
1011
1011
1012
1011
1005
1002
998
999
997
997
994
988
987
987
987
986
984
983
980
978
983
981
980
977
973
977
977
975
977
975
974
975
979
975
976
974
976
985
989
994
995
990
990
992
994
994
995
994
995
999
1005
1006
1005
1006
1005
1007
1008
1005
1004
999
999
998
1000
998
993
990
989
990
989
986
981
977
980
980
980
975
973
969
971
971
973
973
968
962
963
961
961
964
962
959
958
959
963
965
965
965
969
976
983
987
989
988
992
993
999
1001
998
996
994
995
996
1000
1003
1004
1008
1015
1021
1026
1027
1027
1026
1029
1027
1022
1010
1004
1008
1020
1045
1072
1101
1132
1159
1173
1163
1124
1068
1018
987
974
976
987
994
992
989
984
981
977
977
970
972
972
972
970
966
965
966
967
970
970
968
967
967
970
974
980
981
979
980
982
988
987
986
982
983
990
992
991
993
997
1002
1008
1014
1021
1026
1029
1032
1035
1040
1043
1040
1034
1037
1039
1040
1038
1035
1028
1024
1020
1021
1022
1022
1017
1013
1010
1012
1008
1004
999
998
994
992
989
983
976
972
974
973
974
968
967
964
965
967
966
965
962
962
965
967
967
969
967
967
970
971
971
971
973
972
975
979
977
980
977
980
988
992
994
993
994
997
1002
1009
1011
1010
1008
1005
1007
1007
1011
1010
1009
1006
1003
1003
1003
1001
995
998
997
998
993
988
982
980
979
980
977
975
968
967
969
972
971
968
965
965
967
970
971
971
969
971
973
974
977
975
973
973
975
975
974
972
968
973
975
979
981
980
984
989
995
1000
1005
1009
1010
1009
1011
1018
1015
1010
1007
1009
1012
1014
1014
1010
1005
1007
1008
1010
1010
1005
1003
995
999
1000
996
992
986
983
984
984
982
976
970
968
968
968
966
966
963
965
968
970
972
970
969
973
978
979
979
974
974
974
976
978
977
974
970
968
973
976
981
984
987
990
991
997
995
992
988
995
1018
1049
1088
1127
1159
1181
1179
1151
1098
1041
998
979
985
1002
1014
1014
1008
998
994
993
991
987
979
978
977
975
972
968
962
961
959
963
965
960
960
964
966
969
975
973
972
977
979
983
983
978
978
978
981
985
985
983
982
981
985
989
989
992
993
1000
1008
1014
1015
1014
1012
1010
1014
1016
1018
1014
1009
1009
1012
1012
1007
1003
999
1002
1005
1008
1004
1000
994
988
987
983
981
974
967
964
961
961
959
954
952
949
948
950
950
949
947
943
949
952
956
956
956
956
959
961
961
958
958
958
963
966
966
967
969
970
976
983
984
987
988
991
990
991
991
991
991
993
993
992
992
992
987
983
985
988
986
985
981
980
979
984
981
977
969
967
968
968
968
965
960
958
956
959
954
955
950
952
953
954
953
951
951
952
956
961
963
963
965
963
967
967
968
967
965
968
971
975
978
972
973
974
980
982
989
989
989
989
990
990
991
993
990
989
993
996
994
994
990
989
992
995
990
983
977
976
991
1014
1048
1083
1118
1144
1144
1110
1051
994
954
943
948
964
976
979
974
972
969
970
966
958
959
958
962
964
964
967
969
968
970
970
972
972
967
968
975
978
978
979
979
981
987
994
996
996
994
992
995
998
1001
998
999
999
1002
1006
1003
1002
1001
1000
1001
1002
998
997
995
995
995
997
992
989
985
980
984
985
983
979
975
975
973
976
977
974
967
968
967
972
972
971
968
970
973
975
977
976
976
973
976
979
980
983
983
986
991
995
1000
1000
1000
998
1000
1002
998
997
995
996
999
1000
998
996
990
990
990
991
991
992
988
985
984
986
986
984
978
974
977
980
979
977
975
977
980
981
981
979
976
974
978
979
983
984
982
985
989
989
989
989
985
987
985
989
994
997
999
1004
1013
1019
1023
1021
1020
1021
1024
1026
1025
1021
1015
1013
1016
1019
1019
1016
1012
1006
1008
1005
1001
995
986
986
988
992
992
990
984
982
984
991
992
992
987
989
992
995
998
999
995
996
1001
1003
1003
1002
997
996
1001
1003
1001
1002
1002
1007
1016
1021
1022
1025
1026
1028
1032
1036
1037
1034
1031
1028
1029
1030
1031
1028
1022
1021
1022
1025
1024
1025
1023
1019
1014
1013
1020
1040
1073
1112
1149
1181
1187
1161
1106
1043
997
980
979
985
992
1001
1005
1005
1004
1000
994
997
996
997
997
996
991
988
995
997
997
1001
998
1000
1003
1006
1011
1014
1017
1021
1027
1033
1038
1039
1039
1039
1042
1044
1043
1041
1036
1034
1035
1038
1037
1033
1027
1025
1021
1025
1022
1020
1013
1009
1010
1010
1009
1003
1001
1000
1000
1000
1001
998
996
995
1002
1003
1000
997
996
993
998
1001
1006
1006
1000
997
999
999
998
996
994
993
993
992
995
996
997
1005
1015
1023
1027
1032
1032
1036
1039
1042
1042
1038
1032
1032
1029
1028
1023
1020
1012
1014
1014
1014
1013
1013
1007
1001
1005
1005
1002
998
995
995
999
999
998
991
988
987
987
988
988
987
984
982
985
994
995
996
995
997
1002
1000
1002
1000
998
996
997
1000
1001
1001
999
999
1002
1009
1009
1007
1008
1014
1020
1023
1027
1027
1025
1026
1025
1025
1027
1023
1024
1025
1029
1030
1029
1026
1019
1018
1015
1015
1016
1011
1009
1004
1004
1001
1001
1001
995
994
995
994
993
992
988
989
994
992
993
994
992
995
996
1003
1007
1004
1001
1002
1003
1007
1008
1007
1004
1005
1005
1009
1009
1010
1009
1013
1017
1023
1026
1028
1030
1034
1034
1040
1039
1033
1027
1025
1031
1033
1032
1027
1021
1015
1016
1012
1010
1004
1002
1001
999
1001
1003
1003
1003
1001
1003
1003
1002
999
998
995
998
999
997
993
992
993
996
1001
1000
998
995
997
997
1000
1001
1003
999
999
1001
1005
1008
1003
1000
997
1000
1021
1055
1097
1137
1176
1201
1193
1140
1075
1023
1002
1015
1029
1039
1034
1028
1022
1019
1020
1016
1011
1007
1007
1008
1005
1002
995
990
990
989
987
989
988
985
987
990
992
997
998
997
999
999
1007
1010
1007
1005
1004
1008
1010
1011
1006
1006
1008
1011
1011
1012
1015
1015
1017
1023
1028
1029
1029
1029
1033
1036
1038
1036
1033
1030
1029
1033
1033
1030
1027
1021
1019
1015
1013
1013
1008
1004
1001
1001
1002
1004
1001
994
992
989
996
992
988
984
982
982
985
981
982
982
988
993
996
996
996
994
995
999
1002
1000
1003
1001
1001
1004
1010
1011
1011
1010
1011
1015
1018
1022
1022
1023
1020
1021
1022
1024
1018
1013
1012
1015
1012
1010
1006
1005
1002
1000
999
996
994
986
982
983
984
987
986
983
981
986
984
984
979
975
972
966
958
948
948
962
994
1035
1084
1130
1163
1175
1168
1124
1064
1016
992
986
997
1004
1010
1013
1012
1010
1014
1019
1027
1029
1026
1023
1024
1028
1029
1031
1028
1022
1023
1023
1026
1023
1023
1018
1014
1016
1014
1012
1010
1005
1003
1000
1001
997
994
990
990
990
991
985
984
979
979
983
985
986
984
981
982
985
991
993
992
992
991
993
995
995
992
992
992
994
996
994
994
993
993
994
996
1000
999
1001
1001
1003
1005
1004
1002
999
1001
1003
1006
1006
1003
1000
998
998
1002
1001
998
988
986
989
990
987
982
979
976
975
976
973
970
968
964
968
971
971
967
968
971
975
977
980
980
977
979
984
991
988
986
982
982
986
993
992
992
988
987
990
998
998
1002
1002
1007
1010
1014
1018
1013
1012
1010
1010
1013
1015
1011
1008
1007
1010
1011
1009
1006
1001
1000
1002
999
994
993
987
987
989
989
986
980
975
970
972
972
973
970
967
967
971
974
977
974
978
979
985
989
988
990
991
991
992
997
998
999
996
997
999
997
989
984
997
1028
1072
1120
1150
1150
1116
1053
998
973
972
984
1001
1013
1014
1012
1007
998
995
993
993
993
992
990
986
983
983
984
981
977
971
969
970
975
983
984
984
986
990
997
1002
1000
1000
1002
1008
1011
1010
1006
1005
1007
1008
1014
1015
1011
1014
1017
1023
1027
1027
1028
1022
1025
1029
1033
1028
1028
1019
1022
1023
1023
1020
1014
1010
1009
1007
1009
1008
1003
996
988
989
988
987
982
980
976
976
973
972
968
965
962
965
965
967
965
963
964
967
970
974
972
973
974
976
982
984
981
979
981
984
987
991
994
995
1001
1005
1011
1015
1018
1016
1016
1018
1015
1017
1010
1013
1012
1014
1014
1012
1009
1007
1004
1006
1007
1007
1003
1000
996
995
996
990
986
982
981
984
986
983
978
973
974
976
979
978
979
976
978
978
986
990
991
990
990
996
999
996
996
996
997
998
1005
1006
1005
1008
1012
1017
1022
1025
1023
1022
1022
1026
1027
1025
1020
1015
1015
1024
1031
1032
1032
1025
1023
1024
1023
1025
1025
1018
1015
1014
1015
1012
1007
999
998
996
998
996
991
986
987
990
991
992
990
990
993
997
1002
1002
999
994
991
997
1017
1048
1083
1118
1151
1169
1161
1112
1046
1001
988
1003
1021
1032
1031
1030
1030
1032
1033
1028
1028
1025
1022
1020
1022
1018
1019
1016
1015
1012
1014
1010
1004
1003
1003
1005
1006
1006
1005
1004
1004
1010
1012
1013
1012
1008
1009
1013
1014
1013
1012
1011
1012
1015
1022
1025
1026
1022
1025
1026
1026
1023
1025
1022
1025
1026
1031
1039
1042
1042
1043
1046
1050
1050
1050
