917
917
914
917
915
913
911
910
911
912
915
914
918
917
914
916
916
912
915
914
914
916
916
917
919
919
920
921
921
921
921
920
921
925
925
925
926
927
928
930
930
927
929
931
935
937
939
943
946
948
946
947
945
943
938
936
934
934
935
931
932
930
926
925
924
918
914
913
913
910
911
910
911
910
911
911
909
907
908
909
911
912
912
914
914
914
919
915
920
920
923
923
929
939
949
962
981
1001
1023
1051
1086
1120
1155
1185
1215
1240
1267
1292
1310
1306
1270
1206
1125
1038
960
901
866
856
856
866
876
882
885
886
889
889
887
886
887
884
886
885
887
887
884
885
880
882
878
880
879
880
880
879
880
881
880
880
877
874
874
871
872
875
874
874
875
875
873
871
870
868
868
864
865
865
868
866
867
868
867
864
860
860
857
856
853
852
853
855
855
854
851
853
850
850
846
844
843
844
841
846
846
847
848
847
846
845
843
841
843
846
847
849
853
856
859
861
858
862
864
865
868
870
878
879
885
889
890
890
893
894
895
893
900
900
902
902
905
906
908
907
906
906
904
905
905
906
907
908
908
908
907
905
906
906
902
903
903
903
904
903
904
905
903
902
901
899
897
895
894
896
893
892
897
895
896
893
893
894
891
891
889
888
893
892
897
898
895
895
892
887
884
883
886
895
910
930
956
983
1008
1032
1044
1052
1058
1054
1044
1027
1006
979
955
937
919
902
882
859
834
803
780
765
759
764
770
781
789
797
804
808
809
810
811
813
822
830
837
847
853
858
861
864
867
870
874
879
883
886
885
885
887
885
883
881
882
880
885
884
884
884
885
888
887
886
885
884
884
881
884
884
883
884
885
888
889
889
886
888
886
886
889
893
897
901
910
916
919
923
926
930
934
935
944
948
953
960
965
970
974
978
981
985
987
992
995
998
1001
1003
1005
1004
1004
1000
997
993
990
986
984
980
978
973
972
968
964
960
960
954
950
945
942
939
938
937
935
933
932
931
924
921
919
918
918
917
917
916
918
917
917
917
915
913
914
912
912
913
913
915
914
914
914
915
911
910
912
909
910
912
913
914
914
917
915
914
915
915
912
911
911
913
913
912
912
914
915
912
912
910
908
909
906
910
910
909
911
913
913
911
909
910
908
909
907
907
910
911
911
912
911
909
907
904
905
905
906
906
909
907
908
913
911
908
906
908
908
906
906
906
910
909
910
911
909
911
908
909
906
905
902
907
907
911
909
910
911
909
909
905
905
906
906
906
907
910
914
916
915
918
918
918
918
916
917
919
919
923
926
930
932
933
933
933
934
932
933
934
936
933
935
935
929
927
922
921
920
911
912
911
908
907
904
904
902
900
897
898
897
897
900
898
902
897
903
906
907
907
909
907
906
907
912
917
923
932
948
967
983
1005
1033
1065
1096
1132
1162
1193
1218
1246
1279
1302
1291
1240
1153
1048
947
874
833
824
835
852
870
881
888
888
887
882
877
875
874
872
873
875
875
876
876
875
871
871
870
868
870
869
871
871
874
873
872
870
869
864
864
863
863
862
863
862
862
861
858
858
858
856
856
854
851
852
850
850
851
852
851
851
846
843
841
839
839
833
837
841
838
838
837
837
835
833
832
830
831
831
835
837
837
840
842
843
847
844
845
849
850
854
857
863
867
871
875
877
878
881
881
885
886
889
893
895
895
898
899
898
899
897
900
900
899
899
902
903
905
903
905
903
906
904
901
904
900
901
902
902
901
905
903
903
900
899
898
895
893
893
895
898
899
896
897
895
893
893
890
889
890
888
888
890
893
894
896
895
895
895
895
893
892
889
893
894
896
902
915
932
950
977
1002
1023
1036
1045
1049
1045
1034
1018
991
964
939
920
901
885
869
851
829
808
790
776
768
765
765
770
777
780
787
792
795
797
799
804
805
814
818
824
828
835
843
851
859
869
879
882
889
889
891
891
889
888
888
889
890
891
891
891
892
892
891
891
891
892
892
894
894
895
896
897
897
896
895
893
891
891
889
892
891
897
903
903
904
907
909
909
908
911
913
920
927
933
941
945
947
953
956
959
961
965
969
974
982
990
995
1001
1002
1003
1005
1006
1008
1010
1007
1006
1008
1007
1007
1006
1002
1000
992
989
983
977
975
970
967
964
960
959
954
950
946
939
935
930
930
929
929
927
928
926
927
925
924
922
921
919
919
919
919
918
917
921
921
919
917
916
917
916
914
916
917
918
919
920
919
922
919
918
917
916
913
915
915
915
916
921
919
918
914
913
912
912
913
912
914
914
916
917
916
913
913
913
912
911
912
912
911
911
911
913
913
913
909
910
912
911
911
911
913
912
914
916
917
912
910
910
911
908
909
908
908
913
915
913
913
914
915
913
912
911
911
911
912
913
912
916
916
917
915
914
913
910
912
913
913
914
916
915
920
918
917
912
914
915
918
915
919
922
923
925
927
927
929
930
932
932
933
935
937
938
941
941
939
935
936
934
930
926
923
919
916
915
916
915
911
906
903
900
901
901
902
903
905
908
906
909
909
908
907
906
906
908
907
909
910
913
918
929
932
938
947
957
971
989
1009
1032
1058
1089
1120
1151
1175
1192
1212
1227
1250
1269
1272
1245
1191
1115
1031
954
895
860
841
844
851
860
870
877
879
883
885
886
886
883
879
878
877
875
875
875
877
878
883
881
879
877
874
876
876
872
871
871
871
871
872
873
873
871
869
867
866
862
865
863
863
862
860
861
861
860
859
857
856
854
854
852
853
855
853
854
853
851
849
846
844
842
843
843
844
844
846
847
846
847
844
848
845
843
846
848
852
855
860
863
866
869
873
873
876
881
884
888
892
896
897
901
903
905
905
905
905
905
904
905
909
909
910
909
911
910
908
907
907
905
905
905
907
906
908
907
907
906
905
903
901
900
900
899
898
898
899
902
901
903
897
895
893
893
892
892
893
894
897
900
902
902
901
896
892
887
883
880
877
883
895
911
934
962
990
1013
1032
1045
1050
1048
1035
1012
985
955
927
902
883
865
844
815
787
759
738
725
723
731
740
753
764
771
778
782
783
785
790
795
800
809
815
822
829
834
839
845
850
855
858
863
869
876
881
885
886
889
886
888
884
883
885
889
888
892
894
891
893
889
887
885
885
888
890
891
892
891
894
895
895
893
890
891
890
890
893
893
895
899
900
902
905
903
905
909
910
919
922
929
934
937
942
949
950
954
959
963
969
974
980
986
989
997
999
1001
1004
1004
1009
1009
1011
1015
1014
1015
1014
1019
1016
1017
1013
1012
1006
1004
1003
997
997
994
993
989
985
979
975
968
963
960
957
956
954
952
948
947
942
943
940
933
930
931
930
927
927
927
927
928
931
928
928
924
923
921
923
923
922
922
925
928
925
924
924
923
919
922
920
919
924
923
923
924
925
926
925
923
921
921
920
920
921
923
922
925
926
923
923
922
921
919
919
920
920
921
921
921
920
918
916
916
918
915
917
916
917
917
919
920
920
920
919
917
914
914
916
916
915
916
918
919
919
917
918
917
918
914
916
916
917
918
920
920
917
918
918
914
914
913
914
914
915
917
918
918
921
919
918
917
916
916
916
916
916
916
917
921
918
924
922
923
920
921
919
921
922
923
927
929
930
931
931
931
935
936
939
939
939
943
943
944
943
942
935
930
927
925
920
917
917
915
916
914
914
908
908
904
902
902
901
901
903
904
906
908
909
909
909
906
909
910
911
910
911
914
916
918
924
927
936
944
957
971
989
1006
1031
1057
1085
1120
1151
1175
1196
1212
1232
1254
1276
1298
1305
1288
1243
1173
1090
1007
938
886
858
850
853
861
872
876
882
886
887
888
883
882
880
878
879
876
877
878
879
879
880
878
878
875
874
872
870
869
871
873
873
873
873
871
871
869
868
864
863
862
863
864
863
863
862
863
860
857
859
857
854
854
853
852
853
854
854
854
852
850
847
847
842
840
842
842
841
844
841
842
839
840
837
836
835
832
834
835
836
843
844
844
844
842
843
845
845
847
847
855
859
865
869
870
874
876
879
880
883
884
888
892
895
898
898
899
902
900
898
900
899
900
902
904
903
904
906
907
905
903
902
901
897
897
897
900
901
903
903
902
900
897
896
895
893
892
891
893
893
893
891
889
891
889
889
887
886
885
884
886
889
892
893
892
893
890
889
886
882
884
896
916
942
976
1007
1033
1046
1056
1056
1044
1024
998
966
941
920
903
883
863
836
810
787
770
763
763
764
775
786
799
807
809
810
811
811
814
818
823
831
838
845
848
853
858
860
866
868
871
871
874
877
876
878
881
879
879
881
880
878
880
878
879
878
879
879
880
880
880
881
877
877
874
875
875
877
880
878
879
879
881
881
881
881
882
883
885
887
890
894
896
900
901
904
908
911
917
919
924
930
935
940
946
952
957
962
965
968
971
975
979
984
986
988
993
995
995
994
993
992
992
990
990
988
990
987
986
980
976
975
971
963
960
960
959
953
950
947
945
941
939
936
930
924
921
920
917
917
918
915
916
914
913
910
907
907
906
906
907
907
908
909
912
911
910
911
911
908
907
908
911
908
910
910
912
912
911
911
909
910
909
908
908
909
911
910
909
910
907
907
909
907
907
906
906
906
907
907
910
911
911
908
906
906
908
906
906
906
905
907
907
910
908
908
908
906
906
906
906
905
907
908
908
909
909
907
907
906
904
902
904
906
906
909
910
911
913
911
909
907
909
906
908
908
912
911
913
913
912
911
910
911
910
909
907
908
912
911
915
914
916
916
917
918
918
916
916
918
921
922
923
925
925
924
928
927
927
928
931
934
937
940
943
941
943
942
940
936
933
932
930
930
928
925
924
920
918
915
910
906
902
902
900
901
902
906
910
911
910
910
910
908
906
911
914
912
918
921
929
936
944
958
974
992
1014
1041
1075
1109
1145
1174
1201
1224
1245
1273
1297
1308
1293
1243
1169
1081
994
924
877
854
850
854
865
872
878
880
883
884
881
882
884
881
880
879
878
877
878
875
876
877
876
878
876
877
878
876
873
870
870
867
868
868
869
872
871
871
869
867
865
862
860
859
857
857
856
857
856
857
855
854
851
852
851
851
849
849
848
849
849
848
845
844
840
839
838
839
838
838
840
838
842
841
843
843
843
845
842
845
846
847
848
853
857
859
863
866
868
870
872
875
879
884
887
890
895
898
900
902
903
901
901
901
900
903
906
906
909
910
908
907
906
907
903
904
904
904
905
907
905
908
906
904
902
901
900
900
900
899
901
898
901
901
898
898
894
895
893
892
891
889
893
892
897
897
900
900
898
898
896
892
889
885
884
885
891
900
915
941
969
993
1015
1031
1040
1046
1040
1028
1007
971
940
910
888
869
846
822
794
769
746
734
732
736
743
753
766
775
779
783
784
787
791
795
804
813
819
824
828
836
843
847
854
860
868
872
875
882
884
885
885
885
884
883
882
882
886
889
888
892
890
891
887
886
887
886
888
888
891
891
892
892
894
894
893
890
893
892
893
891
893
896
900
903
906
908
908
912
914
916
923
925
931
933
939
949
956
962
965
970
975
978
984
989
996
1001
1005
1010
1011
1012
1014
1014
1015
1016
1015
1015
1016
1016
1016
1015
1011
1010
1005
1003
998
993
993
990
988
986
983
981
976
972
968
965
961
956
955
952
950
945
942
938
936
935
933
928
924
926
923
921
923
925
923
926
921
921
920
916
917
914
916
915
919
918
919
918
919
918
918
917
917
915
917
919
920
921
923
921
920
921
921
919
918
915
915
916
917
916
919
920
921
920
918
915
914
913
911
914
912
914
915
918
916
916
916
915
914
912
911
914
912
912
915
916
913
913
913
912
909
911
912
912
912
913
917
916
916
914
916
915
912
910
910
911
912
912
916
916
913
915
913
914
913
913
915
914
916
916
916
917
918
914
914
915
914
915
916
916
917
919
919
923
922
922
924
922
921
922
925
924
928
928
932
933
932
934
931
935
932
935
938
939
939
941
946
949
951
949
947
944
941
938
938
935
933
933
931
929
927
925
920
916
914
909
909
905
909
909
913
915
914
915
915
913
915
914
917
917
918
920
922
926
929
932
936
944
951
962
978
994
1018
1046
1080
1118
1153
1184
1210
1229
1248
1270
1299
1323
1326
1299
1240
1162
1069
982
915
872
851
848
856
869
880
888
890
893
892
891
889
888
885
883
881
882
883
882
885
886
884
884
882
881
877
879
880
876
877
878
880
880
876
875
875
871
872
870
866
866
866
866
864
869
867
864
862
862
859
857
858
858
856
855
857
854
851
850
848
849
842
843
843
844
844
843
845
846
845
844
844
845
842
841
843
843
843
844
848
849
849
849
851
851
851
850
856
858
864
867
871
875
878
882
882
887
886
890
890
895
901
902
904
904
904
907
907
905
906
904
904
906
905
906
908
911
910
907
906
904
903
899
899
896
898
901
903
905
901
902
896
895
891
893
894
895
894
893
894
894
894
893
892
889
889
887
887
885
891
890
893
894
895
896
894
892
891
887
885
885
884
893
906
925
948
979
1006
1027
1043
1052
1054
1055
1044
1024
1000
970
944
923
900
879
855
828
805
782
771
766
766
773
780
785
790
792
790
790
790
789
793
798
804
810
815
819
827
833
842
849
857
865
871
878
881
882
884
883
882
879
878
875
875
877
881
882
883
884
879
879
879
876
876
877
880
880
880
881
882
882
879
881
879
878
877
879
879
879
881
882
884
887
887
889
893
893
893
894
900
904
909
914
921
925
931
933
937
940
947
950
956
961
967
970
976
980
984
986
987
990
991
991
990
989
989
989
992
993
989
988
981
977
974
969
966
963
960
959
957
951
948
943
940
935
931
928
927
925
924
923
921
918
917
916
914
909
906
904
904
906
907
907
910
910
908
906
905
904
899
899
899
902
903
902
907
908
907
909
908
906
903
906
905
904
905
907
910
909
908
909
905
904
902
902
902
902
904
906
907
907
904
906
906
903
903
902
903
903
905
902
903
908
904
904
902
900
897
896
896
898
901
902
902
902
904
904
905
904
902
899
899
900
901
901
902
901
902
904
903
903
900
899
898
899
900
903
903
906
905
906
903
906
905
906
906
907
911
908
911
914
912
914
914
914
915
915
919
921
925
929
930
931
933
934
931
930
927
923
923
923
923
918
919
916
911
911
907
905
903
897
897
891
891
894
894
897
897
897
899
897
895
894
893
895
897
898
904
910
912
916
923
931
944
963
986
1016
1054
1093
1134
1171
1200
1226
1251
1276
1294
1289
1257
1194
1113
1024
945
890
854
845
848
857
865
871
877
879
881
881
880
878
879
878
876
877
870
871
871
868
871
871
870
871
872
872
870
869
867
868
867
866
869
868
867
867
869
866
861
860
862
858
857
857
857
859
856
859
858
857
855
852
849
847
847
849
848
846
849
848
847
845
843
838
837
837
835
835
836
834
836
837
834
835
833
832
831
829
832
833
834
837
840
839
842
846
846
848
847
848
852
855
861
863
868
873
874
877
877
881
882
883
884
888
892
896
898
900
900
901
901
901
900
900
899
899
900
902
903
904
904
903
901
901
899
899
898
899
897
897
899
900
900
896
897
893
890
892
891
891
892
890
892
893
892
892
888
888
889
886
889
889
893
894
899
894
891
887
884
889
893
901
918
943
970
994
1014
1029
1037
1040
1042
1036
1024
1003
976
949
923
903
888
870
849
819
792
765
747
736
735
742
753
763
772
776
778
781
780
787
792
795
803
810
818
829
839
850
860
872
875
878
881
881
884
884
883
885
887
885
889
889
889
887
887
883
880
883
886
886
887
892
891
893
890
890
888
886
885
884
886
888
891
893
894
895
894
895
896
898
898
900
904
909
912
917
920
923
925
927
931
935
940
947
952
957
962
969
977
982
984
986
991
994
996
999
1002
1006
1007
1008
1009
1012
1011
1012
1009
1004
1002
1002
1002
999
993
994
991
986
982
979
973
971
968
966
963
961
955
956
953
948
947
941
936
934
933
931
930
930
929
930
927
926
923
920
918
917
915
914
915
915
918
920
919
917
919
920
916
913
913
913
912
915
916
918
920
917
915
916
914
913
913
913
915
917
916
919
920
918
918
916
917
915
915
914
914
917
919
918
919
920
920
916
915
915
913
913
912
912
913
916
917
914
913
913
909
909
908
911
911
910
913
914
914
916
912
913
911
908
908
908
910
908
911
913
913
914
912
912
910
908
912
911
912
910
914
916
917
916
916
914
912
916
916
917
918
918
922
924
925
927
929
928
930
931
932
936
937
940
941
942
940
939
938
935
932
931
928
924
924
922
918
916
913
912
909
905
907
903
904
902
906
909
909
912
909
909
909
910
910
911
912
912
917
917
920
923
929
937
948
960
976
995
1023
1055
1095
