896
891
890
890
893
900
919
941
971
999
1023
1041
1055
1066
1068
1060
1044
1018
989
964
945
924
910
890
864
838
811
790
774
768
764
770
780
788
796
803
810
810
810
810
810
815
821
825
831
836
841
847
850
857
867
872
877
880
884
885
887
887
890
888
888
885
888
889
889
891
890
888
887
888
885
885
886
887
886
887
890
888
887
885
886
884
880
884
885
886
887
888
889
891
893
892
893
892
890
894
898
900
905
910
915
920
925
929
934
936
940
941
948
951
956
960
968
975
977
980
982
984
985
991
992
995
996
1000
1001
1002
1002
1000
998
995
993
992
992
989
986
986
982
980
975
968
966
962
955
953
948
946
946
943
940
936
936
929
928
925
922
920
918
918
919
916
917
916
917
916
916
912
912
911
911
911
913
914
916
910
911
911
911
909
907
909
910
911
910
913
911
913
914
912
912
911
911
912
910
912
912
912
916
916
914
910
909
908
906
907
906
910
911
911
912
913
912
910
910
907
906
906
907
908
908
910
908
908
910
908
903
903
905
906
907
906
907
908
910
910
909
909
906
906
904
904
906
906
906
907
909
907
908
903
905
904
904
902
905
904
906
908
908
910
908
906
906
904
903
904
904
904
905
907
909
909
909
908
906
906
904
904
906
911
912
914
915
914
913
912
910
915
914
913
914
915
921
922
926
931
930
933
935
934
933
932
929
930
930
928
929
927
923
919
916
912
910
907
902
900
898
897
898
898
896
895
896
892
890
895
895
898
900
901
904
905
905
901
902
905
905
911
915
924
932
947
967
988
1008
1035
1062
1095
1127
1158
1184
1206
1229
1262
1290
1306
1295
1252
1179
1092
1001
924
876
849
844
850
861
871
876
881
883
881
877
873
873
875
873
873
872
874
874
874
870
868
867
868
867
866
867
870
870
870
868
868
865
864
862
862
860
863
861
862
864
863
864
863
860
857
856
852
854
852
852
851
850
849
850
848
847
843
843
843
841
842
842
841
844
842
844
840
837
836
835
834
835
833
837
839
838
840
841
840
841
840
837
840
842
845
848
853
854
859
860
865
866
867
869
874
877
879
885
888
893
896
898
899
896
900
898
898
901
903
905
905
907
907
908
908
904
902
904
903
903
908
908
910
911
910
909
908
908
905
902
903
904
903
904
902
905
904
904
904
901
902
898
898
897
898
897
900
898
898
895
893
894
894
892
896
894
896
896
893
896
893
895
895
904
918
941
968
998
1023
1037
1048
1055
1049
1035
1010
979
950
925
902
880
859
833
809
789
775
767
767
772
781
789
795
805
810
813
816
819
822
829
835
843
849
852
860
864
871
879
885
893
895
897
897
895
893
894
894
892
894
896
895
898
897
898
896
895
893
895
896
895
894
897
897
899
901
901
900
900
900
896
898
900
901
907
913
915
918
920
922
925
927
929
933
938
946
953
958
966
971
975
977
983
986
989
995
995
1000
1007
1010
1014
1018
1020
1019
1019
1018
1017
1014
1014
1012
1012
1011
1011
1007
1004
1000
998
993
989
983
982
978
972
969
965
963
962
957
952
947
941
937
937
936
936
933
934
931
933
930
928
927
926
923
923
925
924
927
927
927
930
925
923
923
925
925
924
925
926
928
927
927
927
924
924
924
925
924
924
927
924
926
928
927
926
925
924
922
921
919
919
919
921
923
924
924
924
923
923
921
922
921
920
920
920
921
922
922
923
921
919
920
921
920
918
920
923
922
925
923
924
923
921
920
918
918
920
919
920
921
921
922
922
920
920
918
918
918
919
919
922
923
922
922
922
922
922
922
920
920
920
924
926
928
930
930
930
927
927
926
926
928
930
930
934
934
937
937
940
941
941
941
943
943
945
947
948
950
948
944
944
942
940
934
931
927
926
925
924
923
922
919
918
915
913
913
912
912
914
914
916
916
918
920
923
924
924
922
925
926
931
936
944
955
971
989
1010
1034
1059
1088
1122
1151
1179
1197
1212
1230
1250
1274
1292
1287
1256
1198
1122
1040
966
910
872
857
854
864
874
886
889
892
893
892
891
893
892
889
891
890
892
890
889
888
888
888
886
886
887
886
890
887
887
886
885
883
883
879
880
880
880
880
879
878
877
875
876
874
873
871
871
871
870
868
870
869
867
866
864
860
859
860
858
857
857
859
860
860
858
856
857
857
855
856
855
853
854
858
857
861
859
860
858
859
859
860
859
864
870
869
874
878
882
888
891
894
894
897
902
903
908
912
915
917
919
919
918
919
918
917
917
917
920
919
920
919
917
919
915
912
913
914
914
914
916
917
916
915
914
915
914
913
910
910
910
909
911
911
910
910
909
908
906
906
906
906
903
908
908
909
913
913
915
913
913
910
904
900
896
891
894
897
906
919
941
966
994
1021
1040
1053
1063
1066
1064
1047
1020
990
959
932
906
880
853
823
794
770
756
753
755
766
776
788
795
802
806
805
806
811
817
824
832
841
847
854
859
865
871
874
878
884
890
893
899
898
902
901
900
900
897
896
898
900
901
902
904
904
905
903
901
901
901
900
898
900
900
903
904
904
904
901
903
902
900
900
902
903
904
908
910
912
915
916
920
922
926
931
936
943
948
955
961
968
973
976
979
985
988
993
997
1003
1007
1012
1014
1017
1020
1019
1024
1022
1020
1021
1019
1017
1016
1016
1016
1014
1012
1009
1004
1001
997
993
988
986
983
980
979
975
973
968
964
961
957
952
949
948
948
945
943
942
939
938
935
931
929
929
927
927
930
933
929
931
929
930
930
927
928
927
927
926
926
927
926
928
930
928
923
925
926
924
924
924
925
928
931
931
928
927
926
925
923
924
923
925
925
925
926
927
925
923
921
920
920
919
918
921
923
922
925
924
923
920
919
920
919
919
919
921
921
919
921
923
922
923
919
919
919
919
917
918
919
920
921
919
919
918
915
912
914
917
917
915
918
917
918
920
921
919
916
916
918
918
918
919
920
922
922
924
925
926
924
923
923
921
923
923
927
930
932
932
935
934
935
938
938
938
939
942
943
945
946
949
946
946
941
938
935
934
929
927
925
922
924
920
917
914
909
908
901
904
903
904
907
907
909
911
909
910
911
908
908
909
908
908
911
914
918
921
925
929
938
949
961
977
995
1022
1049
1080
1114
1144
1171
1194
1212
1233
1261
1287
1301
1292
1254
1194
1115
1032
962
907
874
862
861
863
873
878
879
885
884
886
886
886
883
883
880
879
879
880
879
882
882
883
880
879
877
876
876
872
873
873
874
874
876
875
875
871
870
870
868
866
865
866
866
867
867
868
866
865
862
858
856
854
854
854
856
855
855
856
851
852
848
846
843
840
840
839
838
843
844
841
843
838
838
837
837
835
836
837
838
841
842
845
845
844
844
844
846
846
849
851
855
859
865
868
872
873
872
877
881
881
885
888
893
894
898
902
903
903
901
903
901
902
904
902
907
908
910
909
907
906
908
906
903
903
903
903
904
904
905
905
905
905
901
900
900
897
897
898
898
899
899
900
898
898
897
895
895
894
893
895
897
898
901
901
900
898
896
893
891
888
892
898
909
928
953
979
1008
1030
1048
1058
1064
1060
1050
1026
1002
974
951
932
914
897
875
848
825
805
787
778
777
780
789
795
801
806
808
808
807
811
813
818
827
833
840
847
851
857
862
867
871
877
882
886
892
894
896
896
895
895
896
894
892
893
894
895
897
897
899
899
897
894
896
893
895
895
894
896
898
897
898
899
897
897
897
897
896
896
896
895
897
899
900
907
907
910
911
912
915
918
922
926
931
935
941
947
952
956
960
964
969
974
977
982
989
992
999
1001
1007
1009
1010
1012
1012
1012
1014
1013
1014
1015
1012
1014
1011
1012
1007
1005
1001
999
993
989
986
985
984
982
979
979
973
968
964
960
958
953
953
950
948
948
944
941
939
938
935
933
933
932
932
933
933
934
934
932
930
931
928
926
927
928
929
929
931
933
932
931
929
929
929
927
927
924
926
928
929
930
930
927
927
927
926
926
927
927
927
928
927
926
928
929
925
924
923
924
925
925
924
925
924
927
927
927
926
922
924
922
922
923
926
926
927
927
926
924
923
921
920
922
923
923
925
925
927
928
927
927
926
924
922
923
924
925
925
924
927
930
930
929
928
927
928
930
929
930
934
936
938
938
937
939
939
937
939
940
941
947
949
950
956
958
959
957
954
952
949
946
946
943
943
941
938
936
933
932
929
927
922
917
917
918
919
921
921
922
919
920
922
921
920
919
922
922
925
926
928
930
934
936
938
944
952
963
979
998
1022
1051
1085
1121
1161
1192
1219
1241
1265
1294
1313
1304
1263
1192
1107
1020
940
890
863
859
862
873
884
893
899
903
905
907
905
906
903
901
898
896
896
898
899
899
899
900
898
898
896
894
893
892
893
892
892
892
893
892
892
888
888
885
883
884
884
883
881
883
877
880
881
880
878
878
876
875
874
873
875
871
871
873
869
867
867
864
862
860
861
860
860
861
862
862
863
862
863
863
864
862
861
862
865
867
872
875
876
878
880
881
883
885
889
896
897
902
907
908
912
916
914
919
920
920
922
924
926
926
928
929
930
930
929
931
929
928
929
929
930
932
933
934
931
932
928
930
926
926
926
926
925
925
930
928
927
924
922
920
919
919
917
919
920
920
923
926
925
926
927
928
927
925
920
915
910
909
911
914
920
935
953
979
1005
1028
1048
1064
1072
1073
1063
1046
1014
982
951
926
906
883
861
835
805
781
759
749
751
756
764
771
781
790
797
800
804
808
815
824
832
841
849
856
863
871
875
883
891
901
908
913
915
915
915
915
912
911
911
910
913
914
917
918
916
918
918
918
918
916
915
916
916
917
919
921
920
920
919
919
921
920
921
923
926
928
928
931
936
938
936
937
942
943
947
950
956
961
966
971
974
978
980
986
991
994
999
1005
1010
1013
1022
1027
1030
1033
1036
1037
1039
1040
1040
1040
1042
1043
1043
1043
1041
1040
1036
1033
1027
1024
1019
1019
1016
1014
1009
1007
1000
995
992
986
982
978
975
973
971
970
969
966
964
962
962
958
955
953
954
954
954
954
953
953
952
952
951
950
947
948
947
948
950
949
949
949
949
950
949
946
946
948
947
948
949
948
950
950
945
946
944
943
942
940
945
946
946
946
949
947
946
943
945
942
940
939
941
940
943
942
944
944
944
943
944
944
941
940
940
938
942
942
942
946
944
943
941
939
938
940
938
938
940
941
945
945
941
942
942
940
941
940
938
938
939
942
943
944
944
945
944
942
939
936
937
938
941
941
948
950
949
949
948
948
948
947
945
949
951
954
955
960
962
962
963
964
964
965
963
962
965
964
963
964
963
957
953
952
948
944
943
941
940
936
936
934
935
930
930
933
930
928
930
927
932
931
934
937
936
938
937
938
937
937
940
941
946
951
958
966
975
987
999
1017
1034
1057
1084
1117
1149
1185
1212
1236
1257
1277
1305
1328
1324
1291
1225
1137
1042
962
906
878
871
877
888
898
902
908
905
904
904
907
905
905
902
901
901
898
898
896
896
896
897
897
898
897
897
895
895
894
890
890
891
892
890
889
889
889
891
889
887
885
885
881
880
882
881
879
880
882
882
879
878
875
871
870
867
866
867
869
868
869
868
866
867
864
860
859
858
856
857
857
858
860
859
858
857
856
855
853
856
857
858
861
866
870
871
875
874
875
875
876
880
887
893
895
900
906
907
912
911
912
913
911
914
916
916
918
923
923
924
925
925
924
922
921
920
922
922
923
925
927
925
923
922
921
917
918
914
917
917
919
920
922
920
918
917
915
911
911
909
910
910
910
913
913
913
910
909
908
906
905
906
907
907
910
910
912
909
906
903
905
910
922
945
973
1001
1030
1054
1070
1081
1085
1078
1070
1047
1021
993
971
953
937
920
898
866
841
816
797
785
779
782
787
797
805
810
816
816
816
815
814
817
821
828
835
842
847
854
861
867
873
875
881
885
889
894
894
901
901
902
901
900
899
900
898
899
897
898
899
899
901
903
905
902
901
902
898
897
896
897
896
896
897
897
903
902
903
900
902
902
901
901
902
906
907
913
917
918
923
924
927
928
931
934
940
947
952
956
963
966
971
976
980
983
987
991
995
1000
1005
1008
1010
1011
1014
1013
1013
1012
1008
1007
1006
1005
1005
1002
1003
998
996
991
990
983
978
974
971
969
965
962
960
957
955
949
946
940
937
934
933
933
932
931
932
931
930
927
926
925
922
922
923
926
928
930
928
929
926
927
928
925
924
924
925
925
926
929
929
930
931
928
927
928
925
926
925
927
929
928
928
928
929
928
926
926
923
922
920
921
923
926
928
927
927
925
925
923
922
922
921
924
924
927
926
928
925
923
927
924
923
922
925
927
926
923
924
924
925
926
927
925
922
920
921
921
924
926
926
928
926
926
929
925
925
926
926
928
930
930
932
936
936
935
936
937
937
936
936
940
941
943
947
948
949
953
952
954
954
955
956
956
957
955
956
955
952
948
943
939
934
931
929
929
929
927
926
923
922
919
919
917
917
917
919
921
921
925
927
928
927
929
928
932
931
933
936
943
953
964
981
998
1020
1039
1067
1097
1129
1163
1193
1219
1246
1269
1298
1326
1337
1323
1277
1207
1124
1038
965
914
885
875
879
886
895
901
902
900
901
901
902
904
904
905
905
903
904
901
900
897
896
898
894
895
894
897
901
900
897
898
895
891
891
890
890
891
893
892
890
891
889
887
885
887
882
882
880
883
882
880
881
882
878
876
874
874
870
869
865
867
869
869
869
868
866
865
863
862
860
860
859
859
861
862
862
863
864
863
863
862
862
864
865
865
868
872
874
876
879
879
880
882
885
889
890
896
900
908
908
914
917
918
922
920
922
923
925
927
929
929
933
933
931
931
931
929
930
929
931
931
933
931
934
931
930
928
927
924
925
925
924
924
924
925
926
923
923
923
922
920
919
918
918
919
918
920
921
921
921
920
922
921
920
918
913
913
907
910
912
917
928
946
967
993
1019
1039
1058
1069
1074
1070
1054
1025
991
959
931
906
883
856
827
798
777
763
761
764
774
784
793
799
802
804
804
809
818
827
835
841
847
856
863
870
879
886
894
900
908
912
912
913
915
914
913
909
909
910
910
913
912
913
913
913
915
911
911
913
914
914
913
915
914
914
916
916
915
916
915
914
915
917
916
917
921
927
931
933
937
936
941
944
945
951
955
961
968
975
983
986
994
999
1003
1008
1012
1016
1019
1024
1028
1029
1032
1033
1034
1031
1033
1028
1027
1024
1023
1023
1023
1019
1015
1016
1012
1005
1001
995
992
988
982
981
981
978
976
971
967
961
959
955
952
948
947
944
942
942
943
942
939
937
936
932
930
931
932
931
932
936
937
933
933
931
932
931
930
929
931
930
929
934
935
934
937
936
934
935
934
934
932
931
936
935
938
936
935
932
933
930
930
930
930
931
933
935
933
934
934
934
931
928
928
929
929
930
931
934
935
935
934
933
930
929
928
930
930
930
930
929
932
931
932
930
929
929
928
928
930
931
931
932
933
936
934
934
935
934
929
929
929
931
933
935
934
937
940
939
941
941
941
940
942
944
945
948
949
950
953
955
955
957
958
959
962
963
966
967
969
971
967
965
963
961
956
954
950
950
947
947
950
946
944
942
935
936
935
931
932
933
934
936
939
939
939
940
938
940
938
941
942
946
950
956
964
971
987
1003
1021
1042
1069
1101
1136
1172
1209
1237
1266
1295
1329
1349
1345
1309
1239
1148
1054
972
918
889
884
887
899
908
913
915
914
914
915
914
915
913
914
914
911
907
906
905
906
905
905
904
907
906
907
908
906
905
901
899
901
900
897
899
899
899
900
899
896
898
895
894
893
890
890
890
890
890
889
888
886
883
882
880
877
878
875
875
877
876
876
876
874
873
870
866
865
863
863
864
863
864
865
865
863
863
862
863
863
863
864
865
868
870
873
875
875
875
879
880
880
882
884
886
892
898
901
904
907
910
913
914
917
918
920
922
923
925
929
929
930
930
931
930
930
928
930
930
932
933
934
935
934
935
933
932
929
927
929
928
929
930
933
931
930
929
930
926
922
921
920
919
921
922
923
919
921
920
920
918
916
915
913
914
915
915
920
921
922
923
922
921
916
918
915
917
923
931
949
964
989
1015
1036
1053
1069
1079
1089
1090
1087
1076
1058
1034
1012
993
976
956
939
913
883
854
828
807
796
791
792
795
799
803
806
809
809
810
811
816
825
832
841
851
860
868
877
886
894
900
906
909
911
911
912
909
905
903
903
905
906
905
909
909
910
912
909
907
904
906
906
905
906
907
908
909
910
909
908
908
909
908
908
908
909
911
914
917
923
923
926
927
930
934
938
943
948
952
961
965
971
977
985
992
993
1000
1003
1008
1011
1015
1017
1023
1024
1027
1026
1024
1022
1019
1017
1012
1008
1005
1004
1001
998
994
991
985
981
975
974
