854
863
874
877
883
886
889
893
895
897
902
903
905
904
905
899
896
895
891
891
890
891
891
893
896
895
897
899
898
896
894
893
890
889
892
891
891
893
895
892
895
894
893
890
890
890
892
895
898
902
904
907
908
911
914
918
920
927
930
937
943
950
954
959
968
970
973
975
980
983
987
994
997
1001
1003
1005
1006
1007
1008
1008
1006
1006
1005
1004
1004
1002
1002
1000
997
994
991
988
982
982
978
974
973
970
967
962
963
958
956
951
949
946
945
944
943
943
941
940
938
936
934
929
926
925
926
925
925
928
930
929
930
928
924
922
922
923
921
922
926
926
928
928
926
926
923
924
922
922
921
922
923
922
922
925
923
921
920
919
918
917
917
921
922
921
921
924
920
918
918
914
916
918
916
916
920
922
923
923
922
921
921
915
912
912
913
915
916
917
920
922
920
919
914
916
914
914
915
917
917
918
920
921
920
920
916
914
913
915
911
915
916
919
921
920
919
915
916
915
914
915
914
915
917
917
920
920
920
918
917
917
915
917
917
921
919
921
921
921
923
922
923
923
922
924
924
925
929
929
930
931
934
930
931
929
933
931
932
939
942
947
950
950
952
950
949
947
946
944
943
941
940
939
937
933
929
925
921
918
913
912
910
906
908
910
911
912
912
913
912
912
912
914
913
918
920
918
923
926
930
933
943
953
970
991
1017
1047
1080
1118
1155
1187
1212
1232
1250
1273
1295
1304
1286
1239
1165
1077
992
922
873
853
850
856
868
878
884
881
885
889
890
889
891
885
883
885
884
883
882
885
884
887
884
883
882
884
882
880
880
879
874
879
877
876
879
878
876
875
874
871
870
870
871
872
871
872
871
870
867
866
864
861
859
858
858
859
857
857
858
854
853
853
852
850
848
850
850
848
850
849
851
851
851
846
845
847
847
848
848
850
853
855
857
856
859
858
858
859
859
861
865
870
871
875
880
883
886
891
890
894
895
896
900
902
904
907
909
910
914
912
911
908
910
911
908
911
912
914
912
912
909
911
908
907
909
908
908
909
909
909
909
909
909
909
906
902
903
902
904
905
904
908
908
909
909
910
908
907
903
899
895
892
891
892
901
910
927
945
969
997
1020
1035
1043
1046
1044
1031
1005
973
937
908
885
864
843
819
791
767
745
736
736
744
757
771
783
791
797
806
811
821
832
840
851
861
868
875
882
884
891
895
903
909
911
915
915
912
906
900
900
895
895
898
899
900
902
903
905
905
904
903
901
897
899
901
901
902
902
902
907
905
907
906
908
906
907
908
909
914
917
921
926
930
934
936
938
945
948
953
960
967
975
980
986
991
994
1000
1004
1007
1013
1017
1019
1024
1028
1029
1029
1028
1027
1026
1026
1022
1018
1013
1013
1011
1010
1009
1003
998
993
988
985
978
974
973
970
967
966
962
961
958
957
952
948
947
946
945
942
945
941
941
940
940
936
934
933
931
929
927
929
930
929
930
929
928
929
927
927
924
922
926
924
925
928
927
930
931
929
930
927
924
923
923
922
923
921
924
924
924
924
925
925
922
919
919
921
920
921
923
923
919
920
921
918
917
918
918
919
918
919
917
922
922
922
923
920
919
917
918
917
918
922
923
923
924
924
922
919
920
919
919
919
921
922
922
924
924
921
923
920
918
917
918
920
922
923
923
922
923
919
920
922
920
919
919
919
920
921
922
922
924
924
923
925
924
924
924
924
928
929
932
934
936
932
932
929
933
934
938
940
942
944
949
952
954
953
953
949
950
948
948
946
943
942
941
942
938
935
932
928
926
924
918
918
917
915
914
914
913
917
915
912
911
911
911
912
916
916
920
922
922
923
925
928
929
934
944
956
972
991
1015
1038
1066
1099
1134
1165
1193
1213
1233
1253
1279
1302
1308
1285
1232
1150
1062
977
910
870
855
855
866
879
886
892
895
892
892
893
887
887
886
886
886
886
884
887
886
888
886
884
881
881
880
880
880
882
883
883
881
881
877
876
873
871
870
871
870
875
873
872
872
870
870
868
867
862
863
861
861
863
863
865
861
860
859
856
854
852
852
848
851
851
850
850
851
851
847
848
844
841
840
842
842
846
847
849
847
850
849
848
847
844
847
844
847
850
852
858
860
861
863
864
866
868
871
873
876
882
883
888
892
893
894
895
898
900
902
902
905
903
905
907
908
908
909
908
906
906
907
906
907
908
910
912
913
910
911
907
906
904
904
905
904
904
903
905
904
904
903
901
899
897
900
898
902
902
902
903
902
905
904
905
903
902
900
897
895
894
894
896
902
909
922
943
965
992
1016
1033
1050
1058
1064
1060
1045
1019
989
961
936
915
892
866
843
817
797
782
773
770
774
781
789
802
811
821
825
830
834
839
845
853
859
867
871
876
879
883
886
891
896
901
902
902
898
896
894
893
890
891
891
896
896
899
898
897
896
897
896
894
894
893
896
895
895
896
896
895
896
896
894
894
894
892
894
895
898
898
898
901
903
902
903
904
906
910
916
920
925
929
935
938
942
945
949
953
956
963
969
975
983
989
994
997
999
1002
1002
1003
1005
1006
1010
1013
1014
1014
1012
1010
1008
1005
1001
997
995
993
995
990
987
987
982
979
974
971
967
962
961
956
955
956
952
950
947
946
945
940
938
936
933
932
932
932
931
934
933
932
931
929
927
926
925
923
924
927
927
929
929
928
926
927
925
925
925
924
923
922
927
928
930
928
927
925
922
922
920
922
922
920
924
924
926
923
923
922
921
917
917
917
918
920
922
924
924
924
923
923
923
917
917
918
919
919
920
921
921
920
922
921
919
917
918
918
921
920
920
922
921
921
921
919
919
919
919
917
918
917
918
923
920
922
921
920
920
918
918
919
921
921
923
925
926
925
924
922
921
921
920
922
923
924
927
930
929
930
930
933
933
932
933
933
932
932
934
937
938
936
938
939
939
939
941
943
947
948
951
953
957
956
953
953
950
948
946
942
941
940
939
938
939
933
931
926
925
919
915
914
913
914
915
917
919
919
920
919
916
916
916
918
921
923
924
927
932
934
939
947
957
972
991
1015
1042
1074
1109
1144
1177
1203
1224
1242
1261
1283
1302
1302
1275
1221
1143
1058
979
916
875
860
859
865
871
882
886
891
895
898
897
894
895
891
890
888
886
887
888
886
888
889
889
888
888
887
884
884
883
880
883
886
884
886
888
886
882
879
876
876
877
873
876
876
874
876
874
874
873
873
871
869
867
868
868
865
867
866
865
863
861
861
859
856
856
854
852
852
854
856
855
854
857
853
853
850
849
850
852
853
856
857
859
857
860
860
859
857
860
861
866
869
872
877
880
884
883
887
887
888
890
895
897
901
905
909
910
912
911
912
911
911
910
911
915
915
918
920
919
919
919
916
912
913
911
911
911
912
912
913
914
912
914
911
910
908
906
905
906
908
909
907
908
911
910
911
911
910
910
910
907
909
905
902
898
895
895
898
909
925
949
976
1003
1026
1044
1055
1061
1056
1042
1019
989
956
927
903
885
869
850
827
802
775
752
738
734
735
743
752
765
776
788
796
803
809
820
831
843
854
865
873
884
893
903
911
916
919
920
917
912
909
903
901
899
900
903
905
907
907
903
905
905
904
902
903
902
903
904
909
908
911
911
911
910
910
912
915
915
921
926
930
935
939
941
948
951
954
959
964
969
975
981
990
994
999
1002
1009
1012
1015
1018
1020
1021
1024
1026
1029
1029
1028
1028
1024
1022
1020
1017
1012
1010
1007
1006
1002
999
994
989
987
980
975
971
970
967
965
962
960
958
955
953
950
948
944
941
940
941
939
940
940
939
939
936
936
935
934
933
932
933
934
936
934
934
936
932
933
929
930
929
929
927
931
931
930
932
929
929
929
931
930
928
929
929
930
929
932
931
931
930
929
925
923
922
924
926
927
927
927
929
928
928
928
926
926
923
925
922
923
923
925
923
922
926
925
924
922
920
922
922
922
923
923
923
926
924
923
923
922
921
921
921
924
925
926
924
926
922
920
922
919
919
920
923
924
926
925
926
926
926
923
923
922
922
922
921
920
920
925
926
927
924
925
922
920
921
920
921
925
926
931
930
931
934
931
929
930
931
930
934
935
936
937
940
941
945
943
944
947
948
951
951
954
954
954
953
953
950
946
944
941
938
937
933
933
932
933
931
927
922
917
917
910
909
912
915
917
919
919
921
919
918
917
918
917
920
921
924
926
931
937
944
951
967
979
996
1018
1046
1079
1120
1158
1195
1222
1246
1271
1297
1318
1322
1295
1238
1164
1078
996
931
891
870
865
869
876
881
883
887
890
891
891
894
893
894
894
889
888
887
883
883
882
885
888
885
886
888
887
886
886
885
880
882
880
880
882
883
883
880
879
879
878
875
871
871
870
872
871
873
872
873
871
869
868
865
866
863
862
860
862
859
860
861
859
858
855
853
850
850
851
849
849
850
849
849
847
847
845
846
844
843
844
846
847
847
849
852
852
851
851
852
853
853
854
858
860
861
869
873
872
874
876
879
880
881
883
887
889
892
896
900
903
902
902
903
903
902
904
905
907
907
911
912
911
912
910
910
909
908
908
908
910
910
910
911
910
910
907
907
904
903
903
905
904
905
906
906
905
905
904
903
902
902
903
906
906
907
909
906
903
898
896
895
894
900
913
933
959
988
1015
1036
1049
1061
1063
1058
1044
1023
995
967
943
921
903
882
856
826
797
774
758
757
760
774
788
802
816
826
828
831
835
843
846
854
864
871
879
887
894
899
902
902
903
896
892
893
891
892
891
894
896
899
900
900
895
890
887
892
889
891
891
893
892
897
896
898
896
896
891
893
896
899
899
903
905
908
907
911
914
917
919
923
925
931
937
944
949
957
961
966
969
974
978
982
984
990
996
999
1004
1007
1010
1011
1012
1010
1009
1010
1009
1010
1011
1010
1010
1006
1003
1000
996
991
983
980
979
977
975
971
968
964
959
957
953
952
947
943
940
937
935
933
934
936
936
932
928
929
924
921
920
923
924
926
926
927
925
923
924
921
921
921
920
917
921
924
925
925
924
923
921
923
923
919
919
919
920
922
924
924
922
922
919
915
915
916
916
916
914
918
915
918
919
918
918
916
913
913
911
915
914
913
913
917
916
917
914
914
912
914
914
914
913
912
911
915
918
917
914
914
912
912
909
908
912
914
916
915
916
915
914
913
913
912
911
912
911
914
915
916
915
915
914
913
911
911
911
912
913
915
914
915
915
914
914
916
913
911
912
913
911
915
915
915
916
916
916
917
914
914
914
917
918
918
923
924
924
924
925
925
924
921
926
930
931
936
937
941
941
943
944
941
940
939
939
939
938
937
936
935
931
929
926
922
919
916
914
909
908
906
905
907
905
905
901
900
903
903
903
906
908
909
909
912
911
912
912
915
916
919
924
930
940
958
979
997
1025
1053
1089
1128
1160
1191
1221
1249
1281
1305
1307
1278
1211
1125
1033
948
886
854
843
849
864
872
880
885
884
886
885
885
882
880
879
879
881
882
881
882
881
879
878
877
875
873
874
875
875
877
877
878
877
877
876
872
872
870
868
868
871
872
872
872
872
871
868
866
864
864
863
862
862
863
864
863
862
861
857
857
855
852
850
846
849
848
848
850
849
848
848
849
845
844
845
844
847
847
850
853
852
852
850
852
851
852
856
858
860
865
867
874
872
877
877
879
881
878
883
888
892
896
897
901
900
903
903
903
903
904
906
909
914
916
917
918
917
915
914
911
910
911
913
911
913
913
916
915
915
917
913
913
911
908
908
907
911
911
912
913
913
912
910
908
906
905
905
904
905
911
911
913
912
913
909
907
901
899
897
896
900
910
923
944
969
993
1014
1031
1043
1052
1055
1057
1050
1038
1020
998
971
947
927
911
892
874
855
831
811
790
776
768
767
772
779
788
798
805
812
817
821
823
827
835
838
843
850
855
861
867
873
881
889
893
900
904
906
906
905
903
901
901
902
901
904
905
907
906
907
907
907
905
904
901
903
903
905
906
907
907
906
906
908
906
906
906
904
905
907
910
911
915
915
916
917
919
917
920
925
928
930
935
940
946
950
952
957
958
964
970
972
976
984
989
994
1002
1005
1010
1013
1014
1018
1019
1022
1025
1028
1028
1031
1029
1030
1028
1023
1019
1017
1010
1008
1004
1002
1000
996
994
992
988
982
975
972
967
965
961
959
956
956
952
950
949
946
944
944
940
937
937
939
937
938
941
939
938
936
934
931
930
929
929
931
931
933
935
934
930
930
931
930
927
929
930
930
930
932
933
933
932
930
929
927
926
927
928
926
927
927
929
927
928
927
927
925
923
922
923
924
923
926
924
927
927
924
925
923
920
920
918
920
921
922
923
923
922
920
921
920
920
919
920
921
923
921
923
922
923
920
920
916
918
918
918
919
921
923
925
923
923
922
919
918
917
917
916
919
919
921
922
924
923
923
921
919
920
918
921
923
926
925
929
929
930
930
929
926
926
927
930
932
936
939
943
947
947
949
947
946
944
946
944
943
941
942
941
941
941
937
934
929
926
923
924
922
920
919
917
913
912
911
910
911
910
909
911
912
914
913
915
915
917
917
916
916
914
915
917
921
925
934
943
954
964
981
999
1020
1046
1078
1120
1155
1188
1215
1238
1261
1284
1297
1285
1239
1167
1076
989
919
870
850
847
857
868
874
883
883
885
886
887
891
890
889
891
890
888
886
886
885
884
885
880
883
887
885
886
884
882
882
881
880
879
879
878
879
879
880
881
880
881
879
877
874
870
870
869
869
869
869
871
870
869
868
865
864
863
861
860
862
862
862
859
860
859
857
855
852
849
850
850
851
854
853
856
856
854
856
855
854
855
856
857
856
859
862
866
867
871
872
875
876
879
882
884
888
893
896
900
903
905
904
908
908
910
910
911
908
913
914
917
917
918
918
916
917
918
915
915
917
916
917
922
920
919
918
917
914
912
911
913
911
912
912
915
914
913
911
908
907
908
907
908
910
911
912
916
916
914
909
904
897
895
896
901
918
937
968
999
1029
1051
1064
1067
1065
1049
1024
993
962
936
918
899
881
859
829
798
771
752
743
742
748
759
769
782
791
796
799
801
800
802
809
814
823
835
842
852
860
867
875
879
884
886
892
895
897
900
898
901
899
899
898
900
899
899
899
896
899
898
902
904
904
903
901
901
900
900
899
899
901
904
905
906
908
910
910
912
912
914
916
920
926
930
935
940
944
953
955
959
963
966
972
975
981
988
992
997
1004
1006
1010
1013
1016
1017
1020
1022
1026
1028
1027
1029
1029
1028
1024
1022
1019
1017
1012
1008
1004
1002
998
998
990
987
983
975
969
965
962
958
956
953
951
952
948
945
943
940
938
936
934
932
932
931
934
934
933
933
930
927
927
926
926
928
926
927
929
928
932
931
929
930
925
927
926
927
929
928
930
932
931
929
930
927
927
924
922
922
922
923
923
925
923
922
920
918
917
920
919
921
919
919
921
923
922
922
920
920
917
915
918
916
918
917
919
920
920
921
920
919
917
916
915
914
913
914
915
917
918
918
916
915
915
915
913
915
915
916
917
919
917
917
916
915
914
912
914
913
914
918
917
915
918
917
918
916
917
916
916
918
920
919
923
924
926
925
925
925
925
926
927
927
928
933
936
941
944
945
944
942
940
939
937
936
934
935
931
931
928
925
921
917
914
909
909
907
904
904
906
907
906
905
907
908
906
904
904
904
905
907
909
909
913
914
915
914
914
917
921
926
934
945
959
974
992
1005
1026
1051
1079
1108
1137
1164
1189
1212
1233
1259
1283
1297
1285
1238
1164
1074
985
912
866
847
846
855
866
876
880
881
881
880
878
876
877
876
877
876
877
876
873
871
870
871
872
870
869
871
870
872
872
870
872
870
869
866
866
864
866
867
864
865
867
863
861
862
861
858
857
858
855
856
857
858
857
858
853
852
851
850
847
849
849
849
850
851
849
848
844
843
841
838
838
836
838
838
839
839
844
843
841
842
840
839
840
840
844
844
848
852
853
857
858
859
860
864
865
869
872
878
878
884
886
888
891
890
892
892
894
896
894
896
900
900
905
905
903
903
902
900
900
899
903
903
907
906
907
907
905
903
903
902
902
904
903
903
905
907
906
906
905
903
901
899
898
897
898
899
900
899
900
898
898
895
894
893
894
893
895
897
898
898
900
899
897
890
887
885
889
895
913
936
960
988
1011
1029
1039
1050
1057
1057
1052
1042
1021
999
975
956
938
920
903
883
857
830
808
792
780
776
779
786
795
803
810
812
813
810
811
813
818
825
832
838
843
843
849
854
859
864
871
878
882
887
886
890
891
891
888
888
888
887
886
887
884
887
887
888
890
887
886
886
886
886
884
885
885
887
887
888
890
888
888
892
893
895
896
898
904
909
914
919
922
925
927
931
938
942
947
951
