1283
1245
1191
1124
1046
966
898
856
844
853
879
910
940
964
978
984
982
979
974
967
965
966
967
969
971
973
975
975
976
973
973
971
971
969
971
972
973
975
974
975
977
976
974
973
970
973
972
971
975
971
974
975
975
977
975
975
974
974
975
975
973
978
978
979
980
982
980
980
981
981
983
984
985
987
989
994
996
996
996
996
997
995
995
995
997
1000
1002
1003
1002
1003
1003
1003
1001
1001
999
999
1002
1002
1003
1006
1005
1006
1005
1000
997
995
992
990
989
987
991
990
990
987
986
983
982
981
979
978
979
979
981
982
981
980
979
977
979
979
979
978
979
977
978
979
981
982
981
981
979
977
978
976
977
977
980
980
983
985
984
983
983
983
980
982
983
985
987
987
989
988
987
985
984
984
983
981
979
982
984
987
986
987
985
983
981
981
981
979
981
983
985
983
984
983
983
980
980
978
978
979
978
978
980
979
980
979
979
979
977
976
975
973
974
975
975
977
978
979
977
976
974
973
974
972
972
973
973
976
977
978
978
974
975
974
974
973
974
975
978
981
979
981
979
976
973
973
974
974
974
975
975
978
978
978
975
975
974
972
971
973
972
974
975
976
978
977
977
975
974
973
973
973
972
973
974
974
974
977
975
974
975
975
973
970
971
973
975
975
976
979
979
977
977
975
974
975
978
981
983
986
986
986
988
986
988
990
992
992
996
999
1001
1003
1005
1005
1003
999
994
994
994
991
989
988
989
987
984
983
981
980
977
976
973
973
972
971
971
973
973
974
976
977
976
976
981
981
987
989
993
996
1002
1007
1012
1015
1017
1021
1024
1031
1038
1048
1059
1069
1078
1083
1090
1090
1098
1102
1116
1134
1160
1193
1227
1262
1294
1319
1331
1325
1304
1265
1209
1138
1062
983
917
875
855
857
877
897
920
941
958
968
976
976
976
973
972
972
969
967
971
968
971
973
973
973
974
977
976
975
975
975
976
975
974
974
975
974
974
975
976
977
975
979
974
971
971
970
970
971
974
976
979
978
979
977
976
974
973
974
975
976
979
980
986
984
986
986
982
983
983
983
985
987
990
991
992
991
990
991
990
989
988
989
991
993
995
997
997
997
998
999
999
998
998
996
995
998
999
1000
999
999
994
990
990
989
987
984
985
986
984
984
986
985
985
984
979
979
978
977
978
978
977
978
979
979
982
980
977
978
976
978
978
981
983
984
986
984
985
985
983
983
984
984
985
987
988
989
989
986
988
987
985
984
984
982
987
985
986
986
987
987
987
981
982
983
982
982
982
984
985
988
986
986
985
986
984
982
979
976
978
983
982
983
983
983
984
981
977
977
976
976
976
978
981
980
982
981
979
979
978
975
974
975
976
975
981
981
981
981
980
977
975
976
976
977
977
979
980
980
978
981
979
978
979
976
977
975
977
978
978
978
977
976
976
977
974
978
978
976
977
977
976
979
981
982
980
981
978
978
978
977
977
978
983
985
988
989
990
990
990
990
994
994
996
997
1002
1005
1007
1008
1005
1003
1004
998
994
996
995
994
992
993
992
989
989
987
986
985
985
980
980
979
977
978
977
978
977
979
980
978
979
980
984
987
991
995
999
1004
1003
1009
1011
1017
1022
1025
1031
1039
1046
1056
1066
1076
1083
1088
1091
1097
1109
1122
1142
1166
1198
1232
1269
1297
1318
1323
1307
1272
1219
1146
1068
989
920
876
859
867
890
915
940
962
976
981
982
980
977
975
975
975
977
975
976
977
975
973
972
976
979
981
982
980
983
980
979
979
978
977
980
980
982
984
984
984
983
981
980
980
978
980
980
981
982
983
983
983
984
984
982
983
984
984
985
988
989
989
993
994
995
995
996
992
995
997
998
1000
1000
1002
1004
1004
1006
1005
1004
1004
1001
999
1001
1001
1003
1005
1007
1009
1010
1011
1008
1006
1003
1001
1000
1001
1001
1001
999
997
996
993
990
988
986
983
984
986
986
986
985
985
981
983
980
978
977
976
977
979
979
982
982
981
981
978
975
977
977
975
976
979
980
981
983
984
983
983
984
983
982
982
983
984
983
985
986
988
989
988
986
985
987
985
983
984
985
986
985
987
987
984
984
982
982
980
981
980
979
982
985
985
986
984
981
979
977
978
980
980
980
982
984
982
981
981
980
976
979
978
980
979
979
982
982
981
979
976
976
976
976
978
976
977
977
979
978
978
979
978
977
976
976
975
976
976
977
976
979
979
979
979
979
977
976
972
974
974
976
977
979
979
977
981
976
973
973
974
974
976
977
980
979
978
980
980
978
976
978
978
978
977
979
983
981
980
980
980
982
982
983
985
988
990
993
994
997
1000
1002
1000
1003
1006
1005
1007
1008
1005
1006
1007
1005
1001
1004
998
997
994
988
989
989
987
988
990
988
989
987
983
979
974
973
971
972
976
977
982
985
985
988
988
989
990
993
996
1000
1004
1010
1014
1020
1024
1029
1032
1039
1048
1057
1066
1073
1084
1090
1095
1104
1113
1126
1145
1168
1197
1228
1259
1287
1308
1316
1308
1278
1235
1173
1093
1010
933
880
856
857
881
913
945
971
983
986
987
980
973
969
968
969
972
974
977
977
978
978
977
975
975
975
973
977
974
975
977
980
979
978
978
977
975
977
977
977
979
977
980
980
981
982
983
982
982
979
979
978
979
982
982
985
989
988
988
989
988
988
988
989
992
992
997
998
999
1000
999
999
998
995
995
997
999
1001
1004
1003
1006
1005
1005
1006
1004
1004
1005
1007
1008
1007
1007
1009
1007
1005
1002
999
999
998
995
994
993
992
992
992
988
987
987
986
986
985
983
984
984
983
984
983
983
984
984
982
981
979
978
976
980
979
983
982
985
984
987
984
981
982
979
980
981
983
986
989
985
986
987
987
984
983
978
980
984
987
988
988
988
991
988
988
984
985
982
984
984
983
984
984
984
985
987
985
985
982
982
983
986
986
987
986
984
985
984
982
982
980
982
982
983
983
982
980
983
984
981
980
980
978
980
980
978
978
979
979
981
981
976
978
976
976
975
976
976
977
975
977
979
979
977
976
975
974
974
974
977
978
979
980
982
982
980
981
979
975
975
975
976
976
981
981
984
983
983
980
977
975
975
977
977
978
979
981
983
981
978
978
977
975
975
974
977
978
980
978
977
979
976
978
978
975
978
978
980
980
981
981
983
982
983
986
987
985
986
989
992
996
997
1000
997
1005
1006
1006
1007
1008
1007
1006
1007
1005
1004
1003
1005
1006
1002
999
993
991
988
986
988
990
988
989
987
984
981
975
973
974
975
979
982
983
987
990
989
991
994
994
996
1002
1004
1010
1010
1016
1023
1029
1035
1041
1047
1056
1065
1071
1079
1087
1092
1097
1104
1114
1129
1147
1170
1197
1230
1263
1290
1304
1310
1296
1261
1208
1135
1052
968
899
859
847
862
892
925
956
977
989
992
992
984
976
972
973
975
978
980
982
984
985
986
985
981
981
981
982
984
983
984
983
982
985
987
985
988
989
985
985
983
984
983
986
988
988
988
989
989
987
987
987
985
986
987
990
994
995
999
1000
1000
999
995
996
996
997
999
1002
1005
1006
1003
1004
1004
1003
1003
1002
1002
1006
1005
1005
1007
1008
1008
1007
1007
1006
1010
1009
1010
1008
1008
1011
1010
1011
1008
1009
1008
1006
1005
1002
997
997
999
996
997
999
997
998
997
997
995
988
990
987
986
987
992
992
990
993
992
990
990
990
988
988
991
990
994
995
996
997
995
992
991
989
990
989
992
994
994
992
995
996
992
993
992
992
994
993
993
993
993
993
995
994
994
990
991
989
990
989
991
990
991
989
992
992
993
992
989
990
987
988
986
987
988
989
990
990
989
986
985
984
980
979
980
980
985
987
986
988
987
982
981
982
979
981
982
983
985
986
984
986
987
984
981
979
977
976
978
982
979
981
979
981
978
976
975
976
976
977
979
979
979
980
979
978
977
977
976
977
977
975
980
981
982
982
983
981
980
978
981
981
981
980
980
981
980
981
981
983
985
986
985
987
987
988
990
993
995
999
1000
1001
1004
1004
1006
1005
1006
1008
1009
1009
1010
1011
1010
1011
1008
1003
999
999
997
994
992
989
988
991
990
990
990
987
982
978
976
975
974
979
984
983
983
987
988
988
988
991
993
995
1000
1005
1008
1015
1016
1021
1022
1027
1032
1034
1041
1047
1060
1070
1078
1088
1091
1097
1100
1107
1120
1139
1161
1189
1224
1262
1301
1331
1352
1358
1338
1300
1241
1165
1078
987
910
858
840
850
875
909
939
963
979
985
990
983
982
978
981
982
980
984
984
984
984
982
982
982
985
985
987
989
987
987
985
986
987
986
986
985
984
986
988
991
988
989
986
987
987
987
987
987
988
988
987
989
992
993
993
994
992
993
992
991
993
994
994
999
1001
1004
1003
1002
1002
999
999
1000
1004
1003
1006
1009
1008
1008
1008
1005
1003
1003
1004
1004
1007
1008
1011
1014
1013
1013
1014
1011
1010
1006
1007
1007
1007
1006
1006
1006
1006
1003
998
999
996
994
993
993
993
993
989
991
990
990
992
991
990
987
989
988
986
986
986
988
988
990
992
993
991
992
991
989
991
990
992
994
995
998
997
997
993
992
993
990
992
995
995
997
997
995
995
994
996
995
995
993
995
997
997
1000
1000
1001
997
993
990
988
989
990
991
993
995
992
993
994
992
992
991
990
989
989
990
990
991
989
990
992
991
991
990
989
988
986
987
987
986
989
988
989
990
989
987
987
985
982
981
982
987
987
988
989
988
988
987
986
984
983
983
985
987
984
988
987
987
985
986
985
982
980
984
987
982
985
987
989
988
985
985
981
980
981
983
983
984
986
987
984
984
984
983
984
983
982
983
984
986
989
988
988
987
988
989
988
991
990
992
996
999
1001
1001
1004
1004
1005
1008
1009
1009
1010
1011
1010
1010
1010
1010
1009
1007
1006
1004
1002
999
996
994
992
992
993
993
994
992
988
987
981
978
976
977
978
980
983
986
987
990
992
992
994
993
996
1000
1005
1009
1012
1019
1024
1026
1026
1028
1034
1041
1048
1057
1069
1079
1088
1096
1099
1102
1103
1110
1123
1140
1166
1200
1236
1273
1306
1330
1341
1334
1311
1266
1204
1128
1043
959
890
846
831
843
872
908
939
965
982
990
989
987
982
977
976
979
978
983
984
983
980
980
979
980
979
981
984
986
987
987
986
983
982
981
981
982
982
984
986
986
987
985
984
982
982
978
978
977
980
983
986
987
986
985
984
984
984
983
983
984
988
989
992
991
994
994
993
992
991
993
994
997
1000
1000
1000
1003
1001
1005
1005
1004
1005
1002
1002
1003
1004
1006
1007
1009
1009
1009
1011
1008
1006
1004
1003
1002
1002
1002
1002
1003
1002
999
995
993
987
985
985
982
988
987
988
987
984
982
980
980
981
980
981
981
984
984
983
983
982
981
983
981
983
983
985
984
984
986
986
987
988
987
987
987
987
986
988
988
987
988
989
990
991
991
990
990
988
988
986
986
987
988
990
991
994
991
989
986
985
985
984
984
987
988
989
990
989
988
986
984
983
984
982
983
984
983
985
982
983
983
981
983
982
980
978
978
979
979
978
978
981
979
979
977
974
976
975
977
976
977
979
980
981
981
981
980
977
976
974
975
976
978
981
980
983
980
978
979
976
975
971
974
975
975
979
980
980
978
977
974
973
971
972
973
971
974
979
976
979
978
977
975
975
972
972
972
975
976
978
979
979
978
978
974
975
976
976
978
980
981
982
985
988
990
990
993
992
991
994
997
1000
1002
1003
1006
1007
1007
1006
1006
1000
997
995
992
992
991
991
989
989
988
988
983
982
980
974
973
971
970
971
972
974
974
976
974
976
975
979
983
986
991
993
997
1000
1002
1004
1007
1010
1013
1017
1023
1032
1038
1046
1057
1066
1072
1082
1084
1087
1091
1099
1111
1129
1152
1181
1216
1251
1286
1315
1330
1327
1307
1268
1214
1144
1058
969
891
840
824
836
866
901
936
964
978
984
981
979
975
971
967
965
968
967
967
968
967
968
970
974
975
975
974
975
974
973
971
969
972
973
976
976
977
977
976
972
971
970
970
970
973
974
975
975
975
978
977
978
979
979
979
979
981
980
984
984
988
990
989
992
993
992
993
991
992
994
996
998
1001
1003
1004
1003
1001
1000
999
1000
1000
1003
1005
1007
1007
1007
1007
1006
1004
1002
1000
1000
1002
1005
1003
1002
1001
1002
998
995
992
989
990
986
987
988
989
990
985
985
985
983
985
983
984
981
980
982
981
982
982
983
984
981
980
982
979
979
979
981
982
983
983
984
986
987
987
988
984
982
983
986
986
989
990
989
991
989
988
987
986
986
986
987
991
992
990
993
991
989
988
986
984
985
986
987
987
987
985
985
987
985
984
986
982
982
984
981
981
981
982
985
987
986
984
984
981
980
977
978
979
979
977
977
978
980
979
975
976
974
973
976
976
978
978
980
979
978
978
977
976
971
974
977
978
979
980
980
980
976
977
975
976
975
976
979
980
982
980
979
980
978
976
977
974
976
979
978
979
979
979
978
980
978
979
978
976
976
975
974
977
977
980
980
979
981
979
978
978
974
975
975
978
982
982
984
982
981
981
978
976
977
978
980
983
987
987
990
989
993
993
995
995
998
999
1002
1006
1006
1008
1010
1010
1007
1004
1003
1000
1001
999
997
995
990
988
989
988
988
987
981
979
972
968
967
970
974
978
982
981
984
984
983
984
982
988
993
997
1001
1007
1011
1015
1019
1021
1024
1028
1034
1045
1055
1068
1079
1087
1093
1097
1102
1106
1118
1134
1157
1189
1221
1255
1287
1310
1322
1313
1291
1250
1199
1132
1055
975
905
855
839
848
871
902
934
958
975
983
982
981
977
973
972
973
972
972
973
974
972
972
971
970
972
974
975
977
979
981
979
978
978
975
974
976
975
976
976
977
978
980
979
978
978
979
980
983
981
983
981
983
983
986
985
983
984
982
982
984
986
989
992
994
994
996
996
995
994
995
997
994
997
1001
999
999
1001
1000
1000
1002
1001
1002
999
999
1001
1000
1002
1005
1007
1005
1008
1004
1005
1004
1001
1000
1000
997
997
997
997
995
995
993
990
990
986
984
985
987
985
987
987
985
986
984
983
980
980
979
981
981
983
984
985
985
984
983
979
980
981
980
981
982
982
984
985
984
983
981
982
984
984
982
985
987
988
986
989
988
989
989
989
988
989
986
988
988
988
990
990
989
990
989
987
987
984
984
984
982
985
982
983
986
986
985
982
980
981
979
979
982
982
985
985
985
984
977
977
976
975
975
976
978
979
981
979
980
978
977
977
976
976
975
977
976
978
980
977
979
976
975
975
977
976
977
976
976
979
979
979
978
976
978
980
979
978
977
978
978
974
974
976
980
979
978
977
975
975
972
971
974
976
978
977
978
980
976
975
973
974
971
972
974
978
977
979
981
979
977
973
971
971
971
972
973
977
977
975
978
975
978
976
975
976
976
977
980
982
984
986
987
987
987
989
991
993
995
997
1000
1002
1007
1008
1007
1007
1007
1004
1005
1001
999
1001
999
999
997
992
990
989
986
982
982
980
975
969
968
967
968
967
968
971
971
969
969
969
967
964
965
969
971
969
972
973
972
971
971
967
968
969
972
973
977
978
980
979
978
977
977
978
986
999
1019
1046
1077
1114
1157
1200
1237
1270
1288
1287
1258
1207
1137
1053
967
882
816
781
776
799
835
880
915
951
972
986
993
993
994
990
989
987
987
987
988
991
994
993
996
996
998
997
997
996
997
999
995
999
997
1001
1003
1004
1006
1006
1008
1009
1007
1010
1007
1010
1014
1015
1020
1023
1024
1023
1027
1028
1025
1028
1029
1031
1035
1038
1042
1044
1047
1048
1051
1051
1053
1054
1056
1059
1059
1064
1066
1069
1069
1069
1070
1070
1070
1072
1070
1075
1075
1075
1076
1077
1076
1075
1075
1074
1070
1070
1068
1067
1065
1061
1057
1054
1054
1049
1046
1042
1033
1028
1025
1021
1018
1015
1013
1009
1007
1001
999
996
991
988
985
986
989
986
987
988
987
987
987
986
983
983
981
982
984
987
989
992
992
990
991
988
986
985
984
985
988
989
992
990
989
986
986
984
984
985
985
985
988
988
988
985
985
986
985
985
984
984
984
983
985
981
984
982
982
983
980
981
978
975
976
977
976
976
977
978
980
978
977
977
976
973
969
970
973
972
975
975
975
976
975
973
971
966
968
969
971
972
972
975
976
973
973
971
969
968
967
969
970
970
972
971
973
972
971
970
967
968
969
970
970
969
972
971
970
968
969
971
970
968
970
970
969
969
970
971
970
971
969
972
970
970
970
968
970
972
975
978
980
983
982
983
983
989
989
989
991
994
997
999
998
1000
997
993
991
991
989
989
988
988
989
987
987
981
981
978
975
972
966
967
964
966
965
963
964
965
964
962
961
963
962
962
965
965
965
961
965
968
966
965
966
964
965
965
969
967
970
973
976
978
979
984
994
1013
1037
1074
1118
1165
1213
1254
1283
1292
1274
1229
1160
1071
974
880
806
764
761
787
827
875
915
945
965
980
983
984
982
980
980
979
982
984
984
982
983
982
981
983
986
988
989
992
995
997
994
997
995
996
995
996
999
998
1003
1004
1005
1008
1007
1008
1005
1006
1009
1011
1015
1017
1021
1027
1027
1028
1030
1028
1029
1030
1033
1037
1043
1046
1049
1054
1054
1056
1056
1057
1060
1063
1062
1066
1068
1069
1069
1074
1073
1072
1071
1071
1070
1071
1068
1068
1067
1067
1065
1064
1063
1063
1060
1054
1051
