967
965
967
969
968
970
970
967
971
967
966
966
965
962
963
963
963
965
965
966
966
965
963
964
961
963
963
961
961
965
969
970
969
965
960
953
953
949
949
956
958
959
960
957
957
954
952
951
950
950
953
954
959
961
962
960
957
951
952
950
950
951
956
957
960
963
962
964
964
961
961
960
955
953
952
951
956
961
963
964
958
955
952
956
961
967
970
972
972
974
976
979
980
980
978
979
978
978
978
979
978
978
975
970
964
961
959
959
959
959
958
958
957
955
954
953
952
950
949
949
946
946
947
953
957
963
969
971
970
972
969
971
977
977
984
988
994
999
1006
1012
1020
1030
1037
1048
1054
1062
1069
1078
1091
1115
1145
1182
1222
1269
1308
1331
1336
1320
1280
1218
1138
1041
939
846
786
763
778
814
860
901
934
952
957
952
944
938
934
930
932
932
934
933
936
938
938
940
938
937
938
936
935
936
934
935
936
935
936
937
937
935
935
938
935
936
935
933
935
937
937
937
938
935
937
937
938
937
935
934
935
937
937
941
944
944
942
944
943
944
943
943
946
950
954
953
958
960
958
957
958
959
959
958
962
964
962
962
961
962
960
965
968
969
970
972
975
971
968
968
962
961
958
957
956
954
953
951
951
953
952
951
949
949
951
950
950
947
946
946
946
946
947
951
954
959
960
957
953
946
941
941
941
941
945
949
951
953
949
943
945
944
943
943
948
950
951
956
956
954
956
954
953
952
953
953
955
956
960
961
960
961
962
960
959
958
956
954
953
956
957
959
956
958
959
957
957
956
955
955
956
955
955
958
959
960
960
956
957
955
955
952
952
957
956
956
955
954
952
952
951
951
950
949
949
952
954
956
954
956
956
955
953
951
951
950
951
952
954
953
956
956
955
954
952
952
950
952
951
954
955
956
955
958
957
955
952
954
952
954
954
954
957
959
959
960
960
958
957
954
955
954
956
959
960
964
965
967
964
960
957
956
960
962
966
970
971
975
977
977
978
979
981
983
985
986
987
984
982
979
980
978
977
974
975
971
971
970
971
970
968
968
968
966
963
962
958
958
958
958
961
963
965
970
971
972
977
980
982
983
985
987
993
999
1003
1011
1016
1022
1028
1035
1043
1050
1057
1060
1066
1071
1077
1086
1097
1121
1146
1179
1218
1259
1304
1344
1372
1390
1381
1348
1285
1203
1101
991
892
826
791
799
828
867
898
933
953
965
968
963
961
959
956
955
956
958
959
963
963
964
964
962
959
956
953
953
953
953
954
956
960
962
961
958
955
952
950
950
952
954
954
957
957
959
958
957
957
958
956
958
958
960
961
962
963
961
962
963
963
963
963
963
965
967
970
972
975
978
978
977
978
976
978
973
974
976
981
984
986
990
988
987
986
985
984
985
987
989
987
988
989
989
988
986
985
983
986
985
985
982
977
974
971
968
967
967
962
967
967
970
970
968
971
972
972
970
969
969
970
969
967
966
965
967
968
970
969
971
971
972
972
970
970
972
976
978
979
978
979
977
977
974
974
972
971
973
976
978
979
983
985
986
983
981
976
976
975
977
980
985
986
984
981
977
977
973
976
974
973
973
974
976
975
977
977
978
979
978
974
973
969
966
969
970
973
973
975
974
973
971
968
969
970
968
969
969
971
969
970
972
973
969
969
969
968
967
970
971
973
974
974
973
971
969
969
971
969
971
969
969
971
973
972
972
969
965
964
963
962
962
965
968
969
969
971
969
968
966
965
962
964
964
966
966
970
971
973
974
973
974
970
973
969
967
969
970
973
976
978
979
979
978
975
975
980
983
985
990
990
993
994
997
998
998
1000
999
996
996
994
994
992
994
989
985
981
978
978
975
978
975
974
974
973
972
970
968
965
963
963
964
967
968
974
978
985
989
993
997
998
1000
994
992
993
993
996
1004
1011
1022
1031
1041
1049
1057
1063
1070
1075
1081
1091
1106
1132
1164
1203
1246
1289
1329
1367
1388
1386
1361
1312
1238
1145
1041
937
852
805
795
817
857
897
934
957
970
973
974
969
962
959
956
955
956
956
957
957
958
961
962
961
963
962
961
962
960
960
957
959
961
962
962
962
963
963
960
959
958
958
957
955
958
961
962
963
965
964
964
964
964
966
967
968
965
960
959
960
963
968
970
967
963
964
960
963
968
971
976
979
980
984
981
981
981
979
982
981
986
989
995
1000
1003
1001
999
995
991
991
988
983
979
977
978
978
975
975
974
972
971
972
971
971
973
970
971
970
972
970
969
965
964
960
960
960
962
963
963
967
967
970
969
965
962
960
960
961
965
967
968
972
973
973
974
972
972
972
970
973
978
976
979
979
981
982
981
979
977
976
976
977
978
978
978
980
981
979
974
973
967
964
963
968
969
970
971
973
973
974
968
965
960
959
959
963
963
967
969
970
971
970
967
964
962
959
957
957
958
958
959
960
961
966
968
965
957
952
949
949
949
951
954
958
954
956
956
958
958
957
956
955
950
948
949
950
956
958
960
962
959
953
949
945
941
943
945
949
951
952
952
954
953
951
949
949
952
952
956
959
959
958
958
956
956
957
959
959
957
954
950
950
950
952
950
951
951
949
947
946
948
950
953
956
957
958
958
957
958
960
963
966
968
965
963
964
965
969
974
974
977
978
972
975
973
974
973
972
968
967
965
962
961
959
956
958
959
961
959
957
958
954
950
948
948
949
950
953
958
962
964
968
970
972
974
977
978
981
981
987
991
996
1001
1005
1010
1014
1022
1027
1035
1045
1052
1058
1066
1072
1087
1106
1130
1166
1203
1246
1291
1329
1357
1374
1367
1339
1279
1195
1099
995
896
825
790
792
816
856
899
932
956
968
973
967
961
952
945
946
946
950
954
956
954
952
949
949
945
944
947
947
949
951
951
951
951
955
957
955
953
953
953
952
950
950
949
948
950
954
953
956
955
954
954
954
951
952
953
955
958
959
962
964
963
963
964
964
964
965
968
973
975
979
982
979
973
967
964
962
962
966
972
977
980
981
979
976
975
975
973
975
980
981
982
980
981
981
978
977
976
974
971
969
967
966
965
966
967
966
966
966
963
961
959
957
956
955
956
960
966
967
972
971
972
965
963
958
956
954
954
956
958
961
961
961
958
954
951
951
950
953
955
959
964
966
963
963
961
963
962
963
962
964
964
966
965
966
965
968
967
969
967
965
964
964
965
965
966
964
965
966
965
965
963
962
962
961
963
962
964
964
965
963
961
960
960
958
959
957
958
960
961
961
963
964
962
961
960
959
959
957
958
959
960
961
960
957
960
962
960
961
961
958
961
963
965
963
961
960
957
955
956
957
959
957
959
957
961
960
963
962
963
962
961
959
958
959
961
962
965
969
970
974
976
974
968
966
960
956
955
957
959
963
966
971
968
971
974
974
973
971
967
967
968
972
977
982
987
989
991
992
989
987
991
990
992
993
993
994
990
988
983
980
983
981
980
976
973
971
968
969
971
968
966
961
960
956
957
961
964
965
971
974
975
976
971
970
971
973
979
986
991
993
996
997
1000
1002
1011
1019
1025
1035
1044
1053
1060
1068
1076
1084
1094
1109
1130
1161
1195
1234
1278
1318
1351
1367
1364
1339
1290
1217
1129
1026
924
839
790
785
811
853
900
938
963
976
974
970
963
958
957
957
954
956
958
960
960
961
958
960
957
957
960
960
960
962
962
961
958
956
952
951
953
956
960
960
964
968
974
974
973
967
960
956
953
952
953
959
961
965
966
968
970
969
968
969
967
964
967
971
972
980
981
983
983
982
984
983
980
985
987
991
990
993
994
993
995
995
993
992
994
993
993
993
993
995
993
991
989
985
983
981
981
979
978
978
980
981
979
977
974
971
968
967
967
967
964
965
966
967
967
969
968
967
964
963
964
964
963
965
965
968
969
969
970
967
967
966
964
963
964
965
967
970
972
973
973
971
969
967
968
967
970
973
973
973
974
975
975
974
971
968
967
967
969
969
972
974
973
973
973
971
968
967
967
965
967
967
970
971
970
969
970
967
966
965
964
964
966
966
965
966
967
966
965
963
965
963
963
964
962
962
962
965
966
963
964
961
962
960
962
962
963
964
966
967
967
968
970
966
964
961
963
962
962
961
965
965
968
966
968
966
965
963
962
964
964
965
964
962
963
962
964
964
962
962
960
961
961
963
964
964
965
966
964
963
964
963
964
964
965
967
969
971
974
974
978
978
981
981
983
981
984
986
989
994
998
998
998
996
994
988
986
983
981
982
982
984
981
981
980
979
972
973
971
970
968
964
965
963
963
964
964
965
966
967
969
970
974
974
976
982
984
988
992
995
997
999
1004
1007
1011
1021
1028
1037
1047
1058
1065
1072
1076
1083
1090
1104
1124
1155
1190
1230
1269
1304
1333
1346
1340
1314
1267
1199
1116
1020
925
849
806
803
828
870
912
944
968
973
974
969
963
960
958
959
959
960
960
961
960
960
958
961
963
963
963
961
963
962
962
960
959
959
958
957
958
960
959
963
962
963
961
960
959
959
960
960
962
965
968
965
966
966
963
965
963
961
964
968
970
974
975
977
980
978
976
975
976
977
980
983
983
986
986
986
987
986
986
984
984
984
985
986
988
990
989
990
990
989
986
986
983
981
980
980
978
979
978
976
975
973
972
967
964
960
962
962
962
962
966
966
963
964
962
960
960
958
960
960
962
963
965
967
966
964
962
961
961
962
963
962
963
965
967
964
965
964
964
966
966
966
964
969
968
969
970
970
970
971
971
968
969
968
966
967
967
968
970
969
968
969
967
966
964
964
965
966
968
968
969
969
967
968
963
964
963
961
961
963
963
965
965
965
965
964
962
961
960
960
960
960
961
962
963
964
963
961
960
958
955
954
957
956
959
961
963
964
964
963
961
959
961
958
960
961
963
965
963
965
963
961
960
959
957
959
960
960
963
964
963
964
963
962
961
959
961
960
961
963
964
962
964
966
964
965
962
963
962
962
963
963
963
966
968
967
967
966
965
965
964
963
963
964
965
967
970
971
975
975
977
977
978
978
981
984
985
990
991
996
997
995
994
992
989
986
988
985
985
985
982
985
979
976
975
973
968
969
969
969
968
966
963
961
960
958
957
959
961
962
962
966
968
973
975
978
980
984
985
988
991
997
1002
1008
1016
1023
1031
1041
1048
1055
1066
1070
1078
1080
1089
1101
1121
1148
1180
1212
1248
1281
1304
1314
1303
1268
1214
1139
1052
962
884
832
810
819
847
885
917
942
960
969
969
966
960
956
956
957
957
959
959
959
960
961
963
964
964
965
967
965
963
960
960
959
962
961
962
966
967
967
968
965
966
962
964
964
962
965
962
965
968
968
967
968
967
967
967
967
969
967
970
970
973
974
975
975
978
977
977
974
973
977
979
980
982
983
983
982
981
981
981
980
983
984
988
988
992
992
994
993
992
991
989
988
989
988
988
988
986
985
980
981
976
975
976
972
971
971
974
974
974
974
974
972
971
970
969
967
969
967
969
968
973
973
972
973
973
970
969
970
972
972
973
974
976
977
978
978
976
975
974
973
975
978
977
980
981
980
979
980
978
975
978
978
977
978
978
979
980
979
978
979
975
974
975
973
975
976
977
976
976
973
975
971
974
971
970
972
972
970
973
973
970
973
973
972
972
969
968
968
966
966
966
969
969
971
970
970
968
967
965
964
965
967
967
969
969
970
969
967
966
964
965
964
965
966
967
968
967
970
968
969
968
965
965
965
965
965
967
969
967
968
967
967
968
967
967
965
967
964
967
967
968
971
970
969
969
970
969
968
970
969
971
971
974
974
974
978
978
979
979
981
985
986
989
992
997
999
1001
1001
1000
1000
996
994
993
992
991
990
989
986
985
982
977
974
973
970
971
969
968
970
969
966
965
962
962
962
962
962
962
962
963
962
962
964
964
962
962
962
960
961
959
960
963
966
969
970
971
971
968
968
966
966
971
974
982
992
1009
1031
1058
1087
1122
1160
1202
1233
1255
1260
1240
1199
1134
1051
961
874
807
773
775
802
836
875
910
939
959
972
979
980
982
979
978
975
976
979
981
985
988
990
990
989
990
987
987
986
989
989
994
996
997
997
999
999
997
997
999
999
1002
1003
1009
1011
1012
1013
1015
1014
1014
1015
1017
1018
1023
1025
1027
1033
1032
1036
1037
1039
1040
1041
1043
1043
1044
1048
1049
1054
1057
1059
1062
1060
1058
1055
1053
1053
1055
1056
1058
1058
1058
1060
1061
1058
1057
1053
1051
1050
1049
1047
1047
1045
1043
1041
1039
1033
1029
1025
1021
1015
1011
1011
1005
1004
1001
999
998
994
992
988
986
984
980
980
981
982
983
984
983
983
981
982
982
980
979
980
982
984
985
985
985
985
982
982
984
983
984
987
988
990
991
993
991
991
987
989
988
988
986
987
989
987
990
991
987
985
987
983
982
981
981
981
984
984
982
983
983
981
980
978
978
977
976
975
974
976
978
975
977
974
975
972
974
974
972
974
974
973
974
977
976
973
973
971
968
966
969
968
970
969
970
973
971
969
969
968
970
965
968
967
968
969
970
972
968
967
968
967
968
965
966
968
969
972
972
971
970
967
966
966
967
966
967
966
969
969
969
971
972
973
971
974
976
980
980
982
986
984
985
987
990
990
990
993
997
998
1000
1000
998
996
994
990
990
988
987
988
983
981
977
978
978
977
978
977
974
971
964
965
960
962
960
963
968
968
971
973
973
975
976
976
982
980
984
990
994
1000
1003
1009
1012
1018
1024
1029
1036
1045
1051
1059
1069
1075
1084
1097
1112
1132
1158
1189
1221
1253
1282
1309
1321
1319
1295
1252
1189
1109
1021
938
875
837
832
848
877
907
932
951
961
966
966
962
959
956
953
955
955
958
957
959
959
961
960
958
959
955
955
958
959
961
962
964
964
961
960
958
957
954
957
958
960
961
962
961
963
959
960
960
958
961
958
960
962
962
966
966
966
969
968
965
962
964
964
969
973
973
976
974
979
979
977
977
976
977
974
978
980
981
985
986
987
987
987
989
985
988
986
986
988
987
989
986
984
986
982
978
976
974
974
970
971
967
966
965
967
968
966
963
963
963
964
963
964
966
966
968
966
966
962
960
961
961
961
962
964
965
966
966
967
964
965
965
965
965
965
968
970
971
975
973
973
974
971
972
970
966
966
970
970
971
973
977
976
978
972
971
968
966
966
964
965
970
971
970
969
969
967
962
962
960
962
965
966
967
966
966
965
963
964
961
962
960
960
962
963
962
960
960
962
961
962
960
961
961
960
960
962
962
962
966
969
965
964
964
965
964
962
962
962
965
964
969
967
967
965
962
961
959
959
959
961
963
963
966
965
966
965
965
964
964
963
963
964
965
966
968
968
968
966
965
963
962
962
963
966
968
970
972
974
974
975
975
974
974
976
979
982
984
984
986
986
988
989
988
989
987
988
984
983
988
984
984
979
978
975
975
973
972
971
969
968
966
965
965
964
963
963
960
960
962
963
965
969
968
969
970
973
976
978
981
983
984
988
992
999
1003
1009
1016
1024
1030
1037
1044
1051
1058
1065
1075
1084
1098
1116
1138
1168
1199
1234
1265
1291
1305
1305
1289
1253
1201
1133
1053
973
898
846
824
830
854
887
918
940
956
962
963
960
956
950
949
950
952
951
955
954
954
955
956
956
957
955
953
954
954
954
954
955
957
958
959
960
960
958
954
951
950
950
950
951
954
953
956
957
956
956
955
951
954
952
955
958
959
963
963
967
969
969
968
967
967
967
971
971
974
976
977
978
980
980
980
980
980
982
981
982
984
985
985
985
987
986
984
982
983
980
983
981
981
980
980
979
975
975
972
971
969
966
965
965
962
965
966
965
966
966
963
962
960
961
959
960
962
965
962
960
963
962
959
957
960
961
962
964
964
963
966
966
968
968
966
967
968
965
967
967
967
970
970
971
972
970
970
969
966
967
970
969
970
972
971
971
969
969
969
969
969
968
966
968
968
971
971
971
970
969
968
963
961
958
960
962
963
965
966
965
966
965
965
964
964
961
960
960
961
962
962
963
965
963
963
962
959
961
960
962
962
964
966
964
965
964
961
961
960
958
961
961
962
964
964
964
964
962
961
960
959
959
959
959
963
963
965
963
964
962
962
959
956
958
958
962
963
962
963
963
965
963
962
962
960
958
960
964
964
966
967
968
967
966
966
964
965
964
962
965
969
969
973
978
979
979
979
979
978
980
982
986
990
994
995
995
993
990
986
985
981
983
981
981
980
979
976
973
972
970
971
967
967
964
963
962
964
963
967
965
967
967
968
966
966
966
972
976
981
986
990
994
996
998
1001
1006
1009
1017
1019
1029
1039
1049
1058
1065
1070
1078
1080
1084
1095
1109
1128
1155
1185
1214
1244
1269
1288
1291
1282
1254
1209
1154
1087
1019
952
895
860
854
865
887
914
937
954
965
968
969
965
961
960
958
963
964
962
960
958
959
959
961
963
964
964
966
968
968
