986
984
982
984
986
987
988
986
986
987
985
983
983
980
980
981
980
983
983
984
984
985
982
982
981
979
976
978
977
976
977
978
978
982
980
982
980
979
978
975
975
975
976
978
980
979
979
976
974
975
974
974
972
975
974
977
976
976
975
973
971
972
971
973
975
974
976
977
975
975
973
974
971
972
973
974
975
977
979
979
977
978
976
975
978
978
981
984
985
986
991
993
993
998
996
999
999
999
999
999
998
999
1000
1000
999
1001
999
995
989
985
984
980
982
984
984
985
982
978
972
970
969
969
969
973
977
977
983
985
985
986
989
990
991
995
999
1002
1006
1011
1018
1023
1029
1035
1042
1049
1060
1068
1077
1084
1090
1098
1102
1118
1136
1161
1192
1230
1267
1300
1325
1334
1329
1309
1268
1212
1140
1057
970
895
849
832
846
877
914
951
978
991
994
989
981
975
970
969
969
971
975
979
979
980
981
979
981
979
978
977
978
978
978
979
979
981
981
981
980
980
981
982
979
979
978
982
981
984
984
984
986
986
985
985
984
984
984
986
989
990
992
996
995
993
991
994
994
994
996
1000
1004
1007
1009
1008
1007
1004
1004
1002
1005
1006
1006
1009
1011
1010
1011
1013
1013
1014
1013
1011
1010
1007
1007
1007
1006
1007
1006
1005
1003
1000
998
995
995
991
990
992
992
991
991
989
986
987
985
982
978
979
979
980
980
983
985
984
985
983
981
981
979
978
979
980
984
983
985
984
984
985
985
983
982
981
984
987
989
989
989
991
988
987
986
987
986
987
988
989
989
987
988
987
989
985
988
986
984
986
987
987
988
988
988
987
985
986
985
981
981
979
980
980
980
982
983
983
983
983
980
978
976
975
975
976
977
978
978
980
978
974
972
972
971
971
973
971
974
977
978
975
975
973
971
972
972
973
974
973
975
973
973
973
975
974
974
973
973
974
974
975
973
976
975
975
975
975
976
974
974
972
974
973
975
976
975
978
977
978
978
978
976
977
978
980
984
988
990
993
992
994
995
996
995
999
1001
1002
1003
1006
1006
1005
1004
1002
997
993
994
988
986
984
984
983
985
981
978
976
970
969
966
963
964
967
969
971
971
970
969
968
964
964
963
962
966
967
969
972
973
973
974
972
971
971
970
971
973
973
976
980
980
983
988
993
1006
1023
1046
1077
1117
1162
1207
1251
1283
1297
1283
1237
1167
1079
980
886
814
779
778
806
846
889
926
954
974
984
988
990
990
990
991
994
996
995
995
994
995
997
998
999
1003
1003
1004
1005
1008
1005
1005
1008
1006
1008
1010
1012
1011
1014
1015
1019
1021
1023
1023
1025
1026
1025
1024
1025
1027
1030
1032
1036
1039
1040
1043
1044
1041
1042
1044
1046
1051
1054
1058
1065
1066
1068
1070
1069
1068
1068
1070
1072
1073
1079
1077
1079
1078
1079
1080
1077
1074
1073
1072
1072
1073
1072
1070
1071
1072
1069
1063
1061
1056
1053
1048
1043
1038
1035
1027
1027
1023
1020
1016
1012
1009
1004
1001
998
994
994
992
994
993
995
994
992
990
989
988
987
991
994
994
995
996
994
994
992
990
992
993
994
994
996
994
997
995
996
997
994
993
993
994
995
994
994
993
991
993
994
994
994
992
990
987
986
986
984
985
987
989
986
989
985
982
982
981
979
978
980
981
983
983
982
980
978
978
975
975
973
975
978
978
981
977
976
978
977
976
976
975
975
975
975
976
976
976
977
976
977
975
975
974
972
975
976
975
974
974
976
976
977
978
977
974
972
972
971
973
974
972
975
976
977
974
973
973
972
974
977
978
981
988
988
992
994
993
995
994
996
999
1001
1003
1005
1003
1004
996
997
995
992
990
985
985
984
982
980
981
980
978
976
972
969
966
963
964
965
967
973
976
977
979
980
981
982
983
984
987
992
995
999
1005
1011
1016
1018
1022
1026
1031
1039
1050
1062
1072
1084
1090
1096
1101
1113
1131
1154
1187
1228
1270
1313
1341
1358
1353
1327
1278
1207
1119
1020
927
854
814
812
835
875
912
944
968
979
983
979
974
967
961
963
963
966
968
971
971
973
973
971
969
968
970
972
973
975
977
976
976
977
975
974
971
972
974
976
976
978
981
979
978
979
976
977
979
977
979
980
982
984
984
982
984
986
985
985
988
987
989
991
987
992
995
995
996
996
996
996
996
996
996
999
1000
1001
1003
1005
1004
1005
1004
1004
1003
1003
1003
1007
1008
1008
1009
1010
1009
1007
1004
1000
997
994
992
992
992
992
990
990
988
986
985
982
981
978
979
981
979
982
979
978
977
976
974
973
975
975
976
977
975
976
976
977
973
974
976
975
975
975
979
975
978
979
981
983
985
985
984
983
982
982
981
981
982
983
985
987
986
987
982
981
980
980
981
981
979
982
983
986
984
983
980
976
976
976
977
977
979
980
982
979
978
974
974
974
972
971
972
972
973
976
975
977
976
975
973
974
975
972
972
973
972
974
973
974
975
976
973
971
970
970
971
970
972
974
975
976
976
978
972
973
972
971
971
971
973
975
976
977
977
977
974
972
973
970
971
973
974
977
978
982
980
980
980
982
984
983
988
992
997
997
1000
1002
1002
1003
1002
1001
1001
1000
1000
999
1000
998
997
993
992
987
984
982
978
978
977
976
975
975
973
974
971
971
972
972
973
974
973
975
977
982
984
988
991
996
997
999
1001
1005
1008
1012
1021
1027
1037
1043
1054
1062
1067
1075
1082
1085
1091
1099
1113
1132
1155
1188
1222
1258
1294
1320
1336
1334
1317
1282
1227
1156
1072
981
898
843
820
827
854
891
926
955
971
982
979
978
972
968
966
965
963
968
967
969
971
970
973
974
974
974
974
975
970
972
970
971
972
974
975
976
979
977
976
974
972
972
974
974
978
980
981
984
982
982
981
979
977
976
976
979
980
983
984
987
988
986
986
983
984
986
987
989
991
991
993
995
997
995
994
994
993
990
992
992
997
997
999
999
999
999
999
998
998
1000
999
1000
999
999
1000
997
997
994
994
993
990
988
986
983
981
981
980
981
980
978
979
974
974
971
970
967
970
971
971
972
972
971
968
967
965
965
966
966
967
969
969
970
971
968
968
966
966
964
962
968
970
973
971
973
972
972
971
972
968
970
969
971
972
973
972
973
970
969
970
969
968
967
967
967
967
969
971
968
968
969
967
967
966
967
966
967
969
967
968
967
969
969
967
965
966
965
964
965
965
964
966
966
967
966
966
965
964
963
961
963
964
965
962
967
964
964
968
965
964
961
962
962
963
964
966
967
968
966
964
961
960
960
960
963
963
965
967
968
966
966
964
963
960
960
963
965
965
969
971
972
973
975
974
975
977
979
983
984
987
988
991
990
991
991
989
990
987
986
985
983
983
982
980
977
974
972
971
970
967
962
963
961
957
959
959
959
959
962
961
959
958
953
954
955
956
958
962
961
962
962
959
956
955
956
958
963
960
966
965
968
970
970
969
973
979
995
1014
1040
1073
1112
1154
1195
1235
1261
1268
1247
1198
1124
1033
935
846
785
763
772
811
852
893
927
951
967
976
981
984
982
984
983
984
983
983
982
981
981
980
985
987
990
994
993
993
996
993
994
992
994
994
995
1001
1003
1005
1006
1004
1004
1004
1009
1009
1013
1011
1017
1018
1019
1022
1024
1026
1027
1029
1032
1034
1033
1032
1036
1040
1045
1048
1051
1057
1060
1060
1063
1063
1063
1063
1065
1067
1070
1073
1074
1074
1076
1073
1073
1071
1070
1070
1071
1071
1070
1070
1068
1068
1064
1060
1055
1051
1047
1042
1038
1037
1031
1027
1022
1019
1014
1009
1005
1000
998
994
994
991
989
988
987
986
984
981
980
979
980
979
978
978
980
983
985
986
986
986
986
985
983
983
987
987
988
990
991
992
992
991
989
987
986
985
986
988
992
993
993
992
991
990
989
985
986
987
987
989
985
986
984
985
983
980
979
978
979
976
980
981
980
979
979
980
980
978
976
975
976
973
976
974
975
976
978
978
977
974
974
973
972
969
969
972
972
972
974
976
973
974
972
970
969
968
969
971
971
974
973
974
972
969
966
967
966
967
969
969
974
974
976
975
974
974
977
976
981
983
987
988
991
991
992
995
996
996
997
995
997
993
995
994
995
995
993
992
989
986
983
981
979
978
977
976
975
975
971
969
969
967
967
967
968
967
969
972
975
980
980
983
986
987
988
990
993
994
999
1006
1011
1017
1023
1029
1035
1042
1052
1058
1066
1073
1082
1086
1096
1108
1126
1146
1173
1200
1233
1266
1298
1324
1339
1338
1319
1283
1228
1162
1083
999
922
865
838
840
856
886
915
940
961
968
972
970
967
965
963
961
962
964
966
968
968
971
972
971
971
970
971
969
969
971
971
971
973
974
974
972
970
968
966
966
967
970
970
972
973
975
973
971
969
969
970
971
972
971
976
978
978
979
977
977
976
977
979
980
980
985
985
987
990
989
989
990
990
990
992
990
990
992
994
997
997
998
998
1001
998
999
999
995
997
999
999
1000
999
999
996
993
989
989
986
982
981
983
984
983
984
980
976
977
974
973
972
971
972
975
975
975
976
973
971
969
971
970
970
971
973
974
974
975
976
974
974
974
975
976
975
974
976
976
976
978
980
982
979
979
977
976
976
975
976
977
980
981
982
982
983
984
981
977
979
978
977
978
982
982
983
981
982
979
977
974
975
974
975
975
977
975
977
975
979
975
978
976
975
975
974
975
975
976
976
976
974
977
975
976
975
973
974
974
974
977
976
977
976
976
976
974
973
974
975
977
978
978
981
981
980
978
975
972
975
975
977
980
981
982
983
987
987
987
988
989
992
992
995
997
1000
1003
1004
1003
1001
1002
997
996
995
994
992
992
992
990
990
986
985
984
983
980
976
975
970
970
971
972
974
976
979
977
978
980
979
980
983
988
991
996
1002
1005
1009
1012
1012
1016
1023
1029
1039
1049
1057
1069
1080
1087
1092
1096
1100
1109
1122
1142
1170
1201
1237
1272
1309
1332
1339
1331
1303
1256
1195
1116
1030
948
877
838
827
845
874
914
944
968
983
985
985
982
979
977
974
977
978
978
979
979
979
977
978
980
982
982
986
986
985
983
981
978
977
977
979
979
980
983
983
981
983
982
979
978
980
977
981
981
983
984
985
986
987
986
987
985
988
989
989
992
991
991
994
993
992
992
992
990
991
990
989
992
992
995
997
999
1002
1003
1006
1006
1004
1006
1005
1007
1007
1009
1010
1012
1014
1013
1015
1012
1013
1011
1009
1010
1009
1007
1006
1007
1003
1001
996
994
992
989
989
989
990
990
991
989
986
986
984
981
981
981
983
982
984
986
984
985
981
983
982
981
980
978
982
983
983
984
986
984
985
982
982
981
981
982
982
984
983
984
985
986
988
987
986
986
987
984
983
986
988
988
988
988
987
988
984
984
983
980
981
982
983
986
986
986
984
986
984
982
980
982
982
983
985
986
986
986
983
984
983
980
979
979
980
982
981
979
979
978
977
975
977
975
975
976
975
975
977
980
978
980
980
980
981
980
980
980
980
981
981
984
983
984
985
984
982
981
981
982
986
989
994
998
1000
1003
1004
1004
1007
1007
1006
1007
1008
1006
1007
1009
1009
1006
1007
1003
998
993
991
989
989
986
988
984
982
981
979
979
975
976
979
979
980
984
986
989
994
992
997
996
1000
1001
1005
1010
1012
1016
1021
1029
1037
1042
1048
1054
1061
1068
1074
1081
1087
1096
1101
1108
1119
1133
1153
1178
1209
1246
1282
1318
1347
1366
1367
1351
1310
1245
1164
1071
977
901
853
836
845
870
901
932
956
974
981
985
983
978
977
976
974
973
977
978
980
984
984
983
981
980
980
979
981
981
984
983
982
986
987
985
985
985
982
980
981
978
980
985
981
982
986
985
984
983
982
981
981
985
985
987
989
989
991
988
988
989
990
990
989
994
996
998
998
999
1000
999
998
997
999
1002
1000
1002
1003
1004
1007
1008
1010
1009
1012
1011
1011
1010
1011
1011
1011
1014
1016
1015
1016
1013
1011
1008
1004
1002
998
999
998
997
999
1000
998
996
994
992
991
990
990
991
992
993
993
994
995
994
991
990
989
984
986
988
991
993
994
994
992
992
990
988
989
989
989
991
992
995
995
997
995
997
997
996
994
993
993
995
995
998
995
995
997
995
995
995
995
996
994
994
997
997
998
1001
999
997
995
993
992
992
990
991
993
994
995
996
995
992
990
990
990
988
990
990
992
994
995
994
994
992
988
988
990
987
988
992
991
993
991
993
991
990
990
987
987
987
986
988
989
992
992
991
989
991
987
988
984
986
986
986
987
987
988
990
990
990
990
990
988
989
993
996
1000
1003
1005
1009
1013
1015
1012
1013
1015
1013
1012
1015
1015
1017
1016
1016
1014
1010
1006
1002
999
997
996
993
995
994
992
990
988
984
978
980
980
982
985
988
989
991
997
997
1000
1003
1005
1007
1011
1010
1016
1022
1026
1032
1038
1045
1053
1061
1068
1079
1086
1091
1099
1106
1114
1124
1142
1161
1190
1222
1258
1295
1328
1351
1355
1340
1301
1241
1163
1072
979
900
852
841
857
893
930
963
988
999
1002
996
991
986
981
981
980
981
983
987
988
987
989
990
991
989
989
988
989
988
986
987
990
989
993
993
992
992
989
989
987
987
988
990
992
996
996
996
994
994
993
992
993
994
994
997
997
1001
1004
1003
1002
1004
1004
1007
1005
1008
1008
1009
1012
1013
1016
1016
1021
1019
1019
1018
1017
1018
1015
1017
1019
1019
1022
1023
1024
1025
1025
1026
1025
1021
1021
1020
1021
1021
1022
1022
1020
1016
1014
1010
1006
1003
1000
1001
1002
1003
1004
1003
1001
998
996
993
991
991
991
993
995
995
994
994
993
993
993
990
991
989
989
988
992
993
994
995
994
994
995
994
993
993
992
992
994
998
997
997
998
999
1001
999
999
997
995
995
996
996
1000
1000
1000
998
998
995
994
992
990
992
993
993
995
997
999
997
995
993
990
988
985
989
989
990
993
993
992
990
989
988
986
983
982
985
988
991
990
992
990
988
986
986
984
984
985
985
987
987
989
989
988
989
988
988
988
988
988
987
988
991
987
987
992
989
990
990
988
987
986
987
988
988
989
990
990
993
992
990
989
988
988
990
992
995
998
1003
1005
1008
1005
1007
1007
1007
1007
1010
1015
1017
1020
1021
1020
1017
1019
1015
1011
1010
1006
1008
1009
1006
1005
1003
1001
996
995
993
991
989
988
987
987
986
986
988
991
991
991
992
992
996
994
998
1004
1006
1010
1015
1019
1022
1023
1027
1031
1036
1042
1049
1056
1065
1075
1085
1095
1102
1110
1113
1118
1124
1136
1154
1180
1216
1254
1295
1331
1355
1368
1359
1331
1282
1216
1139
1054
969
898
853
845
860
889
929
966
989
1004
1007
1004
997
991
987
987
989
990
992
991
990
992
992
993
993
995
994
995
994
991
988
991
990
989
990
990
988
986
990
994
994
991
991
990
986
985
987
988
989
992
994
995
995
995
992
991
991
991
993
996
997
1001
1002
1006
1006
1005
1005
1005
1007
1007
1008
1010
1013
1015
1015
1016
1018
1016
1015
1016
1017
1017
1019
1023
1021
1024
1023
1023
1023
1022
1022
1021
1019
1018
1018
1017
1017
1016
1015
1015
1015
1010
1008
1004
1004
1001
1001
1002
1003
1004
1001
1002
998
1000
1000
997
994
993
994
992
993
997
995
996
999
996
994
991
990
990
993
993
999
1002
999
1001
999
997
996
993
994
998
998
1001
1001
1003
1002
1003
1000
1000
999
999
1000
1000
1003
1002
1003
1002
1000
1000
1001
1000
1000
998
998
1000
999
1000
998
1000
1000
1000
1001
999
998
997
996
994
996
997
998
1000
999
1002
999
999
997
993
992
990
992
996
995
997
1001
999
999
998
997
993
992
990
991
992
996
997
998
998
996
995
994
993
991
991
990
993
994
996
997
997
998
994
994
991
990
990
991
993
996
996
994
997
993
991
990
989
991
991
992
997
999
999
1001
1003
1003
1005
1007
1008
1011
1013
1017
1019
1021
1024
1024
1023
1023
1021
1021
1020
1016
1016
1015
1011
1009
1006
1004
1002
1002
1000
998
995
990
984
984
981
983
985
985
987
986
985
982
982
979
981
982
981
984
986
987
986
987
985
985
981
980
979
981
983
985
986
988
989
988
991
991
994
1000
1010
1025
1049
1076
1107
1147
1193
1237
1277
1307
1319
1304
1267
1202
1118
1018
920
835
780
764
780
818
861
909
942
968
988
1001
1008
1010
1010
1010
1010
1006
1002
1005
1007
1009
1009
1013
1014
1015
1017
1020
1020
1021
1019
1019
1018
1020
1020
1022
1026
1029
1031
1030
1030
1029
1028
1031
1032
1033
1035
1038
1043
1045
1045
1045
1045
1047
1049
1052
1052
1056
1060
1064
1067
1071
1073
1076
1077
1077
1081
1081
1081
1084
1088
1092
1094
1100
1101
1101
1103
1102
1101
1101
1100
1101
1102
1102
1100
1103
1104
1103
1101
1098
1095
1092
1088
1084
1080
1076
1075
1071
1066
1060
1052
1046
1041
1034
1026
1024
1022
1022
1018
1017
1011
1005
1003
1003
1002
999
999
1002
1000
1003
1003
1000
1001
1002
1003
1003
1003
1004
1002
1002
1005
1005
1003
1008
1010
1010
1011
1009
1006
1005
1003
1004
1005
1006
1007
1010
1010
1010
1011
1006
1004
1005
1003
1004
1005
1007
1009
1009
1009
1008
1004
999
999
997
996
998
1001
1003
1004
1001
1001
999
998
997
994
995
996
996
996
999
1000
996
996
995
991
989
989
989
989
989
990
991
991
993
994
994
992
989
988
989
986
988
990
992
995
997
996
994
991
987
984
987
986
988
990
994
992
995
999
1001
1001
998
999
1000
1000
1006
1009
1013
1014
1017
1017
1019
1018
1017
1016
1013
1011
1010
1012
1011
1010
1008
1006
1000
999
995
993
989
988
986
987
985
985
985
984
982
982
982
980
980
980
979
982
982
984
982
981
982
981
981
981
979
980
982
984
984
985
986
988
