966
967
968
969
969
972
973
976
981
988
993
997
1001
1003
1008
1012
1016
1024
1029
1041
1055
1064
1073
1078
1082
1087
1098
1110
1129
1155
1187
1226
1265
1308
1342
1363
1367
1347
1302
1234
1147
1047
948
871
827
815
827
856
889
919
941
955
962
963
960
957
953
951
953
957
960
959
961
963
960
959
955
956
956
959
962
963
963
961
961
959
957
959
956
958
960
961
963
964
964
962
961
959
957
960
958
958
961
962
963
963
961
964
962
962
962
960
961
962
962
964
966
965
966
967
968
970
970
969
970
971
972
973
973
974
974
976
974
974
976
977
977
979
980
983
987
990
992
992
991
991
985
984
982
982
983
982
979
979
981
980
977
974
970
966
966
968
969
969
970
970
968
968
967
964
964
964
963
965
966
966
968
967
967
965
966
964
964
966
969
968
970
972
967
970
970
974
973
975
973
973
971
972
973
975
975
977
976
977
976
977
976
973
972
973
973
974
976
978
980
980
979
977
974
972
972
973
973
974
976
977
977
976
973
969
967
963
966
967
967
968
969
970
968
969
966
967
966
968
968
967
968
968
967
967
966
966
967
965
963
963
959
962
959
964
965
965
966
968
967
964
963
963
963
963
963
965
964
967
967
968
966
966
963
962
963
961
962
964
964
967
966
967
964
962
961
961
963
966
965
972
976
977
979
978
979
979
977
981
981
986
989
992
993
996
995
994
990
991
989
986
983
980
978
976
976
975
974
974
975
972
968
965
958
956
957
955
958
963
965
969
968
967
965
968
969
972
976
983
988
990
996
1000
1004
1007
1013
1020
1028
1038
1048
1058
1067
1075
1080
1085
1092
1105
1128
1160
1199
1244
1288
1328
1356
1363
1350
1315
1251
1164
1065
960
865
808
792
811
850
897
935
964
976
977
971
961
954
952
951
954
959
963
965
960
960
962
961
962
962
962
964
962
967
966
967
966
966
965
965
965
967
963
965
967
967
968
967
968
969
968
968
968
966
967
968
969
971
974
971
975
977
977
977
975
977
975
977
980
981
985
988
990
988
987
985
987
985
984
989
991
995
995
994
996
995
995
994
994
993
993
995
994
997
995
995
994
992
989
985
984
979
979
977
977
975
974
973
973
972
971
969
968
968
967
964
964
966
967
967
970
969
967
966
965
964
964
965
965
967
968
968
970
968
966
966
964
963
962
964
966
969
971
972
974
971
966
965
966
966
969
968
970
968
973
972
971
973
970
967
970
967
968
971
972
971
974
972
973
971
971
969
968
967
968
968
969
968
970
970
972
970
971
968
966
966
965
965
967
966
969
967
969
967
967
966
964
961
961
961
962
962
966
966
967
963
963
962
960
960
959
958
961
963
967
965
967
967
963
961
962
960
962
963
963
965
966
967
967
964
964
962
962
963
963
966
969
970
970
973
970
972
970
971
971
972
974
979
980
983
986
988
988
986
982
982
986
988
988
990
991
993
993
991
993
991
991
990
988
986
983
983
983
984
985
988
987
986
983
976
971
962
958
953
952
952
954
957
961
962
962
962
959
959
960
962
964
968
971
970
974
974
977
975
972
966
961
958
958
959
961
966
971
974
980
990
1009
1031
1066
1107
1150
1197
1241
1276
1293
1290
1263
1207
1136
1052
960
872
797
762
757
787
837
886
927
962
981
987
987
984
983
981
981
984
986
988
992
994
999
1000
1002
1000
997
994
991
991
992
996
1001
1006
1011
1011
1005
1002
998
996
1000
1004
1006
1007
1009
1009
1011
1014
1016
1020
1024
1028
1031
1033
1036
1036
1040
1041
1043
1044
1046
1049
1053
1059
1062
1066
1068
1068
1071
1073
1073
1074
1077
1077
1083
1083
1084
1080
1080
1080
1082
1084
1083
1083
1080
1079
1071
1069
1069
1070
1067
1063
1061
1056
1050
1048
1043
1037
1033
1033
1032
1030
1023
1016
1013
1003
1001
1000
996
997
998
1000
997
995
990
983
976
975
974
972
974
974
972
974
976
976
978
977
976
974
973
970
970
970
973
972
976
975
979
977
979
978
975
972
971
972
975
975
978
979
981
978
978
981
978
979
976
978
980
982
985
985
985
983
977
970
970
971
970
972
975
974
974
972
973
970
969
965
963
963
963
962
967
968
968
967
965
961
960
961
961
964
962
962
963
964
968
969
967
966
961
960
959
960
961
962
962
962
960
960
962
963
964
964
964
961
961
960
961
960
960
963
963
962
961
959
958
958
956
956
957
957
958
962
964
963
962
960
957
958
960
962
965
967
971
974
978
976
976
975
978
982
987
991
991
988
984
984
981
983
984
988
986
984
982
982
978
979
978
977
974
973
971
970
968
962
961
958
958
958
954
956
956
956
957
955
954
953
954
957
959
958
959
960
957
954
952
949
950
952
952
954
953
952
956
954
956
957
954
956
957
960
968
980
1000
1030
1068
1105
1148
1189
1226
1252
1266
1260
1228
1178
1111
1037
954
871
800
755
751
775
818
865
906
942
966
980
983
980
975
972
967
966
966
967
971
972
974
977
978
980
980
981
981
982
981
985
985
987
986
986
986
986
987
990
992
995
996
996
998
998
1000
996
1000
1002
1008
1010
1011
1013
1011
1011
1011
1011
1016
1020
1025
1027
1031
1033
1034
1035
1036
1038
1040
1045
1048
1051
1056
1060
1062
1063
1062
1062
1062
1065
1065
1067
1069
1071
1072
1071
1071
1070
1068
1066
1065
1061
1062
1057
1054
1053
1051
1047
1042
1036
1033
1029
1028
1027
1021
1015
1009
1000
992
987
987
986
984
982
979
978
976
971
973
975
975
978
978
977
973
972
974
975
976
976
976
975
977
978
981
981
975
972
971
970
968
972
973
976
980
979
980
978
976
974
974
975
974
976
978
979
979
980
983
984
976
978
977
978
975
977
978
980
979
979
979
978
980
975
974
974
969
970
969
970
972
975
975
975
974
972
971
972
970
971
966
966
963
965
965
965
965
965
965
965
965
967
968
967
969
969
968
967
964
962
962
960
958
958
961
962
962
965
962
959
960
960
959
957
957
957
956
955
956
958
959
958
957
959
959
958
958
958
960
962
963
968
969
970
969
971
969
972
970
973
977
982
987
992
992
995
994
993
992
989
987
988
990
988
986
986
982
980
979
975
971
968
967
967
964
962
958
957
957
956
951
949
948
947
950
950
951
951
952
951
955
957
957
956
955
957
955
952
955
956
957
961
962
964
962
961
957
958
964
977
992
1020
1052
1089
1132
1178
1220
1258
1281
1280
1253
1197
1119
1022
922
831
766
734
740
772
818
864
901
933
955
967
976
977
977
974
972
971
974
975
977
977
974
976
980
981
984
986
987
989
987
985
987
988
990
995
997
1000
1002
999
1001
1000
1002
1004
1003
1004
1003
1002
1003
1005
1007
1013
1015
1016
1015
1015
1016
1020
1023
1029
1033
1036
1039
1042
1042
1043
1045
1047
1047
1052
1055
1057
1061
1067
1067
1067
1069
1069
1068
1068
1069
1070
1071
1073
1071
1074
1073
1073
1072
1069
1066
1065
1060
1058
1058
1053
1049
1048
1042
1040
1033
1027
1022
1016
1009
1004
1003
999
996
993
989
986
985
979
975
974
972
970
972
975
974
976
976
976
975
972
970
970
970
969
970
972
974
977
977
976
977
974
973
972
970
971
972
971
971
975
975
976
975
974
973
977
974
973
972
972
970
968
969
971
970
968
967
962
962
958
959
959
963
965
963
963
962
960
959
961
957
959
959
960
964
962
963
963
961
960
958
955
955
957
959
960
963
962
961
961
961
955
956
954
955
955
957
957
959
959
957
957
959
960
962
959
956
952
951
950
950
953
958
961
963
965
965
968
968
966
968
973
976
981
982
986
986
984
983
980
977
973
971
974
976
977
975
972
966
962
959
957
954
955
954
953
953
950
947
948
947
947
947
946
948
947
950
951
951
952
948
949
948
950
952
952
951
953
953
952
954
956
958
959
959
959
959
960
961
968
978
997
1021
1048
1084
1122
1167
1209
1251
1276
1276
1249
1190
1107
1005
901
811
750
733
750
785
830
872
909
937
957
965
969
968
966
964
963
962
965
966
970
971
972
970
972
970
974
977
979
980
980
982
982
980
983
984
989
992
994
996
997
993
993
994
993
995
1000
1005
1008
1008
1012
1016
1015
1018
1017
1019
1021
1026
1031
1035
1039
1043
1042
1044
1047
1047
1048
1052
1051
1058
1058
1061
1062
1063
1063
1064
1064
1065
1065
1064
1064
1064
1064
1064
1063
1062
1059
1055
1054
1051
1046
1041
1035
1033
1031
1026
1021
1015
1011
1005
999
992
987
980
977
977
975
974
972
968
968
967
963
962
961
959
957
958
959
958
962
961
959
958
959
954
958
958
958
962
963
963
964
965
964
966
964
961
962
961
959
960
963
961
966
963
965
965
964
962
961
960
960
960
961
963
965
966
965
964
963
958
957
953
953
951
952
953
955
954
955
954
953
949
946
948
946
947
946
945
946
948
948
946
946
945
944
944
944
946
944
943
946
949
948
947
946
947
947
947
945
946
947
947
949
951
954
955
953
951
951
952
954
959
959
965
971
973
975
974
972
971
970
970
970
972
973
975
977
979
977
973
970
967
959
956
954
954
956
955
959
959
960
955
949
945
941
940
939
941
943
944
947
949
952
956
958
962
965
966
965
972
975
981
989
995
1003
1011
1016
1021
1027
1036
1045
1054
1060
1068
1076
1085
1101
1122
1150
1184
1223
1265
1306
1341
1360
1359
1342
1295
1226
1138
1035
930
846
795
778
797
831
872
908
932
950
955
955
951
945
943
941
941
943
944
942
943
944
945
948
949
950
951
948
950
951
951
950
952
953
955
955
956
953
952
952
951
953
953
955
956
959
956
956
955
955
953
955
955
957
957
958
960
960
960
957
958
957
957
958
960
964
968
969
967
970
968
969
969
968
968
971
973
974
976
979
979
977
978
977
976
975
978
977
978
982
981
983
984
982
981
980
978
977
975
974
972
970
969
969
968
968
967
965
963
960
958
954
956
955
952
955
956
958
960
957
957
955
955
951
953
954
957
958
960
959
961
960
959
958
957
955
955
957
959
962
962
966
967
964
960
955
958
957
962
963
965
965
962
963
958
957
958
958
959
958
957
959
959
960
958
957
958
955
952
950
948
946
947
948
952
951
952
952
952
952
950
950
951
950
949
950
950
955
953
954
953
951
949
946
944
943
946
947
950
952
951
954
951
948
946
947
947
947
949
951
952
954
954
954
951
950
950
952
950
949
948
947
951
952
958
956
958
957
960
960
961
962
968
968
969
973
977
975
975
974
974
974
971
970
970
970
968
966
965
962
960
959
959
958
956
953
951
947
945
945
946
947
948
945
944
949
948
946
949
953
956
962
965
969
970
972
972
976
980
985
990
998
1006
1014
1022
1031
1039
1048
1053
1059
1065
1068
1079
1097
1119
1151
1187
1227
1269
1309
1337
1351
1346
1319
1272
1208
1123
1030
936
855
802
786
803
833
871
909
935
952
956
954
949
943
939
938
938
939
937
936
936
937
941
941
943
944
946
942
940
938
938
939
941
945
945
947
947
949
946
944
940
937
935
935
939
940
943
945
943
943
945
941
939
939
940
937
940
941
944
945
946
947
949
950
949
950
951
952
955
957
961
965
965
967
969
971
970
971
972
972
971
976
976
977
980
981
981
982
984
984
982
982
981
981
982
983
981
983
980
976
974
972
969
965
963
963
963
963
963
962
959
959
955
953
955
953
954
955
955
955
955
956
954
953
950
948
948
948
948
949
948
949
950
950
949
949
948
945
943
943
944
946
947
950
951
948
949
949
949
951
949
949
949
951
949
952
954
956
955
954
954
953
953
953
953
954
954
957
958
959
958
957
958
958
956
954
954
955
956
957
960
958
958
955
952
952
950
950
949
953
957
957
955
955
955
954
952
951
951
950
954
955
954
952
948
948
948
944
943
944
944
942
945
943
943
944
943
944
944
945
946
945
942
942
944
942
945
945
944
946
948
947
948
946
947
945
946
947
949
954
956
959
962
964
964
964
966
969
973
975
978
982
980
982
979
976
975
975
973
972
970
969
968
966
962
963
961
959
959
956
953
949
945
942
940
942
943
946
947
953
955
958
960
955
957
963
966
973
977
983
986
989
994
998
1003
1006
1013
1022
1030
1043
1055
1063
1070
1075
1079
1086
1103
1125
1156
1192
1232
1270
1302
1325
1327
1315
1281
1230
1167
1090
1004
924
860
825
812
828
858
891
920
937
948
952
950
949
945
944
942
943
943
942
942
942
944
945
945
945
946
946
949
948
948
948
949
948
946
945
944
946
947
949
952
953
953
953
951
949
946
944
943
944
943
946
950
951
953
952
951
950
948
949
950
952
957
961
965
965
965
964
962
962
962
965
972
975
982
983
983
983
980
976
972
968
970
966
968
971
974
977
981
983
983
982
981
978
979
977
976
978
977
977
977
975
972
971
969
968
964
962
959
959
960
961
964
965
966
967
962
958
954
951
951
952
952
956
959
959
959
955
956
955
954
954
955
958
958
961
959
962
962
961
959
957
958
959
959
961
961
964
961
962
962
965
966
965
962
962
960
959
958
959
961
961
962
963
962
962
962
961
960
961
959
957
957
960
960
960
961
959
959
956
956
957
957
958
959
960
961
959
957
956
957
955
952
953
955
956
957
958
955
954
953
948
949
948
950
951
952
953
953
953
950
952
951
948
948
949
950
950
950
951
951
950
951
951
948
951
949
948
949
950
952
953
951
950
947
946
944
942
943
942
944
944
947
949
952
954
956
956
955
952
954
954
958
963
965
972
974
977
978
978
974
974
973
973
974
974
970
970
966
961
958
957
954
954
954
952
948
947
946
943
940
939
938
942
938
938
939
939
940
941
943
944
945
948
949
949
948
947
945
945
945
947
947
949
950
951
956
959
959
961
965
972
982
1002
1027
1059
1099
1137
1176
1206
1227
1228
1208
1168
1109
1038
961
884
822
783
775
793
826
865
903
929
952
959
964
964
964
962
963
964
966
967
967
967
968
969
971
973
974
975
977
975
977
976
976
975
977
976
977
981
983
987
988
989
985
985
985
984
988
991
997
1002
1005
1004
1005
1008
1009
1009
1013
1012
1018
1022
1025
1028
1031
1031
1035
1038
1038
1038
1041
1041
1043
1045
1047
1048
1052
1054
1051
1053
1051
1048
1047
1045
1043
1041
1041
1040
1043
1041
1039
1034
1032
1026
1019
1018
1014
1011
1008
1004
996
997
993
988
984
979
977
975
972
973
969
971
968
967
967
965
967
965
963
962
964
961
964
963
964
965
966
965
961
961
962
960
961
965
967
968
970
970
969
968
967
965
961
960
962
962
964
967
969
970
967
966
964
963
963
961
962
962
965
966
965
964
963
960
959
958
958
956
955
956
957
955
956
957
956
952
953
950
954
953
952
953
953
952
953
952
953
954
955
953
953
953
950
948
947
946
948
944
946
948
947
947
947
945
944
945
947
950
951
951
950
949
951
948
949
947
947
948
949
950
952
954
951
949
946
946
947
947
948
950
949
952
951
952
953
951
950
949
948
948
948
947
948
949
951
953
952
952
951
951
949
951
950
952
953
957
958
959
961
960
964
964
965
962
965
967
969
973
978
979
982
980
978
977
974
972
971
970
973
973
973
973
968
965
962
958
955
951
951
948
945
945
945
945
941
945
941
941
942
943
943
945
939
941
943
942
945
942
943
944
944
944
945
945
946
948
951
950
953
954
958
961
965
971
985
1007
1031
1064
1102
1141
1178
1205
1219
1215
1186
1139
1075
1001
919
847
802
784
797
825
865
903
934
954
963
969
968
964
963
962
964
965
965
967
969
971
969
970
971
972
972
976
978
979
979
976
978
976
976
978
981
985
986
989
991
993
989
991
994
993
994
995
998
1001
1004
1009
1009
1010
1011
1012
1011
1014
1016
1022
1022
1027
1031
1033
1035
1036
1036
1039
1040
1039
1042
1045
1046
1046
1050
1049
1052
1052
1049
1048
1046
1044
1043
1042
1040
1043
1042
1042
1041
1042
1039
1035
1031
1028
1022
1020
1016
1011
1012
1010
1007
1000
997
992
986
982
976
976
974
973
974
970
970
969
966
963
960
958
955
958
959
963
963
964
965
962
960
958
957
956
957
959
962
965
965
964
965
966
964
966
964
960
961
962
963
965
966
967
966
966
968
962
962
965
962
965
962
963
966
966
968
965
964
963
962
961
959
959
960
960
961
963
963
962
961
955
954
954
954
954
954
954
959
958
960
959
955
954
951
948
948
949
951
953
953
956
954
952
949
947
947
947
946
951
949
952
953
952
950
949
950
948
945
948
945
948
949
949
951
951
951
949
948
948
946
947
945
949
948
951
950
950
952
950
949
950
949
947
947
948
949
950
951
950
948
953
952
951
948
948
946
949
951
951
953
953
952
953
953
949
949
949
947
950
950
951
955
955
956
955
956
957
958
961
961
966
969
971
976
978
980
979
979
977
976
974
974
976
977
977
977
975
974
969
966
960
961
959
958
959
957
954
955
952
952
949
948
948
947
947
946
948
948
951
950
951
949
950
949
949
947
947
947
949
951
951
954
955
958
956
958
959
959
964
963
968
977
988
1008
1031
1057
1088
1119
1153
1182
1203
1208
1198
1167
1121
1058
988
916
853
812
799
814
844
878
915
946
963
971
974
973
968
965
963
964
967
968
972
973
