998
1003
1007
1010
1013
1014
1014
1019
1022
1024
1024
1029
1030
1031
1035
1034
1037
1040
1043
1043
1041
1042
1042
1037
1036
1034
1032
1033
1033
1032
1028
1026
1022
1017
1012
1012
1010
1009
1005
1002
1002
999
997
995
993
990
992
993
992
995
996
1001
1002
1005
1006
1006
1009
1010
1012
1017
1021
1026
1031
1036
1045
1049
1055
1061
1067
1076
1082
1089
1095
1103
1112
1123
1142
1163
1188
1218
1255
1298
1341
1379
1410
1422
1410
1369
1304
1215
1112
1004
910
841
811
818
841
877
912
942
965
978
986
986
985
980
977
977
976
978
978
982
984
982
983
983
983
981
982
982
982
986
985
988
989
991
992
994
991
991
990
990
991
993
995
994
999
1000
1000
999
999
999
996
998
995
997
998
999
1000
1001
1003
1004
1005
1007
1009
1013
1010
1017
1017
1016
1013
1013
1014
1013
1014
1015
1016
1020
1020
1021
1024
1023
1025
1026
1026
1026
1024
1028
1026
1028
1027
1027
1029
1029
1029
1028
1027
1025
1024
1019
1016
1012
1010
1006
1005
1007
1006
1003
1000
999
995
994
992
992
991
991
989
990
990
991
993
992
991
989
988
988
987
989
987
990
992
993
992
992
990
990
988
987
985
987
993
996
997
996
997
996
994
995
995
992
994
996
996
996
1000
998
999
998
997
999
993
995
994
994
996
996
997
997
999
996
997
993
992
991
989
991
990
992
993
995
996
994
994
993
991
990
988
989
988
990
988
990
988
987
987
985
984
986
983
983
984
986
984
988
986
987
988
990
989
990
996
996
1002
1003
1006
1006
1008
1009
1009
1011
1014
1013
1010
1010
1009
1006
1008
1008
1005
1004
1002
1001
994
991
989
987
990
989
986
985
982
980
977
975
974
971
972
973
979
980
982
985
987
991
993
995
996
1001
1002
1006
1010
1017
1021
1027
1035
1043
1051
1058
1067
1075
1082
1089
1103
1120
1145
1178
1218
1266
1310
1350
1380
1394
1383
1348
1285
1197
1094
986
886
814
784
795
831
877
918
950
967
975
974
969
962
958
955
957
956
955
959
961
962
962
963
960
963
963
961
961
958
958
958
961
962
964
964
962
960
958
958
957
954
954
955
956
958
962
963
962
964
962
962
961
961
962
963
964
965
968
970
972
972
972
976
977
976
978
978
979
980
983
987
990
992
991
989
990
991
991
989
992
993
994
998
999
999
998
996
994
991
989
990
990
987
985
985
981
981
976
973
971
970
967
969
970
970
971
972
969
968
966
964
963
963
963
965
965
966
964
967
966
967
968
968
966
966
964
964
967
965
968
967
969
970
972
969
969
969
969
968
969
970
969
970
971
973
970
969
969
967
965
967
965
967
966
967
970
969
970
969
966
963
961
961
963
966
969
970
969
970
968
964
963
961
960
958
958
960
962
963
965
964
964
961
962
958
959
957
957
958
958
959
960
962
961
960
958
957
956
954
955
958
957
958
960
961
961
958
958
957
959
958
961
963
968
973
976
977
975
976
979
981
985
985
988
988
987
987
988
987
984
981
977
974
969
967
964
963
966
965
965
965
962
959
953
949
948
947
951
953
955
959
961
960
960
962
962
965
966
968
972
974
981
983
988
994
1002
1007
1011
1016
1025
1033
1043
1052
1060
1069
1078
1089
1103
1120
1146
1179
1219
1262
1305
1344
1370
1379
1372
1337
1277
1193
1097
992
891
813
775
775
804
846
887
921
940
946
946
940
934
927
927
929
930
936
938
938
938
937
935
934
933
931
931
933
935
937
936
938
940
939
936
936
935
933
934
935
932
936
939
938
939
939
936
932
933
932
931
933
935
938
938
942
943
943
942
941
942
943
942
950
952
956
960
959
959
958
958
958
955
958
961
963
966
968
969
972
975
973
976
976
977
976
973
975
974
975
974
972
972
968
963
961
960
957
954
956
955
952
954
954
950
950
947
947
945
945
947
945
947
947
947
947
947
948
949
948
948
947
952
951
953
952
951
952
953
950
950
951
952
952
953
953
955
956
957
955
954
956
954
951
952
954
952
953
957
961
963
963
961
959
957
954
952
952
953
953
955
953
953
956
956
956
953
951
948
947
947
950
951
952
952
954
951
950
949
947
946
948
946
948
950
950
948
951
951
950
949
947
947
946
949
949
950
951
952
954
954
955
953
952
953
954
951
950
949
951
951
955
955
956
957
951
953
952
952
952
954
956
959
959
960
957
957
957
957
956
957
959
964
966
972
974
977
977
979
982
983
985
983
985
986
986
985
985
982
982
978
975
973
968
967
964
962
965
964
961
963
958
956
951
946
945
947
949
954
957
958
957
960
963
961
963
965
970
972
975
979
986
992
998
1003
1009
1013
1021
1026
1035
1047
1058
1067
1074
1083
1095
1112
1135
1163
1199
1240
1283
1325
1357
1380
1379
1357
1301
1226
1131
1021
914
831
784
778
804
844
884
920
941
954
956
954
950
944
939
939
944
946
947
949
950
951
951
951
950
950
952
953
954
955
956
956
959
960
959
957
957
956
957
956
958
958
959
961
961
958
956
956
955
954
955
954
956
957
959
960
961
960
957
956
958
958
959
960
965
967
969
971
969
969
971
973
973
974
973
974
976
976
976
977
974
973
972
973
972
976
979
981
981
981
980
980
980
976
974
972
970
969
963
963
963
963
963
962
963
962
960
959
956
955
956
954
956
959
959
957
954
955
952
953
952
954
954
954
955
953
957
958
957
958
955
953
953
952
952
954
953
957
958
960
961
960
961
958
954
956
955
953
955
956
957
963
962
963
962
958
958
956
952
953
953
952
954
958
960
964
965
963
958
954
949
947
947
950
954
957
959
959
956
956
953
952
947
944
942
942
943
944
946
948
949
951
951
950
947
947
946
947
945
942
943
940
944
945
946
948
948
948
948
945
945
947
944
946
946
945
944
942
942
939
939
943
945
945
945
946
944
943
940
937
939
934
935
935
936
938
940
938
936
932
930
928
925
927
925
926
928
928
928
927
925
925
920
919
915
917
919
920
923
925
927
931
936
941
948
953
960
962
971
973
979
981
988
995
999
1003
999
999
997
996
998
999
1001
999
995
990
983
977
969
965
960
955
950
945
940
936
930
928
926
925
927
926
926
926
928
934
934
943
945
951
956
958
958
959
955
956
957
961
966
972
976
977
974
971
967
966
969
975
987
1008
1032
1062
1098
1142
1185
1231
1271
1296
1305
1290
1250
1186
1102
1004
901
805
737
711
730
778
838
897
941
973
988
990
986
980
973
972
971
973
972
975
978
979
981
984
986
991
990
992
992
992
992
992
992
991
995
997
1002
1006
1005
1008
1006
1005
1009
1012
1017
1021
1021
1019
1018
1018
1018
1021
1023
1026
1028
1030
1034
1033
1031
1029
1032
1037
1040
1046
1047
1051
1052
1053
1054
1058
1062
1063
1064
1064
1065
1062
1063
1063
1064
1065
1064
1062
1057
1059
1058
1059
1057
1055
1051
1049
1045
1042
1039
1034
1030
1028
1023
1021
1018
1012
1005
1001
997
986
986
984
984
981
978
977
975
971
969
966
964
964
964
964
964
966
965
965
966
965
965
963
964
963
966
967
972
973
974
976
978
975
976
974
974
974
976
979
984
987
989
992
992
989
983
976
967
963
960
961
963
967
971
973
971
971
969
968
968
967
968
969
972
972
972
970
968
965
964
958
957
955
955
958
958
954
957
957
958
955
954
952
952
952
951
950
948
954
954
956
958
955
951
950
946
946
947
952
955
955
956
953
952
953
955
951
952
951
951
952
950
954
955
957
956
957
956
955
953
952
957
958
960
963
964
964
962
960
958
957
957
955
956
958
959
961
963
964
962
960
960
958
957
961
962
966
968
970
972
969
968
964
962
957
957
955
959
959
960
963
963
965
964
966
965
965
970
968
972
974
977
983
985
988
989
991
991
989
989
988
989
987
989
989
989
988
985
980
976
972
969
970
970
972
971
967
963
962
960
957
955
954
957
957
959
959
958
959
962
962
963
964
962
960
960
957
962
966
968
973
976
979
981
979
982
980
982
987
995
1010
1032
1062
1104
1146
1193
1234
1270
1291
1292
1268
1216
1141
1047
948
853
781
746
750
782
831
882
929
964
982
991
993
988
985
981
979
978
979
980
979
980
981
982
985
986
986
987
987
986
988
986
987
987
989
993
992
992
992
991
990
991
992
996
997
1001
1006
1008
1012
1013
1013
1015
1017
1018
1019
1021
1020
1022
1027
1030
1035
1037
1039
1041
1042
1041
1043
1045
1046
1050
1050
1055
1057
1058
1059
1058
1058
1058
1059
1056
1055
1054
1055
1053
1052
1050
1055
1052
1051
1049
1046
1042
1040
1036
1033
1030
1027
1027
1025
1022
1016
1010
1007
1001
996
994
991
988
986
984
982
980
979
975
972
968
969
969
971
972
969
975
974
974
971
972
972
973
969
971
975
975
979
980
981
981
977
977
976
976
977
979
980
980
981
983
985
984
983
981
981
979
979
981
980
981
981
983
982
980
979
974
974
972
970
971
971
970
972
974
975
974
973
971
969
967
967
970
969
969
972
973
971
970
972
969
967
965
961
963
965
965
969
971
970
969
965
965
964
962
962
964
967
966
969
967
966
967
965
963
963
965
964
964
966
968
971
972
969
969
964
965
964
962
965
966
967
969
972
972
972
972
969
968
967
968
969
969
969
970
971
974
971
973
972
969
968
964
966
969
970
971
972
973
970
971
969
973
967
966
964
967
968
970
970
973
975
973
974
975
976
976
980
984
987
992
995
995
1001
1000
1003
1002
999
1000
999
998
996
997
998
996
995
991
986
984
979
976
975
975
974
972
970
967
964
963
960
960
959
958
960
958
962
962
963
965
962
961
960
959
957
956
957
959
956
960
963
963
963
968
969
968
968
970
972
977
984
997
1021
1049
1086
1129
1177
1227
1264
1284
1280
1253
1198
1119
1024
923
832
766
740
754
794
847
897
941
972
989
997
997
991
986
982
981
981
986
986
987
987
989
991
992
992
992
998
998
996
996
995
995
996
1001
1003
1005
1008
1010
1010
1007
1008
1010
1009
1012
1017
1019
1022
1025
1026
1026
1026
1028
1029
1032
1034
1038
1041
1045
1048
1053
1055
1056
1059
1061
1063
1065
1066
1064
1066
1067
1070
1073
1072
1073
1072
1071
1069
1066
1067
1066
1065
1065
1066
1066
1068
1065
1063
1059
1050
1049
1043
1041
1036
1032
1026
1024
1021
1018
1013
1007
1002
997
993
991
987
987
988
988
989
988
984
982
982
979
980
982
983
984
985
987
987
988
986
988
986
986
986
989
990
990
994
998
998
997
994
991
987
986
983
985
984
988
988
988
989
988
986
984
984
985
983
984
984
987
987
989
986
989
986
985
979
981
979
979
980
983
982
981
982
981
978
979
978
978
979
978
979
979
982
983
983
982
982
980
978
980
976
978
979
978
980
981
982
980
979
975
972
974
971
972
974
975
976
976
978
976
977
975
974
972
972
972
972
975
976
976
979
978
978
976
975
975
972
971
970
973
973
975
975
977
979
976
974
974
975
976
979
984
986
992
994
998
999
1002
998
1002
1004
1007
1007
1009
1004
1004
1006
1003
999
996
995
993
988
986
984
983
983
986
983
979
975
973
970
968
968
966
966
966
966
968
970
970
969
970
972
970
968
968
969
970
973
976
976
978
977
976
976
975
976
978
980
980
981
986
992
1004
1021
1042
1070
1101
1136
1180
1227
1266
1293
1299
1272
1219
1144
1049
946
851
785
753
760
793
837
884
921
950
970
983
988
988
985
983
982
981
984
988
991
994
994
994
994
995
994
997
997
1000
1001
1003
1005
1006
1005
1007
1006
1006
1009
1009
1012
1015
1019
1019
1025
1028
1028
1027
1025
1025
1023
1025
1028
1035
1039
1043
1045
1049
1051
1053
1054
1056
1061
1059
1063
1066
1071
1073
1075
1076
1077
1074
1075
1073
1072
1072
1073
1073
1072
1073
1074
1072
1071
1069
1065
1065
1062
1061
1061
1060
1058
1056
1051
1046
1041
1032
1027
1023
1019
1016
1013
1010
1006
1005
1001
1001
998
992
989
986
986
984
985
986
988
989
989
990
988
988
987
988
985
985
988
991
992
990
992
991
992
994
993
992
991
993
993
995
992
994
995
997
997
996
996
995
994
990
992
991
993
995
998
999
996
992
988
987
986
984
983
986
987
990
988
986
987
984
982
981
980
978
980
977
982
981
980
980
978
978
975
974
974
974
974
975
975
975
976
978
974
971
971
972
969
971
970
971
972
973
973
974
974
973
971
970
971
968
968
973
971
975
976
979
978
976
974
971
970
969
971
973
974
976
976
975
976
975
974
971
973
973
977
978
981
984
984
990
991
990
990
991
990
993
997
1000
1003
1006
1004
1008
1006
1003
999
997
993
995
994
992
993
989
984
986
984
981
978
975
972
971
967
965
964
964
966
967
963
965
965
964
964
961
963
963
961
965
967
966
967
969
970
969
966
966
966
969
971
974
974
978
977
978
981
984
994
1010
1034
1064
1101
1143
1188
1229
1264
1287
1292
1269
1220
1148
1059
963
871
795
753
748
769
811
856
896
928
949
968
978
986
985
984
986
987
986
985
986
987
988
992
996
997
998
1001
1002
1003
1004
1002
1003
1004
1004
1005
1006
1007
1010
1012
1014
1013
1014
1014
1012
1016
1016
1019
1023
1027
1028
1031
1033
1035
1036
1037
1038
1040
1041
1046
1052
1055
1057
1061
1066
1069
1071
1073
1074
1075
1078
1081
1085
1087
1090
1090
1092
1092
1092
1091
1090
1090
1090
1089
1091
1092
1093
1092
1090
1085
1082
1082
1079
1075
1067
1064
1057
1051
1050
1045
1042
1035
1031
1027
1021
1016
1011
1008
1006
1003
1003
1000
999
1000
995
992
991
987
985
986
988
991
991
992
992
992
992
989
990
990
988
990
990
994
993
996
995
992
995
992
994
992
991
992
993
993
992
993
995
998
994
993
993
992
994
993
991
991
991
994
994
996
994
993
990
990
987
988
989
992
992
994
994
993
991
989
986
987
985
986
987
987
988
990
988
989
984
984
983
984
984
985
987
988
990
991
991
991
989
988
986
985
986
987
989
991
993
994
993
996
996
997
998
999
1001
1003
1003
1006
1011
1011
1015
1014
1012
1012
1010
1010
1010
1008
1006
1007
1008
1006
1005
1000
993
990
987
985
984
983
986
982
982
976
977
975
972
970
971
973
972
973
975
976
978
981
978
982
980
979
979
980
979
981
982
983
985
988
988
989
989
989
988
990
992
1000
1011
1024
1045
1069
1102
1138
1182
1226
1268
1299
1312
1303
1263
1194
1104
1004
903
820
772
765
785
826
871
915
952
977
997
1004
1008
1010
1006
1002
1000
997
1001
1004
1006
1009
1010
1011
1014
1013
1012
1013
1009
1012
1012
1015
1016
1019
1024
1025
1026
1024
1024
1022
1021
1022
1021
1026
1028
1034
1038
1039
1038
1041
1040
1041
1044
1047
1051
1055
1056
1059
1063
1064
1069
1070
1073
1075
1079
1081
1084
1085
1089
1094
1094
1100
1101
1103
1105
1105
1104
1105
1106
1106
1108
1106
1108
1108
1107
1108
1105
1104
1102
1097
1093
1090
1088
1086
1084
1080
1076
1072
1067
1061
1054
1047
1041
1035
1031
1028
1025
1020
1019
1018
1013
1012
1010
1007
1005
1004
1002
999
1000
1000
1000
1000
999
998
995
996
995
995
996
995
997
998
999
1000
998
998
999
998
996
1000
1000
1000
1007
1004
1005
1008
1007
1006
1004
1006
1006
1005
1005
1007
1007
1008
1007
1007
1008
1007
1006
1005
1003
1004
1002
1004
1006
1006
1008
1008
1006
1004
1001
1000
999
996
997
998
998
998
997
998
997
995
994
992
991
992
992
993
994
993
993
991
991
988
986
988
986
987
986
990
989
991
991
991
991
996
994
997
997
998
1002
1004
1005
1009
1011
1010
1010
1009
1007
1012
1011
1008
1009
1004
1006
1008
1008
1006
1005
1001
1000
996
992
990
991
991
992
992
988
987
983
981
979
979
976
979
979
982
986
990
995
997
999
1000
999
1001
1003
1004
1012
1018
1024
1030
1035
1043
1045
1050
1055
1061
1069
1080
1088
1096
1102
1110
1120
1134
1156
1184
1215
1253
1294
1333
1367
1387
1386
1360
1311
1235
1144
1044
949
878
835
829
847
875
911
944
966
980
984
983
981
974
972
970
969
974
975
977
979
978
977
977
976
977
977
977
979
983
985
987
988
985
985
982
982
980
977
979
979
980
980
983
986
986
985
984
982
984
980
980
983
984
987
989
992
991
986
986
985
988
987
991
992
993
995
997
998
997
996
996
997
996
996
998
1000
1001
1004
1004
1005
1005
1006
1007
1008
1011
1010
1011
1014
1013
1016
1016
1016
1018
1014
1011
1009
1002
1001
997
997
997
999
998
999
998
996
994
991
988
986
984
985
988
988
991
989
991
987
985
983
980
979
980
981
985
986
986
985
984
983
980
980
982
980
985
984
985
987
988
989
988
988
987
986
986
987
989
989
990
992
991
993
992
990
990
990
988
985
987
988
989
992
994
995
993
992
991
990
990
986
987
989
991
992
991
992
992
992
987
988
987
987
985
988
987
989
986
986
985
984
983
983
982
978
978
978
979
980
983
982
982
981
980
979
977
976
976
977
976
978
979
981
980
977
979
978
977
978
980
983
987
989
994
996
997
998
1000
999
1001
1003
1003
1007
1008
1007
1011
1008
1009
1009
1007
1006
1002
1000
996
991
991
988
989
988
988
987
986
985
982
978
976
974
972
973
975
979
981
983
982
984
988
987
989
993
998
999
1004
1007
1013
1016
1021
1023
1028
1031
1038
1045
1054
1064
1075
1083
1089
1092
1097
1101
1111
1123
1144
1174
1210
1252
1297
1336
1367
1377
1376
1349
1301
1227
1136
1034
932
854
812
807
828
866
905
937
962
973
977
978
973
969
965
963
966
968
971
969
970
971
970
972
972
973
975
976
974
977
976
975
974
972
972
976
975
976
976
975
975
978
976
972
974
971
972
974
975
977
978
980
979
977
976
