957
958
957
956
955
954
955
956
956
955
955
956
955
956
953
956
958
956
956
955
955
951
954
954
954
955
957
958
955
956
954
949
950
950
949
951
954
956
957
959
959
958
957
954
954
953
954
953
952
955
960
957
960
959
959
959
960
963
964
968
970
972
976
979
980
980
981
982
983
984
982
983
982
981
980
982
979
979
976
973
969
966
963
962
966
963
961
961
957
955
951
950
951
948
952
953
954
958
961
964
967
968
969
970
972
973
979
985
990
997
1004
1009
1015
1022
1027
1035
1042
1053
1060
1070
1074
1078
1085
1090
1104
1118
1141
1175
1207
1241
1276
1308
1327
1336
1325
1296
1246
1179
1100
1012
931
868
833
823
838
861
889
919
941
955
961
963
958
955
951
947
946
949
951
954
954
955
954
950
951
949
950
949
953
955
957
957
956
958
956
954
953
954
954
956
956
961
960
958
958
956
954
955
956
954
956
957
959
961
962
960
959
959
961
960
960
958
959
961
961
961
963
967
968
969
969
969
971
970
970
971
971
973
975
980
979
978
980
978
980
978
983
985
989
990
992
992
991
988
984
981
977
976
975
975
973
972
972
970
967
966
962
960
960
960
960
959
958
961
958
959
959
959
955
955
953
955
955
955
956
957
959
958
958
958
957
951
951
950
953
954
956
959
960
962
962
962
958
958
960
956
959
960
961
962
961
961
961
960
958
955
956
957
958
956
958
955
956
959
958
958
958
956
954
952
951
954
955
957
958
959
959
958
956
953
950
948
950
952
953
955
955
956
957
955
953
952
951
950
951
952
952
953
953
953
951
951
953
951
951
950
950
950
949
952
955
956
955
955
953
953
951
951
950
950
952
951
954
957
957
956
956
953
952
952
951
953
955
958
963
967
966
965
967
966
970
973
977
980
981
981
984
983
984
982
980
977
977
975
973
972
970
968
967
965
964
962
960
953
953
950
949
950
949
955
956
958
958
958
958
959
957
958
962
965
969
973
979
983
987
988
991
994
1000
1006
1013
1023
1032
1046
1054
1062
1070
1074
1080
1088
1101
1117
1143
1171
1204
1242
1277
1310
1337
1350
1346
1319
1274
1207
1125
1035
949
882
841
824
833
854
880
903
924
938
944
950
954
951
952
949
947
950
948
946
947
948
945
947
949
952
952
954
953
953
951
948
948
947
949
950
951
954
955
954
955
956
955
953
956
955
955
955
958
956
955
954
957
957
954
955
956
960
961
962
962
962
964
964
965
967
967
965
965
966
967
971
973
975
974
978
979
978
978
978
974
974
975
975
977
979
982
983
984
985
984
983
983
980
978
983
984
985
986
985
985
982
977
975
970
968
967
971
969
969
971
969
965
966
963
961
957
960
961
962
961
962
962
962
962
960
959
959
960
958
959
958
959
960
959
960
961
963
962
962
959
960
958
956
959
961
964
964
963
963
963
963
962
959
958
960
961
960
965
965
964
965
963
960
960
958
961
963
964
964
964
963
964
962
961
959
958
957
959
959
960
961
961
961
958
958
954
954
956
956
955
955
956
956
959
960
961
960
957
957
955
954
953
955
955
956
957
955
954
954
953
953
951
949
951
952
952
954
953
956
954
955
952
954
953
953
952
954
955
956
958
955
956
956
954
953
954
952
951
952
952
952
955
957
960
961
962
965
965
967
965
968
969
972
976
981
983
982
984
984
982
979
979
980
982
980
981
977
976
973
969
965
960
963
962
962
960
959
960
957
955
953
953
953
954
955
959
962
963
967
969
969
973
976
979
983
985
989
992
1000
1007
1012
1019
1028
1037
1046
1056
1062
1068
1074
1076
1088
1101
1121
1149
1182
1218
1257
1293
1318
1336
1338
1320
1285
1229
1157
1076
988
907
849
818
815
839
869
905
933
955
966
970
967
960
955
951
950
950
952
949
953
956
955
958
958
958
955
954
952
955
954
955
956
955
959
960
960
960
960
958
957
955
955
956
956
956
957
959
960
964
960
961
960
959
958
954
956
959
961
962
965
967
968
967
966
967
967
967
969
973
974
978
978
978
980
980
978
976
976
979
983
984
984
985
984
984
987
986
988
988
990
990
989
989
989
989
989
987
987
984
980
980
977
975
972
969
969
967
967
966
964
961
960
957
955
953
953
955
954
957
959
961
959
959
956
954
953
951
953
954
955
957
957
958
957
956
954
952
951
949
951
953
955
959
961
959
957
957
954
952
953
955
958
959
958
960
961
961
959
958
957
954
956
957
959
960
957
961
961
960
959
959
958
957
958
954
955
957
958
959
957
960
955
954
954
953
950
949
949
949
950
951
953
953
951
952
951
948
946
944
946
947
949
950
951
952
950
948
947
944
944
944
945
947
948
949
948
947
948
946
943
943
946
946
946
948
948
950
948
950
948
947
946
946
945
946
946
947
949
950
947
951
949
950
949
944
946
944
942
950
950
952
952
953
955
951
951
952
953
955
957
960
962
967
969
972
973
973
973
974
974
974
975
975
977
976
973
975
971
966
963
960
959
958
956
957
956
956
953
951
948
946
946
944
945
946
948
951
951
953
958
959
961
965
967
967
971
974
978
983
988
997
1001
1009
1015
1025
1033
1040
1046
1054
1062
1069
1075
1083
1097
1115
1142
1176
1213
1245
1281
1309
1324
1319
1297
1253
1189
1107
1016
928
858
814
803
821
851
889
920
942
956
959
957
955
947
943
941
940
942
944
943
947
946
947
950
950
949
946
946
943
945
946
950
952
954
954
954
951
950
949
946
948
949
951
952
953
958
957
957
957
953
952
952
952
952
957
956
959
957
957
958
959
961
963
962
962
965
966
967
972
972
975
971
973
975
975
974
975
974
977
977
980
981
982
987
983
982
980
978
979
981
983
983
983
984
981
979
975
972
968
966
966
962
962
964
962
960
954
956
955
954
953
954
950
952
953
950
952
953
954
954
954
953
952
949
948
948
950
952
952
955
956
955
954
955
953
951
950
953
952
954
957
959
959
959
955
953
952
951
953
952
952
953
959
961
958
958
955
956
953
955
954
956
957
956
957
957
955
957
955
953
954
954
954
953
954
951
954
952
954
951
952
951
950
950
950
950
951
948
949
949
949
954
952
951
949
944
947
949
948
947
952
953
951
951
949
948
947
946
946
946
948
948
948
950
950
952
948
949
948
948
947
948
950
950
950
949
950
949
947
945
947
948
946
946
949
947
946
949
950
948
948
950
949
949
946
948
948
946
949
951
952
953
953
950
948
948
946
951
951
955
957
960
962
965
963
964
965
967
968
972
975
978
979
980
982
983
979
978
975
974
973
974
970
969
967
965
963
961
960
959
956
954
952
948
948
947
947
950
951
952
955
955
954
954
957
957
962
966
969
974
976
982
985
987
988
993
1001
1008
1016
1028
1038
1053
1060
1064
1068
1070
1076
1081
1095
1118
1146
1180
1221
1259
1294
1314
1316
1297
1257
1194
1115
1024
931
857
809
798
816
849
889
921
947
960
964
961
955
947
945
946
947
951
952
952
950
952
950
950
951
954
956
959
959
960
957
957
954
953
954
956
957
960
960
960
960
959
959
958
959
958
959
960
963
962
962
961
962
962
964
965
965
964
963
964
964
967
967
973
976
976
978
978
978
979
978
979
981
982
984
987
989
988
987
985
985
985
984
983
988
991
994
992
993
993
988
986
987
983
983
980
982
981
980
976
974
972
969
969
963
964
963
962
961
960
961
960
962
965
961
962
959
960
958
957
958
956
958
959
962
963
961
962
960
960
957
958
959
963
958
961
964
965
964
962
962
959
958
957
959
962
963
964
966
965
965
964
961
961
962
962
965
965
966
965
964
961
962
962
961
962
961
961
961
963
961
962
963
960
961
960
958
959
955
957
958
958
956
959
958
959
960
957
957
955
953
951
952
954
958
960
959
961
958
955
953
951
950
948
954
955
957
958
958
957
954
954
951
952
952
954
956
958
958
962
957
956
954
954
953
951
953
955
957
957
956
958
956
957
958
957
955
954
954
953
953
953
954
955
955
958
954
955
954
952
951
952
954
952
956
957
959
957
956
957
956
955
957
957
961
963
970
972
973
977
975
976
975
976
978
979
981
983
983
983
982
981
980
977
974
971
969
965
964
962
960
961
959
958
956
954
951
947
947
944
944
946
947
948
950
951
951
947
946
947
945
946
945
946
946
947
949
950
950
949
948
945
946
947
950
952
953
959
957
959
964
970
980
1000
1026
1062
1107
1156
1203
1247
1275
1282
1261
1211
1137
1046
950
859
786
744
745
771
816
865
906
937
957
970
972
971
967
963
963
965
968
973
975
972
973
971
968
968
972
973
979
981
983
982
983
981
981
981
981
984
986
990
991
994
996
997
997
998
1000
999
999
1000
1002
1006
1009
1012
1011
1013
1015
1018
1019
1021
1022
1026
1030
1033
1036
1038
1042
1047
1050
1050
1052
1055
1055
1059
1061
1063
1063
1067
1068
1069
1071
1070
1070
1070
1069
1068
1068
1068
1069
1070
1070
1067
1063
1059
1057
1051
1045
1042
1039
1033
1032
1028
1022
1016
1009
1005
1000
993
988
984
982
979
978
975
974
972
971
966
964
964
962
963
964
963
964
963
966
966
962
962
961
962
960
960
963
966
963
965
966
966
968
966
966
966
965
962
963
965
965
968
967
969
967
969
966
966
963
962
963
963
965
966
967
967
965
962
961
957
956
956
957
961
962
962
962
962
959
956
955
955
955
953
954
955
955
956
954
957
953
953
952
952
952
948
951
951
950
951
952
951
950
951
948
948
948
948
948
947
948
947
946
945
949
948
947
949
949
947
948
946
946
950
953
953
950
950
949
945
944
947
945
946
948
951
952
951
949
949
948
945
945
943
945
949
952
953
953
957
956
955
957
960
963
964
970
972
974
975
976
977
977
973
975
974
974
971
970
971
967
966
963
961
958
955
951
950
947
943
942
940
940
940
941
945
946
945
944
942
940
935
939
940
943
945
946
946
945
945
942
943
943
941
942
947
949
951
950
950
951
948
948
948
951
955
965
979
998
1027
1060
1096
1136
1179
1220
1253
1272
1268
1239
1192
1121
1045
956
869
795
749
738
757
794
836
878
913
938
956
965
970
968
965
964
962
962
963
966
966
970
972
975
974
974
974
973
973
973
972
976
978
979
983
983
987
986
985
982
983
984
984
988
992
997
999
1000
1001
1002
1002
1001
1005
1006
1007
1011
1014
1018
1021
1022
1023
1022
1027
1025
1028
1033
1035
1039
1042
1045
1048
1050
1052
1053
1055
1054
1055
1056
1054
1056
1057
1058
1059
1064
1063
1064
1061
1060
1056
1055
1054
1052
1051
1050
1047
1045
1041
1035
1031
1026
1016
1011
1007
1003
999
997
996
993
990
985
981
977
971
968
968
967
966
964
967
964
961
963
957
955
956
956
955
958
956
957
960
957
956
956
957
958
956
958
959
961
960
962
962
963
964
967
966
966
962
960
957
959
964
965
963
965
968
967
965
962
958
960
958
961
962
963
962
964
963
963
956
956
955
954
952
955
957
956
957
957
956
956
954
952
953
952
952
952
952
952
953
953
952
953
953
951
951
951
949
950
949
946
949
949
953
950
951
950
949
947
945
945
946
948
950
951
951
949
946
944
943
945
942
945
946
948
947
949
948
947
947
946
944
945
945
945
948
947
948
948
949
947
945
946
945
944
947
950
953
955
961
964
966
968
968
971
972
973
972
975
976
977
978
978
976
978
974
973
969
966
962
961
960
957
960
960
959
955
951
947
944
942
942
944
947
949
954
955
955
955
958
959
962
964
968
971
975
980
984
989
994
1001
1006
1010
1016
1022
1029
1040
1051
1059
1065
1071
1075
1081
1089
1102
1123
1151
1186
1222
1264
1302
1330
1342
1338
1310
1259
1190
1106
1014
927
855
813
803
819
849
883
917
940
955
959
959
952
948
948
945
947
948
951
948
948
950
951
952
949
951
951
953
954
955
954
955
954
955
954
954
953
953
955
954
957
956
958
957
957
956
955
954
954
953
952
953
954
958
958
957
959
957
957
957
958
961
963
966
967
970
968
971
968
969
970
970
970
972
971
976
975
976
979
977
976
980
978
977
978
979
979
980
981
983
984
982
981
979
979
978
974
975
973
974
972
972
973
970
968
969
963
962
961
958
960
959
960
961
960
961
957
954
952
951
948
950
952
952
954
956
954
952
952
949
950
950
950
950
953
955
956
956
958
957
955
954
952
951
953
954
958
958
959
959
960
958
956
958
956
957
957
957
958
960
960
960
960
961
957
960
957
959
957
957
956
959
958
961
960
961
960
960
958
957
956
955
956
958
957
957
960
960
958
954
953
954
954
953
955
955
957
959
958
958
955
952
953
951
953
956
956
955
957
957
955
953
955
953
953
953
950
953
953
953
956
956
957
955
957
956
951
951
950
950
953
954
955
954
958
955
955
952
949
951
948
948
952
954
956
958
958
957
957
956
954
952
952
956
956
959
962
964
966
968
968
969
971
974
974
978
983
987
990
991
992
988
990
988
984
985
983
981
977
975
973
968
967
967
967
963
962
960
956
952
953
951
951
953
952
956
959
961
960
961
964
965
971
975
980
984
989
995
998
999
1004
1010
1020
1030
1042
1053
1063
1073
1078
1081
1087
1091
1102
1120
1146
1179
1218
1259
1298
1325
1339
1327
1292
1239
1161
1065
968
883
826
804
810
836
875
908
938
958
965
965
959
958
954
953
954
955
956
955
955
955
955
954
955
956
955
958
959
960
959
960
958
958
957
959
955
957
958
959
959
960
961
962
962
961
959
958
957
957
956
960
963
962
966
965
966
966
964
963
964
965
966
968
971
973
973
973
973
975
973
973
975
976
976
979
981
981
983
984
984
985
987
986
984
983
985
988
988
990
993
986
989
984
982
979
975
973
972
970
973
972
970
969
969
967
964
961
958
958
960
962
961
964
963
960
960
957
955
956
956
955
956
957
959
960
959
956
956
955
955
955
957
957
956
960
959
961
960
960
961
959
958
957
957
957
957
957
959
964
963
962
962
959
962
961
959
958
959
957
960
961
964
963
962
959
960
959
956
955
959
959
961
961
960
960
955
955
955
955
953
953
954
957
956
957
956
957
955
952
953
953
954
955
955
956
955
955
955
953
954
951
953
955
954
954
954
953
955
954
955
958
956
957
955
955
954
953
953
951
953
954
955
957
958
957
955
954
953
953
954
958
954
959
961
959
958
955
954
954
954
955
954
956
955
956
956
958
956
957
960
963
966
968
969
973
977
976
978
983
984
983
983
983
982
981
980
980
981
981
980
976
972
967
963
963
962
959
958
957
957
956
955
954
953
951
951
950
951
956
960
964
967
969
974
975
978
980
982
986
990
996
1001
1008
1012
1019
1029
1040
1050
1056
1064
1071
1076
1080
1086
1097
1113
1139
1172
1211
1254
1297
1331
1354
1355
1334
1281
1200
1097
994
901
837
807
810
833
864
897
930
949
960
968
967
963
958
956
954
955
955
955
958
960
961
962
961
962
963
962
962
962
961
961
959
960
960
962
965
967
966
967
965
965
964
960
962
962
965
966
967
967
967
968
965
962
963
960
962
965
965
971
972
970
971
972
971
969
970
971
971
975
979
980
982
981
982
984
983
983
981
983
980
982
983
985
988
990
990
992
991
991
987
985
984
982
984
984
983
981
977
975
975
970
969
965
965
964
966
968
968
968
966
965
962
960
958
957
957
959
962
961
959
958
962
960
961
961
961
960
960
962
962
963
965
965
965
966
966
964
964
960
959
963
963
966
967
969
967
966
966
965
965
963
962
961
963
965
967
969
968
968
965
962
961
961
960
962
965
963
965
964
963
965
960
960
959
960
960
961
963
964
963
962
962
963
963
958
959
959
957
958
960
959
960
960
960
961
959
958
958
956
952
954
955
958
960
960
962
962
961
958
955
955
954
951
954
956
963
961
962
963
960
958
955
955
955
956
959
960
963
962
962
962
960
957
958
957
958
956
959
960
960
962
961
959
958
959
958
958
957
959
959
960
960
959
960
962
961
961
961
963
960
961
964
969
970
976
977
978
981
980
982
983
983
987
989
992
993
992
992
991
988
985
984
978
975
972
973
973
972
973
971
969
965
960
956
953
954
956
957
958
964
965
966
967
967
970
971
973
973
976
980
985
990
995
1001
1005
1010
1014
1020
1026
1036
1046
1056
1065
1075
1081
1085
1090
1094
1104
1114
1137
1163
1194
1231
1266
1300
1323
1331
1320
1292
1239
1172
1088
998
915
854
822
823
843
876
907
935
953
963
967
964
962
961
958
957
958
960
960
959
960
960
960
960
961
959
963
960
964
963
966
964
965
963
963
962
962
963
963
965
966
965
968
968
965
962
963
961
962
965
966
969
969
970
970
967
969
967
967
970
970
975
976
979
979
981
980
980
980
981
979
978
980
982
982
982
984
988
987
986
985
986
986
986
986
988
989
992
992
990
992
990
987
984
981
979
979
978
977
976
974
974
973
969
968
965
965
963
962
965
964
966
965
964
964
962
962
959
960
