990
991
993
993
999
1006
1021
1041
1070
1104
1148
1189
1243
1290
1321
1332
1315
1266
1193
1100
994
895
815
766
761
784
826
872
912
951
975
993
1003
1007
1009
1008
1005
1003
1003
1002
1003
1004
1007
1011
1012
1014
1015
1017
1019
1016
1016
1017
1018
1018
1019
1020
1025
1028
1028
1030
1030
1031
1032
1031
1034
1033
1033
1035
1035
1038
1041
1042
1045
1048
1049
1051
1054
1054
1057
1060
1063
1068
1071
1072
1075
1077
1079
1082
1083
1083
1087
1088
1091
1092
1096
1099
1099
1096
1097
1096
1093
1094
1094
1095
1097
1098
1097
1097
1095
1089
1088
1084
1080
1081
1077
1077
1075
1070
1067
1062
1059
1053
1048
1041
1037
1034
1032
1029
1026
1023
1023
1019
1014
1010
1006
1004
1001
1003
1003
1001
1002
1003
1000
999
999
1002
1002
1001
1000
998
1000
999
1002
1001
1004
1007
1005
1005
1005
1005
1004
1003
1003
1005
1006
1007
1009
1010
1011
1010
1007
1008
1006
1006
1004
1005
1009
1011
1011
1011
1010
1007
1005
1002
998
999
998
999
1000
1000
1002
1002
1000
997
996
995
994
995
994
995
995
997
997
999
997
994
992
989
989
989
990
990
991
992
992
992
991
991
990
989
989
988
988
986
989
990
992
988
991
989
988
988
986
985
986
987
987
989
989
989
991
989
987
987
985
986
989
993
994
994
996
999
1002
1003
1005
1006
1007
1010
1011
1015
1014
1013
1017
1016
1014
1014
1013
1011
1007
1005
1000
997
993
996
996
997
996
995
991
987
982
979
980
980
984
984
989
989
993
993
993
996
998
999
1002
1008
1011
1020
1023
1027
1033
1037
1041
1046
1056
1065
1075
1089
1097
1105
1110
1115
1119
1131
1143
1169
1203
1244
1283
1323
1352
1367
1366
1340
1295
1227
1145
1052
958
883
839
830
852
893
935
969
991
1003
1003
995
985
978
976
976
978
982
987
987
985
986
984
984
984
985
984
984
985
988
989
989
990
989
989
987
986
986
986
986
986
988
989
991
989
988
989
989
989
986
986
987
988
992
995
996
995
996
994
993
992
993
995
998
1000
1003
1006
1004
1005
1004
1003
1002
1003
1003
1001
1004
1005
1007
1009
1012
1012
1014
1011
1007
1011
1010
1010
1013
1012
1013
1013
1011
1009
1005
1004
1001
1000
997
995
996
994
992
994
993
993
992
990
988
985
984
983
983
985
986
987
988
989
987
986
983
982
979
979
984
986
988
990
990
988
988
987
988
987
988
987
989
991
991
992
990
990
989
987
987
988
988
987
986
988
987
991
988
989
988
987
987
987
989
988
986
988
990
990
990
992
990
988
986
983
982
982
981
982
983
986
984
986
981
980
978
980
980
979
979
979
980
980
980
981
980
978
978
978
977
978
980
979
979
983
982
984
979
977
980
981
980
978
979
981
980
980
983
981
982
983
982
982
980
979
980
983
983
985
985
987
985
984
984
981
982
982
985
988
990
994
998
1000
999
1000
1000
1001
999
1002
1006
1009
1010
1013
1011
1009
1008
1005
1003
1001
1003
997
996
995
992
990
990
989
986
985
980
976
975
973
972
974
978
981
981
985
987
986
986
989
990
992
994
1000
1002
1011
1016
1021
1026
1031
1034
1042
1051
1056
1070
1082
1089
1099
1101
1105
1108
1115
1128
1148
1174
1206
1247
1284
1322
1344
1352
1342
1312
1266
1197
1117
1024
931
862
823
820
846
885
924
958
981
991
989
987
975
971
967
969
970
973
977
978
979
978
977
975
975
973
976
978
979
982
982
983
982
980
978
975
976
978
980
983
985
983
984
982
981
980
977
976
979
980
980
982
983
984
985
982
980
981
980
979
984
985
986
989
992
993
993
992
991
991
991
991
991
992
993
996
995
996
998
999
1000
999
1000
1000
1000
1001
1005
1005
1008
1008
1009
1009
1006
1006
1003
1001
997
1000
998
999
997
994
994
992
988
985
985
982
981
985
983
984
983
984
983
982
981
979
979
977
977
982
985
984
983
981
982
979
979
978
977
979
979
982
983
984
985
985
985
986
987
983
983
983
982
983
983
986
987
988
989
989
987
987
984
981
979
978
980
981
983
986
987
986
986
984
981
979
977
979
982
984
986
987
986
984
983
980
979
980
979
979
980
980
982
981
982
979
980
979
980
976
977
976
979
978
980
980
980
980
978
978
978
977
977
977
976
981
977
978
980
981
981
979
979
977
975
976
978
980
983
983
982
982
979
977
976
973
975
977
979
982
983
982
981
981
980
976
976
977
977
980
980
983
987
990
989
993
994
995
996
996
997
999
1002
1005
1008
1007
1007
1006
1005
1003
1003
1000
999
1001
999
997
996
991
990
987
985
984
982
982
975
976
974
973
971
972
973
973
977
972
974
974
975
977
980
984
984
988
995
997
999
1004
1004
1005
1009
1017
1023
1030
1039
1048
1059
1069
1076
1082
1086
1090
1092
1098
1107
1122
1142
1170
1205
1237
1270
1303
1324
1333
1321
1292
1241
1172
1091
1005
920
853
820
821
845
880
918
950
971
981
985
981
972
967
964
963
962
965
965
971
971
971
972
975
976
972
971
973
972
970
969
969
970
969
974
976
977
975
976
974
971
971
970
970
972
973
976
977
976
977
977
976
972
973
972
974
976
979
979
981
982
982
979
981
979
979
980
981
983
984
986
987
988
986
987
983
982
984
985
985
987
987
988
987
991
992
990
989
989
994
993
994
997
998
999
1000
996
995
995
993
988
989
986
985
986
984
984
983
983
980
978
974
974
972
970
970
970
972
975
976
977
977
973
972
970
970
969
970
973
973
975
976
975
974
971
970
972
973
975
977
980
979
977
977
976
975
975
976
975
976
975
977
976
974
976
977
978
977
977
976
978
976
976
975
976
976
978
978
980
980
978
978
977
975
972
974
977
976
976
976
978
976
974
972
970
971
972
973
974
974
977
976
977
975
974
973
971
973
972
973
972
974
975
977
977
976
975
975
975
974
974
974
975
977
977
976
975
976
976
976
975
974
973
972
972
972
975
976
976
977
978
976
974
976
972
971
975
975
979
983
984
983
982
985
984
987
985
988
992
994
998
1000
1004
1005
1004
1002
999
1000
998
1000
1000
1001
999
998
995
991
984
985
981
980
979
975
973
972
970
968
970
971
969
970
970
967
965
966
970
967
970
971
973
971
971
968
965
966
964
966
967
972
972
974
972
974
974
974
975
978
988
1001
1023
1051
1086
1127
1171
1219
1260
1293
1303
1288
1242
1171
1082
985
888
813
775
775
800
838
877
914
942
963
979
988
991
994
993
993
993
991
989
988
989
991
994
995
999
1003
1002
1003
1001
1002
1001
1003
1003
1007
1008
1008
1010
1012
1011
1014
1013
1014
1014
1015
1016
1019
1024
1025
1025
1023
1027
1030
1031
1031
1033
1037
1039
1040
1043
1045
1051
1053
1053
1057
1060
1061
1065
1065
1068
1070
1071
1074
1077
1081
1084
1081
1082
1083
1080
1077
1077
1078
1079
1080
1083
1086
1085
1084
1083
1080
1076
1073
1068
1063
1064
1060
1060
1056
1050
1044
1039
1032
1028
1021
1019
1014
1012
1009
1007
1007
1004
1002
998
994
993
990
991
990
992
991
993
992
988
991
990
991
991
990
989
991
989
991
993
994
993
996
994
993
992
990
990
993
993
995
993
995
996
999
998
996
993
992
991
992
993
993
995
996
995
993
992
990
987
986
988
985
986
988
988
988
990
988
987
985
984
982
983
983
983
987
986
989
990
991
990
990
989
987
985
983
982
984
983
985
986
986
988
989
986
985
982
984
985
988
993
993
991
984
983
980
980
981
983
984
985
986
988
987
987
989
987
988
989
988
989
989
993
998
1000
1000
1003
1003
1003
1004
1007
1008
1011
1014
1016
1018
1019
1017
1015
1015
1013
1010
1010
1009
1004
1002
998
996
996
998
995
996
992
988
987
983
983
982
987
989
991
992
996
994
995
993
991
989
993
993
994
997
999
1000
1004
1002
1002
1002
1002
1004
1005
1008
1010
1012
1014
1016
1025
1039
1059
1087
1120
1164
1209
1258
1301
1330
1335
1310
1254
1177
1074
964
864
795
768
780
821
873
924
967
998
1013
1018
1015
1010
1003
1000
999
1001
1003
1007
1009
1009
1011
1008
1005
999
998
998
1002
1008
1010
1012
1013
1013
1011
1011
1009
1010
1011
1015
1016
1019
1019
1020
1020
1020
1028
1031
1034
1034
1036
1036
1037
1041
1043
1048
1050
1053
1055
1056
1056
1056
1059
1059
1062
1067
1072
1077
1083
1086
1089
1091
1089
1085
1088
1090
1092
1095
1096
1096
1093
1091
1092
1089
1090
1087
1084
1082
1078
1077
1072
1066
1061
1056
1049
1044
1041
1034
1027
1022
1017
1015
1010
1008
1010
1008
1008
1005
1005
1002
998
993
990
989
989
989
989
994
994
994
992
989
991
991
994
995
995
994
995
994
992
991
992
994
997
998
998
999
1001
1001
1001
1002
1001
1005
1003
1003
1003
1000
998
997
997
996
996
998
997
998
1000
998
1000
993
990
990
990
995
996
995
995
993
995
992
991
988
987
989
989
991
992
993
992
993
989
986
987
986
984
985
986
986
990
989
987
986
986
986
985
985
984
984
985
985
986
987
988
986
987
984
983
982
981
980
983
985
988
987
988
988
985
984
986
987
991
993
994
996
999
1001
1004
1005
1005
1007
1006
1007
1006
1008
1008
1012
1011
1011
1012
1010
1006
1002
1001
998
992
992
991
991
993
994
992
987
985
980
976
973
975
976
979
984
985
988
991
992
992
990
990
994
997
1000
1007
1010
1016
1019
1025
1027
1033
1040
1047
1054
1061
1073
1081
1090
1096
1101
1106
1115
1125
1146
1172
1204
1242
1286
1327
1360
1380
1378
1355
1306
1236
1145
1041
940
861
820
819
839
878
916
950
971
982
984
984
976
974
969
970
972
975
976
976
978
977
975
975
973
975
978
979
980
980
981
982
980
981
980
980
976
979
979
981
982
983
982
982
982
983
981
980
982
980
979
979
984
986
986
987
988
984
987
985
985
985
987
989
994
996
997
998
998
999
998
998
998
1000
1002
1006
1007
1007
1003
1001
999
1001
999
1000
1001
1006
1010
1012
1014
1014
1013
1010
1008
1006
1004
1004
1002
1003
1001
1000
997
997
996
997
995
988
984
986
982
982
982
983
983
984
986
984
985
983
983
978
980
977
981
981
985
986
986
986
987
983
981
983
982
981
985
986
991
991
991
989
988
987
986
987
987
987
989
990
990
993
993
993
993
990
988
990
989
987
989
990
991
991
989
990
991
989
990
988
987
986
988
986
988
989
989
991
989
991
988
987
986
982
983
983
983
986
985
988
986
986
986
984
982
979
982
986
988
989
990
993
992
990
985
985
984
979
983
986
988
990
989
989
987
986
987
988
989
987
986
986
988
989
991
990
991
989
989
986
987
988
987
990
995
997
1000
1005
1006
1006
1008
1006
1006
1008
1010
1011
1010
1015
1014
1015
1016
1014
1011
1011
1003
999
994
994
994
996
998
997
996
990
984
980
974
974
975
979
982
987
988
989
989
987
989
990
994
998
1002
1005
1010
1015
1020
1022
1029
1032
1040
1045
1052
1059
1070
1081
1091
1096
1101
1104
1111
1115
1126
1142
1165
1189
1223
1258
1295
1332
1359
1371
1367
1342
1296
1234
1153
1064
972
898
852
838
849
878
910
943
966
980
982
983
983
978
976
978
979
980
982
980
981
980
982
980
981
984
984
984
985
987
986
985
984
982
983
984
983
984
986
987
986
986
987
986
983
983
985
985
986
984
983
986
988
987
990
987
992
991
989
989
987
991
994
997
1001
1001
1001
999
999
1000
1000
1001
1005
1010
1010
1012
1009
1011
1009
1009
1006
1007
1011
1011
1014
1017
1018
1019
1019
1020
1017
1015
1013
1009
1008
1007
1006
1005
1000
999
997
998
998
996
995
993
992
990
988
989
991
990
989
989
989
984
987
985
984
983
984
985
986
987
988
988
990
989
988
987
985
981
981
986
987
988
992
992
989
991
989
989
988
989
989
991
990
992
994
994
993
991
992
990
992
990
990
992
992
992
990
990
990
991
989
988
987
987
985
986
988
989
992
992
989
987
985
983
981
981
982
985
983
986
987
988
986
987
984
985
983
980
981
980
987
986
988
989
987
985
982
981
981
979
979
980
983
981
985
981
981
981
978
977
979
979
982
979
982
983
983
983
986
986
987
987
985
981
981
980
982
985
985
984
987
986
984
983
983
982
979
985
984
985
989
995
996
1000
999
1000
1002
999
1001
1007
1006
1011
1011
1014
1012
1008
1006
1003
1003
1000
1003
1000
997
998
995
995
993
992
989
986
984
980
978
978
976
977
977
977
981
982
980
982
984
985
986
990
994
995
999
1001
1005
1008
1012
1016
1019
1022
1029
1036
1045
1054
1066
1077
1086
1092
1095
1097
1102
1105
1115
1132
1154
1181
1214
1248
1285
1317
1341
1351
1346
1320
1278
1219
1145
1062
977
903
855
837
843
869
898
929
952
974
984
987
987
983
981
975
973
972
972
974
975
978
978
978
981
981
983
980
978
976
976
974
975
979
980
983
983
981
979
981
978
975
976
977
979
978
980
981
979
980
979
979
975
977
979
981
980
981
981
983
982
984
985
986
987
989
990
989
986
985
984
988
990
989
991
991
993
996
994
994
994
992
995
997
1001
1005
1005
1005
1004
1004
1007
1005
1007
1008
1009
1010
1011
1009
1005
999
999
997
994
992
994
992
992
991
990
987
986
984
982
983
983
982
983
982
981
982
981
982
981
981
979
979
979
979
982
981
981
982
984
983
986
986
986
986
985
984
983
982
984
986
987
987
988
990
988
987
985
986
986
988
989
990
989
991
990
988
988
986
986
983
985
986
987
988
989
988
987
987
985
983
982
983
983
986
987
988
986
986
986
985
984
981
982
982
982
982
982
983
979
980
979
980
980
979
979
976
977
976
976
977
981
983
983
981
978
975
976
975
973
975
979
981
982
980
980
977
976
976
975
975
977
979
979
980
981
979
979
978
978
976
978
975
977
979
978
976
975
976
975
977
978
979
979
980
980
982
987
989
991
993
997
996
998
1000
1002
1003
1004
1005
1005
1005
1004
1003
1002
1002
1000
997
993
992
990
989
988
985
989
988
986
983
978
974
971
967
968
969
969
972
976
977
975
974
973
972
970
975
975
975
977
978
978
978
977
978
978
977
977
977
978
979
981
984
984
983
988
988
994
1015
1039
1070
1108
1154
1201
1248
1285
1311
1314
1291
1238
1161
1069
966
868
795
757
757
785
832
880
921
948
967
978
987
989
989
990
990
990
992
993
994
995
994
995
995
996
998
999
1000
1004
1004
1005
1005
1004
1003
1004
1003
1007
1008
1012
1015
1016
1016
1016
1015
1014
1016
1017
1018
1020
1024
1024
1026
1028
1031
1035
1036
1036
1039
1040
1041
1045
1051
1053
1054
1057
1059
1062
1064
1067
1068
1070
1071
1074
1073
1076
1080
1084
1085
1088
1090
1088
1085
1085
1084
1083
1083
1084
1085
1086
1087
1087
1084
1077
1075
1070
1067
1063
1056
1056
1055
1051
1043
1039
1037
1030
1023
1019
1015
1011
1010
1007
1004
1003
1000
1000
996
992
987
984
986
985
985
987
986
986
987
985
985
983
982
982
983
984
980
983
983
987
987
986
989
988
987
987
988
986
988
987
986
989
990
990
993
992
990
988
986
986
986
988
989
992
992
992
990
990
987
985
984
984
985
986
985
985
985
985
985
979
980
978
978
979
979
979
981
982
981
982
980
980
977
977
977
977
979
977
977
976
980
979
979
978
976
975
977
975
972
975
978
978
979
982
979
978
977
976
973
972
973
975
975
980
980
980
979
977
976
976
975
974
975
979
978
979
981
981
980
981
980
982
984
987
991
994
995
997
1000
1000
1003
1003
1002
1002
1003
1003
1003
1004
1004
1005
1002
999
999
999
993
988
986
984
984
984
983
983
982
979
976
974
970
969
970
971
976
977
984
986
990
992
994
995
996
997
1001
1007
1014
1016
1025
1031
1037
1043
1050
1060
1069
1077
1085
1090
1092
1098
1106
1123
1143
1174
1205
1245
1282
1318
1352
1371
1373
1356
1317
1256
1170
1075
975
888
835
819
830
864
904
940
967
982
988
987
980
976
967
965
967
965
970
973
974
975
977
977
974
974
973
972
974
974
976
976
975
977
977
975
975
972
975
976
974
973
975
974
976
978
978
980
981
981
979
978
978
977
979
980
982
985
987
989
986
985
986
986
987
986
988
992
994
995
997
999
997
993
993
994
995
997
998
1001
1001
1003
1006
1006
1006
1006
1007
1008
1007
1007
1007
1005
1005
1003
1001
999
998
997
996
992
990
989
987
986
984
986
984
984
983
982
981
976
975
974
975
976
977
978
978
977
976
978
976
976
974
973
975
975
979
979
978
983
982
980
978
977
977
978
980
983
984
983
984
985
979
981
983
981
982
981
984
984
985
986
985
985
985
982
983
982
982
981
982
985
984
984
985
982
981
983
982
980
979
977
976
978
980
981
979
981
978
977
976
975
971
970
969
974
976
978
979
979
976
974
973
973
974
974
976
977
975
979
979
978
978
975
972
973
971
971
974
974
973
974
974
974
977
975
973
971
971
970
970
974
972
975
973
973
972
972
974
972
971
971
971
971
973
975
975
977
977
978
978
978
979
979
980
985
988
989
996
998
1001
1000
1000
999
998
995
995
999
1001
1003
1000
1000
995
992
989
981
978
975
978
980
980
981
978
977
970
966
966
964
963
966
966
968
973
974
976
979
979
981
982
987
990
993
995
999
1001
1009
1015
1021
1030
1037
1045
1053
1061
1070
1079
1084
1089
1096
1103
1116
1137
1164
1198
1237
1280
1321
1350
1369
1367
1343
1300
1237
1153
1056
957
874
823
807
824
858
903
939
966
979
983
978
970
964
959
958
960
962
964
968
970
970
970
967
967
968
968
967
968
971
969
972
972
971
972
972
972
970
970
967
969
970
971
972
973
974
974
972
968
966
964
968
966
969
969
972
976
976
977
976
975
973
976
976
977
982
982
986
988
989
990
988
989
990
989
991
993
994
995
