977
976
976
976
978
979
979
980
980
981
981
983
984
989
988
990
991
992
991
992
992
992
995
996
1001
1003
1007
1008
1009
1008
1009
1010
1010
1014
1014
1018
1022
1025
1027
1029
1031
1033
1035
1037
1036
1038
1042
1042
1045
1046
1049
1050
1049
1048
1046
1045
1047
1046
1043
1042
1045
1045
1045
1043
1042
1038
1039
1034
1032
1029
1025
1022
1023
1020
1016
1015
1010
1004
998
994
989
985
984
984
980
977
978
975
973
972
968
967
967
968
965
966
967
966
966
967
966
966
965
964
967
965
967
969
970
970
973
974
974
973
972
971
967
968
970
971
969
974
974
975
976
974
969
966
965
966
968
970
970
973
972
971
969
967
966
963
964
962
961
963
966
966
964
963
960
960
958
957
960
958
960
960
962
963
960
960
957
957
957
954
957
956
956
957
957
957
959
956
958
955
954
951
955
954
956
955
956
956
958
959
958
957
957
956
955
953
954
955
957
959
958
959
956
956
955
956
957
956
955
957
957
959
960
960
959
957
957
955
954
954
955
957
957
960
959
959
959
955
955
955
954
955
958
959
959
961
960
961
960
959
961
962
961
961
963
968
971
969
973
975
977
976
978
982
983
983
984
984
983
987
985
984
985
980
978
975
971
969
964
966
962
964
965
964
963
961
957
954
950
948
947
948
949
951
953
953
954
951
951
950
949
948
948
952
952
954
953
956
956
955
953
954
956
956
958
962
965
967
969
975
979
989
999
1021
1044
1073
1106
1138
1168
1192
1204
1203
1183
1146
1098
1039
973
911
859
819
804
810
835
867
900
928
949
958
964
967
970
970
968
969
972
974
974
976
977
979
977
976
974
980
984
986
988
989
988
988
986
988
988
988
989
992
996
999
1002
1003
1002
1002
1003
1000
999
1002
1006
1011
1012
1015
1016
1016
1018
1019
1017
1021
1024
1025
1025
1030
1034
1037
1038
1042
1044
1045
1046
1044
1049
1050
1051
1051
1053
1054
1054
1055
1056
1055
1052
1049
1049
1046
1046
1045
1049
1050
1049
1049
1048
1044
1039
1034
1030
1025
1025
1023
1021
1019
1016
1013
1008
1002
999
994
988
988
986
985
986
984
982
983
979
976
973
970
972
973
973
974
977
974
973
974
971
970
969
970
973
972
973
974
975
976
977
979
977
978
979
979
978
977
976
977
977
978
978
979
981
978
978
977
976
973
974
974
974
974
974
974
974
971
970
970
967
967
965
966
969
969
969
971
971
968
966
963
965
962
962
963
965
966
966
967
966
966
964
963
963
961
963
962
963
963
962
964
965
964
962
960
962
961
960
960
961
959
963
962
964
963
963
961
962
957
959
958
962
960
962
962
963
962
958
959
960
960
960
960
960
960
962
961
961
965
964
963
962
961
963
962
961
959
961
960
962
961
962
959
961
960
961
961
962
968
969
970
972
971
973
973
974
972
975
976
982
983
984
984
987
988
985
984
982
984
982
982
981
977
979
974
974
971
968
965
961
959
958
957
953
955
955
956
953
954
952
952
952
949
951
951
953
953
954
955
956
955
953
952
950
951
953
954
957
960
963
963
965
966
964
963
966
974
983
999
1016
1037
1067
1098
1133
1168
1191
1208
1208
1191
1155
1104
1041
972
910
854
818
805
812
835
867
892
920
942
956
966
971
974
973
969
972
969
969
968
970
970
969
971
976
977
978
979
978
976
976
978
978
980
981
983
984
988
990
991
990
990
992
989
992
996
997
1000
1004
1005
1007
1005
1008
1009
1008
1010
1011
1016
1019
1021
1024
1025
1026
1025
1027
1027
1030
1031
1036
1038
1041
1046
1049
1048
1050
1049
1049
1050
1049
1051
1050
1050
1055
1055
1055
1055
1055
1055
1052
1050
1047
1048
1045
1047
1047
1046
1042
1041
1034
1030
1023
1020
1018
1012
1007
1005
1004
1000
999
994
994
989
986
981
976
974
972
971
971
973
973
974
973
971
971
969
966
966
966
968
970
970
973
972
973
973
969
967
971
968
968
972
973
975
975
975
973
971
973
972
970
972
971
974
976
975
974
973
973
975
973
975
974
971
969
969
971
973
972
971
972
973
969
968
966
964
961
962
964
965
967
966
969
968
966
967
963
962
960
962
964
963
966
967
966
963
961
961
961
960
960
959
961
962
962
963
963
964
964
963
964
961
961
963
962
963
964
963
967
968
968
967
968
966
964
970
971
976
982
983
986
988
986
989
990
989
990
990
990
994
993
990
988
985
985
982
980
977
974
973
972
974
975
971
967
964
961
955
955
954
955
955
957
958
960
960
960
958
958
958
957
956
958
958
959
959
957
958
958
963
962
962
965
964
966
968
971
976
982
995
1012
1032
1058
1088
1122
1157
1191
1215
1227
1217
1183
1127
1058
976
897
834
797
793
811
843
877
913
941
960
973
979
979
976
973
972
973
973
975
977
981
984
985
984
985
985
985
985
984
987
988
988
992
993
995
999
997
995
995
998
997
1000
1003
1003
1006
1010
1011
1013
1013
1016
1013
1014
1015
1018
1020
1026
1032
1032
1037
1037
1038
1039
1040
1043
1044
1048
1051
1054
1058
1061
1062
1062
1062
1063
1065
1062
1062
1062
1065
1062
1062
1063
1063
1063
1062
1061
1059
1059
1057
1055
1054
1052
1050
1046
1043
1039
1036
1032
1026
1020
1017
1011
1007
1006
1007
1003
1000
998
993
987
982
978
980
980
980
979
981
979
979
978
977
976
974
974
975
974
978
978
978
978
980
979
980
979
979
980
980
981
982
980
983
983
983
981
982
982
981
980
978
979
978
980
982
980
980
978
978
979
978
976
974
976
975
972
974
975
975
977
975
973
972
968
968
967
967
966
971
971
971
969
967
964
963
962
962
963
966
966
966
967
968
966
965
962
963
961
962
961
963
962
964
964
964
963
962
962
963
961
962
964
963
961
962
961
966
965
965
965
965
966
966
966
967
970
974
974
976
979
978
979
981
981
981
981
981
987
989
991
990
988
984
984
981
977
976
974
974
974
972
969
970
968
967
964
957
955
953
954
954
957
958
956
957
957
955
956
954
954
954
953
955
957
958
958
959
958
956
959
960
958
961
962
967
970
973
977
984
989
1000
1013
1034
1054
1080
1109
1140
1161
1178
1179
1167
1133
1088
1029
967
906
854
825
819
834
863
896
924
946
959
965
966
968
965
966
967
968
971
974
975
977
973
976
975
977
976
980
981
986
985
987
990
991
990
990
989
985
986
989
987
990
992
996
998
1000
1001
1002
999
1001
1001
1005
1007
1010
1014
1015
1018
1021
1019
1020
1022
1024
1024
1026
1033
1036
1041
1043
1044
1046
1041
1043
1042
1044
1044
1045
1050
1051
1053
1052
1052
1051
1051
1050
1047
1047
1044
1045
1044
1039
1041
1040
1039
1035
1030
1026
1024
1020
1015
1010
1009
1006
1003
1000
998
993
989
986
980
979
976
974
976
975
973
973
974
974
971
969
969
966
963
965
970
968
969
971
971
967
965
964
963
963
962
964
965
965
966
968
967
967
969
969
967
968
967
967
968
968
970
971
969
970
970
970
967
964
964
964
965
963
964
966
966
965
964
963
960
960
958
958
961
961
962
962
964
962
961
958
956
955
956
956
958
957
959
959
960
960
956
955
953
955
955
956
957
957
960
959
960
957
957
956
958
955
955
958
958
957
959
960
960
961
962
960
957
956
957
958
956
960
960
962
965
968
968
968
968
970
970
972
973
979
982
985
985
986
985
980
978
976
976
977
975
973
974
970
967
964
960
958
957
952
948
950
948
947
951
952
951
949
951
948
947
948
948
948
948
950
950
951
950
951
951
950
950
949
949
949
951
953
955
955
960
961
963
966
967
971
978
994
1016
1044
1078
1118
1157
1195
1225
1236
1231
1204
1155
1088
1011
931
857
799
768
769
790
829
867
903
934
951
967
970
972
971
970
970
970
967
968
973
971
974
976
976
979
981
980
981
981
980
980
982
981
983
984
988
987
987
989
991
993
991
992
991
994
994
998
999
1002
1004
1008
1010
1013
1014
1014
1016
1014
1018
1021
1025
1028
1032
1035
1038
1039
1038
1038
1040
1040
1042
1046
1049
1052
1053
1057
1057
1056
1053
1054
1051
1051
1051
1052
1053
1055
1055
1054
1054
1051
1049
1045
1042
1041
1039
1039
1034
1034
1029
1026
1023
1018
1013
1007
1006
1000
997
993
992
992
990
985
984
981
982
979
978
975
975
975
974
973
973
973
970
970
970
970
970
971
972
971
973
974
977
978
979
977
980
977
977
976
975
976
976
977
979
980
980
981
979
978
976
975
975
977
976
979
981
981
978
977
975
974
973
973
971
974
973
974
972
973
972
970
969
967
965
965
965
968
967
967
966
965
963
965
961
961
960
958
960
961
961
961
961
962
963
960
958
958
959
959
959
960
960
960
964
959
962
962
960
959
957
958
957
958
956
959
960
961
959
960
960
958
956
956
955
957
958
961
963
963
963
962
960
958
958
957
959
962
964
968
971
974
976
976
977
977
979
979
984
986
989
990
991
989
989
986
983
983
980
978
976
971
970
968
966
965
966
961
962
957
955
951
948
947
950
951
952
953
955
951
951
949
950
949
948
950
949
950
951
953
956
955
954
953
950
948
952
952
954
957
958
963
965
965
967
971
980
995
1020
1057
1094
1140
1183
1223
1252
1265
1253
1217
1157
1080
999
915
838
779
747
751
780
824
870
911
942
962
972
976
975
973
969
967
967
969
968
970
973
974
976
977
977
979
979
982
981
983
982
982
983
982
981
984
983
985
989
990
988
990
992
990
994
994
995
999
1001
1004
1008
1010
1013
1009
1009
1010
1011
1011
1016
1019
1024
1024
1029
1029
1035
1034
1035
1034
1037
1037
1039
1042
1046
1048
1051
1051
1051
1050
1048
1043
1045
1043
1041
1042
1043
1043
1042
1042
1041
1039
1034
1034
1035
1033
1031
1028
1028
1024
1019
1017
1011
1005
1005
1000
996
991
987
984
981
979
976
972
973
971
968
967
965
962
964
964
964
967
970
969
968
964
965
960
961
961
963
964
966
966
971
968
969
967
966
967
966
967
970
971
974
976
977
974
975
974
971
972
972
972
972
973
973
973
976
972
971
970
972
969
969
967
966
965
966
966
969
968
971
970
968
967
964
963
961
962
964
965
966
968
964
965
962
962
960
958
958
959
961
963
963
963
963
962
961
961
960
961
961
963
964
965
967
964
962
960
957
957
957
958
959
961
962
961
960
961
961
962
961
961
962
961
961
959
962
963
963
963
964
966
966
962
965
963
962
964
964
963
970
973
975
975
976
979
980
982
986
989
992
993
996
996
997
995
992
988
987
985
984
982
980
978
976
973
973
971
967
963
960
959
956
956
957
957
960
959
962
962
961
960
957
955
952
955
953
955
956
955
959
960
958
960
960
959
960
960
964
966
970
972
977
978
979
990
1008
1030
1064
1105
1148
1193
1231
1258
1267
1253
1212
1150
1073
991
908
839
787
766
782
812
854
896
931
958
972
982
983
981
979
979
978
979
982
982
983
982
984
981
984
983
985
988
988
990
995
994
992
993
995
995
992
995
997
1001
1003
1006
1005
1007
1006
1006
1005
1004
1004
1006
1009
1011
1017
1020
1019
1022
1021
1023
1024
1024
1027
1028
1032
1036
1040
1041
1043
1043
1043
1044
1043
1044
1045
1048
1050
1051
1051
1050
1049
1050
1046
1045
1044
1046
1045
1046
1045
1047
1047
1046
1046
1045
1044
1039
1037
1036
1031
1029
1022
1022
1020
1018
1017
1010
1006
1000
996
991
988
986
988
988
988
988
985
982
977
974
974
972
971
973
974
977
979
980
979
977
974
972
973
974
972
975
977
977
982
982
982
981
981
980
976
977
979
982
982
982
980
979
981
976
976
976
976
976
978
979
976
977
979
979
980
979
978
977
973
972
967
965
967
969
969
967
970
967
965
967
964
963
963
962
964
967
971
968
969
968
965
964
961
962
959
961
965
964
966
965
965
966
964
963
962
959
961
961
963
964
965
965
963
963
963
961
959
960
961
960
962
960
962
963
964
963
962
962
961
959
958
959
957
960
963
964
966
965
963
963
962
961
959
963
963
964
968
971
976
976
975
976
979
979
982
985
990
992
995
994
994
991
989
987
985
984
982
982
980
976
975
971
969
967
965
963
960
958
954
954
955
955
958
956
958
956
957
951
950
949
947
950
950
955
954
954
954
955
955
951
951
951
953
954
957
961
965
968
970
977
991
1011
1036
1066
1104
1145
1195
1235
1262
1266
1238
1179
1094
992
892
811
762
755
776
815
857
894
924
947
962
970
973
971
968
967
969
970
972
976
979
980
980
980
980
981
977
982
983
985
990
990
990
990
987
988
988
990
990
990
995
995
1002
1001
1004
1006
1003
1005
1006
1008
1010
1013
1015
1020
1022
1025
1027
1030
1032
1033
1037
1039
1040
1042
1044
1049
1051
1055
1057
1058
1058
1059
1057
1057
1058
1057
1059
1060
1061
1064
1063
1063
1060
1060
1056
1054
1053
1054
1055
1054
1052
1047
1042
1033
1028
1024
1018
1012
1007
1005
1003
996
993
990
987
984
982
976
976
973
971
970
970
969
969
967
969
969
969
969
968
968
966
964
968
969
971
971
975
972
972
970
970
971
970
970
972
976
978
977
980
979
977
975
972
973
973
973
974
977
979
980
979
976
974
971
969
972
968
971
971
972
972
970
970
971
969
968
966
965
964
965
964
965
966
967
965
961
960
961
963
962
962
959
960
959
959
961
962
965
963
960
956
956
952
952
953
957
959
959
961
960
959
960
958
955
957
956
958
960
959
963
964
964
967
967
969
969
973
972
976
976
981
983
984
984
986
985
982
984
984
984
983
982
981
980
978
974
970
967
964
963
962
962
960
960
959
955
954
949
949
948
946
946
947
947
949
950
950
953
953
955
952
952
950
949
948
949
950
951
954
958
956
959
958
955
956
954
955
962
967
978
997
1020
1049
1083
1124
1170
1215
1254
1280
1280
1250
1194
1110
1013
914
824
760
736
746
783
831
879
918
948
964
972
974
972
971
967
964
963
966
969
972
973
977
978
979
980
979
981
981
979
980
982
983
985
988
990
994
996
997
995
997
996
992
995
999
1003
1007
1009
1007
1010
1012
1012
1013
1014
1015
1021
1025
1027
1032
1034
1038
1041
1042
1046
1046
1049
1050
1051
1055
1057
1060
1066
1068
1070
1069
1069
1067
1066
1065
1066
1066
1070
1072
1070
1068
1065
1064
1061
1055
1048
1047
1045
1041
1038
1034
1029
1023
1020
1013
1005
1000
992
991
987
987
986
986
984
984
983
981
980
975
974
973
979
982
982
980
975
975
978
978
978
978
974
971
971
970
970
972
976
978
980
979
978
976
973
968
970
976
984
987
988
984
980
975
975
976
979
983
986
988
991
992
991
987
983
982
980
982
984
982
984
986
986
986
986
986
986
985
982
983
983
982
983
984
985
985
985
984
984
984
983
984
984
984
986
984
987
989
991
992
992
990
991
987
987
987
989
989
992
997
1001
1002
1004
1004
1001
1001
1002
1003
1006
1010
1012
1013
1013
1009
1004
1000
993
991
988
981
979
975
972
969
970
969
968
967
963
960
955
953
951
952
953
957
958
958
957
959
962
960
961
959
959
958
956
954
955
956
958
957
957
953
953
952
954
953
952
956
960
961
964
965
965
968
972
990
1013
1045
1082
1124
1172
1217
1260
1288
1299
1280
1235
1163
1073
972
872
791
743
736
762
804
850
896
931
954
971
979
979
979
975
978
976
976
976
975
973
974
975
979
980
983
984
986
986
986
986
984
985
987
990
989
993
993
994
994
994
994
992
996
998
998
999
999
1000
1002
1008
1011
1012
1016
1015
1016
1016
1018
1019
1024
1024
1028
1034
1038
1042
1044
1045
1045
1046
1045
1047
1052
1055
1062
1065
1068
1069
1067
1064
1063
1063
1065
1065
1068
1068
1070
1070
1069
1070
1066
1061
1057
1055
1053
1049
1046
1042
1039
1032
1027
1023
1012
1008
1003
995
993
989
987
983
983
980
976
974
973
968
969
967
965
964
963
963
964
964
964
964
963
962
962
960
960
957
958
963
964
966
968
969
970
968
967
967
967
966
971
973
976
980
980
978
973
967
966
965
967
968
970
970
975
974
972
971
971
964
966
966
963
964
967
968
970
969
967
966
965
964
962
961
960
958
960
961
961
963
963
964
963
959
957
953
951
952
953
955
958
963
967
971
974
975
973
970
965
965
969
974
980
984
986
988
986
984
982
984
982
983
983
978
976
975
972
971
968
965
964
963
960
958
956
954
949
948
948
947
947
946
948
947
947
945
945
948
946
948
948
947
948
947
947
944
944
944
943
947
951
954
957
953
953
954
954
955
956
962
975
991
1014
1045
1080
1123
1167
1214
1255
1286
1293
1281
1240
1172
1084
980
877
786
728
715
741
792
844
895
931
956
970
973
972
969
965
960
959
963
963
965
968
971
971
973
975
976
977
975
977
976
976
978
981
984
986
988
990
991
991
989
989
990
993
995
998
1002
1005
1009
1011
1012
1013
1013
1012
1017
1018
1016
1023
1027
1028
1032
1034
1037
1040
1043
1045
1048
1051
1054
1055
1058
1061
1063
1066
1066
1067
1067
1068
1065
1063
1064
1064
1066
1066
1066
1066
1065
1063
1062
1057
1051
1048
1043
1040
1034
1034
1030
1026
1024
1016
1010
1003
997
992
988
987
987
982
984
981
977
976
972
968
966
968
966
966
969
967
970
968
968
968
965
961
962
960
961
963
965
967
966
966
966
966
966
967
967
967
967
968
971
972
971
973
974
972
975
975
975
974
974
976
974
975
976
978
980
977
976
974
970
969
969
969
970
971
973
974
973
970
968
967
967
965
962
965
970
970
971
971
970
964
965
965
962
963
963
964
965
967
969
968
967
967
966
964
962
965
