1047
1041
1037
1032
1031
1027
1023
1019
1015
1008
1005
1000
996
994
991
988
989
987
988
985
984
978
979
976
974
971
973
973
974
978
978
977
979
976
976
976
978
978
980
982
983
984
986
984
987
984
985
984
984
982
982
985
985
987
987
986
986
988
982
982
982
984
982
984
984
986
985
986
984
985
983
980
978
976
978
979
977
976
978
979
979
976
972
971
974
972
972
972
975
977
976
978
975
972
968
967
968
968
967
969
970
972
973
974
972
970
969
969
969
966
969
969
971
971
970
971
970
969
969
971
969
967
968
971
971
969
971
972
969
970
968
966
968
967
968
969
969
971
971
970
973
970
970
970
967
970
972
973
977
979
981
984
985
988
987
990
988
989
991
993
995
997
998
996
997
994
991
987
985
981
979
977
979
979
977
975
976
975
970
965
962
959
960
960
961
962
962
966
967
967
969
970
972
975
979
985
988
992
994
998
1003
1006
1010
1015
1020
1027
1036
1042
1053
1062
1075
1080
1082
1092
1098
1111
1132
1157
1194
1235
1276
1309
1332
1342
1325
1286
1226
1148
1062
971
891
837
815
822
850
887
919
948
964
970
968
967
962
957
959
957
961
961
963
962
961
963
962
962
965
962
965
963
966
967
966
967
966
965
963
964
965
966
968
967
968
971
968
969
967
967
966
966
966
968
968
971
971
975
975
974
975
973
971
971
971
975
979
981
981
984
983
983
982
981
981
981
983
983
986
983
984
987
988
988
987
990
990
989
989
990
993
993
993
993
994
991
990
987
983
982
981
979
978
978
977
977
976
976
972
971
969
968
964
967
966
968
969
967
972
971
969
968
966
964
965
969
969
969
969
966
968
967
968
967
967
968
969
969
969
971
970
972
972
976
973
973
972
971
972
973
972
973
976
976
975
974
973
971
969
970
969
970
971
976
976
978
977
975
973
970
971
967
968
970
971
973
971
971
973
971
969
970
968
969
970
972
973
973
973
970
969
970
970
971
968
971
973
969
970
970
970
969
970
970
968
970
971
971
971
974
973
975
976
981
985
986
989
989
987
982
978
970
970
972
978
981
979
974
968
964
965
966
970
970
972
971
972
975
976
976
971
970
972
975
978
983
987
987
991
992
994
995
996
996
999
1001
998
1000
1001
1000
999
1002
1001
994
993
988
985
981
978
977
977
978
979
981
980
972
969
967
964
966
966
969
971
977
980
983
985
986
988
986
988
991
995
1002
1006
1010
1017
1020
1024
1028
1031
1035
1044
1053
1061
1073
1081
1090
1096
1098
1101
1115
1130
1153
1182
1218
1258
1297
1330
1350
1351
1335
1300
1247
1179
1095
1004
917
849
813
807
826
860
895
924
948
961
968
968
962
958
952
950
951
954
958
961
959
956
956
954
956
954
956
957
961
961
961
959
959
957
956
954
952
950
952
956
957
960
961
960
955
958
955
955
953
950
950
957
958
962
962
960
958
958
958
960
960
964
968
971
971
971
971
972
974
973
977
981
980
981
982
984
987
985
988
986
984
982
981
980
983
981
983
986
990
992
994
992
988
989
986
984
981
976
975
976
976
976
977
976
973
970
964
966
963
961
963
963
966
963
964
965
964
963
962
964
961
961
961
962
963
963
965
969
968
968
968
963
961
959
957
958
957
965
966
968
966
969
963
965
966
963
963
964
965
967
966
967
968
965
965
961
960
961
965
969
968
971
969
969
968
966
967
967
969
967
969
970
970
970
968
968
966
966
968
967
968
969
969
968
968
969
967
968
970
966
965
965
962
961
963
961
963
966
967
966
967
967
966
963
963
962
960
966
967
970
967
967
966
963
963
962
963
963
964
967
966
967
964
963
963
959
959
957
959
960
959
961
960
962
962
962
959
960
960
961
960
960
962
965
965
968
969
974
975
976
979
981
980
982
986
988
993
997
1002
1005
1004
1004
1001
997
992
988
985
986
988
990
989
987
982
977
974
971
970
965
965
965
965
965
963
965
963
962
965
965
969
969
973
976
977
982
981
985
989
992
995
999
1004
1005
1011
1016
1027
1034
1044
1054
1064
1071
1078
1083
1086
1090
1094
1104
1123
1142
1169
1200
1235
1269
1296
1318
1328
1323
1305
1268
1220
1155
1074
987
905
844
819
817
842
877
913
944
964
978
980
976
973
966
960
956
954
954
957
962
963
967
970
969
968
967
968
964
964
965
968
968
969
971
971
971
969
968
969
970
971
971
969
973
974
973
973
970
970
970
969
971
971
969
969
971
971
971
972
975
977
980
978
978
977
979
980
982
985
987
987
989
990
989
989
989
988
986
990
992
992
995
997
997
996
996
994
994
993
994
998
1001
1001
1002
998
997
993
991
987
985
986
981
983
984
985
981
981
983
980
977
974
973
973
973
975
976
980
979
978
974
974
971
970
971
970
971
971
971
971
976
976
978
978
975
974
973
973
971
971
973
972
976
978
980
979
977
975
974
971
971
972
972
976
979
980
981
978
974
973
972
968
970
972
975
977
976
979
976
975
974
973
974
973
973
972
973
972
970
972
972
970
970
973
972
970
968
965
964
966
966
970
970
970
969
969
968
967
964
964
963
966
968
968
969
969
969
967
965
964
962
964
965
967
969
970
971
967
965
963
962
962
963
965
966
966
970
968
969
968
965
965
965
964
962
964
965
965
966
966
966
968
968
969
967
966
965
965
965
968
966
967
972
972
971
970
969
966
966
962
964
967
968
970
971
971
971
971
972
971
972
975
977
981
986
989
994
996
994
996
996
995
994
996
999
998
1000
996
997
994
992
988
985
982
978
977
978
978
976
975
971
969
965
962
963
960
962
963
964
964
968
969
968
969
968
968
966
967
966
968
970
969
969
969
970
971
974
973
972
971
973
975
978
982
988
998
1014
1036
1061
1094
1132
1175
1219
1259
1289
1307
1302
1268
1209
1130
1036
942
855
793
766
774
806
851
897
931
963
981
989
992
988
990
989
990
992
994
997
995
996
995
998
997
997
999
1002
1004
1005
1007
1009
1010
1010
1009
1009
1012
1011
1014
1014
1016
1017
1019
1021
1023
1024
1025
1028
1026
1027
1028
1029
1029
1034
1035
1041
1043
1047
1048
1051
1050
1050
1053
1051
1056
1061
1064
1067
1071
1075
1075
1077
1077
1078
1078
1079
1082
1086
1089
1091
1093
1090
1090
1089
1085
1085
1084
1084
1085
1085
1086
1086
1085
1080
1078
1075
1071
1068
1063
1058
1055
1049
1044
1040
1035
1027
1026
1024
1019
1013
1011
1009
1005
1008
1004
1004
1005
1002
1000
999
997
996
994
992
992
995
993
995
998
999
1000
1001
999
997
998
997
998
1001
1002
1003
1005
1004
1005
1003
1002
997
996
998
1000
1003
1003
1005
1006
1005
1004
1003
1003
1003
1000
997
1001
1000
1000
1002
1002
1002
999
998
996
997
995
992
993
994
995
995
999
998
999
1000
998
996
995
993
994
991
991
993
995
993
995
994
989
990
987
984
984
987
987
987
989
988
986
982
979
975
972
970
972
977
981
986
992
992
990
988
984
984
984
987
989
990
986
981
978
973
972
976
986
993
1003
1001
991
976
963
952
951
955
962
969
973
976
979
978
980
982
987
990
998
1000
1006
1005
1008
1007
1006
1007
1008
1009
1008
1011
1012
1011
1010
1007
1004
1000
996
989
987
986
984
985
985
984
980
976
968
963
962
962
962
961
962
965
964
966
961
957
954
956
958
960
966
969
971
972
973
975
977
979
979
977
977
976
976
979
981
985
991
998
1008
1024
1044
1070
1101
1141
1183
1226
1264
1290
1293
1270
1219
1146
1059
962
871
801
757
754
780
827
874
915
945
965
975
982
978
973
970
973
976
978
983
991
997
997
997
994
995
993
993
996
998
996
995
993
991
993
997
999
1002
1006
1006
1007
1010
1009
1010
1012
1014
1016
1016
1019
1020
1022
1025
1029
1033
1035
1037
1039
1039
1040
1040
1040
1041
1045
1046
1052
1054
1059
1065
1066
1068
1067
1069
1070
1071
1070
1069
1072
1076
1078
1082
1085
1086
1082
1081
1079
1075
1073
1071
1072
1078
1078
1078
1075
1071
1067
1062
1056
1052
1049
1045
1044
1041
1036
1032
1027
1022
1015
1010
1005
1001
1000
998
995
989
986
983
982
982
985
981
981
979
979
975
973
975
975
978
978
981
980
978
977
973
972
972
975
976
978
981
984
984
985
983
980
981
981
981
981
982
986
989
990
987
987
986
980
981
977
979
980
980
984
985
981
982
980
979
977
975
973
974
977
981
980
982
980
979
974
971
969
967
971
969
971
973
973
973
969
971
971
969
970
966
965
966
968
967
971
967
969
967
967
967
969
970
969
970
970
970
969
972
971
972
972
972
971
969
966
967
966
966
968
971
970
971
969
970
969
967
967
969
972
973
973
977
976
975
976
978
980
984
983
986
987
991
993
995
996
997
997
996
996
993
989
991
992
990
990
989
987
986
984
981
979
976
973
971
969
966
963
961
961
962
963
963
963
963
965
967
970
974
976
979
983
988
990
992
993
995
999
1004
1008
1017
1025
1036
1046
1055
1062
1068
1075
1081
1086
1094
1105
1125
1150
1181
1217
1260
1301
1341
1367
1381
1374
1347
1292
1213
1120
1012
912
840
805
809
838
877
915
948
966
977
977
973
966
966
961
961
961
960
961
961
963
965
965
969
966
967
967
965
964
963
964
963
966
969
969
971
971
971
970
970
966
967
964
966
964
968
969
972
970
970
967
967
966
966
969
970
973
974
977
976
977
979
981
979
980
980
983
986
987
988
989
993
994
995
994
993
993
992
990
989
993
993
994
996
998
998
996
996
997
994
993
994
992
992
996
995
993
992
987
984
984
978
975
974
976
976
976
975
975
974
968
968
964
964
962
963
966
966
967
965
964
963
962
961
961
961
960
961
962
960
961
962
962
964
963
961
963
960
961
962
961
962
962
963
963
965
966
966
964
963
960
960
959
962
960
966
968
967
966
963
958
956
955
955
956
957
961
963
963
962
960
961
961
961
962
960
961
959
956
956
958
956
958
957
958
958
956
955
956
955
957
958
959
957
957
953
953
952
951
950
951
951
952
951
951
948
951
952
951
951
949
948
948
948
947
951
953
955
954
955
954
954
954
951
949
945
946
944
941
937
933
926
918
916
915
917
924
934
943
954
965
971
977
980
981
983
982
982
985
986
989
993
994
992
991
986
984
981
982
985
988
991
994
1000
1003
1000
997
990
983
974
968
960
957
956
951
949
947
947
945
943
941
944
942
943
946
951
955
962
967
973
979
982
988
992
996
999
1006
1013
1023
1032
1044
1056
1064
1071
1078
1081
1082
1085
1090
1097
1109
1129
1154
1187
1222
1262
1299
1332
1351
1353
1334
1295
1236
1154
1048
945
853
793
776
794
833
878
917
949
961
965
961
950
943
938
938
938
939
943
946
946
944
948
948
949
947
949
948
948
945
945
947
945
947
952
954
956
953
952
949
947
945
944
945
948
951
955
956
955
955
953
950
954
954
954
958
959
958
962
963
963
963
966
967
968
969
971
974
976
978
977
979
981
982
984
985
983
984
986
986
987
991
993
995
997
998
994
995
994
991
993
992
990
990
992
987
988
985
981
981
977
976
975
972
975
973
973
970
971
969
967
968
966
964
964
966
965
967
969
970
967
967
966
965
964
963
965
966
967
966
969
970
972
971
971
970
970
972
969
972
972
970
972
971
973
973
973
973
972
971
970
971
971
974
973
974
976
975
974
973
973
973
970
972
974
975
976
976
976
975
972
968
966
965
966
962
964
963
964
964
962
960
957
957
957
957
956
957
959
960
962
963
964
964
964
967
967
966
963
967
970
969
972
973
977
975
974
974
975
974
975
976
975
978
977
978
979
978
974
973
971
969
969
969
969
972
974
975
974
973
973
971
971
970
970
972
972
972
973
972
973
971
971
970
973
975
977
980
983
987
988
987
990
993
996
996
997
996
998
998
997
997
996
996
997
994
992
990
987
982
979
975
975
977
976
976
975
973
969
965
964
961
961
964
966
969
972
976
978
979
979
981
981
984
983
992
997
1001
1007
1013
1016
1022
1026
1034
1043
1053
1063
1076
1084
1090
1095
1100
1110
1124
1148
1182
1218
1260
1300
1334
1353
1356
1339
1297
1239
1160
1066
966
878
819
796
805
838
883
922
955
975
981
980
970
965
958
952
952
954
960
965
966
966
964
963
958
958
955
954
956
956
959
956
958
959
959
957
956
952
951
950
952
956
955
959
959
956
954
956
955
954
956
955
954
955
959
959
959
958
957
954
954
952
953
955
960
969
980
992
1007
1022
1036
1049
1063
1071
1077
1076
1075
1068
1062
1057
1052
1050
1045
1042
1040
1035
1031
1028
1029
1032
1035
1037
1039
1039
1040
1036
1033
1026
1024
1021
1023
1024
1024
1027
1026
1025
1024
1021
1016
1016
1015
1013
1011
1012
1012
1012
1009
1010
1008
1004
1001
1002
1001
998
999
999
999
1000
1000
1001
1001
1003
999
1001
1001
998
999
997
1000
1000
1000
1001
999
997
999
993
995
995
993
995
995
995
995
999
998
994
992
993
991
986
987
986
987
990
992
992
990
989
985
983
978
978
980
982
984
983
984
983
982
980
978
976
975
974
975
973
975
975
976
975
975
974
975
973
973
975
975
974
974
975
977
976
975
974
974
973
971
973
974
974
972
971
973
971
971
969
969
970
969
968
967
967
964
961
963
964
966
966
967
962
964
965
962
966
968
971
972
973
972
970
969
969
968
968
969
972
975
977
978
981
982
983
986
985
986
987
989
994
996
1001
1002
1004
1002
1001
996
994
992
992
989
992
990
988
989
985
979
975
976
975
973
971
970
969
964
963
961
960
958
959
958
956
958
958
954
956
958
958
959
960
961
960
958
959
960
959
959
958
960
961
965
966
967
967
965
967
968
970
974
983
996
1020
1046
1078
1114
1153
1197
1240
1277
1304
1306
1284
1235
1160
1070
969
871
794
753
753
782
824
871
914
946
969
979
984
984
981
976
975
975
973
978
979
981
983
981
985
986
987
988
987
990
991
990
997
996
998
999
1001
1001
1003
1004
1004
1006
1005
1007
1009
1009
1012
1015
1017
1020
1021
1022
1020
1022
1020
1021
1025
1027
1031
1036
1037
1041
1042
1042
1040
1040
1044
1046
1051
1053
1058
1063
1066
1066
1068
1065
1065
1066
1066
1067
1071
1073
1075
1075
1074
1072
1069
1068
1066
1064
1062
1063
1062
1063
1065
1064
1063
1059
1056
1051
1046
1043
1038
1035
1031
1024
1023
1022
1019
1015
1011
1008
1006
1004
998
997
995
996
995
994
991
990
992
991
990
991
991
991
989
990
989
989
993
995
996
996
993
991
991
989
992
996
997
999
998
1000
997
996
993
991
991
992
997
997
1000
1001
999
999
997
995
994
991
992
994
996
995
999
998
999
997
992
992
990
990
988
989
990
991
991
990
989
987
986
986
986
985
983
987
986
987
986
986
984
983
985
984
981
982
983
982
980
981
980
984
985
985
984
984
983
979
980
978
977
981
981
980
984
982
981
978
976
975
975
976
979
980
981
984
984
983
982
980
979
979
978
981
985
987
989
992
994
997
997
999
1000
1000
1002
1006
1007
1009
1010
1014
1012
1014
1012
1010
1006
1007
1003
1000
1000
998
993
990
987
989
988
984
983
981
978
974
975
972
974
975
980
982
980
981
984
984
983
988
994
998
1002
1008
1011
1014
1016
1021
1023
1027
1034
1042
1051
1061
1072
1080
1088
1094
1098
1104
1109
1118
1137
1161
1194
1235
1277
1317
1352
1375
1380
1361
1324
1259
1176
1083
981
894
837
817
829
866
909
946
975
987
992
987
981
973
972
972
974
977
978
976
976
976
973
976
976
979
981
982
981
982
981
978
979
976
978
980
980
979
982
981
981
981
980
978
978
979
978
980
980
983
984
985
983
984
983
983
982
984
984
984
986
990
992
994
995
998
997
998
996
999
997
996
1000
1000
1000
1002
1002
1003
1002
1001
1001
1000
1001
1004
1004
1006
1006
1009
1009
1006
1006
1004
1002
1002
1001
1000
999
995
996
994
992
991
988
988
984
985
984
983
983
983
983
983
983
984
982
982
983
981
983
984
983
983
982
983
983
986
987
986
983
984
983
979
983
983
985
988
986
991
987
987
986
983
982
981
987
988
991
991
992
990
989
988
983
984
982
984
987
988
990
990
992
990
986
988
988
987
987
987
988
988
988
989
989
987
984
985
984
984
983
982
982
982
982
981
980
984
983
983
984
982
982
978
978
981
981
983
984
985
987
986
984
984
981
981
981
981
983
984
984
984
982
981
980
978
980
979
982
981
983
985
986
983
980
981
979
978
978
979
984
985
986
986
985
984
984
982
983
986
987
990
993
994
995
998
999
1001
1002
1004
1009
1009
1010
1010
1008
1011
1008
1009
1009
1009
1009
1006
1004
1001
997
994
991
991
991
991
990
989
985
984
978
975
969
972
975
979
982
987
991
992
994
993
993
995
998
1001
1008
1011
1016
1024
1026
1031
1035
1042
1048
1058
1066
1077
1086
1095
1102
1106
1113
1119
1131
1152
1180
1217
1261
1307
1346
1374
1386
1376
1347
1296
1226
1138
1042
947
867
817
807
829
871
917
955
982
995
994
987
981
974
969
965
970
973
977
981
981
981
980
978
973
973
974
976
978
981
981
984
981
983
982
980
981
981
980
982
983
982
986
986
985
984
985
984
983
983
986
984
986
988
985
986
989
988
986
986
987
989
989
992
995
997
999
1001
1004
1004
1006
1003
1004
1003
1003
1004
1004
1008
1008
1011
1013
1011
1011
1006
1009
1007
1008
1011
1012
1014
1016
1014
1010
1007
