963
964
968
968
968
970
969
969
971
971
971
972
973
979
983
987
991
993
996
995
994
994
991
990
988
986
990
992
991
991
990
989
985
980
976
967
968
968
969
972
970
970
965
959
958
955
957
957
955
958
960
961
963
960
960
960
956
955
958
959
958
961
963
964
965
964
964
963
963
963
965
964
965
967
972
980
991
1009
1033
1066
1104
1149
1194
1237
1271
1288
1287
1256
1204
1124
1031
931
834
764
732
742
780
836
889
935
967
987
993
989
983
978
975
972
974
977
979
984
983
985
986
987
987
987
984
983
984
986
989
990
992
992
995
994
996
996
999
1001
1000
1003
1008
1007
1010
1012
1015
1017
1018
1022
1023
1023
1025
1028
1031
1033
1036
1040
1046
1044
1045
1046
1051
1052
1051
1056
1058
1063
1066
1067
1069
1069
1069
1069
1072
1070
1070
1071
1071
1071
1072
1072
1071
1068
1067
1063
1063
1061
1058
1059
1057
1053
1050
1046
1042
1037
1032
1026
1020
1015
1014
1009
1004
1003
1000
996
992
990
986
983
981
980
977
976
974
974
974
974
974
972
973
971
969
965
965
965
964
968
967
969
971
971
971
971
969
970
970
973
974
976
977
979
978
978
977
976
973
972
972
970
969
972
975
975
976
979
977
976
977
976
976
975
977
976
976
973
974
971
968
968
967
968
967
969
968
969
972
972
970
970
971
970
966
965
961
961
963
963
963
965
969
967
966
963
963
962
961
963
964
965
968
970
971
969
968
965
960
962
960
959
961
962
964
964
966
966
965
964
960
961
960
962
964
966
965
965
965
964
965
966
966
968
973
976
978
982
984
986
987
988
987
988
985
985
982
983
980
978
977
977
974
974
969
965
964
962
962
963
963
962
961
958
956
950
949
946
946
947
949
949
950
948
950
950
950
950
948
945
944
943
945
944
948
948
950
952
952
954
953
952
951
950
952
953
958
964
967
978
997
1018
1049
1083
1123
1171
1214
1256
1289
1302
1290
1245
1175
1084
980
878
790
742
734
756
798
844
885
921
946
962
971
975
974
974
971
970
970
972
974
977
981
983
984
985
984
983
984
985
986
988
991
995
998
997
997
995
994
994
995
997
1002
1005
1010
1014
1014
1014
1012
1014
1014
1016
1020
1024
1028
1029
1032
1035
1033
1037
1039
1039
1043
1044
1045
1046
1052
1056
1058
1062
1064
1069
1070
1070
1072
1073
1075
1073
1074
1073
1076
1076
1076
1078
1076
1077
1073
1072
1069
1068
1069
1067
1066
1063
1059
1053
1047
1039
1030
1028
1023
1020
1014
1008
1007
1003
999
993
988
985
981
977
975
976
979
977
977
978
976
974
970
971
970
974
977
978
979
979
979
981
981
980
979
978
977
975
975
976
974
977
980
984
986
988
985
984
980
981
981
982
982
985
984
984
986
984
985
982
982
980
978
978
979
981
981
985
982
980
979
977
974
975
972
974
976
976
974
975
975
973
973
970
970
968
969
970
969
969
969
968
969
967
969
968
971
968
967
968
969
968
970
971
972
971
970
969
967
969
967
964
968
969
970
969
972
972
971
968
967
966
967
967
968
972
975
977
979
982
982
979
981
981
983
986
989
993
995
998
997
995
993
992
986
985
984
986
986
985
984
975
977
978
975
975
973
973
970
968
965
963
962
963
963
965
966
966
969
970
970
971
975
979
980
984
988
989
994
997
1000
1001
1002
1009
1016
1023
1035
1047
1058
1065
1072
1077
1080
1084
1089
1097
1112
1133
1164
1200
1245
1285
1326
1358
1376
1373
1349
1301
1230
1136
1033
935
860
812
804
823
861
903
937
962
974
975
972
966
960
957
955
955
955
956
955
957
957
959
961
962
963
965
964
963
964
960
960
960
960
962
963
965
964
965
963
961
959
956
953
954
959
960
960
962
963
961
958
959
958
958
956
959
962
961
965
966
968
970
969
972
971
974
973
975
976
979
981
981
982
982
983
983
984
984
985
986
988
989
991
990
992
994
995
995
997
994
995
993
990
991
990
988
985
987
982
980
977
976
974
973
973
972
973
973
974
971
969
965
964
963
960
961
961
963
964
965
965
964
964
961
962
960
963
966
967
969
968
971
970
968
970
970
970
969
967
970
970
970
970
973
974
974
977
975
973
970
969
969
971
970
975
976
977
977
975
973
967
965
964
966
968
968
970
973
973
971
969
968
963
963
963
964
967
968
969
969
970
969
968
968
967
965
965
969
967
966
968
968
969
968
968
966
965
964
963
961
959
959
960
959
959
960
963
963
963
965
964
964
963
963
964
966
965
966
966
963
960
961
959
957
959
960
962
962
963
961
963
961
959
958
958
959
960
962
964
965
967
970
970
973
973
973
975
977
981
983
987
991
993
994
994
993
992
989
984
979
979
979
979
980
983
982
981
976
971
969
967
967
967
966
966
963
964
961
961
960
959
960
963
967
969
973
977
979
982
983
983
987
989
992
996
1002
1009
1016
1023
1028
1035
1045
1056
1064
1071
1078
1083
1087
1094
1102
1118
1137
1166
1200
1239
1281
1319
1352
1367
1368
1346
1302
1237
1149
1046
944
861
814
806
828
864
903
937
961
973
976
971
965
958
953
948
952
953
955
958
960
961
963
965
966
962
964
964
964
964
967
965
967
966
966
966
963
963
960
962
960
961
961
962
964
964
965
966
968
965
965
966
965
965
965
968
968
968
968
968
973
973
973
977
976
975
977
977
978
980
982
983
982
985
985
982
982
982
984
986
986
990
991
993
996
995
995
993
993
988
988
988
989
991
991
993
990
985
983
980
978
977
974
975
974
972
972
972
973
972
972
971
970
969
969
968
967
969
968
968
969
969
967
966
968
968
966
966
969
969
971
973
975
976
975
973
972
973
969
968
970
975
976
976
978
974
972
970
968
967
967
966
968
970
971
972
969
972
970
968
967
963
966
969
970
972
971
971
970
969
966
967
964
965
965
966
966
967
967
965
966
965
965
965
963
963
962
963
964
964
968
969
969
968
968
965
967
966
964
963
962
964
965
968
968
967
967
964
961
960
960
962
962
965
966
967
968
967
963
961
959
958
957
959
961
963
966
965
964
965
964
964
963
961
961
964
965
967
968
967
967
965
964
962
963
962
964
967
969
971
978
980
981
983
985
986
988
989
990
991
994
995
997
995
995
993
991
991
988
986
985
983
980
979
978
977
976
974
972
966
966
960
959
959
960
965
964
966
970
968
970
969
972
973
975
978
984
988
991
992
997
999
1001
1002
1012
1022
1030
1044
1052
1065
1073
1080
1085
1091
1093
1103
1117
1137
1166
1198
1240
1280
1319
1348
1364
1365
1349
1308
1251
1171
1078
980
894
831
806
813
843
878
912
940
953
962
960
960
958
955
954
952
956
957
958
955
956
955
955
955
956
958
961
963
965
964
961
959
958
956
956
959
961
962
964
964
965
963
960
958
959
956
959
960
963
964
964
966
961
961
961
961
963
964
965
968
969
971
974
974
974
975
974
975
975
973
975
977
980
982
984
984
985
986
987
985
986
984
984
984
988
987
992
994
997
1000
997
996
995
992
991
991
992
994
994
993
991
990
987
982
978
977
975
973
975
974
976
976
974
971
968
966
964
966
965
968
969
970
971
971
971
971
970
967
967
967
967
969
970
972
973
974
975
973
973
974
974
975
974
976
975
975
977
977
978
978
978
979
978
978
979
979
978
977
979
977
978
978
977
974
974
972
970
971
973
974
974
976
976
973
971
972
972
972
970
972
973
971
975
975
976
975
974
971
966
965
964
966
968
967
971
971
971
969
966
964
963
961
961
962
965
966
967
966
964
965
963
961
962
962
963
961
962
963
965
966
966
966
964
964
964
962
962
966
965
966
968
967
968
970
968
968
969
967
968
966
967
968
968
970
972
974
975
974
974
975
977
978
977
983
985
986
989
993
994
996
996
997
996
998
1000
999
999
999
999
995
994
989
986
983
981
979
976
976
979
978
974
973
969
965
961
958
958
958
959
963
962
964
964
961
957
960
955
957
958
959
962
964
966
967
967
967
964
962
963
963
963
965
966
967
972
974
980
987
1001
1022
1050
1084
1125
1175
1224
1271
1309
1324
1312
1269
1198
1104
998
892
801
745
735
759
803
856
900
933
956
967
973
978
980
981
981
979
982
982
987
987
986
984
986
988
989
993
994
996
998
997
1000
1001
1001
1004
1005
1007
1007
1008
1011
1014
1015
1016
1019
1021
1021
1021
1022
1021
1021
1022
1024
1028
1031
1034
1038
1041
1043
1044
1046
1047
1046
1052
1057
1062
1067
1071
1076
1079
1080
1081
1081
1083
1086
1086
1092
1092
1096
1098
1097
1095
1095
1093
1093
1093
1091
1089
1088
1086
1084
1081
1078
1075
1072
1063
1055
1048
1042
1036
1032
1028
1024
1020
1018
1013
1006
1003
996
995
993
989
988
987
988
988
989
987
985
984
983
982
981
981
984
987
988
986
986
984
985
986
981
981
981
982
982
983
984
984
983
982
979
979
978
976
977
979
980
981
984
983
981
984
983
983
982
982
977
976
977
976
979
978
981
981
980
977
974
973
971
968
968
969
969
971
973
974
972
971
970
966
966
966
967
968
969
972
972
973
971
969
966
965
969
967
970
972
975
972
973
973
971
970
969
965
966
965
967
967
972
974
977
976
980
981
985
988
989
991
992
994
995
1000
1001
1002
1003
1000
1001
999
999
999
999
998
998
997
998
997
994
987
979
973
970
967
966
965
968
968
969
969
967
966
964
967
968
971
975
979
983
986
989
992
994
999
1002
1004
1006
1011
1019
1023
1031
1037
1044
1052
1062
1072
1079
1085
1092
1096
1103
1110
1128
1151
1180
1216
1255
1300
1340
1375
1402
1417
1414
1388
1333
1256
1166
1067
967
886
838
822
830
860
891
922
945
961
969
976
975
970
968
965
963
966
964
968
970
969
970
971
972
967
968
969
968
969
973
972
976
975
978
976
976
973
973
976
977
977
981
981
983
983
980
981
978
978
977
976
974
975
976
975
976
978
980
981
979
981
982
986
987
989
992
993
995
993
994
997
998
997
998
999
997
997
999
1000
1002
1002
1004
1003
1008
1007
1005
1005
1006
1008
1010
1014
1015
1014
1011
1010
1005
1002
997
998
995
995
993
997
994
993
992
988
985
983
983
981
982
982
985
985
984
987
986
985
986
983
984
984
982
981
984
981
982
986
986
986
987
983
984
983
985
985
985
987
988
991
992
994
992
991
989
987
987
985
986
989
990
990
992
991
991
988
987
985
985
985
988
990
990
990
985
986
982
983
984
981
980
982
982
982
983
980
982
981
981
982
979
980
977
979
978
980
981
983
982
980
978
976
976
974
975
974
975
981
982
986
987
987
987
985
987
987
989
993
997
1001
1003
1006
1006
1007
1007
1007
1007
1006
1006
1008
1008
1009
1008
1003
1005
1003
1003
1002
1002
1000
997
995
991
989
986
986
985
982
979
977
978
975
977
981
987
989
988
988
988
989
991
994
996
1000
1004
1007
1011
1018
1024
1032
1039
1047
1054
1062
1070
1079
1086
1092
1101
1111
1122
1141
1167
1198
1232
1273
1315
1357
1387
1408
1408
1388
1342
1273
1182
1080
974
891
841
827
843
876
913
948
971
982
988
989
983
978
975
972
972
973
976
979
983
985
986
986
984
983
982
983
984
986
988
991
989
990
988
987
986
984
980
980
980
982
986
989
993
997
996
997
993
990
987
985
984
985
984
987
989
992
994
994
993
994
992
992
989
991
993
995
995
1001
1001
1008
1008
1010
1005
1005
1005
1005
1008
1013
1012
1012
1016
1016
1016
1017
1019
1019
1017
1016
1017
1020
1020
1020
1018
1014
1012
1012
1009
1007
1003
1003
1003
1001
1002
1000
999
998
997
994
991
992
990
988
992
991
996
996
994
995
994
992
992
992
992
993
994
992
995
994
996
994
996
997
997
995
993
995
997
1000
1002
999
1003
1006
1005
1003
1001
1000
997
997
998
1000
1001
1002
1003
1000
997
995
995
994
995
995
995
995
995
996
993
995
992
988
990
988
988
986
988
986
989
988
989
990
988
986
987
985
984
985
985
986
984
986
987
986
987
987
986
985
985
985
987
990
993
994
998
1002
1003
1007
1008
1011
1011
1013
1015
1016
1017
1019
1021
1021
1023
1021
1016
1012
1012
1010
1008
1009
1008
1009
1007
1002
1000
996
995
991
989
988
987
986
985
982
984
985
984
983
984
984
986
990
992
996
999
1002
1004
1008
1012
1014
1019
1021
1025
1031
1035
1042
1053
1059
1068
1079
1086
1094
1098
1103
1108
1124
1141
1173
1209
1256
1303
1347
1388
1418
1433
1427
1398
1346
1271
1183
1084
995
915
861
836
841
861
894
925
947
965
974
982
985
979
978
971
970
968
966
969
971
975
979
979
980
981
981
977
979
978
979
979
977
975
978
978
981
982
984
986
988
987
984
984
984
985
984
982
980
978
979
979
979
976
974
969
967
966
972
978
981
984
985
985
984
983
983
983
985
989
992
992
996
997
996
996
998
998
1002
1003
1005
1007
1008
1009
1013
1013
1017
1019
1019
1019
1017
1014
1011
1010
1008
1012
1010
1011
1007
1004
998
994
989
985
985
983
986
990
991
992
992
992
989
988
987
987
987
990
990
990
992
992
991
992
988
987
986
987
988
992
991
993
993
989
988
988
989
988
990
990
991
994
993
993
995
997
996
996
994
992
992
990
989
991
993
993
990
992
993
995
993
992
991
991
989
988
990
989
992
990
992
988
987
983
983
981
978
979
983
984
983
984
985
981
980
981
979
979
978
980
982
984
987
988
990
991
990
992
994
997
998
1001
1004
1004
1008
1011
1009
1010
1007
1006
1006
1005
1002
999
1001
999
998
996
995
992
987
986
985
985
982
981
977
975
975
972
970
973
971
969
969
968
970
974
975
978
985
986
990
991
994
994
997
998
1003
1007
1013
1021
1027
1033
1039
1046
1054
1061
1070
1075
1081
1090
1098
1109
1123
1145
1173
1208
1246
1288
1325
1357
1380
1384
1372
1334
1280
1207
1125
1033
947
879
838
827
845
874
907
938
961
971
978
976
971
966
962
961
961
962
962
966
967
968
969
969
972
972
970
969
969
970
970
973
975
975
978
975
973
973
969
969
968
971
970
973
974
974
975
974
974
973
973
973
974
975
978
979
982
982
982
982
982
980
985
985
986
988
988
991
993
994
995
994
996
997
999
1000
995
1000
1000
1005
1006
1007
1008
1010
1009
1009
1010
1007
1004
1006
1006
1008
1009
1006
1003
1001
999
996
993
990
988
987
989
988
987
985
981
981
981
981
979
978
977
979
979
981
982
980
983
979
979
976
978
975
975
975
977
977
978
979
977
979
979
979
977
975
973
975
977
978
978
979
984
981
981
979
977
976
976
975
977
980
979
981
982
981
979
975
974
973
973
971
972
972
973
972
973
973
969
967
969
972
972
973
971
971
974
973
975
975
974
973
972
970
971
969
971
970
972
972
973
972
972
972
968
969
969
970
971
971
974
976
979
979
979
979
978
982
982
985
988
993
994
996
998
995
997
995
995
991
992
992
992
994
993
991
988
988
982
979
978
977
974
972
973
973
969
968
967
968
964
964
964
967
966
971
974
976
981
983
986
986
991
991
994
1000
1004
1006
1016
1022
1029
1040
1048
1057
1063
1070
1073
1079
1086
1096
1110
1130
1158
1189
1223
1258
1292
1322
1338
1343
1332
1303
1256
1197
1122
1040
960
894
856
846
860
886
919
946
965
975
976
975
968
966
965
964
961
961
960
961
961
961
960
961
964
964
961
964
963
963
961
961
962
964
965
966
967
966
967
964
962
964
964
964
964
965
967
966
965
966
964
966
962
965
964
965
968
970
971
973
975
975
975
975
978
980
983
986
987
989
990
990
990
990
988
988
987
990
989
991
992
992
995
998
1000
1002
1002
1004
1001
999
999
999
1000
1000
998
999
997
997
994
990
988
985
983
981
980
981
983
985
983
983
981
979
976
974
971
972
974
975
976
978
978
977
973
972
972
972
971
972
973
974
975
974
974
977
975
976
975
976
975
976
976
977
978
980
982
981
980
980
978
979
976
977
977
976
979
979
980
980
980
981
977
978
975
977
976
979
980
981
979
979
978
977
976
974
974
974
975
977
977
977
976
977
977
972
971
972
970
973
974
976
980
981
979
979
978
975
976
975
976
976
979
977
979
977
978
979
977
976
976
974
973
972
974
977
980
981
983
986
987
987
987
989
992
993
995
1000
999
1005
1006
1008
1007
1007
1004
1004
1003
1003
1001
1002
1001
1002
999
995
992
989
986
985
981
980
983
980
975
973
974
974
973
972
973
974
976
978
981
984
985
988
991
992
993
995
998
1001
1004
1008
1013
1018
1024
1032
1041
1049
1054
1061
1066
1073
1076
1081
1087
1099
1111
1126
1151
1180
1212
1243
1277
1307
1325
1333
1324
1299
1257
1198
1127
1049
971
903
864
849
859
884
917
942
964
978
980
982
979
973
969
965
964
968
972
975
977
978
978
977
976
974
975
974
975
975
975
976
977
978
976
978
977
974
976
976
975
973
973
973
974
975
976
978
978
979
978
977
978
979
981
981
984
986
987
990
990
988
987
989
989
989
991
993
997
998
998
1000
1002
1001
997
999
997
1001
1003
1006
1007
1012
1010
1011
1011
1008
1010
1011
1013
1014
1014
1016
1015
1013
1012
1009
1007
1006
1001
1002
1000
999
998
996
994
996
992
990
993
990
988
986
984
984
984
984
983
983
984
984
985
984
983
983
980
979
982
985
984
986
987
988
985
984
984
983
982
982
984
986
987
988
989
989
988
988
984
982
984
982
984
989
990
991
990
991
989
989
