969
973
970
971
971
969
968
968
971
973
975
973
973
973
971
969
966
965
966
968
969
971
972
973
973
973
970
971
969
969
971
971
974
976
976
978
978
979
978
979
983
987
989
989
990
992
994
994
996
997
997
995
994
991
987
985
985
985
984
982
982
978
977
976
972
968
968
967
966
964
966
964
965
965
960
963
963
964
968
973
978
982
985
988
995
997
998
1002
1005
1010
1015
1022
1029
1039
1048
1057
1068
1075
1081
1089
1096
1105
1121
1144
1171
1213
1254
1299
1339
1368
1378
1371
1347
1299
1234
1155
1064
971
887
826
801
810
840
880
922
951
967
972
971
963
960
951
950
952
952
953
954
958
959
961
962
964
964
963
965
964
961
961
962
964
961
964
965
966
966
964
965
965
962
965
964
962
961
963
962
962
963
961
965
965
965
964
966
964
964
965
968
970
973
975
976
975
976
979
980
977
978
978
981
986
989
990
991
988
989
989
989
988
987
991
994
994
996
997
999
996
993
994
993
991
990
986
987
988
987
984
981
977
974
973
973
967
968
969
969
968
967
967
966
967
966
965
963
961
961
961
962
963
962
964
964
963
962
963
963
962
962
961
960
963
961
963
965
964
962
960
960
958
957
956
959
962
964
963
964
963
962
958
958
957
957
959
962
962
963
962
964
963
961
956
954
951
952
955
959
961
961
963
963
958
955
954
957
958
957
958
959
959
957
958
957
958
957
956
955
954
953
953
952
954
955
955
956
955
956
953
953
951
951
951
952
953
955
956
956
955
956
952
952
951
948
948
948
948
955
954
955
955
951
951
949
950
950
949
953
954
955
956
955
955
953
950
949
949
945
949
949
949
953
953
954
952
951
950
949
951
949
949
951
952
953
952
951
953
952
953
951
953
953
954
956
956
960
961
965
964
969
968
968
971
969
971
976
976
977
979
981
980
977
973
971
967
965
966
966
965
964
962
962
957
957
953
952
949
947
944
943
944
942
947
947
946
947
947
949
949
950
954
957
964
966
970
975
977
981
985
989
994
1000
1007
1013
1023
1033
1039
1049
1054
1059
1063
1067
1079
1093
1119
1149
1188
1230
1274
1316
1348
1365
1366
1344
1296
1226
1141
1040
942
860
804
783
792
823
856
893
917
934
942
945
944
940
939
936
932
931
935
934
932
933
935
936
937
940
941
940
939
938
937
936
935
936
937
938
939
940
939
939
937
938
937
937
936
936
937
938
938
939
938
938
938
937
939
936
937
938
936
939
938
941
945
945
947
948
948
949
951
952
955
957
960
958
960
959
960
963
961
961
960
959
961
962
964
968
969
973
974
974
974
972
973
971
972
972
972
973
972
970
967
964
961
956
955
952
953
953
953
953
953
950
948
946
944
942
941
943
942
944
943
944
947
945
944
943
942
943
939
939
943
943
944
943
944
942
943
943
942
940
939
940
942
941
941
946
944
947
948
948
946
947
945
945
946
945
947
948
947
948
948
947
947
945
945
944
943
944
944
947
947
948
947
947
946
944
943
944
942
944
943
942
943
945
944
943
939
940
938
939
938
941
938
939
939
940
939
936
932
931
931
931
934
934
937
938
937
935
934
932
932
931
933
933
933
936
936
935
934
935
935
936
936
935
934
932
932
934
934
938
936
937
937
935
937
935
931
930
934
933
937
936
938
940
942
942
942
940
943
944
947
950
953
958
959
959
960
959
961
957
959
961
960
962
962
961
959
958
956
951
950
947
946
943
944
944
943
946
944
942
938
933
930
928
926
927
930
933
934
938
941
939
942
943
944
944
948
950
953
957
962
966
972
979
985
988
994
998
1004
1011
1020
1030
1037
1047
1051
1057
1066
1076
1089
1111
1140
1171
1210
1249
1287
1320
1343
1351
1343
1312
1261
1192
1109
1017
928
848
799
782
791
819
852
882
906
921
930
928
929
926
923
920
924
926
924
924
922
922
923
921
922
925
929
929
931
932
929
928
926
922
923
924
924
929
930
929
929
928
925
925
925
922
923
923
928
927
928
930
929
931
932
930
930
929
932
934
935
934
938
939
939
942
943
943
946
947
947
949
948
951
952
955
957
959
960
959
958
953
954
953
957
960
964
964
966
968
968
965
961
958
955
953
951
953
953
955
951
950
947
944
939
935
936
936
933
934
936
936
936
936
934
933
931
929
930
928
929
930
931
933
934
934
932
934
933
933
932
931
931
933
935
936
937
941
941
941
941
939
937
938
936
938
940
942
943
945
945
945
942
941
940
940
941
940
942
942
943
943
944
941
940
938
936
937
938
940
939
938
937
936
938
934
937
934
935
930
933
934
933
936
937
935
933
931
930
929
931
928
929
929
929
930
930
931
927
930
928
926
927
924
923
923
928
928
930
931
928
928
923
923
920
923
925
927
930
928
929
927
927
926
926
925
925
925
924
926
928
931
931
933
931
929
929
926
927
926
926
929
930
931
931
930
931
931
931
929
933
934
935
938
941
943
946
946
947
948
949
949
946
949
949
952
951
948
950
946
946
942
939
938
934
933
931
932
931
931
932
932
929
929
925
920
919
917
916
919
923
926
926
929
929
932
932
934
937
939
943
944
951
955
959
965
968
974
979
979
986
996
1004
1014
1024
1031
1041
1047
1053
1062
1076
1095
1118
1154
1191
1231
1267
1298
1315
1316
1297
1261
1207
1136
1060
976
900
834
797
784
796
825
856
885
905
918
924
924
918
913
912
911
915
916
919
919
920
915
916
915
917
920
917
922
924
923
924
925
923
923
920
918
920
920
921
922
927
926
926
926
922
922
918
919
921
923
923
924
925
927
927
925
925
924
927
927
928
929
930
932
934
937
937
937
936
940
942
942
938
942
944
943
950
949
952
950
950
950
950
949
951
952
954
957
960
963
962
962
960
957
955
952
951
951
947
948
950
950
949
945
942
937
936
933
933
936
935
936
937
935
933
935
933
931
931
930
930
930
931
930
932
933
932
931
928
931
931
931
930
931
930
928
928
931
932
935
935
934
934
931
930
932
934
934
935
936
937
937
934
934
935
934
934
935
933
933
937
938
939
937
937
937
935
934
932
936
936
937
939
939
937
936
934
933
933
932
931
931
931
932
933
935
934
934
930
928
925
928
926
927
924
927
927
925
926
925
924
922
921
919
918
920
920
922
924
924
923
924
923
925
924
924
923
922
926
926
929
931
932
929
926
926
924
926
925
926
929
931
932
932
931
930
929
932
930
930
928
928
927
929
930
929
928
928
927
926
925
921
922
926
927
926
927
930
931
936
936
935
937
937
939
942
943
947
951
954
955
954
952
949
948
945
942
940
942
938
938
936
932
931
929
928
927
925
926
924
922
921
921
921
922
923
924
926
927
927
931
936
939
942
942
946
949
955
960
965
970
976
980
986
996
1007
1019
1029
1036
1045
1049
1053
1066
1078
1100
1132
1171
1213
1261
1298
1323
1336
1324
1296
1245
1177
1094
1001
909
838
790
779
791
818
854
882
908
922
928
929
927
926
922
920
920
920
920
922
923
923
925
926
926
927
928
928
927
929
931
930
926
927
924
924
922
924
927
928
930
929
930
928
925
925
924
924
925
927
929
932
932
931
930
929
931
930
930
930
932
933
936
940
942
942
942
944
941
943
944
943
948
952
955
956
955
956
953
954
954
955
957
955
958
960
963
963
966
962
961
959
958
958
957
959
958
958
956
955
952
947
945
944
941
942
942
940
938
937
939
939
938
939
935
934
935
934
934
934
935
933
936
934
934
933
932
932
931
932
929
932
931
934
936
937
938
937
937
936
937
936
933
935
936
940
943
942
942
944
941
939
938
938
937
939
941
941
941
943
942
940
938
934
936
936
938
939
940
943
943
943
941
940
939
938
935
936
935
936
936
937
938
938
937
940
940
937
937
935
933
934
934
934
935
935
933
933
934
934
932
931
930
930
930
931
932
932
936
934
934
933
930
930
927
928
931
932
935
939
937
938
934
932
931
928
930
930
933
933
936
938
938
937
935
933
934
934
935
936
935
937
935
937
937
939
939
937
937
940
939
939
941
942
944
945
946
947
948
948
947
946
947
944
943
943
944
947
950
950
953
952
953
955
955
958
960
963
967
969
972
974
974
975
976
978
977
976
975
974
974
974
970
969
965
962
958
957
954
956
958
959
959
956
954
947
941
942
942
946
945
950
952
955
958
963
963
963
965
968
970
974
979
982
989
996
1003
1008
1018
1024
1034
1043
1051
1058
1065
1069
1076
1085
1100
1124
1152
1187
1221
1260
1294
1320
1330
1327
1303
1259
1201
1127
1040
948
866
806
781
790
822
864
903
935
953
961
958
954
944
938
931
931
932
938
938
942
944
944
944
940
939
936
938
939
938
939
941
942
943
943
944
942
937
939
937
937
937
937
937
940
939
941
942
941
938
937
934
933
934
932
932
933
937
940
939
941
941
943
944
943
943
945
945
945
946
951
954
952
952
953
951
952
952
955
953
957
959
961
963
963
962
960
961
962
959
963
963
963
965
965
965
965
961
957
954
950
948
950
951
951
952
950
947
944
939
937
934
937
934
938
938
940
940
941
939
939
937
936
936
936
935
938
937
939
938
938
938
939
938
940
938
939
940
942
942
945
946
947
946
946
942
943
942
945
944
947
945
947
950
950
948
948
949
944
940
944
941
942
944
946
947
948
951
949
947
944
944
943
943
944
947
946
947
945
949
946
943
942
942
940
939
942
942
945
944
943
943
942
938
937
937
938
938
941
943
941
943
944
942
942
941
940
940
938
936
936
936
939
940
941
943
945
943
941
939
937
936
936
940
942
944
944
944
941
939
938
937
937
936
938
939
939
942
944
945
944
942
942
939
938
937
941
941
942
942
943
944
941
940
938
937
938
937
939
940
940
941
942
943
942
941
943
942
942
940
942
939
940
943
947
951
955
954
956
954
958
959
962
965
969
974
975
972
970
967
963
957
955
952
953
954
955
954
953
953
951
948
945
939
935
931
930
931
932
936
935
938
938
939
941
941
944
946
949
955
958
962
965
969
974
977
982
988
993
998
1006
1017
1027
1037
1046
1056
1060
1068
1076
1090
1113
1142
1178
1216
1254
1283
1302
1305
1289
1253
1199
1128
1046
957
874
811
784
789
816
855
895
925
941
948
946
939
933
929
929
930
931
932
935
934
935
934
934
933
936
934
939
938
938
936
939
937
939
937
937
935
938
938
941
942
943
944
943
941
940
940
939
940
942
943
944
946
945
945
948
946
947
945
946
946
947
949
953
958
961
962
961
964
962
961
960
959
961
964
965
967
967
970
967
967
965
964
965
967
968
973
972
975
977
975
974
971
970
967
968
966
965
965
965
965
962
960
959
956
952
950
947
948
950
947
949
951
947
946
942
941
944
945
942
943
942
943
941
940
943
946
944
943
944
943
942
943
941
944
944
949
949
951
952
952
951
949
948
948
945
945
947
949
950
953
955
954
950
946
949
947
948
947
948
950
949
951
951
950
946
947
945
943
944
944
946
948
949
949
948
947
943
943
941
943
940
944
945
941
944
945
944
939
937
936
936
938
939
939
940
939
940
942
940
938
937
934
934
934
934
935
935
938
935
934
934
936
931
931
929
926
930
930
930
932
933
934
935
935
935
932
932
932
931
931
933
932
934
934
938
935
934
931
928
928
927
929
932
934
936
936
934
934
934
932
929
928
929
932
934
935
936
938
936
934
934
932
933
932
935
939
939
943
944
946
947
948
950
949
954
955
958
960
962
966
966
967
968
965
963
960
959
957
956
953
953
950
949
945
947
943
941
940
939
933
931
929
930
930
931
932
932
933
933
931
930
931
929
928
928
930
931
931
930
931
930
929
927
930
928
933
936
940
941
944
948
952
962
978
1005
1040
1081
1129
1174
1216
1240
1243
1219
1168
1095
1009
918
829
762
731
732
760
805
851
888
916
935
941
943
940
935
938
936
936
941
942
944
945
945
943
941
943
946
946
948
949
951
954
954
956
955
954
954
954
955
957
961
963
966
968
970
972
970
972
974
978
980
984
989
992
992
994
995
993
993
995
997
998
1001
1002
1004
1009
1013
1017
1016
1018
1020
1022
1021
1023
1024
1024
1026
1029
1030
1029
1029
1029
1025
1023
1023
1025
1026
1026
1025
1024
1024
1025
1025
1021
1020
1012
1009
1004
1001
999
995
995
992
989
985
980
975
970
964
961
958
956
952
955
954
956
952
952
949
948
946
946
947
949
952
958
958
964
961
963
962
960
959
959
959
958
960
961
964
962
961
959
957
956
954
958
958
958
961
962
962
960
958
957
955
954
954
954
954
954
954
953
953
953
953
953
951
952
951
949
951
953
954
956
954
948
949
944
946
945
945
946
946
947
947
949
950
952
950
951
951
949
950
947
948
950
950
953
953
954
957
955
953
952
949
948
949
952
952
955
958
959
960
959
960
958
957
956
956
958
960
962
966
967
968
965
964
962
965
965
969
971
973
976
975
978
976
979
976
978
978
979
979
982
986
989
990
993
993
989
991
994
994
993
992
995
994
996
996
995
994
993
993
993
989
989
988
989
990
992
993
996
995
994
994
991
986
983
982
980
977
976
974
971
967
966
960
955
951
947
947
945
942
941
937
934
932
929
927
925
927
926
925
927
927
930
931
930
929
929
925
926
927
926
926
927
927
930
932
932
933
931
931
932
933
938
947
963
989
1019
1058
1101
1146
1190
1225
1243
1238
1206
1144
1066
973
879
799
742
722
738
777
819
869
907
930
944
950
950
948
944
940
939
940
940
942
946
945
947
953
953
955
956
955
953
953
950
952
953
951
956
959
959
960
960
960
965
965
963
963
965
969
972
976
976
978
980
982
984
985
986
987
987
989
992
994
999
1003
1006
1007
1007
1009
1007
1008
1008
1011
1014
1015
1016
1018
1019
1020
1019
1020
1017
1015
1013
1014
1014
1013
1013
1017
1015
1016
1013
1011
1006
1004
1000
995
994
990
987
984
979
976
971
965
962
956
955
953
951
950
949
944
941
940
940
938
938
939
938
934
939
939
943
942
944
944
944
943
942
944
942
943
944
944
947
947
948
949
951
948
947
944
943
945
945
946
948
949
947
948
945
945
940
938
939
939
942
943
943
945
944
945
940
941
939
937
936
934
936
937
935
939
936
936
935
932
930
932
932
934
935
935
936
936
936
936
936
932
933
931
929
929
929
930
931
931
931
932
932
931
930
929
931
927
927
927
930
931
932
931
932
928
928
927
926
923
927
928
929
930
935
939
936
934
930
927
926
923
926
928
932
931
931
931
933
931
928
933
932
934
938
944
945
949
951
952
953
953
953
956
955
958
958
957
961
960
957
955
952
947
945
942
939
937
936
936
937
935
933
930
926
920
918
917
918
917
919
918
920
920
922
924
924
923
919
920
920
919
920
921
924
923
924
924
925
925
926
923
925
924
928
926
928
932
939
947
964
986
1011
1044
1082
1124
1167
1206
1235
1245
1230
1185
1116
1026
930
839
765
722
716
736
774
818
854
890
912
929
938
941
941
938
938
939
941
943
943
947
949
949
947
948
948
948
952
955
955
958
960
962
961
959
958
957
961
959
961
963
966
968
970
975
976
976
977
976
975
978
976
979
985
988
991
991
994
994
995
997
998
999
1003
1006
1009
1013
1019
1020
1022
1023
1021
1023
1023
1020
1019
1023
1024
1022
1025
1026
1026
1022
1021
1021
1018
1018
1018
1019
1019
1020
1019
1013
1010
1005
1000
995
992
986
983
980
974
971
970
966
960
958
954
948
947
943
944
941
942
939
940
941
941
944
945
944
942
942
940
940
942
947
948
948
945
946
944
942
943
943
944
947
948
950
953
952
950
947
946
944
945
945
948
948
949
951
949
948
948
946
944
943
945
945
945
943
941
943
940
940
940
940
938
938
939
938
936
937
936
935
935
938
936
936
935
933
935
933
931
931
931
932
934
936
935
932
929
928
929
928
929
932
933
936
936
932
931
929
929
926
926
926
930
931
932
932
934
932
931
927
929
930
927
929
932
934
938
936
938
938
940
941
943
946
947
949
951
954
955
959
961
962
961
960
958
957
956
952
953
952
952
950
947
946
945
942
940
937
934
934
926
924
924
923
925
925
925
926
925
925
924
925
924
925
924
928
927
927
924
922
922
922
921
923
924
928
929
932
932
934
935
937
937
945
954
972
996
1026
1064
1105
1150
1192
1229
1246
1240
1201
1141
1058
968
879
801
750
732
741
768
807
840
869
894
913
924
934
940
942
944
941
942
945
943
941
942
942
946
946
949
952
953
954
952
949
950
950
952
954
955
958
961
959
962
963
962
967
967
966
968
969
970
970
973
976
977
981
983
986
986
987
990
989
991
996
998
1002
1007
1012
1014
1017
1016
1016
1015
1014
1015
1018
1020
1023
1023
1027
1026
1025
1022
1021
1022
1020
1020
1021
1022
1020
1020
1021
1015
1014
1012
1008
1006
1004
1001
997
992
989
983
979
972
970
964
961
957
956
953
950
952
