974
975
977
980
978
978
975
975
974
973
975
974
975
975
976
979
981
979
980
976
977
972
973
974
973
976
978
978
979
978
978
977
977
975
975
976
975
976
979
981
980
980
981
982
977
975
974
978
977
977
981
982
981
980
980
978
977
978
977
977
977
978
979
980
978
979
980
977
975
976
975
972
974
976
976
979
979
978
977
977
976
974
975
977
978
978
980
978
982
980
982
980
979
980
978
978
978
979
978
983
982
983
984
982
982
979
978
979
980
981
982
984
986
982
985
983
983
982
982
982
982
982
981
983
984
982
985
984
985
983
981
980
983
984
984
984
986
985
988
985
985
986
987
987
990
993
996
996
999
1001
1002
1001
1004
1010
1011
1017
1019
1023
1022
1024
1023
1021
1019
1017
1014
1010
1009
1007
1002
1002
998
995
993
990
988
983
982
981
979
979
979
980
980
980
983
981
979
977
975
975
975
974
973
976
975
977
979
977
977
973
968
956
942
928
922
941
980
1040
1117
1202
1285
1346
1369
1346
1275
1181
1093
1026
995
986
991
1000
1005
1003
994
985
975
971
968
968
969
969
967
967
965
959
963
961
955
958
958
959
961
962
964
960
961
959
956
957
958
958
958
959
960
962
958
960
960
960
960
958
957
958
960
959
961
963
961
962
965
962
962
960
962
961
962
965
967
966
968
968
970
966
968
965
967
968
971
971
969
973
974
975
978
976
979
978
978
980
980
985
985
989
990
990
990
990
992
992
994
996
998
998
1003
1002
1008
1006
1009
1009
1009
1010
1011
1013
1015
1019
1021
1026
1026
1028
1030
1031
1031
1031
1033
1035
1035
1040
1042
1047
1050
1049
1051
1052
1052
1052
1055
1056
1058
1061
1062
1062
1064
1064
1062
1063
1066
1065
1064
1063
1063
1063
1063
1062
1061
1061
1057
1054
1051
1048
1044
1042
1040
1035
1035
1032
1030
1027
1025
1022
1019
1013
1009
1007
1004
1004
1005
1003
1003
1002
1000
1000
998
996
996
996
997
996
998
1000
998
999
999
996
995
995
995
994
993
996
997
997
997
996
996
994
991
992
991
993
994
995
993
994
997
993
995
995
995
995
993
992
993
993
994
992
994
993
994
991
989
988
986
986
987
988
990
992
992
992
994
996
999
998
998
998
999
1002
1004
1008
1012
1017
1020
1024
1023
1020
1018
1017
1016
1014
1012
1009
1009
1005
1002
997
991
987
983
978
976
976
974
976
978
977
976
973
970
969
968
965
967
968
968
969
969
968
968
966
965
965
962
963
963
964
963
965
967
965
969
967
966
965
964
965
964
965
965
969
969
967
965
967
965
962
961
966
965
967
969
969
971
968
970
966
966
965
964
965
964
963
968
968
967
968
968
968
967
965
963
963
963
964
964
967
967
968
966
966
966
963
962
961
964
962
965
966
966
964
965
964
965
963
963
962
961
964
964
966
969
968
968
968
970
969
966
968
968
970
969
968
969
968
970
967
968
964
966
965
966
966
969
970
972
971
970
969
967
966
966
965
969
969
967
967
966
966
967
970
972
970
970
971
967
968
965
971
972
972
971
971
972
970
968
968
968
967
971
971
970
972
972
970
970
969
968
970
970
972
973
975
973
972
972
973
972
972
972
971
972
974
975
977
977
978
977
975
974
972
970
970
972
974
972
974
974
972
971
971
971
971
974
977
977
979
979
979
980
980
979
976
976
973
972
972
971
970
973
976
977
978
979
977
978
978
978
977
976
975
979
981
982
983
983
980
979
977
975
976
978
979
980
979
982
977
979
977
976
974
971
970
971
974
977
982
984
985
981
977
976
973
972
972
975
978
980
980
980
977
979
977
978
974
974
974
973
975
977
982
984
986
989
988
988
986
988
987
988
989
990
991
998
1006
1009
1012
1013
1012
1011
1013
1013
1014
1014
1015
1010
1004
1002
999
993
990
983
982
978
976
975
975
975
975
974
974
972
971
969
971
969
973
973
975
978
975
975
975
974
970
967
968
965
967
963
954
941
930
929
948
989
1048
1121
1201
1277
1332
1354
1327
1258
1162
1074
1009
974
965
967
975
981
986
981
976
971
965
964
966
970
968
966
965
957
957
955
956
959
957
960
957
957
956
956
953
952
952
953
955
955
957
962
961
960
958
954
952
952
955
955
956
958
959
963
962
962
963
959
961
957
959
957
959
960
960
964
961
961
959
960
959
958
963
963
965
967
967
967
968
968
969
967
968
967
971
971
974
978
979
981
977
980
979
976
975
975
978
976
981
984
987
989
990
988
989
990
993
994
995
998
1000
1003
1004
1005
1004
1004
1007
1008
1014
1015
1019
1022
1022
1029
1032
1033
1031
1034
1035
1037
1039
1043
1047
1051
1052
1053
1057
1060
1063
1066
1069
1069
1068
1068
1069
1069
1070
1071
1076
1075
1077
1076
1072
1070
1069
1066
1064
1061
1060
1058
1052
1049
1043
1039
1036
1029
1027
1024
1020
1019
1014
1015
1011
1009
1005
999
995
995
990
990
991
990
990
993
991
990
988
985
986
983
985
984
981
983
983
982
985
987
987
987
983
984
981
979
982
984
984
988
987
987
986
986
986
984
982
983
986
986
985
987
987
988
989
989
990
991
989
992
993
995
999
1002
1003
1007
1009
1012
1009
1007
1008
1006
1004
1004
1001
1000
995
994
991
985
981
977
973
969
968
966
965
965
965
965
963
962
958
956
954
955
954
956
958
958
958
958
957
955
956
954
955
955
954
957
957
958
958
960
958
957
956
955
953
954
955
956
958
958
957
958
956
955
953
950
951
953
957
955
955
955
956
955
954
953
954
951
951
952
952
954
954
954
954
953
952
952
949
950
949
950
952
953
954
954
955
955
954
953
952
953
953
952
953
954
954
956
955
957
954
953
955
953
952
951
951
953
955
956
957
956
955
955
953
953
952
953
951
956
956
958
959
957
957
954
955
954
953
955
955
958
960
958
959
957
959
957
956
956
956
956
957
959
960
960
962
960
961
958
957
956
956
956
957
959
958
962
961
963
960
960
960
959
958
957
959
960
963
964
961
962
963
959
960
959
960
960
961
961
962
964
963
964
964
963
960
960
961
956
960
960
962
964
964
965
963
963
960
961
960
961
961
962
965
963
966
964
964
963
961
961
960
961
961
964
965
966
966
967
964
964
961
961
957
961
962
963
966
964
965
967
966
966
964
960
963
961
962
964
968
968
968
969
969
967
967
965
965
966
965
967
969
968
969
970
967
968
967
965
962
963
965
967
968
967
969
968
967
967
967
964
967
968
968
968
968
970
967
970
968
967
968
967
968
967
968
970
970
974
975
977
979
978
981
979
981
983
984
986
989
991
993
997
1002
1002
1006
1007
1007
1005
1004
1004
1003
1001
1002
998
998
993
988
984
981
978
975
973
973
972
968
967
968
965
963
962
963
963
964
965
967
968
965
967
965
964
962
961
961
962
963
964
966
970
967
964
962
952
940
923
913
913
931
971
1030
1105
1183
1261
1325
1361
1353
1304
1220
1129
1055
1012
991
992
993
1001
1000
996
987
973
963
956
956
956
957
958
958
956
952
950
946
944
942
943
945
946
948
946
947
947
946
945
944
942
942
942
941
945
944
946
945
946
944
942
941
942
943
943
942
942
945
948
946
948
946
946
944
944
943
941
945
946
948
949
949
951
950
949
950
949
950
949
953
955
954
956
957
961
959
961
957
959
959
960
962
964
965
968
968
970
971
969
970
969
971
973
977
975
981
979
982
986
986
987
988
987
990
991
992
996
997
1000
1004
1004
1006
1007
1008
1008
1010
1013
1016
1018
1021
1024
1026
1026
1028
1026
1029
1031
1033
1034
1036
1039
1042
1044
1045
1045
1044
1044
1043
1042
1042
1043
1044
1044
1046
1048
1044
1043
1038
1034
1032
1029
1028
1025
1025
1021
1018
1015
1012
1012
1008
1006
1002
999
995
995
994
994
991
993
991
990
986
985
984
983
983
981
982
983
981
984
983
980
979
980
979
979
979
979
982
981
981
982
978
980
978
977
975
974
975
975
980
981
983
985
982
981
979
973
973
972
976
974
976
977
978
979
976
973
974
973
971
970
970
968
970
971
970
971
972
973
977
978
979
980
981
980
980
981
981
986
987
992
997
1000
1001
1003
1001
996
1000
994
995
998
994
991
987
979
975
972
969
966
962
962
962
962
963
963
961
961
960
957
955
951
951
950
950
951
954
957
957
954
955
951
952
950
948
952
949
952
954
955
955
955
955
954
954
955
955
957
958
956
957
957
956
953
950
949
950
950
954
953
956
957
955
955
955
953
951
952
953
950
952
953
955
959
958
957
957
956
952
951
950
950
953
953
955
957
957
957
955
955
951
952
953
951
953
956
958
959
958
958
956
954
955
954
955
956
954
957
956
957
956
955
955
955
957
953
956
955
954
956
957
957
956
957
954
956
957
955
957
958
958
962
963
965
963
960
958
955
951
953
956
960
960
961
958
963
962
962
962
962
960
960
962
961
963
962
962
963
964
965
967
967
967
964
961
961
961
961
961
962
963
965
968
967
963
960
961
962
961
965
969
972
970
971
966
964
966
960
963
963
965
966
968
970
970
971
967
963
965
961
965
964
967
969
972
974
973
972
969
965
961
960
963
966
969
972
971
972
969
967
967
967
966
966
968
967
968
965
964
966
968
969
970
969
969
966
966
966
970
973
972
971
968
968
966
962
965
967
972
972
971
969
968
969
969
972
968
970
970
969
965
965
965
967
966
967
969
969
971
967
968
965
969
967
967
969
971
970
971
971
973
971
970
971
972
971
975
977
978
981
983
985
986
988
988
990
995
999
1005
1008
1009
1010
1011
1008
1004
1000
997
992
988
983
979
976
976
972
970
967
965
965
959
961
959
960
960
960
961
962
962
962
959
960
956
957
957
957
955
958
959
961
961
963
963
957
950
939
926
914
914
934
972
1029
1100
1176
1248
1306
1334
1324
1266
1173
1084
1010
971
958
959
964
971
972
968
961
958
953
951
951
956
959
958
955
951
949
946
944
942
943
943
944
947
947
946
945
944
943
945
941
939
942
943
945
945
945
944
943
944
944
944
941
942
940
941
941
943
944
943
943
943
940
941
943
943
944
946
945
947
949
948
949
949
949
948
947
946
948
949
951
950
953
953
954
954
956
954
954
954
955
954
958
959
962
962
961
960
961
964
963
963
963
966
968
969
971
972
972
974
974
974
975
975
978
980
981
983
986
988
991
994
993
993
994
996
998
1002
1006
1011
1013
1012
1016
1019
1019
1021
1021
1021
1024
1027
1029
1035
1039
1041
1039
1044
1044
1044
1045
1046
1047
1049
1052
1053
1054
1051
1051
1049
1049
1045
1043
1041
1039
1036
1034
1033
1034
1027
1024
1021
1017
1011
1007
1003
1002
1000
998
999
998
995
993
991
987
985
980
979
979
980
980
980
982
983
984
982
981
980
978
976
976
978
978
978
980
981
982
979
979
977
977
976
976
978
978
976
978
979
978
979
978
977
975
973
976
975
971
973
975
973
974
972
971
970
967
966
965
967
965
966
968
967
966
969
967
966
966
964
962
967
969
968
976
975
976
976
975
976
976
979
980
984
988
993
996
1001
998
995
994
993
988
985
983
984
983
980
980
977
973
968
965
959
957
955
954
953
954
954
954
953
954
953
951
949
947
947
948
946
948
952
950
950
949
948
948
947
947
947
947
947
949
949
952
952
950
949
946
946
946
947
948
949
949
949
953
949
951
951
949
949
949
951
948
949
951
951
954
951
950
950
952
950
947
947
948
948
951
953
952
951
950
949
950
949
946
950
950
949
952
952
953
954
953
952
952
948
947
945
947
950
951
952
952
952
953
951
952
951
951
950
947
951
952
954
954
955
955
952
951
954
949
952
952
954
954
952
957
957
958
957
957
956
955
955
953
956
957
958
960
958
961
960
962
960
960
959
957
955
959
961
963
964
964
963
962
962
960
959
960
961
962
961
966
964
963
961
964
964
962
961
960
961
963
965
965
967
962
963
962
959
960
960
960
961
963
963
966
965
965
964
965
963
964
963
961
965
964
965
966
966
967
968
968
967
965
963
965
965
965
965
969
970
969
969
970
966
967
965
964
967
969
969
970
969
970
970
969
970
969
967
966
969
969
968
971
969
971
971
970
968
967
966
967
968
968
968
972
970
966
967
966
966
966
967
965
968
969
971
973
972
971
970
972
970
970
968
970
969
969
970
972
972
972
971
971
968
968
970
969
968
969
970
973
972
973
973
970
969
969
968
968
970
971
972
972
972
973
972
973
975
973
973
976
980
982
982
985
988
988
991
993
995
1000
1004
1007
1010
1012
1013
1013
1012
1010
1009
1003
1001
996
995
993
989
989
987
984
979
977
972
972
969
963
963
964
963
964
964
965
968
969
967
966
966
963
962
964
964
964
969
970
971
970
967
967
960
954
941
928
914
912
933
971
1034
1113
1200
1282
1344
1371
1348
1278
1182
1091
1028
992
984
986
993
998
999
992
980
971
965
962
963
962
961
958
956
954
951
948
946
946
943
945
948
950
952
952
955
954
953
952
950
949
947
945
948
949
949
951
951
951
948
949
947
949
951
951
954
956
957
957
956
956
956
956
954
954
954
955
954
957
958
957
958
959
962
962
962
958
960
962
965
966
965
966
967
966
972
966
968
969
970
974
973
976
980
981
981
981
982
982
984
984
986
990
991
994
996
995
1000
999
1002
1004
1002
1006
1008
1010
1014
1018
1022
1023
1025
1024
1023
1024
1024
1026
1027
1031
1036
1038
1044
1045
1050
1050
1053
1052
1052
1052
1053
1056
1056
1058
1061
1062
1062
1065
1068
1067
1070
1068
1066
1064
1066
1064
1064
1061
1060
1057
1055
1052
1049
1045
1043
1041
1040
1036
1033
1029
1026
1022
1022
1018
1014
1010
1008
1005
1005
1003
1004
1001
999
994
990
988
988
990
990
990
990
993
997
995
994
993
988
984
981
981
981
983
988
990
992
991
990
987
984
984
987
988
990
992
991
992
992
992
990
990
990
988
989
990
989
987
988
992
994
995
997
998
1000
999
999
999
998
1002
1004
1012
1017
1018
1021
1019
1017
1018
1013
1010
1008
1006
1006
1005
1002
997
990
982
977
972
972
973
973
973
970
971
970
970
972
974
972
968
967
962
962
962
964
966
968
970
969
967
966
963
962
964
965
967
970
972
971
971
970
968
966
964
963
963
964
967
968
970
971
970
969
966
965
966
969
968
969
969
968
968
965
962
964
966
967
966
970
967
968
971
971
969
967
967
968
969
969
968
967
968
969
969
972
972
973
972
972
971
970
970
970
970
969
966
970
971
973
973
973
972
971
971
970
970
970
971
973
975
975
974
975
972
972
970
970
970
970
974
975
977
977
978
976
974
974
972
969
967
972
974
975
978
981
978
976
974
975
974
973
976
977
977
978
980
981
981
980
980
979
976
975
977
975
978
976
979
980
979
981
981
979
975
973
973
979
979
980
980
982
980
982
981
980
979
980
979
980
980
982
985
981
982
983
982
982
979
977
979
977
980
982
983
985
984
984
982
982
980
979
977
981
982
983
984
987
985
983
984
984
982
979
981
983
984
985
986
986
985
987
986
985
983
985
982
982
985
987
989
989
985
986
987
986
983
983
983
982
983
984
988
988
987
986
987
986
984
983
981
982
982
984
989
988
988
988
987
986
982
982
985
985
986
986
990
990
989
989
987
987
986
982
983
984
986
988
990
994
994
993
992
995
995
996
995
998
1000
1001
1004
1006
1011
1017
1018
1024
1024
1023
1024
1021
1020
1021
1018
1019
1016
1013
1012
1008
1005
1000
996
994
990
988
989
988
987
986
985
985
983
983
981
983
983
983
985
983
984
983
982
980
980
980
979
980
982
982
982
984
982
983
975
965
952
939
929
927
944
981
1038
1108
1184
1260
1321
1356
1356
1308
1228
1138
1066
1022
1005
1004
1009
1015
1016
1011
1003
991
982
976
977
978
979
979
978
977
974
968
968
961
961
964
966
967
969
967
968
967
964
965
963
962
961
961
962
964
965
965
966
963
961
963
960
961
959
962
964
964
965
969
968
966
966
966
963
962
963
964
965
966
966
969
969
970
968
964
967
965
967
968
968
969
971
971
971
974
973
972
973
967
970
971
974
978
981
981
983
982
984
982
983
982
983
985
987
985
990
992
992
992
992
992
994
994
996
996
999
1001
1007
1005
1005
1007
1006
1006
1007
1006
1008
1008
1012
1016
1019
1021
1022
1022
1026
1027
1029
1027
1032
1033
1035
1035
1038
1043
1045
1045
1048
1050
1048
1050
1052
1055
1055
1058
1061
1061
1062
1063
1064
1062
1063
1061
1059
1059
1057
1058
1060
1057
1053
1050
1047
1045
1043
1038
1037
1034
1033
1030
1028
1027
1025
1023
1018
1014
1013
1008
1008
1005
1005
1003
1001
1000
996
1000
998
998
995
995
996
996
995
997
998
997
998
996
994
994
994
989
991
991
995
997
997
997
997
995
996
997
995
994
992
993
993
996
996
997
995
995
995
991
991
987
986
988
990
990
991
990
989
990
989
986
986
984
984
984
987
987
988
991
994
995
995
997
995
996
997
999
1003
1004
1011
1017
1018
1021
1020
1018
1015
1008
1004
1003
1001
1000
1000
999
994
990
985
980
977
972
968
970
970
970
969
972
970
971
968
967
967
965
963
965
965
966
968
968
968
967
966
965
964
964
963
964
966
967
967
968
966
966
968
967
964
963
