986
985
984
983
980
980
981
982
982
982
984
980
981
980
979
978
973
977
977
978
981
981
985
984
986
986
985
986
985
987
987
990
991
996
1005
1006
1011
1010
1009
1006
1003
1001
999
996
994
994
993
988
984
979
972
970
963
962
958
960
960
959
962
961
960
959
956
956
953
954
952
954
953
956
957
956
955
956
954
952
950
948
952
951
950
951
953
953
953
953
950
950
952
951
949
952
953
953
956
956
955
951
952
949
947
947
951
952
955
955
957
953
955
953
955
953
951
950
950
952
954
956
955
957
955
955
954
953
950
949
952
954
956
954
957
956
954
954
953
955
954
952
952
954
956
958
957
957
958
958
957
957
954
952
955
953
955
957
956
959
959
959
961
959
959
957
960
960
961
961
962
966
966
963
963
959
962
959
958
960
964
964
966
966
967
966
965
963
964
962
962
961
963
964
966
967
966
967
966
963
962
965
965
967
966
970
971
966
966
966
965
966
963
962
964
965
966
968
971
970
972
973
971
972
970
966
968
968
969
971
974
972
973
972
968
969
967
967
967
968
970
972
973
974
974
973
971
970
966
967
967
966
969
970
973
972
970
972
969
970
968
970
971
975
976
977
978
976
978
975
975
975
974
973
970
972
972
973
973
974
974
974
973
974
973
975
976
978
976
980
979
979
978
976
974
975
971
973
972
976
975
979
980
981
979
978
974
974
972
974
975
977
976
977
977
976
975
977
978
979
976
975
975
975
976
977
978
981
980
979
982
978
977
978
981
983
988
991
992
993
993
992
993
991
992
992
994
1000
1005
1012
1017
1017
1017
1016
1015
1012
1011
1009
1006
1004
1003
999
997
993
987
983
979
978
975
973
973
975
974
975
977
977
975
975
973
973
970
969
973
973
975
974
974
973
973
971
970
969
968
965
966
959
950
941
933
934
952
989
1043
1113
1188
1258
1311
1336
1318
1257
1168
1080
1015
977
966
969
975
981
984
980
976
971
967
967
970
971
970
970
965
959
955
956
956
957
957
960
960
960
958
956
955
955
954
953
953
957
954
956
955
957
960
958
957
956
956
955
958
959
963
962
963
963
962
959
956
955
955
956
956
958
961
963
964
965
966
965
964
960
958
957
959
963
966
968
966
965
967
967
968
971
974
972
974
973
973
973
974
973
973
972
974
975
979
981
983
987
988
991
990
989
990
990
988
987
992
993
995
998
1002
1003
1004
1004
1005
1005
1009
1011
1013
1017
1018
1022
1027
1026
1029
1030
1031
1032
1037
1039
1042
1045
1048
1049
1054
1055
1058
1058
1059
1061
1061
1065
1067
1068
1070
1071
1075
1076
1075
1074
1075
1073
1071
1067
1066
1067
1066
1066
1063
1062
1063
1057
1052
1048
1043
1040
1039
1035
1030
1029
1030
1025
1025
1021
1017
1014
1010
1007
1006
1004
1002
1003
1002
1002
1001
999
997
992
994
992
993
994
994
997
997
996
995
992
991
990
989
988
991
990
992
993
994
994
996
993
993
991
988
988
987
988
990
990
990
990
989
988
988
989
988
988
990
992
993
996
998
998
1000
999
997
998
997
999
1003
1009
1011
1013
1014
1013
1010
1008
1005
1002
996
994
990
988
983
980
978
975
972
968
965
963
961
960
960
959
960
960
961
959
956
957
956
957
955
953
954
953
955
956
956
958
961
958
957
955
954
956
955
955
955
957
959
959
960
958
958
955
953
952
955
954
955
957
957
957
958
957
957
954
954
953
956
955
957
956
960
959
958
958
958
957
955
954
954
956
958
959
960
958
956
956
958
957
955
957
956
959
961
961
962
961
962
961
961
958
959
959
958
957
961
962
963
963
965
963
960
962
959
958
960
960
962
963
965
963
963
964
962
962
960
961
959
963
963
965
967
965
965
965
963
963
964
962
962
964
965
965
967
966
968
967
967
966
964
964
965
966
964
966
970
968
970
969
967
966
965
967
966
967
969
970
971
971
972
971
969
970
968
965
967
968
970
971
972
970
971
969
969
969
966
965
966
966
968
970
970
971
969
971
969
970
970
970
967
970
971
972
972
973
972
972
971
971
966
966
967
967
971
970
973
972
972
972
972
972
971
968
968
971
971
973
971
974
973
973
971
970
969
967
970
970
973
974
975
976
975
973
970
971
971
970
971
970
971
973
976
974
974
973
972
970
971
971
970
972
972
971
973
975
974
972
972
972
971
969
970
971
973
973
975
975
973
974
974
972
973
972
973
974
975
979
983
983
986
987
989
987
985
989
989
992
998
1002
1009
1013
1015
1015
1013
1011
1006
1005
1001
1000
997
996
997
995
992
989
985
981
975
973
973
971
971
972
972
970
972
971
969
967
966
964
964
966
967
969
969
970
968
969
969
964
964
966
962
959
952
943
931
922
924
943
982
1040
1105
1184
1258
1318
1349
1346
1297
1217
1131
1060
1016
999
996
999
1005
1004
1003
995
986
976
969
967
965
965
962
960
957
956
956
956
955
957
955
955
952
952
950
949
949
946
951
948
949
950
951
952
952
951
950
946
946
949
951
953
955
955
954
954
954
951
951
951
951
954
953
954
955
956
956
957
954
954
953
953
952
953
954
956
960
959
959
960
959
959
960
959
960
960
962
963
965
966
967
967
969
968
969
969
969
970
972
975
977
977
977
978
977
978
980
980
981
984
985
988
990
991
992
992
993
993
995
995
995
998
1000
1001
1004
1006
1007
1009
1008
1010
1010
1010
1012
1011
1018
1021
1025
1029
1028
1029
1031
1031
1033
1032
1033
1039
1040
1043
1046
1046
1045
1049
1050
1051
1051
1050
1050
1054
1056
1057
1059
1058
1058
1060
1059
1057
1056
1052
1051
1052
1049
1050
1048
1047
1045
1040
1039
1035
1030
1028
1025
1024
1022
1024
1024
1021
1018
1018
1015
1010
1008
1004
1000
998
998
999
1000
999
998
994
993
990
990
988
987
988
989
990
991
992
992
989
987
982
982
984
985
985
988
988
990
990
989
988
988
985
986
984
980
982
984
984
984
985
983
984
981
980
976
974
975
973
979
978
981
980
978
978
976
975
974
974
971
974
976
980
983
983
984
983
983
981
982
982
985
989
992
994
999
1003
1007
1009
1010
1010
1008
1004
1001
998
997
995
992
990
987
982
977
973
969
962
961
960
960
964
966
965
964
962
960
956
954
954
955
955
956
960
961
960
960
960
959
958
957
958
958
959
960
961
963
964
964
960
958
960
955
955
958
959
960
962
960
961
963
960
959
960
958
960
960
958
959
960
964
961
965
963
963
960
960
959
960
957
960
962
959
960
960
960
960
958
958
958
962
963
965
964
965
965
961
961
959
960
960
961
961
960
959
961
965
965
964
964
962
963
962
958
959
961
959
960
962
964
964
964
962
960
960
959
963
964
970
971
973
971
967
967
963
964
964
965
967
968
969
969
970
970
969
967
964
965
965
966
968
967
968
970
971
969
969
972
971
970
969
968
970
971
974
972
973
973
970
969
968
967
966
969
968
966
968
971
975
974
977
977
973
971
970
970
972
975
975
976
978
976
977
974
974
972
972
970
971
971
974
976
979
980
978
977
975
970
969
968
968
972
975
979
980
980
978
978
977
977
976
975
976
975
977
978
981
979
977
979
977
978
976
976
975
976
974
975
977
977
978
979
982
981
981
980
979
978
980
980
981
980
979
978
979
977
975
975
978
978
980
981
981
983
985
985
985
981
978
978
978
978
979
980
983
984
985
985
984
981
979
979
978
979
983
985
989
989
992
989
986
985
982
981
975
976
979
982
986
991
993
996
998
997
996
995
995
995
1001
1006
1013
1021
1024
1027
1026
1024
1019
1012
1013
1012
1010
1008
1008
1006
1004
1002
998
991
989
984
983
980
983
981
978
982
981
980
980
980
980
980
980
979
980
982
982
982
983
983
983
980
977
974
966
956
944
938
945
971
1020
1087
1165
1242
1306
1346
1349
1303
1221
1122
1042
988
965
963
969
977
984
985
980
975
972
971
973
974
974
974
972
971
967
964
964
962
965
965
965
965
967
967
965
963
962
962
963
959
960
961
961
965
963
964
963
963
962
960
962
962
963
966
968
967
965
963
964
964
965
964
962
965
965
967
967
967
966
966
967
969
969
967
968
967
968
971
973
974
975
976
974
974
976
974
975
975
980
978
982
983
983
984
984
982
983
983
986
986
988
990
992
992
993
994
995
996
996
997
998
999
1000
1002
1007
1009
1009
1012
1014
1012
1014
1014
1017
1018
1024
1028
1032
1035
1036
1039
1042
1043
1045
1046
1045
1049
1054
1059
1059
1063
1064
1066
1068
1069
1068
1070
1069
1071
1072
1075
1078
1078
1078
1079
1076
1076
1073
1069
1067
1065
1066
1062
1063
1062
1057
1055
1053
1049
1045
1042
1040
1040
1039
1037
1037
1034
1031
1028
1028
1021
1020
1017
1014
1011
1012
1013
1013
1013
1009
1010
1005
1003
1003
999
1003
1000
1002
1001
1002
1003
1001
1002
1003
1001
1001
999
1000
999
998
1000
1000
1001
999
1001
1000
997
995
994
993
990
991
992
994
993
993
994
992
989
990
989
988
987
988
986
989
989
989
988
990
989
992
991
992
993
995
997
999
1001
1001
1004
1007
1011
1012
1016
1014
1015
1016
1013
1013
1012
1008
1008
1002
997
995
991
989
985
983
979
977
973
970
973
971
969
967
965
965
966
964
966
964
965
965
962
962
963
962
960
958
960
958
961
959
962
961
962
961
962
960
958
960
958
960
960
962
963
962
964
963
961
958
958
958
960
962
963
964
964
964
964
963
962
961
961
960
961
959
961
964
963
962
962
962
958
960
959
955
959
958
960
961
964
963
963
961
960
960
957
958
957
960
962
962
964
962
963
962
963
960
962
961
960
961
962
964
963
962
965
961
962
962
962
962
965
964
965
967
969
968
968
967
967
966
964
964
964
966
968
970
969
971
972
969
969
967
966
966
967
968
969
970
971
971
971
971
969
965
967
969
969
969
971
974
972
973
974
971
971
972
970
971
972
972
975
975
977
975
975
971
972
970
972
972
973
975
975
976
977
976
977
976
975
974
973
973
971
972
972
972
976
976
976
975
974
972
970
973
973
973
976
977
977
977
978
976
976
973
973
973
972
974
973
977
975
976
976
975
976
975
973
972
973
974
973
976
978
978
978
976
978
979
978
978
978
979
978
980
982
982
982
981
980
979
978
978
976
976
979
982
982
982
981
977
981
978
977
979
979
981
981
980
982
983
981
981
978
979
978
979
979
980
979
981
985
984
984
982
984
981
979
981
981
983
982
982
984
983
982
985
983
982
981
981
981
981
983
981
988
990
992
993
994
995
991
992
994
996
1001
1007
1012
1017
1022
1023
1023
1020
1018
1016
1012
1013
1010
1012
1009
1007
1005
1002
997
991
988
983
980
980
977
979
980
981
983
980
976
975
974
974
974
975
976
978
978
978
978
977
976
975
974
973
970
964
958
945
932
924
940
978
1040
1120
1207
1293
1355
1378
1348
1272
1177
1092
1035
1006
1002
1006
1015
1019
1015
1007
997
987
979
975
974
975
971
967
964
964
962
960
960
961
963
962
960
957
958
955
954
955
954
954
955
956
958
955
955
955
955
954
954
954
955
956
958
959
960
958
957
959
957
955
955
954
956
959
958
958
960
960
959
959
958
961
958
957
958
959
963
963
964
964
964
963
966
967
965
965
964
967
970
974
973
974
974
973
972
972
973
975
977
980
980
982
984
985
986
987
986
988
987
989
990
993
995
998
998
1002
1002
1001
1001
1002
1004
1006
1006
1008
1007
1009
1011
1015
1017
1020
1021
1023
1024
1024
1024
1029
1028
1031
1035
1039
1040
1043
1043
1044
1046
1048
1048
1046
1052
1055
1060
1061
1067
1066
1065
1062
1062
1061
1061
1065
1067
1070
1070
1072
1072
1069
1067
1064
1062
1062
1060
1055
1057
1055
1054
1050
1048
1046
1043
1039
1036
1032
1030
1026
1024
1025
1023
1022
1018
1017
1017
1010
1007
1006
1003
1001
1000
1004
1005
1003
1001
998
993
989
989
988
986
989
992
997
1000
1000
999
997
994
990
988
987
985
987
986
989
992
994
993
991
989
987
986
987
989
991
990
990
987
986
986
982
982
981
982
987
987
990
992
993
994
993
992
993
991
990
989
989
991
993
998
1003
1013
1018
1020
1019
1016
1014
1010
1007
1003
1002
1000
997
995
994
992
983
976
971
969
966
965
966
967
969
965
961
962
962
963
962
963
963
963
961
959
961
963
964
966
963
960
958
957
957
958
959
961
962
965
967
965
963
960
958
957
958
961
962
962
962
964
962
965
964
964
964
962
964
962
962
960
962
964
964
965
964
958
957
957
957
960
962
963
962
962
963
964
963
964
962
960
958
958
959
958
961
962
962
963
962
963
962
961
960
960
962
962
961
963
965
961
962
961
962
961
962
962
967
965
968
970
969
968
965
962
962
964
963
965
967
968
968
967
964
966
967
967
967
965
968
969
969
970
971
972
970
970
968
967
968
965
966
965
970
970
973
971
971
969
969
969
967
967
969
968
968
970
971
971
970
970
969
969
963
964
967
967
970
973
973
974
972
973
971
971
967
969
969
968
971
971
974
973
969
972
971
971
972
974
975
973
972
971
971
974
974
978
979
976
975
969
969
968
970
972
974
978
980
982
979
975
972
969
969
971
972
970
975
978
980
981
979
978
975
975
977
972
976
977
980
979
978
981
979
978
977
976
976
977
978
978
979
980
981
982
979
980
977
978
975
975
979
978
979
981
982
981
980
979
980
977
976
978
978
977
981
981
978
980
979
980
978
977
976
977
978
976
980
981
982
983
983
981
978
979
978
980
982
985
985
989
989
990
991
991
992
991
993
996
999
1000
1007
1014
1018
1020
1018
1018
1016
1012
1008
1008
1008
1005
1006
1003
998
994
990
985
979
976
973
973
974
974
975
977
977
977
976
974
973
971
971
969
971
974
974
974
974
972
973
972
964
960
954
937
927
926
937
974
1029
1102
1181
1257
1317
1347
1330
1264
1172
1084
1022
991
981
981
987
992
992
986
978
972
965
965
966
968
966
963
962
958
956
953
953
952
953
955
954
955
955
956
955
954
951
952
950
951
952
951
953
953
952
955
951
953
952
951
951
951
953
953
953
952
953
956
954
952
953
952
954
954
956
956
957
958
959
962
960
958
957
954
958
959
959
962
964
965
966
967
966
967
966
965
967
966
970
970
971
975
974
975
974
975
974
976
975
977
979
981
983
987
988
988
986
985
984
985
987
991
991
995
997
1001
1003
1005
1007
1007
1006
1006
1009
1012
1013
1016
1018
1023
1024
1027
1027
1029
1031
1032
1031
1033
1036
1042
1044
1050
1052
1056
1056
1056
1057
1057
1057
1060
1062
1064
1066
1067
1068
1070
1068
1070
1068
1064
1063
1062
1063
1063
1062
1063
1063
1060
1060
1055
1052
1049
1046
1043
1042
1042
1038
1038
1038
1036
1031
1028
1026
1022
1017
1016
1015
1014
1015
1015
1012
1013
1008
1005
1003
1001
1002
999
999
999
1001
1001
999
1000
1000
997
997
994
995
994
995
995
994
997
996
996
994
992
994
989
989
991
990
990
991
993
994
992
993
990
990
989
987
987
989
987
987
987
988
989
988
987
985
983
982
984
984
986
988
991
989
991
991
991
992
990
991
993
996
997
1001
1008
1011
1015
1015
1015
1011
1008
1005
1002
1002
1000
999
999
997
994
991
985
980
975
973
969
971
969
968
970
969
967
964
963
960
957
955
957
958
959
961
962
961
963
962
961
960
959
961
960
961
962
962
965
963
963
964
962
962
959
959
959
962
963
962
964
965
962
962
961
960
959
961
959
960
960
961
962
960
962
961
958
960
960
959
959
960
961
963
962
965
964
964
962
960
960
960
957
958
959
961
962
961
962
960
961
959
960
957
958
958
959
962
963
963
963
961
962
960
961
962
962
963
962
965
964
965
966
966
964
962
963
963
962
962
963
965
966
967
965
965
963
966
963
964
964
966
967
968
969
969
969
967
966
966
964
964
965
966
967
968
971
972
971
971
970
970
968
967
967
968
969
971
973
971
973
972
971
970
970
967
968
968
969
974
975
974
971
972
971
971
968
970
969
967
971
971
972
971
971
973
971
972
969
969
970
972
972
974
972
973
974
971
970
974
971
973
973
974
975
976
977
975
974
975
972
971
971
970
970
974
976
977
977
976
977
978
977
978
977
974
974
977
977
977
981
981
980
980
976
975
974
976
976
976
978
977
981
981
980
979
979
979
978
978
975
979
980
981
983
982
981
983
980
978
977
975
976
977
978
978
980
980
979
979
980
978
977
977
978
980
979
981
982
983
984
984
983
981
980
981
981
982
985
988
990
990
992
993
996
992
995
997
1000
1005
1012
1019
1022
1024
1024
1023
1023
1017
1016
1011
1006
1003
1001
1001
999
997
995
990
984
980
977
976
975
977
980
982
983
981
980
978
977
976
974
975
973
975
975
978
978
979
978
978
977
973
968
964
956
946
932
924
932
956
1008
1079
1164
1247
1319
1368
1374
1334
1248
1149
1066
1014
989
987
992
1003
1008
1004
995
984
973
968
968
969
970
968
970
965
961
960
959
959
962
963
965
963
963
961
962
960
958
959
958
959
958
958
958
958
960
961
961
960
961
963
962
963
964
965
967
965
964
964
962
962
961
964
965
968
968
972
969
969
970
972
974
975
973
969
967
970
970
971
973
973
976
979
980
978
980
978
976
978
980
984
987
