964
965
966
966
965
967
967
966
965
965
962
962
963
964
964
965
965
967
965
967
966
965
963
963
962
963
966
968
970
968
970
970
968
968
967
965
964
965
967
965
969
970
970
970
969
968
968
967
966
965
966
969
973
974
972
972
970
969
969
969
966
970
970
971
973
974
972
974
974
971
971
971
972
972
971
972
974
973
975
978
974
975
972
974
972
973
974
975
972
974
977
977
977
976
976
973
974
975
976
977
978
980
979
979
976
977
977
976
978
977
979
980
980
982
982
980
978
981
980
977
978
980
980
977
982
984
984
983
983
982
980
979
979
981
982
983
983
986
985
984
981
980
982
980
978
980
982
982
984
982
984
984
983
982
981
979
980
981
981
984
984
985
983
983
983
981
980
980
979
978
978
979
982
984
985
981
982
984
981
981
982
980
980
980
983
982
984
987
987
988
984
982
983
981
984
984
986
986
988
988
985
983
983
980
979
978
981
982
985
986
985
987
986
985
983
983
981
983
984
986
989
988
987
986
984
985
984
984
983
985
983
983
987
990
989
990
993
989
988
986
989
992
994
999
1002
1004
1005
1008
1007
1009
1010
1014
1018
1020
1025
1029
1028
1028
1024
1025
1021
1019
1015
1015
1014
1010
1005
1003
999
999
993
989
986
982
980
978
978
978
981
981
984
985
983
986
984
981
982
982
980
978
981
983
983
986
985
984
981
979
974
967
955
941
934
940
970
1026
1099
1184
1268
1336
1371
1356
1292
1197
1102
1031
994
983
986
995
1005
1006
1002
992
982
975
973
974
975
975
972
972
968
966
964
965
964
964
964
967
969
970
969
968
966
963
964
960
962
961
964
963
967
969
968
970
967
966
964
962
963
962
966
968
971
973
972
975
973
974
974
972
970
971
969
971
972
973
975
977
979
983
983
982
980
980
980
983
984
988
989
985
985
986
985
983
983
986
989
990
993
997
998
998
998
998
997
997
1000
1000
1002
1006
1011
1015
1016
1016
1017
1017
1017
1016
1018
1020
1022
1024
1027
1032
1033
1037
1039
1041
1041
1042
1043
1042
1045
1049
1055
1060
1062
1066
1068
1067
1066
1066
1069
1069
1073
1075
1078
1081
1085
1086
1084
1085
1081
1080
1077
1077
1078
1078
1081
1078
1076
1076
1072
1070
1066
1065
1062
1056
1053
1053
1048
1048
1047
1041
1035
1030
1027
1022
1022
1023
1021
1020
1020
1019
1017
1011
1011
1010
1009
1006
1003
1003
1000
1000
1000
998
997
999
1001
1003
1003
1001
1000
998
999
1002
1003
1003
999
1002
1000
997
995
992
992
996
999
1001
1002
1004
1002
1002
999
998
995
991
989
991
993
996
1000
1002
1004
1006
1006
1008
1008
1008
1005
1004
1006
1009
1011
1018
1023
1026
1026
1023
1019
1017
1015
1013
1012
1011
1009
1006
1008
1007
1003
994
989
984
976
971
971
969
972
974
975
979
980
975
977
974
974
973
973
969
970
973
973
973
973
970
970
968
969
968
969
972
972
972
972
972
971
970
971
969
969
969
968
968
970
971
972
969
965
967
965
962
963
966
967
967
967
970
969
972
969
968
968
970
965
967
967
967
970
971
970
970
969
969
969
968
967
964
967
969
971
974
973
972
969
970
969
970
970
972
972
971
973
974
974
973
971
971
972
972
971
972
971
974
975
977
976
977
974
973
973
973
973
971
974
976
976
977
976
975
978
976
975
975
976
977
975
976
976
978
977
975
975
973
975
975
973
975
977
977
979
979
981
980
980
976
976
974
975
977
978
979
980
982
979
982
982
980
978
978
976
977
979
980
979
982
984
985
983
983
981
979
977
979
979
980
983
984
982
983
981
981
981
979
979
980
979
980
982
983
982
983
983
982
982
978
979
980
980
984
983
986
983
984
983
983
981
980
981
982
983
984
983
985
982
983
985
983
981
982
983
980
981
983
984
986
986
985
984
985
984
983
985
985
986
987
988
988
990
989
988
988
986
985
985
987
986
989
989
991
991
990
989
988
988
988
987
987
985
989
990
993
992
992
992
988
987
986
984
986
987
988
990
991
989
988
988
994
994
992
996
997
1000
1001
1004
1005
1008
1010
1010
1014
1017
1020
1025
1028
1029
1028
1027
1024
1022
1018
1016
1016
1012
1010
1006
1004
998
994
992
990
989
986
985
982
980
979
978
977
981
981
983
983
982
983
983
980
980
979
979
979
979
984
984
985
985
979
973
961
950
935
929
938
966
1020
1090
1174
1257
1323
1363
1363
1318
1232
1145
1069
1024
1006
1002
1008
1015
1018
1014
1007
994
986
978
976
975
976
977
977
976
970
971
967
966
965
964
963
965
964
965
967
967
966
966
963
962
960
960
960
959
961
963
963
963
964
964
962
963
959
962
963
963
965
966
968
968
969
966
966
965
965
964
964
965
966
968
970
969
971
970
968
967
966
968
968
968
969
972
972
974
974
974
975
973
972
972
973
975
976
978
981
980
982
981
983
982
983
983
984
986
985
987
989
994
992
996
995
993
995
996
997
1000
999
1003
1005
1008
1011
1011
1012
1009
1011
1014
1017
1021
1022
1025
1030
1030
1034
1036
1036
1038
1038
1037
1040
1042
1048
1051
1053
1054
1056
1057
1059
1061
1061
1062
1064
1066
1066
1069
1071
1071
1070
1069
1067
1065
1059
1060
1056
1056
1053
1052
1051
1049
1045
1042
1038
1034
1028
1027
1025
1023
1018
1017
1019
1015
1013
1012
1010
1006
1004
999
1003
999
1000
1002
1001
1000
998
1000
999
998
997
995
997
994
995
995
997
996
996
992
992
992
992
993
992
994
996
996
995
997
997
993
992
993
992
989
990
990
991
992
994
992
993
992
990
990
989
986
986
985
986
985
985
987
984
984
985
984
982
983
984
988
990
993
997
999
998
999
994
994
995
1000
1003
1006
1009
1013
1016
1020
1019
1014
1012
1009
1002
1002
1000
999
996
996
994
990
986
982
976
974
969
968
967
968
969
970
970
969
968
968
966
963
960
959
958
960
961
965
965
963
966
963
962
961
955
956
957
958
962
964
966
966
965
964
962
960
959
955
958
961
963
964
966
964
965
962
959
957
958
959
960
959
965
965
970
968
965
963
962
961
961
962
963
964
964
964
963
964
963
960
959
958
956
958
959
963
964
965
967
965
966
965
965
963
960
961
962
962
963
962
964
966
963
965
965
963
962
961
959
962
965
965
968
966
968
964
966
967
966
966
965
965
965
967
971
971
972
974
971
968
967
966
964
969
970
973
975
973
972
971
967
965
963
963
964
970
971
973
975
974
977
973
971
972
969
967
968
969
971
971
973
977
978
979
979
978
973
974
973
975
976
977
977
978
978
981
979
977
975
976
977
979
981
982
983
982
979
979
975
976
974
973
974
978
979
981
983
983
981
983
982
983
983
980
978
979
980
981
983
982
984
983
983
985
985
981
984
980
982
982
983
986
985
986
984
981
980
980
984
987
988
990
991
990
988
985
984
983
982
982
982
982
984
988
989
991
989
988
984
983
980
980
982
984
985
987
990
989
989
989
990
989
987
986
984
982
984
984
987
990
991
991
990
986
983
984
982
986
986
990
993
997
999
1000
1002
1001
1003
1003
1005
1009
1008
1015
1018
1023
1025
1027
1027
1027
1023
1021
1019
1013
1011
1011
1011
1006
1007
1003
999
993
990
988
986
985
984
985
985
984
983
982
981
982
981
981
982
984
982
983
984
984
985
983
986
984
984
984
981
979
975
971
961
949
939
946
972
1020
1084
1165
1243
1315
1361
1365
1319
1234
1136
1050
995
971
970
975
983
986
989
988
986
979
974
973
972
974
976
978
977
974
973
971
972
974
972
974
974
971
969
967
964
966
966
969
969
971
970
972
971
967
965
966
967
969
968
968
970
970
971
973
974
973
973
971
966
969
969
967
971
976
976
976
974
975
975
970
973
971
971
973
976
980
983
982
980
979
979
979
975
976
980
982
986
985
986
986
986
988
987
987
989
990
991
993
995
997
997
997
999
997
999
998
1002
1005
1006
1008
1011
1014
1017
1014
1014
1015
1017
1016
1015
1021
1022
1025
1029
1031
1030
1034
1034
1037
1038
1040
1040
1044
1047
1049
1053
1056
1058
1061
1061
1063
1064
1065
1068
1069
1071
1079
1080
1081
1081
1086
1085
1085
1083
1083
1084
1084
1084
1085
1085
1086
1085
1083
1079
1078
1075
1071
1071
1067
1066
1063
1064
1061
1057
1054
1049
1046
1040
1035
1034
1031
1028
1027
1023
1023
1022
1019
1016
1015
1011
1009
1007
1005
1005
1006
1008
1006
1005
1005
1003
1002
1001
1001
997
999
999
1000
1001
1001
999
1002
999
999
999
997
999
998
1000
999
1000
1001
1000
998
998
996
995
995
994
994
994
995
995
997
996
996
993
993
994
993
995
995
998
1001
1001
1002
1004
1005
1003
1003
1004
1007
1011
1014
1019
1020
1023
1022
1020
1016
1013
1009
1003
1000
1000
997
995
994
992
986
983
978
975
973
971
968
966
967
970
968
967
969
967
966
963
963
962
958
960
958
963
962
963
964
963
961
960
960
957
958
956
956
959
961
962
963
962
963
961
961
957
958
959
959
961
962
964
964
963
964
960
961
959
957
955
958
958
962
961
963
964
964
963
962
958
959
958
959
961
961
962
962
961
959
960
957
958
956
957
960
960
962
963
961
963
965
963
961
960
961
959
959
959
959
964
966
965
964
964
962
963
959
960
961
961
963
966
967
965
966
964
962
964
962
964
961
963
968
968
968
968
967
967
963
963
960
962
962
963
963
966
968
965
968
968
967
965
966
964
965
966
965
965
968
968
969
966
965
967
965
963
965
966
966
968
968
973
971
968
967
968
968
967
968
968
968
971
970
969
969
972
970
967
969
968
966
968
968
969
971
973
973
972
972
971
970
970
968
970
972
973
975
975
975
973
972
972
971
972
970
971
977
977
977
975
977
977
976
973
974
972
975
974
975
977
978
974
976
976
974
975
972
970
971
973
974
978
977
977
978
976
975
975
974
976
975
973
975
977
975
978
977
978
976
975
974
974
972
975
975
977
979
979
978
977
976
977
976
976
974
976
979
978
979
979
981
978
979
978
978
979
979
982
983
986
992
991
991
991
993
993
994
998
1002
1008
1013
1017
1020
1018
1018
1012
1009
1008
1003
1001
999
996
996
991
987
983
981
977
974
970
967
969
970
971
972
972
973
971
973
971
972
969
968
966
970
968
966
969
973
971
969
961
954
945
929
919
925
955
1011
1086
1179
1267
1339
1376
1361
1294
1197
1107
1041
1005
994
999
1006
1009
1009
999
988
976
969
965
964
961
962
961
961
958
957
958
957
957
955
954
954
955
956
957
959
958
956
954
955
955
955
956
953
954
958
957
959
959
959
955
957
954
955
954
954
955
958
958
958
956
958
957
956
956
956
956
958
959
960
962
963
962
964
962
963
959
959
960
963
967
969
971
974
973
974
975
974
974
975
975
976
978
980
982
985
985
987
987
987
985
986
988
989
990
993
997
997
998
999
1000
999
1000
1001
1002
1004
1008
1009
1011
1013
1015
1015
1020
1020
1020
1020
1023
1024
1027
1028
1033
1035
1036
1038
1039
1039
1040
1040
1042
1044
1047
1049
1053
1056
1055
1057
1059
1059
1055
1059
1057
1057
1056
1056
1055
1052
1052
1050
1047
1045
1040
1037
1037
1031
1029
1030
1030
1027
1023
1020
1017
1013
1008
1007
1004
1002
1002
1002
1001
999
995
995
992
991
988
990
992
989
990
990
990
992
990
991
991
990
987
986
987
986
985
985
988
987
987
989
990
990
987
984
982
979
980
984
986
987
987
987
984
982
981
982
983
982
984
985
988
988
988
988
986
987
986
986
990
992
997
1001
1006
1010
1013
1014
1015
1013
1010
1004
1000
1000
999
999
999
998
995
990
984
980
974
971
968
967
968
970
970
971
970
966
967
962
959
959
961
961
961
963
963
964
964
963
963
960
960
959
960
961
962
961
963
965
964
965
962
960
960
958
957
957
957
956
957
958
961
962
965
965
963
964
962
962
961
963
963
966
965
963
961
963
958
957
956
956
957
961
960
962
962
963
962
963
962
962
961
962
960
962
962
962
962
963
960
961
960
958
961
963
963
964
967
965
962
962
961
964
963
964
963
963
965
964
966
969
967
970
967
967
966
966
964
963
965
965
965
965
965
966
969
968
969
966
967
965
965
966
968
969
965
968
969
970
967
967
965
966
968
971
972
973
972
972
973
972
971
971
967
965
968
968
969
972
976
979
981
979
977
973
972
971
969
972
976
976
973
974
974
973
967
971
970
973
976
978
978
981
979
978
976
975
973
972
973
971
970
973
976
976
977
976
980
980
979
977
976
978
974
975
978
979
979
978
977
976
973
971
976
981
983
986
986
985
982
983
980
978
976
973
974
975
982
985
986
987
984
983
981
977
977
979
983
984
983
982
984
984
982
979
980
981
981
980
984
985
987
989
988
989
984
984
980
979
977
979
981
980
982
982
983
984
984
984
981
982
980
982
984
985
987
986
985
986
984
985
983
984
985
983
981
983
983
986
991
995
999
999
1002
1001
1001
1000
1003
1003
1011
1017
1020
1024
1023
1022
1020
1018
1016
1012
1015
1013
1013
1011
1008
1006
1001
998
993
988
984
982
980
977
977
975
975
975
972
976
976
977
978
975
974
972
970
973
976
978
977
978
977
975
976
974
975
972
968
957
948
937
937
954
995
1055
1129
1208
1283
1337
1356
1332
1259
1160
1067
1003
967
959
962
969
975
978
977
974
971
967
967
972
971
971
969
966
965
964
963
963
963
963
963
964
963
963
962
959
960
960
961
962
965
967
966
967
964
962
964
964
963
962
966
968
967
970
970
968
968
965
965
963
964
965
966
967
969
970
970
970
969
970
969
968
969
967
970
971
974
975
975
979
978
977
976
975
976
978
980
982
983
984
984
986
985
987
985
985
986
987
991
991
993
995
995
999
998
998
1000
998
999
1000
1000
1006
1007
1009
1011
1014
1012
1014
1012
1015
1015
1019
1020
1024
1028
1030
1033
1036
1037
1037
1040
1039
1043
1046
1047
1052
1056
1059
1061
1061
1062
1062
1062
1061
1065
1066
1069
1069
1071
1074
1076
1076
1077
1074
1074
1069
1069
1070
1071
1071
1069
1068
1067
1064
1059
1057
1053
1050
1044
1043
1039
1038
1039
1037
1034
1032
1029
1024
1021
1017
1015
1014
1012
1012
1012
1010
1006
1007
1005
1003
999
998
998
997
1000
1001
1000
1000
999
1000
998
999
996
994
995
996
997
998
997
1000
998
999
996
995
994
991
993
993
992
991
995
995
996
995
994
991
991
988
990
988
988
989
990
991
992
990
992
991
991
992
992
994
996
995
995
998
1001
1002
1005
1008
1010
1009
1014
1015
1016
1014
1015
1013
1010
1008
1005
1002
999
994
991
987
984
979
978
976
974
972
971
965
965
963
963
961
964
964
964
965
965
965
964
962
959
958
955
958
958
964
965
963
963
963
962
961
959
958
955
956
956
960
962
961
960
962
962
961
960
960
957
959
959
961
962
963
962
963
964
961
962
961
959
960
959
962
963
961
962
962
961
957
958
957
957
956
961
959
960
960
961
963
961
962
960
959
958
960
960
957
957
961
960
961
960
960
959
959
958
957
959
959
963
964
962
963
962
962
959
959
957
961
961
963
964
968
965
967
965
965
963
963
960
961
964
966
969
969
968
966
965
967
967
965
963
965
964
965
968
971
970
970
969
968
967
965
967
966
967
965
968
971
970
970
969
968
967
966
967
966
965
969
969
972
970
969
967
964
966
967
967
968
968
970
972
972
973
973
974
972
973
970
969
970
971
972
975
975
975
975
974
975
973
969
971
970
972
973
974
976
977
977
976
975
973
973
974
973
974
976
976
976
978
977
978
976
977
973
974
976
975
976
977
979
978
976
977
976
975
970
973
973
974
974
972
973
973
973
974
975
974
974
973
973
974
976
976
980
979
978
977
977
975
974
975
974
975
976
979
980
978
979
978
977
976
975
974
977
979
981
982
987
989
989
991
990
990
990
992
992
993
998
1001
1008
1011
1018
1019
1018
1018
1014
1011
1006
1007
1005
1005
1005
1002
997
992
985
982
978
975
974
975
975
973
975
975
975
974
973
971
970
968
970
972
973
975
976
977
977
975
973
973
971
968
962
953
942
929
924
936
972
1029
1103
1185
1266
1332
1368
1361
1304
1218
1127
1060
1020
1005
1004
1011
1014
1016
1012
999
990
979
973
971
970
969
966
963
962
959
958
956
956
959
960
959
959
958
958
955
955
951
951
953
956
957
958
958
958
956
956
956
953
953
952
952
955
956
958
957
960
959
957
957
957
956
958
959
961
964
963
965
964
966
964
964
962
961
961
962
965
967
969
970
969
969
967
968
968
970
970
972
974
977
980
979
980
982
981
983
981
982
983
986
989
991
992
993
994
992
996
994
996
998
998
998
1002
1006
1009
1010
1012
1013
1015
1011
1013
1016
1018
1020
1024
1026
1030
1033
1033
1033
1033
1037
1038
1037
1039
1040
1042
1045
1050
1051
1054
1053
1054
1052
1051
1053
1053
1056
1057
1061
1062
1063
1062
1060
1061
1059
1058
1055
1055
1055
1052
1051
1051
1047
1046
1042
1036
1033
1029
1028
1025
1023
1021
1019
1019
1017
1014
1011
1008
1006
1003
1003
1004
1003
999
999
999
997
998
998
995
995
995
993
990
993
994
996
998
997
997
996
996
995
993
993
993
993
992
994
994
992
995
997
995
995
991
991
989
988
991
992
994
992
994
993
991
991
991
991
994
997
1000
1003
1008
1007
1008
1009
1008
1008
1008
1011
1013
1017
1021
1023
1023
1021
1017
1014
1010
1007
1004
1000
998
996
996
993
991
986
980
977
975
974
