958
958
960
961
961
961
959
959
957
958
958
959
962
961
961
962
960
959
963
963
962
961
960
962
960
957
958
961
964
964
965
961
956
955
956
959
963
967
971
973
970
968
967
964
962
958
957
960
963
969
970
973
973
972
970
966
962
959
960
962
968
971
971
970
970
966
963
960
963
963
967
970
973
972
975
975
972
972
969
970
967
968
967
968
965
966
967
968
973
973
972
971
968
966
966
967
968
974
978
978
979
975
973
969
967
964
964
966
970
969
973
975
975
973
972
971
972
973
972
971
974
974
975
972
972
974
975
973
972
970
971
970
974
976
979
979
975
972
972
973
972
969
971
971
975
975
980
982
985
989
989
991
991
991
994
998
1002
1006
1010
1011
1013
1009
1006
1005
1005
1003
1000
999
999
998
994
990
987
981
977
974
968
968
970
970
970
969
971
973
971
973
972
971
971
970
969
969
971
971
973
973
974
975
974
972
969
965
956
948
938
929
930
943
979
1034
1102
1175
1247
1307
1340
1337
1290
1205
1109
1029
978
956
953
958
965
966
968
964
962
963
961
960
963
965
965
963
962
959
955
955
956
957
958
958
959
958
955
955
953
953
954
952
954
957
958
957
956
957
958
957
957
954
952
952
954
957
957
959
958
957
957
956
956
957
956
957
958
961
962
961
960
961
960
958
958
958
958
960
959
962
963
963
966
965
966
964
964
961
963
963
967
967
970
971
971
972
973
972
970
973
973
975
976
978
981
981
982
983
985
985
987
987
989
990
993
994
999
999
999
1004
1005
1005
1004
1007
1009
1011
1016
1020
1021
1024
1025
1025
1027
1030
1028
1031
1033
1034
1038
1038
1043
1046
1049
1050
1047
1049
1051
1050
1052
1054
1054
1055
1061
1061
1059
1059
1057
1056
1053
1051
1048
1045
1045
1045
1043
1041
1035
1032
1027
1022
1020
1013
1011
1011
1007
1003
1003
998
998
996
993
989
987
985
985
984
985
984
986
986
984
985
983
984
981
981
981
981
983
984
986
987
987
988
987
984
984
982
985
986
986
987
990
989
989
989
988
986
984
985
983
983
981
985
986
988
985
985
986
984
980
980
981
984
986
987
991
994
993
994
992
993
993
993
997
1001
1006
1010
1012
1011
1010
1007
1003
1000
997
996
992
990
987
984
982
978
973
970
965
963
961
962
960
962
960
960
960
961
960
958
958
957
955
954
954
956
957
957
957
958
958
957
956
956
955
952
954
956
954
956
956
956
956
957
959
957
955
955
952
956
955
955
959
958
960
960
958
956
956
954
954
955
957
957
957
956
957
959
955
954
955
955
953
955
957
958
961
961
959
961
958
957
957
955
956
955
956
961
959
962
960
961
959
958
957
957
959
959
960
960
962
963
963
963
960
959
960
960
959
957
960
961
961
960
962
962
960
959
961
959
959
961
959
962
963
963
960
960
963
962
961
961
961
964
965
964
967
966
964
963
962
964
962
960
964
963
964
965
968
967
968
968
967
967
965
962
963
965
967
966
969
969
967
970
968
967
966
966
966
963
965
969
969
968
972
969
970
970
969
968
968
967
969
972
973
974
973
973
972
972
970
968
970
970
973
972
973
975
975
976
974
975
972
970
972
972
973
974
975
974
972
974
975
975
973
973
973
970
973
974
978
977
977
977
973
970
973
970
973
974
975
975
977
978
975
977
976
975
972
974
973
973
972
973
977
979
978
979
977
975
974
974
975
975
979
978
980
980
979
981
979
978
977
976
977
977
979
980
984
985
988
986
990
990
991
990
992
995
996
1001
1005
1010
1013
1018
1018
1018
1017
1015
1011
1010
1009
1008
1007
1004
1000
999
994
991
986
982
978
975
976
977
978
979
977
977
975
972
972
970
969
972
973
971
973
974
973
974
973
970
970
969
968
967
965
960
953
937
926
924
938
973
1033
1108
1190
1270
1335
1368
1359
1304
1218
1126
1055
1015
996
998
1002
1009
1013
1008
1000
988
979
974
968
967
962
960
959
956
959
958
959
960
958
956
956
955
953
955
953
952
953
956
958
959
959
959
957
954
955
956
958
960
963
964
966
964
959
958
956
956
955
955
956
957
958
959
960
964
964
966
965
966
964
963
963
963
964
965
966
967
969
969
966
965
962
962
966
968
967
972
972
974
976
976
978
978
980
979
981
979
983
983
987
987
991
990
988
990
988
987
990
994
999
1003
1009
1013
1016
1017
1014
1014
1018
1019
1023
1027
1029
1031
1034
1036
1037
1037
1036
1038
1038
1039
1045
1048
1056
1058
1061
1062
1060
1061
1060
1059
1060
1060
1059
1063
1066
1068
1068
1065
1065
1066
1065
1065
1062
1063
1059
1058
1057
1055
1053
1051
1051
1048
1045
1042
1037
1033
1028
1026
1024
1022
1022
1021
1018
1015
1012
1006
1002
999
995
995
994
993
991
990
988
985
985
985
983
983
983
984
986
985
986
983
984
984
984
984
980
978
978
977
977
978
978
980
980
980
979
979
978
977
979
979
980
982
982
983
983
984
981
980
977
980
980
980
981
983
986
987
989
989
990
992
992
993
993
991
994
998
1003
1005
1007
1008
1009
1008
1006
1005
1002
997
995
996
998
1002
1002
1001
996
995
986
979
972
968
968
967
968
967
967
964
962
958
957
958
958
961
962
962
962
964
962
962
962
961
957
957
958
957
955
959
961
960
959
958
957
958
960
959
959
957
956
957
960
962
962
964
963
963
960
960
956
957
958
960
963
958
957
957
956
955
956
957
960
963
963
961
961
959
959
960
961
959
960
958
958
958
960
961
960
963
965
963
962
959
958
954
952
950
955
958
958
962
963
964
962
960
957
957
956
958
958
957
960
960
961
962
960
963
961
960
961
960
960
961
962
964
964
964
962
963
962
960
960
960
962
965
966
966
965
966
965
965
965
966
964
964
964
967
968
968
968
970
969
969
967
965
964
963
964
967
969
968
970
970
969
968
969
967
966
968
969
969
970
972
969
968
971
966
969
968
967
967
969
970
971
971
971
971
968
968
967
965
967
969
970
971
972
973
972
970
972
972
972
969
966
968
969
969
971
972
971
972
970
969
969
969
969
970
969
972
973
974
971
974
973
974
970
970
970
968
971
971
974
975
975
972
974
970
970
968
968
968
970
969
970
974
973
974
973
972
971
970
971
970
972
974
974
977
975
977
975
974
974
970
971
972
973
974
976
976
977
977
976
974
970
971
972
972
972
975
975
976
977
977
976
976
974
974
976
976
979
984
985
987
988
989
988
992
989
992
996
1001
1008
1013
1016
1014
1012
1008
1006
1003
1002
997
995
993
989
988
987
985
982
977
974
972
971
969
968
967
970
970
968
969
969
970
967
967
970
967
968
968
970
971
971
972
972
969
965
955
942
927
917
920
947
995
1061
1141
1220
1292
1337
1338
1289
1201
1110
1037
994
976
979
984
988
990
988
978
970
964
963
961
962
963
963
963
958
957
956
954
952
953
952
953
953
955
953
956
954
952
953
952
952
951
952
950
952
952
955
955
955
954
954
954
954
954
952
954
955
956
957
958
957
958
957
956
953
952
954
954
957
955
959
961
961
959
960
960
958
957
960
959
962
963
967
967
967
968
967
968
969
969
969
972
972
974
975
978
978
979
978
981
982
983
984
984
985
991
993
994
998
1001
1002
1001
1001
1001
1007
1007
1010
1014
1015
1018
1020
1020
1022
1023
1025
1025
1026
1029
1031
1035
1034
1039
1037
1042
1041
1042
1043
1042
1043
1044
1047
1050
1051
1054
1053
1052
1050
1047
1047
1047
1045
1047
1046
1045
1041
1043
1041
1040
1033
1031
1028
1024
1022
1018
1016
1014
1011
1007
1005
1002
997
996
994
989
989
986
986
984
981
983
980
980
981
980
977
975
975
972
975
975
976
978
978
978
976
974
975
971
973
974
974
975
977
979
978
978
978
977
973
975
975
974
974
977
977
979
977
977
974
974
974
972
972
972
972
974
975
977
977
978
977
980
980
979
980
980
984
986
990
991
995
998
1000
1003
1001
1000
1000
999
996
994
993
992
990
986
981
978
972
967
961
958
958
956
959
957
958
958
956
953
951
949
949
948
948
951
951
951
951
953
950
949
950
946
948
946
946
950
951
953
952
952
948
947
948
946
946
947
947
948
948
951
952
952
952
950
949
948
949
947
948
949
950
953
951
952
954
953
949
949
949
948
950
949
950
953
954
954
954
949
950
948
950
948
951
952
954
955
954
954
951
950
952
951
952
952
951
953
954
956
957
957
955
954
952
952
952
951
953
953
957
957
956
958
957
956
953
952
954
952
955
956
958
959
957
958
957
955
956
953
956
954
951
957
959
961
961
961
961
959
956
956
956
957
959
961
962
962
962
963
958
958
957
957
959
960
961
960
963
964
962
963
964
963
960
958
958
958
961
962
962
964
965
964
961
963
961
961
959
962
962
964
965
964
967
966
966
964
964
963
964
963
964
964
967
970
969
968
969
966
966
964
964
963
965
966
969
970
968
969
968
969
967
966
963
965
967
967
968
969
968
967
966
969
967
968
966
966
968
969
972
972
970
972
969
971
966
966
966
969
966
969
968
971
969
970
968
970
966
968
968
970
971
971
973
974
973
973
972
971
969
968
966
966
968
968
971
975
974
975
974
971
970
968
970
967
971
972
976
979
981
983
984
986
984
986
985
985
990
995
999
1004
1009
1012
1014
1013
1011
1006
1003
1003
1001
1000
1001
999
994
991
988
985
983
978
978
976
974
973
972
973
971
971
971
968
968
966
966
966
964
967
968
967
967
969
966
967
968
968
969
967
966
966
962
961
952
941
926
917
920
944
988
1050
1125
1203
1274
1332
1359
1352
1299
1211
1118
1040
994
974
973
979
988
992
990
986
976
968
959
958
957
959
964
964
964
962
959
958
954
951
949
949
948
950
950
952
954
958
954
952
950
951
947
948
948
948
950
953
954
958
958
955
954
953
951
948
948
951
953
956
956
957
954
951
952
951
954
952
954
956
957
955
958
957
956
960
962
961
959
958
955
954
955
957
960
965
967
970
968
967
965
965
967
969
973
975
977
979
979
979
979
980
982
981
984
983
985
989
988
993
994
994
994
996
1000
1004
1007
1013
1015
1017
1019
1022
1024
1028
1030
1030
1031
1030
1032
1033
1035
1039
1042
1048
1050
1053
1053
1054
1055
1056
1055
1058
1059
1063
1061
1063
1060
1064
1063
1065
1066
1064
1063
1062
1058
1059
1060
1058
1056
1054
1050
1048
1044
1040
1037
1033
1031
1026
1022
1021
1022
1019
1016
1011
1007
1000
998
995
994
992
990
989
985
986
987
982
983
979
978
977
976
977
977
978
978
978
977
978
975
971
968
968
971
976
978
981
979
976
973
972
969
969
971
973
972
974
976
976
978
976
977
976
977
975
975
975
977
979
981
989
989
991
990
990
989
988
988
990
996
1001
1007
1010
1008
1009
1006
1005
1005
1004
1000
999
996
990
988
987
985
983
980
974
970
965
960
958
959
961
963
961
962
960
959
955
953
950
950
952
954
958
957
961
959
960
958
958
955
954
954
953
953
956
956
959
959
958
957
955
955
953
953
951
954
955
953
955
955
954
951
951
951
948
949
954
956
958
959
960
955
955
957
956
957
955
956
956
954
955
959
960
960
960
958
956
956
952
956
956
957
956
959
960
959
961
960
957
957
955
954
955
955
957
960
961
961
960
959
956
960
956
956
958
957
958
960
962
961
960
963
961
959
960
959
958
960
961
962
963
964
965
965
963
960
961
960
958
960
962
964
965
964
965
963
960
961
958
959
959
962
962
965
965
966
967
965
964
963
962
961
963
964
965
967
968
968
967
967
967
965
963
965
962
964
966
966
969
969
970
968
967
968
966
967
966
967
968
970
970
970
969
970
969
965
965
967
963
965
968
970
971
969
970
968
968
969
966
966
968
967
969
973
973
973
974
973
972
972
971
971
971
971
973
974
975
974
974
974
970
966
968
970
972
971
974
975
976
974
974
974
972
971
969
971
969
971
974
973
972
975
974
974
972
971
972
972
971
973
974
976
977
978
978
977
977
976
975
973
973
974
976
976
978
976
976
978
977
976
976
975
975
977
979
982
986
986
988
988
989
989
990
992
994
1001
1005
1012
1018
1018
1017
1016
1013
1007
1005
1003
1001
1001
999
998
999
992
989
984
980
973
972
972
973
971
972
974
970
970
971
968
968
966
968
967
967
967
968
969
971
972
970
970
969
969
963
956
945
931
922
926
952
1004
1076
1162
1248
1318
1351
1336
1274
1180
1088
1027
996
982
987
993
995
995
988
980
972
966
966
966
964
962
964
962
958
956
954
953
954
953
953
956
956
954
954
956
955
953
951
951
952
952
956
955
957
957
956
956
955
952
950
951
951
951
956
954
952
955
956
957
953
951
953
954
953
955
956
957
960
961
958
959
957
958
960
959
958
961
961
964
968
968
968
969
969
969
969
969
971
972
973
975
977
979
979
980
980
979
979
981
984
984
988
990
992
995
996
998
999
1000
1000
1001
1005
1009
1011
1014
1020
1021
1024
1025
1025
1026
1028
1029
1030
1032
1036
1037
1040
1042
1044
1045
1047
1048
1047
1046
1050
1052
1054
1057
1058
1060
1060
1057
1057
1056
1053
1052
1051
1051
1050
1049
1047
1046
1044
1041
1037
1035
1031
1027
1022
1021
1021
1017
1015
1010
1008
1006
1002
1003
998
996
995
997
995
995
994
992
990
990
988
985
985
983
980
984
986
986
988
987
987
987
984
985
984
984
981
983
985
986
987
986
989
987
986
985
984
984
983
985
986
985
987
988
987
986
986
985
984
983
981
983
984
985
986
987
988
989
988
986
987
988
988
989
990
992
994
996
1000
1001
1002
1007
1008
1009
1009
1012
1010
1007
1007
1004
1002
998
996
992
989
987
982
978
976
972
972
971
971
970
966
965
966
964
962
962
964
964
963
964
963
962
961
961
959
958
956
956
957
958
959
960
964
962
961
958
956
956
959
957
961
961
964
963
962
963
959
958
958
959
959
962
961
963
964
964
962
964
962
961
960
958
958
960
961
961
964
963
963
964
963
963
960
961
960
960
965
962
964
963
965
963
965
962
959
957
956
957
960
962
964
963
962
962
960
959
958
957
959
963
964
963
965
966
966
966
963
960
960
961
960
962
964
963
967
967
966
965
966
964
964
961
962
966
965
968
968
969
971
970
970
969
968
969
966
968
970
968
972
973
973
972
971
968
970
969
970
971
970
972
973
970
971
972
971
971
971
970
970
970
971
971
974
976
975
973
975
971
970
970
971
972
976
976
977
977
975
976
974
975
973
971
972
973
976
977
977
974
976
976
977
978
975
975
975
978
976
975
977
977
978
979
978
974
974
972
974
974
976
976
976
978
977
978
974
977
975
973
976
977
981
981
982
983
982
982
980
979
976
978
976
976
978
979
979
982
982
981
981
980
979
978
979
980
981
981
983
985
984
982
982
978
977
976
975
976
978
980
983
983
986
986
984
983
979
979
976
978
979
981
984
984
984
983
979
978
978
979
980
980
981
985
982
983
984
985
981
982
982
983
988
992
992
993
998
999
999
1001
1001
1003
1005
1009
1014
1020
1023
1023
1024
1023
1020
1017
1013
1010
1007
1004
1002
1001
999
996
995
990
990
987
985
983
982
981
982
979
981
982
979
981
979
980
982
981
979
979
976
977
977
981
983
982
981
981
974
965
949
938
933
942
975
1029
1103
1185
1263
1327
1361
1348
1291
1200
1107
1037
998
985
988
999
1003
1006
1002
995
984
976
973
972
971
976
975
975
972
968
967
965
963
965
966
968
971
974
972
969
967
969
967
966
963
962
960
958
962
965
965
967
969
967
964
964
963
960
961
965
966
968
969
970
968
969
966
965
962
962
964
961
966
967
971
974
973
973
973
972
970
968
969
970
973
975
978
978
978
981
976
980
981
982
981
980
983
981
983
986
988
990
991
992
992
991
986
988
990
999
1003
1004
1006
1007
1006
1007
1007
1009
1012
1016
1020
1023
1025
1026
1027
1030
1030
1030
1035
1037
1042
1043
1047
1051
1053
1054
1057
1060
1061
1062
1062
1061
1066
1066
1069
1071
1074
1077
1078
1081
1078
1078
1076
1075
1076
1075
1074
1073
1073
1073
1069
1069
1066
1061
1055
1052
1048
1043
1041
1042
1038
1038
1036
1031
1024
1021
1018
1014
1011
1008
1008
1007
1003
1001
997
996
995
994
994
993
994
991
995
993
995
994
993
992
990
992
990
987
990
991
990
993
994
994
995
992
992
992
993
993
991
996
993
993
990
987
989
992
990
990
990
989
989
992
992
997
1001
1004
1006
1006
1005
1001
1001
1001
1002
1008
1012
1020
1022
1022
1021
1018
1013
1013
1010
1006
1003
1002
999
996
995
992
986
984
981
979
977
974
973
973
972
972
971
970
971
969
971
970
970
970
969
967
969
967
970
969
970
970
972
972
968
966
964
962
968
971
972
975
974
974
970
968
966
965
967
969
973
972
975
974
971
973
972
970
970
970
968
969
967
970
971
973
972
971
972
970
971
969
970
971
972
972
975
973
973
973
972
973
972
970
969
968
969
970
973
971
971
972
971
970
969
970
969
969
970
971
973
973
972
972
971
971
971
970
971
971
971
974
973
976
974
974
973
974
974
973
974
972
973
974
975
975
975
976
975
974
975
973
974
973
975
975
977
978
977
978
977
975
974
973
975
