1044
1039
1039
1039
1040
1043
1043
1044
1042
1044
1041
1039
1037
1035
1037
1033
1035
1035
1033
1031
1027
1024
1022
1018
1018
1016
1017
1021
1024
1028
1036
1038
1039
1039
1038
1039
1038
1036
1039
1041
1042
1038
1037
1036
1039
1046
1065
1088
1117
1153
1196
1242
1287
1330
1363
1375
1362
1329
1279
1217
1157
1106
1070
1047
1038
1040
1046
1050
1049
1045
1040
1036
1031
1025
1022
1025
1023
1027
1028
1028
1026
1027
1025
1025
1023
1023
1025
1023
1023
1025
1025
1026
1026
1026
1027
1025
1020
1021
1021
1020
1024
1024
1027
1027
1024
1023
1024
1025
1023
1023
1022
1024
1030
1031
1033
1031
1031
1027
1028
1026
1025
1025
1025
1026
1027
1029
1030
1029
1027
1024
1023
1021
1021
1018
1021
1022
1024
1026
1028
1026
1026
1023
1019
1017
1017
1021
1022
1025
1027
1026
1029
1033
1037
1039
1042
1042
1044
1044
1046
1044
1045
1048
1049
1052
1049
1047
1045
1043
1041
1043
1042
1043
1042
1043
1045
1044
1045
1043
1042
1041
1038
1040
1041
1043
1044
1046
1045
1046
1043
1043
1042
1039
1037
1036
1038
1039
1040
1039
1040
1041
1042
1043
1044
1041
1039
1035
1037
1038
1044
1045
1045
1045
1044
1042
1040
1039
1036
1035
1032
1035
1039
1039
1041
1039
1040
1040
1038
1035
1033
1031
1028
1027
1026
1024
1024
1022
1021
1020
1020
1022
1023
1026
1032
1032
1036
1037
1039
1041
1039
1040
1037
1032
1028
1027
1026
1023
1028
1033
1045
1067
1097
1138
1184
1238
1287
1331
1358
1368
1352
1318
1266
1203
1145
1094
1064
1043
1035
1035
1041
1045
1048
1044
1040
1036
1032
1028
1024
1020
1021
1018
1019
1022
1022
1023
1023
1024
1024
1023
1023
1024
1023
1023
1020
1021
1022
1021
1024
1019
1020
1023
1024
1024
1022
1021
1019
1018
1022
1021
1024
1023
1023
1025
1024
1024
1021
1019
1019
1020
1023
1024
1027
1024
1025
1025
1022
1021
1018
1019
1019
1022
1027
1025
1024
1023
1019
1018
1018
1012
1013
1012
1011
1014
1016
1018
1018
1019
1017
1015
1015
1014
1014
1016
1019
1023
1025
1031
1034
1036
1038
1040
1041
1041
1042
1042
1041
1042
1041
1043
1045
1043
1041
1038
1036
1036
1036
1036
1036
1034
1037
1040
1043
1040
1036
1034
1032
1034
1033
1036
1035
1036
1039
1038
1041
1042
1045
1043
1036
1036
1031
1035
1035
1034
1034
1034
1041
1040
1038
1038
1038
1037
1035
1036
1035
1038
1038
1040
1039
1038
1039
1037
1035
1036
1037
1037
1034
1034
1035
1036
1038
1038
1041
1039
1038
1034
1034
1033
1031
1031
1035
1035
1036
1036
1034
1033
1031
1027
1025
1024
1024
1024
1022
1021
1017
1015
1014
1019
1020
1021
1023
1025
1028
1029
1032
1033
1035
1038
1041
1038
1036
1033
1033
1031
1031
1028
1029
1032
1040
1054
1076
1106
1142
1181
1224
1267
1308
1344
1367
1372
1353
1315
1263
1204
1148
1102
1062
1038
1026
1026
1031
1038
1045
1045
1042
1036
1030
1025
1021
1018
1018
1020
1023
1023
1025
1021
1021
1017
1018
1019
1019
1021
1020
1019
1019
1019
1018
1018
1020
1022
1020
1018
1017
1019
1019
1019
1022
1023
1023
1021
1021
1021
1022
1022
1019
1021
1020
1021
1019
1019
1022
1024
1022
1022
1020
1018
1015
1013
1012
1015
1018
1016
1019
1020
1021
1019
1016
1012
1008
1007
1008
1012
1014
1016
1017
1017
1018
1021
1020
1023
1022
1023
1030
1036
1038
1041
1045
1046
1041
1041
1036
1033
1034
1034
1036
1039
1039
1036
1037
1037
1035
1034
1033
1037
1034
1035
1033
1032
1031
1030
1032
1036
1036
1038
1034
1036
1034
1035
1033
1033
1032
1034
1036
1036
1036
1036
1034
1029
1031
1031
1031
1036
1037
1035
1037
1037
1036
1035
1035
1034
1034
1031
1029
1029
1029
1030
1032
1035
1034
1033
1030
1028
1030
1031
1031
1030
1030
1031
1031
1032
1029
1028
1028
1026
1024
1026
1026
1024
1023
1024
1027
1029
1028
1025
1025
1024
1020
1018
1016
1017
1018
1019
1016
1013
1010
1006
1000
1000
998
999
1001
1005
1011
1015
1017
1019
1019
1020
1021
1024
1025
1026
1023
1020
1017
1015
1015
1019
1024
1035
1046
1071
1101
1143
1184
1233
1277
1321
1355
1366
1356
1318
1264
1197
1132
1078
1039
1022
1017
1022
1028
1030
1031
1023
1018
1011
1004
1004
1001
1002
1001
1006
1009
1009
1007
1003
1002
997
999
1000
1000
1002
1000
1003
1005
1006
1006
1004
1003
1002
1000
1003
1000
1001
1001
1002
1006
1008
1008
1004
1002
999
997
997
1000
1003
1003
1004
1006
1006
1008
1004
1003
1003
1002
1003
998
998
998
997
1000
1001
1002
999
1000
1000
1000
999
995
993
992
995
1000
1000
1002
998
994
992
993
993
993
998
1002
1006
1012
1016
1015
1018
1017
1016
1016
1013
1013
1011
1013
1017
1020
1022
1022
1021
1013
1013
1011
1011
1010
1010
1012
1012
1015
1014
1017
1018
1016
1015
1013
1010
1010
1011
1009
1014
1014
1016
1014
1015
1012
1011
1011
1011
1009
1007
1008
1011
1015
1016
1015
1012
1011
1012
1009
1004
1003
1006
1012
1015
1017
1016
1014
1010
1008
1006
1004
1002
999
996
994
992
991
989
989
993
994
997
1001
1001
1001
1000
1003
1004
1006
1008
1011
1014
1010
1007
1000
996
993
990
999
1012
1036
1070
1111
1159
1210
1260
1300
1328
1336
1319
1280
1224
1160
1103
1056
1027
1013
1008
1007
1010
1012
1009
1008
1003
1000
996
992
991
989
987
987
984
985
986
986
987
989
989
991
992
988
986
985
984
983
981
982
985
988
988
988
987
984
985
984
982
982
985
985
989
991
990
988
988
987
987
987
986
989
988
989
990
992
989
988
983
981
984
982
982
984
985
984
986
986
985
983
982
983
980
981
980
980
981
983
989
994
995
1000
998
1001
1002
1001
999
999
1001
1003
1006
1009
1007
1008
1006
1002
1003
1002
1001
997
998
1000
1001
1003
1002
1001
1000
998
998
999
997
997
997
997
999
1001
1002
1001
999
996
991
995
994
994
993
994
998
999
999
1001
998
996
997
997
996
997
996
996
998
999
997
997
990
989
987
983
980
979
977
978
979
979
983
983
985
986
990
993
993
994
996
996
998
999
999
998
996
993
993
988
984
982
985
993
1006
1026
1054
1090
1135
1181
1230
1273
1301
1316
1306
1276
1229
1174
1118
1070
1034
1009
998
996
997
1003
1006
1005
1002
996
992
989
988
982
980
980
978
979
981
979
979
979
981
983
984
982
981
980
980
982
983
982
984
983
984
984
983
983
979
979
981
983
982
985
981
983
980
981
983
984
988
987
986
980
980
979
980
982
985
985
985
984
981
979
979
980
979
981
979
979
980
980
982
979
975
974
973
973
975
977
976
978
976
975
980
983
984
985
986
988
989
994
1000
1000
1002
1002
1004
1003
1003
1002
1001
1000
1000
1002
1003
1006
1005
1002
1000
1001
997
996
996
997
996
993
996
1000
1001
1001
1000
997
996
996
995
996
994
996
997
998
1000
1000
997
994
993
990
993
992
994
996
997
1000
1000
998
997
997
996
998
997
1000
998
999
1000
1000
1001
1002
1001
999
998
996
998
999
998
998
997
997
997
997
1000
998
996
992
991
989
985
986
986
984
983
980
980
976
976
974
977
979
981
985
986
989
991
995
998
1000
1000
998
995
991
992
988
993
990
991
993
1000
1011
1034
1063
1099
1141
1190
1236
1276
1309
1325
1321
1300
1256
1200
1142
1086
1041
1013
998
994
998
1002
1008
1010
1005
999
991
986
981
977
979
981
984
986
982
980
975
975
977
979
982
984
982
983
980
980
981
978
979
979
979
978
976
976
979
980
981
982
985
981
981
977
976
978
979
978
981
983
984
983
984
984
982
982
982
983
983
982
983
980
981
979
980
981
982
979
979
978
978
977
975
976
975
973
974
972
973
971
970
968
972
973
974
977
979
983
983
986
986
989
992
990
995
998
1001
1005
1006
1006
1004
1005
1005
1004
1000
999
996
996
1000
1005
1004
1005
1002
999
998
995
995
994
993
996
1004
1008
1010
1005
1002
996
995
992
993
993
990
993
996
998
997
998
997
997
997
997
998
997
994
994
996
997
998
1002
1001
999
998
993
990
989
989
989
992
997
1001
1000
997
996
992
990
989
987
987
988
989
992
996
996
995
993
989
989
986
985
987
988
990
992
993
989
986
983
982
979
981
980
976
976
973
974
972
971
970
967
965
968
973
975
976
978
979
983
987
987
988
986
984
982
982
980
978
982
994
1010
1037
1068
1109
1151
1201
1246
1285
1307
1320
1303
1266
1216
1154
1093
1044
1008
988
981
984
988
992
995
995
989
983
974
973
973
974
973
973
968
970
970
967
970
972
972
971
972
967
966
963
961
963
966
972
972
972
968
965
965
963
964
966
965
964
965
967
969
967
966
967
968
968
969
967
964
961
962
963
964
965
967
967
965
964
962
962
961
959
960
963
967
968
969
966
966
962
958
957
956
957
957
959
961
964
964
962
962
963
965
968
971
974
975
981
981
985
984
983
983
983
982
983
982
982
984
983
982
982
981
980
977
978
977
976
979
978
978
979
979
979
981
981
979
979
978
978
977
977
979
978
978
979
981
979
980
978
977
979
977
980
979
981
982
984
984
983
981
979
980
976
979
978
979
979
979
981
981
982
981
978
975
977
978
982
983
982
980
978
978
980
980
978
976
973
972
972
973
975
975
976
981
984
983
978
975
972
970
971
973
976
976
977
976
976
975
970
968
966
965
966
966
964
961
958
954
954
956
955
950
952
954
960
962
965
966
968
970
973
976
975
972
970
966
965
969
968
973
983
1002
1027
1058
1092
1131
1172
1217
1259
1293
1304
1289
1253
1200
1137
1078
1026
990
971
967
970
977
981
983
980
973
968
963
959
956
958
957
955
958
956
958
958
961
961
960
959
956
955
957
957
957
956
958
961
961
961
959
954
951
950
952
955
956
958
958
960
960
960
959
959
959
959
958
959
959
961
961
962
963
961
962
962
961
960
959
958
960
964
965
965
962
961
962
961
962
960
956
958
960
962
964
966
967
969
973
977
978
979
977
979
979
981
982
986
985
986
982
982
980
976
976
975
976
977
978
978
977
976
979
975
974
975
976
977
978
978
976
975
975
976
976
974
975
973
973
970
973
970
973
973
974
975
977
974
973
970
970
973
976
979
980
981
976
976
978
977
975
973
972
972
971
975
975
976
975
976
977
977
975
975
973
971
973
973
975
973
973
972
972
970
970
968
967
968
969
971
971
970
971
970
971
970
969
966
962
966
965
969
970
973
971
968
967
964
960
959
956
952
951
951
953
953
953
950
949
952
955
960
964
961
960
963
966
972
974
974
973
972
970
968
966
967
974
983
1001
1026
1058
1098
1142
1188
1233
1270
1296
1307
1296
1264
1214
1153
1090
1032
988
966
960
963
969
978
983
983
979
974
967
961
958
957
957
957
960
958
957
962
962
964
964
962
963
965
967
964
961
957
955
956
960
962
963
961
962
961
963
964
963
963
961
962
965
965
967
966
968
968
966
963
963
964
963
964
965
964
967
969
967
965
964
962
962
963
966
967
968
968
965
963
963
962
961
961
962
961
960
962
966
967
971
971
973
974
975
975
976
979
984
988
990
992
991
988
989
990
989
987
982
982
983
985
984
986
987
986
986
982
979
976
974
976
978
982
985
987
986
985
984
985
982
982
979
979
981
982
982
983
985
984
985
982
982
981
979
980
981
981
981
983
983
981
983
983
984
984
982
981
979
979
979
981
983
983
979
978
978
977
978
977
978
977
978
980
979
980
981
979
978
980
978
977
977
977
976
976
974
974
975
973
973
970
967
968
968
967
965
963
962
958
957
954
952
952
951
955
959
965
968
973
972
972
974
972
974
973
972
973
970
969
969
970
973
982
997
1020
1048
1083
1120
1161
1207
1247
1281
1302
1304
1283
1243
1189
1132
1073
1025
992
972
964
967
977
983
988
987
981
973
965
960
958
958
960
959
963
964
962
963
961
959
960
959
961
959
961
960
964
964
961
961
959
958
957
958
955
955
957
957
960
963
964
965
961
963
961
961
963
966
966
965
964
964
963
966
967
966
966
964
963
963
963
966
967
969
970
970
967
963
962
960
960
963
963
963
964
963
963
967
965
964
964
967
966
969
970
974
978
981
984
986
982
981
979
980
982
983
985
984
988
989
988
986
983
980
976
976
975
977
979
983
987
986
987
985
981
978
978
977
978
980
984
985
984
984
984
982
981
979
979
979
978
978
981
983
982
982
982
983
982
979
976
975
975
977
978
979
977
976
972
967
965
963
961
958
959
962
963
971
972
976
980
981
982
979
979
980
980
982
980
978
974
971
967
970
974
985
1002
1026
1060
1104
1154
1206
1258
1298
1317
1313
1285
1240
1181
1116
1060
1018
991
980
980
984
989
991
989
983
977
967
967
965
967
966
966
966
963
963
963
963
962
959
959
957
961
962
962
963
963
963
963
961
960
961
958
960
961
961
963
960
957
956
957
960
959
958
960
957
956
961
965
965
964
965
961
961
961
961
962
957
960
959
961
965
962
962
960
958
957
958
960
961
961
959
959
960
960
959
958
955
958
956
957
957
959
961
966
973
976
977
975
974
974
973
976
977
979
982
985
987
985
982
981
978
976
977
975
979
979
981
981
981
979
977
975
974
973
975
976
976
977
978
976
978
978
982
980
979
978
977
975
975
976
978
979
978
979
981
978
977
975
974
979
980
984
983
982
979
978
978
979
978
976
974
971
971
972
972
967
968
963
962
956
953
957
955
956
958
962
966
968
971
970
972
971
971
972
975
978
980
978
975
973
969
966
967
973
984
1001
1031
1072
1117
1167
1219
1263
1295
1306
1294
1259
1206
1143
1080
1033
1000
981
973
975
978
983
988
987
982
975
966
962
961
962
963
964
965
968
967
964
962
958
958
960
961
964
962
965
963
962
963
962
958
957
957
959
963
962
963
964
962
961
963
961
960
959
960
961
961
958
964
963
962
963
961
963
962
960
960
958
957
957
959
962
962
963
963
960
958
954
952
955
955
959
961
961
960
958
959
958
958
956
958
960
964
969
971
977
979
981
984
987
988
989
986
985
984
987
988
990
988
985
984
984
983
982
979
978
981
984
985
988
990
991
990
991
990
986
983
983
984
989
989
988
988
986
985
988
986
987
985
986
985
988
986
986
985
986
985
988
988
988
985
985
985
987
987
991
991
989
987
987
985
989
987
987
985
985
987
987
987
989
987
989
985
985
984
985
984
981
985
990
992
992
991
987
983
981
979
978
978
977
978
977
974
973
969
966
963
961
965
967
970
974
979
982
986
985
985
985
985
985
987
988
987
987
985
985
984
986
993
1006
1030
1061
1096
1144
1193
1238
1281
1316
1339
1339
1316
1272
1215
1150
1090
1038
1005
987
979
981
987
994
998
1000
992
984
977
977
977
977
977
976
974
974
974
975
975
975
974
975
975
975
975
977
979
977
976
974
972
970
972
975
978
980
980
976
978
977
978
978
978
976
975
976
976
978
977
978
981
982
983
982
979
975
969
972
973
974
975
977
981
982
980
974
971
968
966
967
970
969
971
971
972
971
970
970
967
965
967
970
973
979
983
988
989
992
996
995
994
994
994
995
997
1000
999
998
1001
999
999
998
995
989
989
990
988
990
993
994
997
997
996
995
994
992
994
994
994
993
996
996
998
996
995
992
994
992
994
996
994
996
993
994
995
995
996
992
991
991
988
986
988
987
985
984
984
981
980
976
974
976
978
983
987
989
992
994
998
998
996
994
992
988
986
985
986
980
982
979
983
992
1010
1031
1065
1104
1152
1204
1257
1304
1334
1340
1319
1272
1211
1142
1080
1031
1005
995
994
1001
1005
1009
1008
1001
991
983
975
971
968
971
971
972
973
972
972
972
972
968
968
968
968
967
970
973
970
972
972
972
972
969
968
971
972
973
972
971
969
968
970
970
970
968
969
968
965
970
968
966
965
967
965
966
968
968
968
962
960
963
963
963
963
964
966
969
965
962
958
957
955
952
948
947
949
954
956
959
960
961
958
961
962
967
968
974
976
979
984
984
984
983
981
978
980
982
981
985
984
986
986
986
985
981
980
977
975
977
977
976
976
974
978
979
980
981
980
978
975
978
979
982
984
985
985
981
980
978
977
976
977
978
979
980
979
981
980
982
982
978
977
975
974
973
970
968
968
967
965
965
966
965
965
964
966
971
975
977
980
980
982
982
985
984
983
979
978
979
979
975
972
974
978
991
1011
1041
1085
1136
1195
1255
1301
1326
1318
1279
1216
1143
1071
1017
983
970
971
978
985
989
987
984
977
970
965
961
963
961
961
961
960
961
960
963
964
962
963
961
961
960
958
955
955
954
954
957
958
959
959
959
956
954
952
951
956
954
956
958
957
954
955
953
953
954
953
953
951
953
954
955
957
955
956
957
953
949
949
951
951
954
953
950
952
950
945
945
945
944
942
942
944
945
950
956
958
963
969
970
970
969
969
970
970
974
973
974
976
973
978
974
975
970
967
967
967
969
974
975
976
975
975
972
972
970
968
970
970
970
972
973
975
973
972
969
966
967
968
970
969
970
970
973
973
972
973
968
968
967
968
970
970
970
967
967
971
971
971
968
966
963
963
962
962
963
963
969
971
971
970
967
965
962
960
959
957
953
950
951
947
944
945
944
945
944
944
949
951
956
955
959
960
963
962
960
961
961
961
959
957
953
952
955
961
975
994
1020
1057
1104
1158
1213
1265
1306
1322
1315
1281
1228
1165
1095
1039
996
970
959
958
962
968
974
972
966
958
949
944
941
941
941
941
944
945
949
951
950
948
944
939
937
937
939
939
943
945
947
947
944
941
941
940
939
941
940
939
940
941
943
944
944
943
941
940
940
942
944
943
941
942
943
943
944
943
944
942
943
942
943
943
943
941
942
942
942
940
938
936
933
934
937
937
936
936
938
936
940
942
940
938
934
938
940
945
949
952
956
962
963
965
963
962
