1029
1026
1027
1028
1032
1029
1029
1025
1027
1028
1030
1030
1028
1025
1026
1029
1032
1032
1028
1028
1026
1028
1032
1030
1028
1027
1027
1030
1031
1032
1029
1028
1026
1030
1033
1029
1029
1025
1026
1031
1033
1030
1030
1026
1027
1028
1033
1031
1028
1028
1028
1031
1033
1032
1027
1027
1027
1031
1033
1030
1028
1028
1027
1034
1038
1035
1036
1036
1036
1039
1041
1040
1040
1041
1039
1045
1045
1044
1040
1037
1035
1035
1036
1037
1034
1032
1035
1038
1038
1037
1038
1038
1039
1041
1042
1042
1037
1033
1033
1030
1032
1033
1030
1028
1027
1033
1033
1032
1032
1030
1029
1030
1033
1033
1032
1030
1029
1033
1034
1032
1031
1029
1031
1033
1036
1033
1033
1031
1032
1035
1041
1040
1040
1042
1050
1062
1075
1085
1091
1099
1121
1148
1179
1210
1242
1270
1305
1346
1393
1433
1459
1460
1429
1361
1274
1183
1111
1066
1037
1027
1029
1029
1031
1028
1030
1030
1030
1022
1017
1009
1011
1014
1016
1013
1012
1006
1006
1009
1011
1010
1007
1006
1005
1007
1011
1008
1007
1000
1002
1006
1009
1006
1004
1001
1001
1006
1007
1007
1004
1003
1000
1003
1003
1006
1003
999
999
1002
1004
1002
1000
1000
1000
1000
1004
1002
1003
999
1000
1004
1004
1007
1005
1002
1005
1007
1008
1009
1006
1004
1006
1010
1011
1013
1011
1007
1012
1015
1019
1016
1016
1015
1015
1020
1024
1027
1027
1026
1028
1034
1040
1039
1038
1037
1042
1047
1054
1055
1059
1057
1061
1065
1070
1069
1067
1069
1068
1072
1074
1071
1066
1063
1062
1064
1066
1063
1058
1053
1052
1051
1051
1050
1044
1043
1044
1042
1044
1043
1038
1037
1037
1039
1042
1039
1036
1036
1033
1037
1038
1037
1036
1033
1035
1038
1039
1037
1034
1032
1032
1037
1037
1038
1034
1030
1033
1034
1036
1034
1030
1031
1032
1033
1034
1032
1031
1027
1031
1033
1035
1034
1031
1028
1030
1033
1035
1034
1033
1031
1030
1032
1036
1034
1034
1033
1032
1034
1039
1035
1032
1031
1031
1035
1039
1036
1033
1032
1032
1034
1035
1033
1032
1030
1031
1033
1036
1031
1030
1027
1029
1030
1035
1031
1029
1027
1025
1031
1033
1029
1028
1027
1026
1028
1033
1030
1027
1024
1026
1029
1031
1029
1027
1022
1027
1031
1032
1029
1028
1027
1024
1029
1033
1031
1029
1029
1028
1029
1030
1030
1026
1025
1030
1029
1032
1031
1030
1025
1027
1031
1032
1032
1028
1029
1029
1031
1034
1032
1032
1029
1032
1033
1035
1035
1030
1030
1033
1036
1037
1035
1034
1031
1033
1036
1038
1036
1033
1032
1034
1034
1038
1037
1035
1034
1035
1036
1035
1037
1031
1034
1033
1037
1042
1038
1036
1032
1035
1038
1041
1046
1044
1043
1042
1045
1047
1046
1045
1045
1047
1049
1050
1049
1044
1039
1041
1042
1044
1043
1039
1040
1039
1044
1046
1044
1044
1045
1044
1048
1049
1045
1041
1038
1038
1041
1039
1038
1034
1034
1035
1037
1040
1039
1038
1033
1037
1036
1037
1036
1035
1033
1033
1037
1039
1037
1034
1034
1033
1037
1040
1040
1036
1035
1035
1039
1044
1044
1045
1046
1053
1064
1074
1083
1093
1101
1116
1138
1165
1194
1219
1248
1281
1310
1346
1383
1423
1454
1461
1440
1391
1306
1214
1135
1080
1052
1038
1033
1037
1036
1040
1042
1041
1036
1032
1024
1024
1024
1026
1028
1025
1020
1021
1022
1024
1022
1019
1017
1020
1024
1023
1023
1017
1017
1019
1019
1021
1021
1018
1016
1014
1017
1019
1019
1017
1016
1018
1019
1019
1018
1015
1014
1014
1020
1023
1017
1016
1013
1014
1017
1020
1020
1017
1015
1015
1018
1022
1018
1017
1015
1019
1020
1023
1023
1021
1019
1018
1021
1027
1025
1023
1024
1025
1028
1029
1029
1028
1030
1033
1037
1040
1039
1037
1037
1041
1048
1054
1056
1056
1056
1061
1066
1071
1074
1077
1079
1081
1084
1088
1088
1085
1083
1084
1084
1088
1085
1080
1075
1073
1072
1076
1072
1065
1062
1059
1060
1061
1057
1055
1050
1049
1054
1052
1051
1049
1048
1047
1052
1054
1049
1045
1043
1046
1050
1050
1052
1046
1043
1046
1047
1049
1051
1044
1041
1042
1046
1046
1044
1044
1042
1040
1044
1045
1043
1041
1039
1042
1043
1044
1042
1042
1038
1041
1041
1046
1044
1041
1038
1039
1040
1044
1043
1042
1041
1043
1046
1048
1044
1042
1041
1042
1043
1045
1046
1043
1041
1043
1045
1047
1047
1041
1042
1040
1042
1044
1042
1042
1039
1040
1042
1042
1040
1036
1033
1038
1042
1042
1039
1036
1035
1039
1040
1043
1042
1037
1035
1036
1037
1038
1035
1033
1034
1034
1039
1039
1035
1035
1032
1032
1036
1040
1038
1036
1035
1036
1037
1038
1036
1035
1032
1033
1035
1038
1035
1033
1031
1033
1037
1041
1038
1036
1036
1034
1034
1038
1038
1035
1034
1033
1039
1038
1038
1034
1033
1033
1035
1037
1038
1035
1029
1033
1035
1039
1037
1034
1033
1032
1037
1037
1036
1033
1033
1033
1038
1037
1037
1035
1032
1033
1035
1037
1038
1034
1036
1039
1042
1043
1044
1041
1042
1046
1048
1050
1048
1045
1046
1047
1047
1047
1042
1040
1036
1038
1044
1046
1045
1043
1042
1044
1046
1049
1045
1042
1042
1042
1044
1041
1037
1032
1031
1035
1037
1039
1039
1034
1032
1034
1035
1037
1038
1033
1032
1031
1035
1038
1034
1035
1032
1034
1036
1038
1035
1034
1031
1035
1037
1041
1039
1039
1037
1043
1051
1056
1062
1071
1083
1091
1106
1125
1149
1186
1227
1277
1324
1367
1400
1427
1447
1456
1429
1354
1237
1118
1034
1003
1000
1004
1006
1014
1017
1019
1019
1020
1019
1015
1014
1015
1016
1016
1017
1012
1011
1011
1016
1016
1017
1014
1012
1011
1014
1014
1013
1010
1010
1011
1012
1015
1012
1009
1007
1010
1010
1013
1008
1007
1007
1007
1011
1012
1009
1007
1007
1009
1012
1014
1013
1008
1009
1012
1015
1018
1014
1014
1014
1017
1020
1023
1024
1021
1023
1026
1028
1032
1035
1033
1032
1037
1041
1046
1051
1051
1048
1053
1062
1065
1064
1064
1063
1064
1069
1072
1072
1069
1065
1065
1065
1067
1062
1058
1056
1056
1056
1055
1052
1046
1043
1041
1044
1042
1041
1037
1035
1034
1036
1038
1036
1033
1029
1031
1031
1035
1033
1029
1028
1029
1030
1031
1029
1026
1024
1026
1029
1030
1027
1025
1025
1027
1031
1032
1028
1028
1026
1027
1031
1031
1029
1029
1026
1030
1031
1032
1030
1028
1025
1032
1033
1034
1034
1029
1030
1030
1034
1033
1034
1033
1028
1033
1035
1034
1034
1029
1028
1031
1033
1036
1031
1027
1027
1026
1029
1031
1031
1028
1026
1028
1031
1031
1028
1027
1026
1027
1030
1030
1029
1025
1022
1022
1027
1027
1026
1023
1022
1023
1026
1026
1024
1021
1021
1023
1023
1025
1021
1019
1019
1023
1024
1024
1023
1018
1018
1021
1022
1023
1023
1021
1018
1022
1023
1024
1021
1020
1019
1021
1023
1025
1023
1020
1017
1019
1021
1022
1023
1019
1019
1021
1022
1023
1020
1019
1016
1020
1023
1024
1021
1018
1017
1021
1024
1023
1024
1018
1019
1020
1021
1024
1022
1022
1019
1022
1024
1025
1022
1022
1019
1020
1025
1025
1024
1022
1021
1021
1024
1026
1026
1023
1022
1024
1024
1025
1025
1024
1022
1026
1027
1030
1030
1028
1029
1030
1034
1035
1034
1031
1030
1034
1037
1037
1036
1033
1034
1036
1034
1035
1034
1029
1031
1030
1030
1032
1032
1030
1028
1031
1035
1037
1034
1033
1031
1033
1032
1036
1029
1022
1021
1023
1025
1028
1027
1024
1023
1024
1026
1026
1024
1023
1022
1023
1026
1027
1026
1023
1017
1019
1023
1023
1024
1022
1022
1021
1024
1022
1024
1021
1022
1022
1026
1028
1028
1027
1029
1036
1041
1048
1055
1060
1071
1082
1094
1110
1129
1158
1187
1219
1251
1279
1309
1338
1376
1417
1451
1462
1445
1395
1319
1237
1158
1100
1058
1029
1018
1021
1026
1029
1027
1021
1019
1019
1020
1019
1016
1007
1006
1008
1009
1011
1005
1004
1004
1004
1005
1008
1005
1005
1003
1004
1008
1009
1005
1004
1000
1004
1005
1004
1002
999
1000
1002
1006
1006
1001
998
999
999
1002
1003
1001
1000
998
999
1002
1003
1000
999
997
1001
1002
1005
1002
999
1000
999
1001
1005
1004
1002
1002
1004
1006
1010
1005
1001
1001
1003
1007
1009
1008
1005
1004
1005
1009
1011
1010
1008
1009
1013
1016
1018
1015
1015
1015
1022
1025
1026
1028
1029
1027
1032
1038
1039
1040
1040
1042
1050
1051
1057
1057
1056
1057
1060
1066
1071
1070
1072
1071
1075
1080
1079
1081
1077
1073
1072
1073
1073
1071
1067
1065
1064
1065
1063
1057
1052
1051
1051
1051
1052
1047
1044
1040
1043
1044
1044
1042
1040
1038
1038
1040
1041
1037
1034
1036
1037
1038
1040
1038
1037
1033
1035
1038
1039
1038
1034
1033
1034
1037
1038
1035
1032
1033
1034
1036
1035
1033
1033
1030
1030
1035
1035
1034
1032
1033
1032
1032
1034
1031
1026
1030
1033
1036
1035
1032
1030
1027
1030
1030
1033
1031
1029
1031
1031
1032
1032
1031
1027
1027
1031
1031
1035
1031
1029
1032
1032
1035
1036
1035
1032
1033
1033
1033
1033
1030
1030
1029
1032
1033
1034
1033
1030
1027
1029
1035
1035
1033
1029
1028
1029
1033
1031
1032
1029
1027
1031
1033
1035
1029
1026
1025
1026
1027
1029
1029
1028
1024
1027
1029
1033
1028
1027
1026
1027
1032
1030
1028
1030
1026
1030
1029
1029
1027
1024
1022
1027
1033
1031
1032
1026
1026
1027
1029
1032
1030
1027
1028
1029
1031
1031
1031
1027
1029
1030
1030
1030
1031
1030
1029
1031
1034
1032
1031
1028
1030
1033
1035
1037
1034
1030
1031
1031
1034
1036
1034
1029
1028
1030
1033
1035
1033
1035
1034
1035
1035
1036
1035
1034
1034
1035
1039
1040
1038
1037
1038
1040
1043
1044
1046
1040
1041
1045
1048
1051
1046
1044
1041
1043
1045
1045
1043
1038
1039
1041
1047
1045
1046
1044
1046
1047
1050
1046
1048
1042
1039
1040
1041
1042
1039
1038
1036
1037
1038
1041
1039
1036
1037
1039
1041
1041
1039
1037
1036
1039
1041
1043
1039
1036
1036
1039
1043
1042
1038
1040
1039
1040
1045
1045
1044
1042
1040
1042
1047
1050
1051
1050
1058
1066
1077
1090
1098
1102
1116
1137
1165
1194
1224
1250
1278
1309
1341
1378
1416
1445
1457
1445
1400
1323
1232
1159
1104
1069
1050
1042
1041
1038
1038
1042
1043
1040
1036
1029
1027
1025
1027
1025
1021
1017
1018
1018
1019
1021
1019
1014
1017
1017
1021
1020
1017
1014
1013
1016
1020
1018
1017
1014
1013
1013
1018
1016
1013
1011
1009
1012
1015
1011
1011
1007
1007
1009
1012
1012
1010
1007
1005
1006
1010
1008
1008
1006
1008
1007
1012
1011
1009
1005
1006
1010
1012
1013
1011
1009
1008
1010
1013
1016
1014
1013
1013
1014
1019
1019
1016
1017
1017
1023
1028
1027
1029
1027
1029
1033
1036
1037
1040
1041
1041
1047
1053
1055
1054
1059
1061
1067
1071
1073
1073
1073
1077
1077
1082
1081
1077
1075
1074
1073
1076
1072
1069
1067
1062
1061
1063
1059
1058
1054
1052
1052
1054
1054
1049
1045
1044
1045
1048
1048
1048
1043
1041
1044
1045
1045
1044
1041
1041
1044
1045
1046
1042
1040
1036
1042
1045
1045
1042
1037
1038
1039
1045
1044
1041
1037
1039
1039
1041
1041
1040
1036
1038
1040
1041
1040
1039
1036
1037
1037
1040
1042
1041
1040
1039
1041
1044
1041
1041
1038
1038
1043
1044
1042
1044
1041
1042
1043
1046
1045
1045
1041
1042
1042
1044
1044
1043
1043
1042
1043
1043
1044
1041
1041
1039
1041
1044
1045
1041
1039
1037
1040
1045
1041
1042
1036
1037
1038
1043
1042
1041
1038
1037
1039
1040
1041
1037
1035
1037
1039
1040
1041
1041
1037
1038
1039
1040
1040
1039
1038
1038
1041
1043
1043
1042
1039
1040
1043
1041
1043
1042
1039
1038
1042
1046
1047
1046
1042
1038
1043
1045
1044
1043
1042
1041
1044
1045
1046
1044
1042
1041
1045
1051
1048
1047
1045
1043
1046
1050
1049
1047
1044
1048
1049
1050
1049
1048
1044
1043
1045
1050
1049
1048
1044
1046
1051
1054
1054
1052
1053
1052
1054
1053
1055
1055
1056
1055
1060
1059
1063
1061
1059
1059
1062
1067
1065
1064
1061
1064
1061
1062
1062
1058
1057
1057
1058
1063
1064
1065
1063
1064
1064
1063
1066
1064
1060
1057
1058
1059
1058
1060
1056
1057
1057
1060
1059
1058
1055
1054
1056
1058
1057
1057
1055
1058
1060
1062
1059
1057
1056
1056
1058
1063
1063
1062
1058
1059
1063
1068
1073
1073
1077
1084
1098
1116
1128
1141
1162
1191
1234
1272
1307
1338
1374
1424
1475
1497
1463
1362
1234
1133
1078
1067
1069
1068
1063
1059
1058
1057
1057
1051
1047
1045
1049
1049
1045
1043
1039
1038
1042
1044
1044
1042
1038
1036
1043
1042
1040
1039
1039
1039
1041
1042
1039
1035
1033
1034
1037
1038
1038
1038
1032
1032
1032
1032
1031
1032
1030
1032
1034
1035
1037
1034
1032
1033
1033
1038
1034
1033
1030
1028
1031
1035
1036
1033
1030
1032
1034
1037
1036
1036
1033
1033
1038
1042
1041
1042
1039
1039
1043
1044
1042
1043
1040
1044
1048
1053
1054
1055
1054
1056
1063
1069
1070
1070
1069
1074
1080
1087
1087
1089
1095
1096
1102
1106
1102
1102
1102
1105
1109
1109
1110
1106
1102
1100
1102
1101
1100
1096
1091
1088
1089
1091
1084
1080
1074
1076
1075
1080
1080
1075
1071
1068
1071
1075
1073
1073
1069
1069
1069
1071
1069
1067
1066
1064
1070
1068
1069
1068
1063
1064
1063
1068
1066
1065
1063
1060
1060
1063
1062
1060
1059
1057
1060
1062
1060
1056
1054
1055
1056
1057
1057
1054
1050
1051
1054
1059
1055
1055
1052
1052
1055
1057
1056
1054
1050
1052
1055
1057
1055
1052
1051
1051
1053
1058
1057
1055
1052
1053
1054
1055
1053
1051
1049
1051
1051
1054
1052
1051
1047
1049
1052
1055
1054
1053
1048
1048
1049
1049
1051
1049
1046
1046
1048
1050
1050
1048
1046
1046
1049
1051
1049
1048
1042
1046
1046
1048
1046
1043
1042
1042
1041
1044
1044
1043
1042
1042
1044
1046
1044
1040
1037
1042
1044
1045
1044
1043
1037
1039
1040
1045
1042
1041
1042
1038
1043
1042
1043
1041
1039
1039
1040
1043
1040
1039
1038
1037
1042
1046
1044
1039
1037
1037
1038
1043
1043
1039
1038
1040
1041
1043
1043
1040
1039
1039
1041
1044
1044
1038
1038
1039
1041
1044
1046
1047
1043
1046
1051
1052
1054
1054
1050
1050
1053
1057
1054
1053
1048
1048
1049
1050
1049
1046
1044
1047
1046
1051
1049
1049
1045
1047
1049
1053
1051
1046
1042
1043
1041
1042
1042
1038
1036
1038
1042
1043
1043
1039
1037
1037
1037
1043
1040
1039
1035
1037
1037
1040
1037
1036
1034
1036
1037
1039
1037
1034
1034
1034
1038
1045
1043
1043
1042
1047
1054
1064
1070
1082
1089
1098
1111
1134
1157
1187
1215
1248
1283
1316
1347
1383
1423
1466
1491
1491
1452
1374
1276
1192
1130
1088
1062
1044
1036
1039
1038
1039
1036
1032
1028
1027
1022
1024
1020
1017
1014
1013
1016
1015
1016
1012
1009
1010
1011
1013
1011
1007
1006
1007
1010
1014
1009
1008
1003
1004
1006
1007
1006
1005
1003
1004
1003
1006
1005
1005
1003
1002
1005
1008
1005
1002
1001
1002
1001
1006
1005
1003
1001
1002
1002
1005
1006
1004
1004
1003
1006
1010
1008
1008
1003
1007
1011
1013
1015
1012
1009
1010
1015
1016
1018
1019
1018
1019
1025
1026
1030
1030
1030
1035
1039
1045
1045
1048
1050
1054
1058
1063
1068
1072
1071
1073
1078
1083
1083
1083
1083
1083
1087
1089
1087
1084
1078
1076
1077
1078
1074
1070
1063
1062
1063
1062
1057
1054
1050
1052
1050
1052
1049
1049
1045
1044
1048
1046
1044
1044
1042
1040
1043
1047
1044
1042
1039
1039
1041
1043
1044
1042
1038
1037
1037
1040
1040
1038
1037
1038
1039
1040
1039
1035
1034
1035
1038
1040
1039
1035
1034
1035
1037
1038
1040
1037
1033
1037
1038
1039
1040
1036
1034
1036
1040
1041
1040
1039
1038
1039
1038
1044
1040
1039
1036
1039
1038
1040
1038
1037
1035
1034
1037
1039
1038
1037
1032
1034
1037
1042
1038
1037
1032
1032
1034
1037
1036
1034
1032
1030
1032
1034
1034
1030
1029
1031
1034
1033
1032
1030
1026
1026
1030
1031
1031
1026
1026
1028
1027
1032
1026
1026
1025
1026
1027
1029
1029
1029
1025
1026
1029
1032
1030
1027
1024
1026
1032
1032
1031
1032
1029
1028
1031
1033
1033
1031
1029
1029
1033
1034
1032
1031
1032
1030
1033
1032
1035
1034
1031
1033
1034
1036
1033
1034
1032
1034
1034
1037
1034
1033
1029
1032
1035
1042
1039
1036
1032
1032
1035
1039
1035
1036
1033
1035
1037
1040
1038
1034
1033
1034
1039
1040
1041
1040
1040
1040
1044
1049
1048
1046
1047
1047
1050
1055
1054
1051
1049
1051
1050
1051
1049
1046
1042
1042
1046
1050
1050
1050
1047
1047
1049
1052
1050
1049
1047
1048
1046
1047
1046
1040
1037
1037
1039
1043
1045
1041
1036
1036
1043
1043
1042
1041
1040
1042
1041
1042
1039
1040
1039
1041
1043
1044
1044
1039
1039
1038
1043
1044
1045
1041
1039
1043
1047
1055
1063
1070
1077
1088
1104
1120
1139
1166
1197
1232
1264
1293
1319
1351
1387
1425
1453
1455
1426
1358
1268
1178
1108
1067
1044
1040
1041
1041
1041
1041
1038
1035
1030
1029
1030
1030
1025
1019
1016
1017
1020
1021
1020
1016
1014
1018
1020
1022
1021
1016
1016
1017
1018
1019
1013
1012
1012
1013
1014
1019
1017
1012
1006
1006
1009
1011
1011
1010
1009
1008
1010
1013
1011
1008
1006
1007
1007
1012
1010
1009
1008
1006
1008
1010
1011
1011
1009
1014
1011
1012
1010
1009
1007
1010
1016
1018
1015
1014
1014
1017
1021
1025
1024
1027
1029
1031
1034
1041
1039
1043
1042
1045
1052
1058
1059
1061
1066
1066
1074
1078
1082
1080
1080
1076
1080
1082
1081
1080
1079
1076
1073
1073
1067
1062
1057
1059
1061
1060
1055
1049
1046
1045
1046
1048
1049
1045
1041
1039
1043
1046
1047
1040
1040
1040
1042
1042
1042
1042
1038
1037
1040
1040
1040
1036
1036
1034
1038
1037
1037
1036
1032
1031
1033
1033
1033
1030
1027
1028
1032
1031
1029
1028
1024
1024
1029
1031
1030
1026
1026
1026
1027
1030
1030
1028
1026
1025
1026
1029
1025
1026
1026
1026
1030
1032
1029
1027
1026
1027
1028
1031
1029
1025
1022
1023
1028
1027
1025
1021
1020
1022
1025
1028
1024
1021
1020
1022
1022
1023
1024
1020
1019
1018
1020
1022
1023
1022
1019
1018
1021
1024
1025
1022
1017
1017
1019
1021
1022
1018
1019
1021
1021
1024
1021
1020
1015
1018
1020
1023
1021
1019
1017
1018
1020
1023
1022
1018
1017
1016
1018
1020
1021
1019
1016
1017
1021
1019
1020
1017
1017
1018
1021
1022
1020
1017
1014
1019
1020
1023
1020
1019
1018
1016
1019
1022
1020
1020
1017
1020
1021
1023
1022
1022
1022
1025
1027
1030
1027
1030
1029
1028
1031
1034
1032
1031
1026
1026
1029
1027
1025
1026
1022
1022
1028
1028
1027
1027
1026
1030
1032
1034
1029
1027
1026
1024
1024
1024
1021
1020
1017
1020
1020
1024
1026
1022
1021
1020
1024
1027
1028
1027
1032
1039
1054
1076
1097
1124
1146
1163
1172
1165
1139
1106
1061
1000
935
861
766
675
626
615
603
597
589
601
617
651
687
730
767
797
824
854
880
903
924
943
958
977
993
1008
1013
1022
1026
1033
1042
1048
1049
1050
1051
1052
1060
1062
1063
1062
1061
1065
1066
1070
1069
1068
1068
1068
1074
1078
1077
1073
1073
1075
1079
1083
1082
1082
1083
1084
1088
1090
1090
1091
1091
1092
1097
1100
1104
1104
1102
1106
1112
1118
1118
1119
1122
1124
1130
1136
1138
1140
1143
1147
1153
1165
1166
1169
1170
1178
1186
1194
1198
1204
1205
1211
1221
1227
1234
1238
1240
1245
1252
1258
1260
1260
1260
1262
1266
1270
1267
1260
1257
1254
1255
1253
1248
1238
1231
1226
1220
1216
1205
1195
1186
1177
1173
1166
1153
1144
1133
1127
1120
1117
1107
1096
1089
1084
1080
1078
1070
1067
1059
1059
1058
1056
1054
1049
1046
1044
1045
1046
1043
1039
1036
1038
1037
1039
1037
1036
1033
1034
1036
1036
1037
1031
1030
1032
1035
1039
1036
1034
1032
1033
1035
1036
1035
1034
1034
1036
1038
1036
1035
1034
1036
1034
1036
1037
1035
1033
1030
1031
1036
1038
1037
1036
1032
1033
1036
1037
1035
1032
1031
1030
1034
1036
1035
1029
1027
1029
1030
1033
1030
1028
1026
1028
1029
1031
1030
1025
1022
1025
1027
1028
1027
1023
1020
1021
1021
1026
1024
1021
1020
1018
1022
1022
1019
1018
1014
1019
1019
1022
1020
1017
1013
1014
1016
1017
1019
1017
1013
1016
1018
1017
1019
1017
1014
1016
1019
1021
1020
1017
1014
1015
1014
1021
1017
1016
1016
1018
1020
1022
1019
1016
1015
1015
1019
1021
1019
1017
1016
1018
1020
1022
1018
1016
1013
1017
1021
1024
1022
1017
