1037
1040
1038
1037
1036
1039
1040
1041
1042
1040
1038
1039
1042
1043
1042
1040
1039
1040
1042
1047
1047
1041
1039
1039
1041
1045
1044
1042
1040
1041
1042
1045
1042
1042
1037
1038
1041
1044
1041
1040
1038
1039
1040
1042
1042
1038
1035
1035
1038
1043
1041
1037
1035
1036
1040
1043
1040
1039
1037
1039
1040
1043
1044
1037
1037
1037
1039
1042
1042
1041
1039
1038
1039
1042
1043
1037
1036
1037
1041
1042
1041
1038
1037
1037
1039
1043
1042
1039
1036
1037
1039
1043
1043
1039
1035
1039
1038
1042
1042
1038
1037
1040
1042
1047
1044
1042
1039
1037
1040
1044
1042
1042
1039
1039
1042
1043
1041
1039
1039
1041
1040
1045
1041
1041
1041
1044
1045
1047
1047
1048
1045
1046
1048
1052
1052
1051
1047
1052
1054
1059
1057
1053
1048
1047
1049
1051
1051
1048
1047
1045
1051
1052
1053
1053
1052
1052
1053
1055
1050
1048
1046
1042
1045
1048
1045
1044
1042
1044
1042
1048
1046
1043
1041
1041
1042
1049
1045
1043
1042
1045
1044
1047
1044
1044
1043
1043
1048
1050
1047
1046
1042
1045
1050
1056
1054
1055
1056
1060
1068
1078
1085
1094
1099
1111
1125
1148
1174
1197
1221
1249
1281
1314
1343
1383
1418
1437
1430
1388
1309
1209
1131
1083
1057
1047
1047
1047
1047
1046
1047
1048
1043
1037
1032
1033
1033
1037
1033
1031
1027
1027
1028
1030
1028
1028
1023
1023
1028
1033
1027
1027
1022
1024
1026
1027
1028
1024
1019
1021
1024
1026
1025
1024
1020
1022
1022
1024
1022
1020
1019
1020
1024
1025
1022
1020
1017
1019
1021
1023
1021
1021
1020
1020
1020
1023
1022
1020
1019
1019
1023
1026
1025
1022
1021
1020
1024
1027
1027
1024
1023
1025
1028
1030
1032
1031
1027
1032
1036
1040
1041
1038
1039
1042
1046
1052
1054
1055
1053
1056
1061
1068
1069
1071
1070
1073
1077
1082
1083
1080
1080
1083
1085
1084
1082
1077
1076
1076
1075
1077
1075
1072
1068
1063
1064
1063
1063
1060
1057
1059
1057
1058
1057
1056
1053
1053
1055
1055
1056
1051
1049
1046
1050
1055
1053
1049
1050
1047
1050
1051
1049
1047
1047
1047
1050
1048
1046
1046
1043
1042
1044
1048
1047
1043
1040
1041
1042
1047
1043
1043
1039
1041
1043
1046
1044
1044
1040
1042
1044
1046
1045
1044
1042
1043
1042
1049
1048
1045
1044
1044
1045
1048
1045
1045
1044
1041
1044
1047
1045
1043
1041
1042
1043
1045
1044
1040
1039
1038
1041
1041
1041
1040
1038
1038
1043
1044
1041
1042
1037
1041
1041
1045
1043
1042
1038
1037
1040
1043
1043
1041
1038
1039
1040
1043
1041
1039
1036
1038
1041
1041
1041
1038
1035
1036
1039
1041
1040
1039
1037
1035
1039
1041
1040
1039
1038
1038
1043
1043
1039
1036
1035
1039
1041
1044
1043
1039
1040
1039
1041
1046
1043
1042
1041
1041
1042
1047
1043
1040
1041
1040
1043
1047
1045
1042
1041
1043
1047
1048
1043
1045
1042
1041
1045
1048
1046
1044
1043
1043
1046
1046
1047
1043
1041
1043
1046
1050
1047
1047
1048
1050
1055
1058
1058
1058
1053
1056
1058
1062
1063
1058
1060
1063
1064
1066
1063
1059
1055
1056
1058
1059
1060
1055
1055
1057
1060
1063
1063
1059
1057
1058
1060
1060
1059
1052
1048
1048
1052
1056
1057
1053
1047
1049
1052
1055
1054
1052
1052
1050
1052
1055
1053
1050
1049
1049
1053
1053
1054
1050
1050
1048
1050
1054
1056
1054
1052
1055
1058
1062
1064
1064
1067
1077
1091
1102
1113
1120
1136
1162
1197
1229
1260
1283
1310
1344
1383
1425
1453
1464
1448
1396
1318
1224
1144
1087
1059
1048
1049
1056
1054
1055
1049
1046
1049
1045
1041
1038
1030
1030
1032
1037
1034
1031
1030
1030
1033
1035
1031
1030
1025
1028
1032
1033
1033
1028
1023
1023
1026
1028
1026
1024
1022
1022
1026
1026
1026
1023
1021
1021
1024
1026
1026
1022
1020
1022
1024
1030
1027
1024
1022
1023
1026
1029
1028
1024
1023
1023
1027
1028
1029
1029
1024
1028
1030
1033
1031
1031
1029
1030
1035
1039
1039
1040
1037
1039
1044
1049
1050
1051
1049
1055
1059
1065
1067
1067
1069
1074
1078
1082
1085
1085
1087
1090
1099
1102
1102
1097
1096
1095
1096
1100
1093
1091
1087
1087
1084
1087
1084
1079
1077
1072
1075
1075
1074
1070
1064
1064
1066
1069
1067
1064
1061
1062
1063
1065
1065
1064
1063
1063
1066
1067
1064
1061
1061
1061
1062
1066
1062
1061
1059
1059
1060
1063
1061
1059
1055
1056
1056
1059
1057
1055
1053
1054
1055
1057
1057
1057
1052
1054
1056
1058
1058
1057
1054
1053
1058
1058
1058
1055
1053
1056
1058
1060
1058
1057
1055
1056
1059
1063
1059
1057
1055
1054
1056
1058
1058
1056
1057
1060
1062
1062
1060
1057
1056
1058
1057
1061
1059
1058
1053
1055
1059
1062
1061
1057
1056
1053
1059
1060
1056
1053
1053
1054
1058
1059
1057
1055
1052
1053
1057
1060
1059
1055
1050
1052
1055
1056
1058
1057
1053
1053
1057
1057
1058
1054
1052
1055
1058
1058
1056
1056
1051
1054
1057
1061
1059
1055
1053
1056
1055
1060
1059
1058
1056
1054
1057
1059
1058
1056
1054
1055
1057
1060
1057
1055
1052
1055
1058
1058
1058
1056
1055
1058
1058
1060
1060
1059
1057
1057
1060
1062
1059
1057
1057
1057
1059
1062
1061
1057
1059
1061
1064
1068
1067
1066
1065
1064
1069
1072
1073
1072
1071
1071
1071
1069
1066
1063
1061
1066
1070
1072
1069
1066
1064
1065
1068
1071
1071
1067
1065
1064
1062
1061
1058
1056
1056
1060
1061
1063
1060
1058
1059
1060
1061
1060
1059
1056
1057
1057
1060
1061
1062
1059
1057
1059
1061
1061
1063
1060
1057
1061
1065
1069
1070
1073
1079
1089
1104
1119
1135
1163
1200
1240
1281
1326
1373
1426
1447
1416
1317
1192
1101
1062
1054
1057
1065
1066
1062
1056
1053
1052
1052
1049
1046
1042
1042
1044
1045
1046
1043
1039
1039
1041
1043
1045
1045
1043
1036
1037
1041
1044
1042
1038
1036
1035
1036
1039
1037
1035
1032
1035
1036
1037
1034
1033
1033
1033
1035
1038
1035
1031
1031
1034
1033
1036
1035
1032
1031
1032
1035
1038
1038
1034
1032
1035
1037
1038
1038
1037
1034
1038
1041
1044
1044
1040
1039
1042
1044
1050
1051
1048
1047
1051
1056
1062
1063
1065
1063
1067
1073
1078
1080
1078
1080
1083
1088
1093
1093
1092
1092
1090
1096
1099
1098
1096
1094
1095
1096
1095
1090
1086
1083
1082
1085
1082
1076
1074
1071
1070
1073
1074
1070
1066
1064
1064
1067
1067
1065
1062
1060
1062
1065
1066
1066
1060
1058
1060
1061
1060
1060
1057
1057
1056
1060
1059
1056
1053
1052
1055
1056
1058
1056
1053
1048
1051
1053
1055
1053
1048
1046
1047
1051
1052
1052
1046
1046
1047
1052
1055
1053
1049
1047
1046
1050
1054
1052
1051
1048
1050
1049
1052
1052
1052
1047
1048
1051
1053
1053
1053
1047
1050
1051
1052
1051
1048
1047
1045
1048
1049
1049
1048
1044
1047
1046
1049
1047
1047
1046
1046
1047
1047
1045
1042
1041
1042
1042
1047
1043
1038
1038
1039
1040
1042
1041
1040
1037
1039
1040
1042
1042
1039
1035
1038
1039
1040
1040
1035
1034
1032
1037
1038
1036
1038
1034
1036
1037
1036
1034
1035
1033
1034
1035
1036
1034
1033
1031
1033
1035
1039
1036
1032
1030
1031
1036
1038
1037
1033
1031
1034
1038
1039
1037
1035
1029
1031
1036
1041
1039
1036
1032
1033
1035
1034
1035
1032
1029
1031
1038
1035
1039
1033
1030
1033
1036
1038
1035
1032
1033
1035
1038
1041
1039
1037
1038
1039
1041
1044
1044
1040
1039
1043
1044
1046
1047
1041
1036
1040
1037
1040
1039
1036
1034
1037
1039
1043
1039
1039
1039
1042
1045
1045
1041
1038
1033
1034
1032
1032
1033
1029
1029
1029
1033
1035
1031
1028
1026
1028
1031
1033
1029
1031
1026
1026
1029
1028
1030
1026
1027
1027
1030
1031
1030
1028
1026
1027
1029
1033
1029
1027
1027
1029
1034
1036
1039
1039
1043
1052
1064
1074
1082
1085
1096
1116
1140
1170
1193
1218
1244
1274
1304
1341
1380
1411
1430
1428
1399
1335
1244
1156
1095
1055
1034
1026
1025
1028
1025
1025
1025
1027
1024
1016
1015
1013
1015
1014
1012
1009
1004
1008
1010
1013
1010
1006
1004
1005
1008
1009
1006
1004
1000
1003
1005
1005
1003
1000
999
1001
1002
1005
1002
1000
996
996
1001
1001
1000
997
994
997
997
998
996
993
993
996
997
999
998
993
995
997
999
1001
1001
999
996
996
997
999
1001
999
998
999
999
1001
1003
1003
999
1002
1004
1010
1010
1009
1006
1008
1013
1020
1020
1019
1022
1023
1028
1034
1034
1035
1037
1043
1051
1054
1055
1055
1055
1060
1066
1072
1072
1070
1069
1070
1071
1072
1071
1064
1061
1063
1064
1065
1060
1055
1053
1050
1051
1051
1049
1045
1043
1042
1044
1045
1043
1040
1039
1040
1041
1042
1041
1040
1034
1037
1042
1044
1040
1035
1035
1038
1038
1041
1037
1035
1034
1033
1036
1036
1037
1035
1032
1034
1036
1038
1033
1031
1030
1032
1035
1036
1036
1035
1031
1031
1034
1035
1033
1030
1030
1032
1037
1036
1034
1031
1030
1033
1037
1036
1035
1033
1031
1032
1034
1037
1035
1033
1031
1033
1034
1038
1037
1032
1031
1035
1036
1038
1037
1035
1033
1036
1036
1037
1036
1034
1031
1031
1037
1035
1035
1030
1029
1028
1031
1033
1032
1027
1027
1027
1031
1031
1029
1029
1025
1027
1029
1029
1029
1025
1024
1028
1029
1031
1030
1025
1026
1029
1027
1032
1030
1027
1024
1026
1029
1031
1029
1026
1023
1024
1027
1029
1029
1026
1025
1026
1028
1028
1029
1026
1026
1026
1032
1034
1029
1027
1024
1028
1030
1031
1030
1027
1026
1028
1031
1032
1030
1027
1027
1028
1029
1031
1033
1028
1024
1027
1028
1032
1028
1029
1026
1027
1029
1033
1030
1026
1025
1028
1031
1031
1030
1028
1028
1028
1029
1031
1033
1029
1027
1029
1031
1032
1032
1033
1035
1037
1041
1043
1039
1037
1038
1039
1043
1046
1045
1043
1039
1038
1041
1040
1039
1039
1034
1035
1038
1039
1038
1036
1034
1036
1042
1045
1043
1040
1038
1037
1038
1036
1031
1029
1029
1030
1032
1033
1030
1027
1027
1030
1031
1031
1030
1026
1025
1028
1029
1032
1031
1028
1026
1026
1026
1029
1026
1027
1026
1025
1028
1029
1027
1026
1026
1029
1034
1036
1038
1041
1044
1053
1065
1077
1085
1095
1109
1134
1164
1194
1221
1247
1275
1306
1349
1391
1422
1439
1432
1404
1347
1265
1180
1110
1065
1039
1025
1022
1024
1026
1028
1029
1027
1026
1025
1020
1014
1014
1015
1017
1016
1012
1012
1012
1014
1015
1011
1012
1009
1011
1011
1016
1011
1007
1004
1007
1011
1012
1009
1007
1006
1007
1008
1009
1007
1006
1005
1005
1006
1010
1006
1004
1002
1004
1006
1005
1004
1002
1000
1002
1004
1006
1006
1003
999
1003
1003
1007
1006
1003
1005
1007
1006
1006
1007
1002
1006
1005
1009
1009
1009
1007
1006
1007
1009
1013
1013
1014
1010
1011
1013
1017
1017
1018
1016
1021
1025
1030
1028
1027
1030
1033
1040
1045
1045
1045
1046
1051
1057
1059
1064
1064
1067
1070
1075
1078
1077
1076
1073
1073
1077
1078
1073
1069
1064
1065
1068
1066
1065
1059
1053
1055
1055
1056
1051
1045
1040
1042
1046
1047
1044
1039
1037
1040
1040
1041
1037
1035
1034
1035
1038
1039
1036
1033
1031
1032
1035
1038
1034
1030
1030
1030
1033
1035
1032
1032
1030
1030
1030
1032
1029
1027
1023
1026
1026
1027
1025
1027
1024
1026
1025
1027
1024
1023
1023
1024
1026
1028
1024
1023
1019
1023
1026
1026
1027
1023
1021
1023
1026
1030
1028
1027
1024
1024
1027
1028
1027
1028
1026
1031
1029
1031
1028
1023
1025
1028
1031
1033
1031
1026
1022
1027
1030
1028
1029
1025
1024
1025
1028
1030
1026
1028
1024
1027
1027
1029
1027
1025
1023
1026
1028
1031
1025
1023
1021
1021
1026
1025
1027
1022
1021
1024
1029
1027
1026
1022
1022
1024
1027
1026
1025
1022
1021
1020
1024
1024
1026
1021
1021
1024
1023
1023
1023
1023
1023
1024
1026
1028
1023
1020
1017
1022
1021
1024
1021
1019
1021
1023
1023
1028
1025
1024
1021
1023
1022
1024
1023
1022
1022
1022
1027
1026
1027
1023
1023
1022
1024
1024
1025
1025
1026
1026
1029
1033
1032
1032
1032
1033
1037
1037
1034
1031
1029
1027
1029
1027
1030
1031
1029
1027
1033
1037
1036
1033
1030
1029
1029
1031
1026
1022
1020
1020
1021
1023
1021
1021
1021
1021
1027
1029
1024
1020
1021
1023
1026
1028
1035
1043
1058
1085
1121
1146
1154
1146
1127
1100
1054
998
926
832
732
661
638
637
633
627
627
630
658
701
745
782
814
847
877
905
925
942
956
971
988
1002
1013
1017
1022
1028
1032
1038
1039
1036
1038
1042
1048
1049
1050
1045
1048
1051
1056
1056
1057
1054
1052
1057
1058
1061
1064
1062
1059
1062
1065
1066
1063
1063
1062
1069
1071
1074
1073
1069
1070
1074
1079
1085
1080
1077
1081
1084
1088
1091
1092
1093
1094
1097
1101
1105
1107
1106
1110
1113
1120
1126
1128
1129
1134
1139
1147
1151
1156
1161
1164
1170
1180
1185
1190
1191
1194
1200
1209
1214
1215
1212
1218
1221
1225
1227
1228
1225
1218
1217
1217
1214
1208
1200
1195
1188
1185
1181
1171
1159
1150
1145
1140
1133
1122
1113
1104
1098
1096
1090
1082
1074
1067
1066
1061
1059
1054
1049
1048
1044
1045
1046
1042
1037
1037
1035
1038
1039
1036
1031
1029
1031
1034
1036
1032
1032
1030
1032
1034
1033
1034
1030
1030
1031
1035
1033
1031
1030
1029
1029
1033
1033
1032
1030
1026
1028
1031
1031
1030
1027
1026
1028
1028
1030
1025
1024
1025
1024
1026
1026
1026
1023
1019
1021
1023
1024
1022
1017
1016
1017
1021
1019
1017
1015
1015
1016
1018
1018
1016
1011
1011
1013
1012
1014
1011
1008
1006
1011
1012
1011
1010
1006
1006
1006
1008
1007
1009
1005
1006
1006
1011
1008
1007
1003
1001
1004
1007
1009
1005
1003
1001
1003
1008
1008
1007
1005
1003
1006
1007
1009
1007
1005
1005
1008
1008
1009
1009
1006
1003
1005
1008
1009
1010
1004
1004
1005
1008
1009
1006
1004
1004
1006
1006
1008
1006
1004
1004
1006
1009
1011
1008
1005
1004
1006
1007
1009
1009
1006
1006
1005
1010
1010
1008
1006
1004
1009
1009
1010
1010
1006
1006
1006
1010
1013
1010
1007
1006
1008
1011
1010
1010
1010
1008
1011
1012
1012
1011
1006
1009
1014
1017
1019
1019
1018
1019
1020
1025
1025
1025
1023
1022
1023
1029
1026
1027
1023
1020
1018
1023
1023
1021
1019
1017
1020
1021
1025
1025
1022
1021
1023
1026
1024
1020
1016
1014
1013
1016
1014
1015
1013
1013
1013
1016
1019
1019
1015
1013
1014
1017
1019
1016
1015
1013
1015
1016
1017
1017
1012
1015
1017
1019
1021
1016
1014
1014
1018
1021
1024
1026
1030
1033
1042
1059
1072
1084
1091
1112
1143
1178
1216
1246
1276
1308
1346
1390
1430
1458
1466
1447
1402
1327
1240
1160
1098
1057
1033
1025
1025
1027
1025
1020
1021
1020
1018
1012
1006
1003
1002
1005
1005
1000
1000
997
998
1001
1000
1000
996
995
996
999
1000
997
995
992
993
995
996
996
991
990
990
993
992
990
988
987
990
992
990
990
987
987
989
991
991
992
987
987
989
992
994
993
988
988
990
992
992
991
989
988
990
995
993
994
992
991
994
998
1000
999
995
997
1000
1003
1004
1003
1003
1004
1008
1011
1016
1016
1016
1019
1023
1029
1033
1031
1035
1036
1042
1048
1053
1057
1056
1057
1061
1065
1069
1068
1067
1067
1070
1073
1071
1069
1065
1060
1060
1060
1059
1055
1053
1048
1047
1048
1047
1043
1037
1035
1039
1040
1040
1035
1032
1034
1036
1039
1040
1036
1033
1031
1034
1038
1036
1038
1034
1033
1032
1038
1036
1036
1032
1030
1035
1036
1036
1035
1030
1030
1031
1034
1035
1033
1031
1027
1028
1032
1034
1030
1027
1025
1029
1030
1031
1027
1025
1025
1029
1031
1029
1027
1025
1024
1030
1032
1033
1031
1030
1028
1030
1033
1032
1032
1028
1031
1034
1036
1037
1033
1034
1031
1032
1034
1035
1035
1031
1032
1032
1034
1037
1035
1035
1032
1036
1037
1036
1031
1030
1029
1032
1036
1035
1032
1031
1028
1032
1032
1031
1031
1030
1028
1029
1033
1031
1027
1028
1027
1027
1032
1032
1030
1025
1024
1029
1031
1032
1031
1028
1027
1027
1032
1031
1028
1025
1024
1025
1028
1030
1029
1026
1024
1028
1029
1029
1030
1027
1027
1027
1031
1032
1028
1026
1027
1027
1030
1029
1027
1025
1023
1024
1029
1027
1027
1025
1026
1025
1028
1030
1029
1023
1026
1028
1030
1028
1031
1027
1027
1028
1031
1032
1030
1027
1029
1032
1037
1038
1036
1032
1033
1034
1034
1038
1035
1035
1036
1038
1039
1036
1035
1033
1031
1034
1036
1034
1032
1032
1031
1036
1038
1036
1033
1032
1027
1031
1029
1027
1029
1027
1025
1027
1029
1032
1028
1027
1025
1028
1027
1026
1025
1024
1025
1024
1028
1030
1028
1027
1022
1024
1026
1025
1026
1024
1025
1026
1030
1031
1032
1026
1028
1036
1045
1054
1065
1074
1083
1097
1121
1145
1178
1208
1240
1276
1308
1342
1380
1417
1442
1440
1405
1324
1224
1136
1080
1050
1031
1028
1026
1028
1023
1024
1023
1025
1018
1011
1006
1005
1010
1009
1010
1007
1005
1007
1008
1007
1004
1002
1004
1002
1004
1002
1001
996
998
1002
1006
1003
1000
995
994
996
1000
997
995
994
995
997
999
994
993
988
988
994
995
995
992
989
988
992
994
992
988
986
987
989
993
994
992
992
993
994
996
995
994
992
992
995
998
999
999
997
998
1002
1005
1008
1005
1006
1006
1013
1021
1021
1024
1022
1024
1029
1036
1041
1043
1043
1043
1049
1056
1062
1064
1062
1061
1063
1064
1068
1064
1063
1062
1065
1067
1064
1061
1052
1052
1049
1054
1051
1047
1041
1038
1039
1040
1039
1040
1035
1030
1034
1033
1033
1033
1029
1028
1033
1037
1033
1030
1025
1026
1030
1031
1030
1028
1025
1024
1024
1028
1028
1028
1025
1025
1023
1025
1024
1023
1021
1021
1022
1026
1022
1021
1019
1017
1020
1020
1021
1019
1018
1015
1019
1020
1022
1019
1015
1016
1019
1023
1021
1019
1018
1015
1018
1022
1021
1018
1016
1013
1016
1021
1022
1020
1017
1016
1018
1021
1017
1016
1013
1014
1018
1018
1019
1014
1011
1012
1014
1016
1016
1014
1012
1011
1013
1013
1013
1011
1010
1007
1011
1015
1013
1012
1010
1010
1012
1015
1014
1012
1011
1006
1011
1012
1012
1013
1008
1010
1011
1014
1014
1012
1009
1009
1014
1014
1015
1009
1009
1008
1009
1012
1011
1011
1008
1008
1011
1013
1013
1011
1010
1011
1010
1013
1011
1011
1008
1010
1014
1017
1015
1014
1010
1010
1014
1021
1020
1023
1017
1017
1021
1024
1028
1024
1024
1021
1025
1029
1028
1025
1022
1018
1020
1018
1022
1021
1017
1018
1020
1022
1022
1022
1021
1020
1023
1025
1022
1022
1019
1016
1019
1017
1017
1013
1012
1014
1014
1021
1018
1015
1014
1013
1016
1018
1017
1014
1013
1011
1017
1019
1018
1017
1014
1015
1015
1018
1020
1020
1014
1015
1016
1019
1020
1018
1018
1020
1021
1027
1031
1034
1038
1046
1056
1072
1080
1091
1102
1124
1155
1189
1218
1247
1271
1299
1333
1374
1414
1446
1461
1461
1432
1378
1293
1208
1138
1088
1052
1030
1021
1019
1019
1017
1018
1018
1017
1015
1010
1006
1002
1003
1000
997
995
996
997
997
998
993
992
989
993
996
996
994
989
988
988
993
990
988
985
986
985
986
987
985
982
983
985
986
987
986
982
983
982
985
987
984
981
981
984
985
988
985
981
983
984
986
986
986
983
982
984
987
989
989
987
986
990
990
991
992
988
990
992
996
998
996
996
998
1004
1007
1006
1009
1009
1011
1014
1021
1021
1027
1024
1029
1036
1041
1045
1045
1047
1053
1057
1062
1066
1067
1065
1068
1069
1076
1074
1070
1068
1067
1067
1066
1063
1058
1053
1050
1053
1053
1050
1044
1040
1038
1039
1041
1040
1037
1034
1031
1033
1034
1035
1034
1031
1033
1033
1037
1035
1034
1028
1029
1031
1033
1031
1030
1027
1026
1029
1031
1030
1031
1027
1027
1027
1030
1028
1028
1023
1023
1027
1030
1027
1025
1023
1024
1025
1028
1026
1026
1023
1024
1025
1028
1026
1025
1021
1022
1025
1029
1031
1029
1023
1024
1025
1029
1030
1029
1028
1024
1027
1031
1031
1031
1028
1029
1030
1033
1032
1030
1027
1027
1028
1031
1031
1030
1028
1029
1031
1033
1033
1028
1026
1026
1031
1033
1033
1029
1027
1026
1027
1028
1028
1026
1024
1026
1026
1029
1026
1024
1023
1023
1029
1031
1032
1029
1023
1026
1024
1028
1028
1025
1024
1023
1026
