940
940
942
942
941
941
941
939
937
934
934
935
937
944
947
950
954
953
952
950
950
946
946
948
952
957
962
963
962
959
956
951
947
947
945
947
947
947
948
948
947
946
944
940
939
935
932
934
933
937
939
940
940
940
936
934
936
934
934
935
937
936
935
932
927
922
922
925
939
959
988
1020
1058
1098
1136
1166
1173
1152
1109
1051
997
955
936
935
945
959
968
972
971
967
962
956
953
949
948
949
951
951
952
952
950
950
949
945
945
943
944
946
947
949
950
950
949
948
946
946
945
946
947
947
951
951
951
949
949
950
950
950
949
951
951
952
953
953
952
953
951
952
953
951
952
951
953
953
953
954
956
956
956
954
953
952
951
950
950
953
954
954
956
955
956
955
953
953
952
950
952
955
956
958
959
957
959
961
958
963
962
964
967
967
969
973
973
972
977
974
974
971
968
970
969
968
969
969
970
968
967
966
964
962
960
956
957
957
959
962
963
962
961
959
956
955
954
950
952
955
957
958
961
960
959
958
956
955
953
952
951
952
956
956
960
960
959
957
955
950
951
952
951
952
952
954
953
953
952
951
950
950
952
952
952
954
952
952
951
952
954
955
955
958
956
958
957
958
959
961
965
966
967
972
971
974
970
967
963
961
960
960
962
960
960
958
955
955
955
952
950
950
949
945
946
945
946
949
947
946
946
944
945
946
947
950
952
953
953
952
949
944
937
932
930
936
947
967
995
1026
1068
1110
1151
1181
1190
1173
1129
1070
1010
966
942
940
952
965
973
977
975
972
967
964
963
959
961
961
960
959
957
957
955
954
952
954
955
954
958
958
957
957
956
955
955
955
953
954
955
956
960
960
961
961
960
961
960
959
960
958
959
960
962
965
965
965
963
960
963
962
960
963
963
965
966
965
968
966
964
963
963
963
962
963
963
962
963
963
965
964
964
964
963
963
961
964
966
967
969
971
970
973
974
972
974
976
976
979
981
983
982
985
987
984
982
980
983
982
980
981
980
979
982
978
978
975
973
971
970
970
970
972
974
974
975
975
973
972
970
968
967
966
966
967
969
969
968
970
971
970
969
967
966
962
963
966
967
968
969
968
967
965
962
963
963
964
964
964
965
965
967
968
966
964
963
962
962
963
963
963
964
967
967
968
970
970
973
972
971
971
971
972
976
978
979
980
985
984
983
979
977
976
975
974
975
976
977
974
973
971
972
969
968
966
965
963
962
963
963
963
963
964
963
960
960
960
959
961
962
965
966
966
965
965
959
953
946
943
951
968
989
1016
1051
1092
1136
1173
1198
1196
1168
1115
1055
1000
964
949
953
966
982
988
991
989
983
979
974
973
972
973
971
971
972
971
971
968
968
967
963
963
965
967
969
970
972
971
971
969
970
969
967
967
968
968
970
971
974
974
974
974
973
970
970
970
970
972
972
975
976
977
975
975
974
973
972
973
972
975
974
974
973
974
972
973
972
971
970
969
972
973
975
975
976
975
973
969
969
969
969
972
975
974
977
978
978
979
980
982
981
985
985
989
991
992
994
994
995
993
993
992
988
986
984
984
985
986
983
983
982
980
979
977
975
973
974
975
975
976
976
975
973
973
971
967
965
963
965
964
968
968
968
969
968
967
966
964
961
961
961
961
963
964
964
961
962
962
961
959
956
959
957
959
962
963
961
962
960
960
958
955
954
956
955
957
959
961
964
966
968
968
966
966
964
965
969
971
974
975
975
973
971
969
966
965
964
963
960
960
961
961
964
961
959
956
952
949
947
946
944
948
946
948
947
950
950
951
950
951
949
947
944
942
937
934
936
945
960
983
1011
1049
1090
1136
1173
1192
1180
1137
1080
1017
968
941
936
945
958
970
973
972
974
970
966
965
960
959
957
955
952
952
950
950
952
952
956
957
958
958
956
953
953
954
953
954
955
957
956
957
958
959
956
953
953
955
954
955
955
954
957
957
955
955
955
954
953
953
952
952
952
954
957
957
957
958
959
955
953
953
953
953
955
958
959
961
962
962
958
959
957
953
953
951
956
959
960
960
960
958
959
958
959
962
966
969
973
973
976
977
978
977
977
976
976
974
975
973
974
974
975
970
971
968
966
962
956
953
952
954
952
954
957
957
956
954
952
950
950
952
952
952
953
954
952
952
951
950
948
946
946
945
943
944
941
944
946
947
947
948
944
944
943
942
941
942
943
945
945
946
946
944
942
943
941
942
941
942
941
942
944
946
948
951
952
954
952
951
948
948
950
954
958
961
963
961
957
954
947
949
947
946
947
948
948
949
948
947
946
940
937
935
935
934
934
937
938
938
941
939
938
937
934
935
935
938
939
944
949
956
968
985
1007
1034
1066
1103
1143
1186
1223
1240
1239
1212
1160
1103
1053
1020
1002
991
987
981
976
967
961
955
952
949
943
942
938
937
935
935
935
935
937
938
938
938
935
935
933
934
935
935
938
938
938
939
937
937
933
933
933
935
935
935
935
937
935
934
935
934
933
931
930
933
933
932
931
930
932
932
930
929
930
928
925
925
926
925
927
926
927
925
923
921
917
914
913
913
912
912
914
914
914
913
915
913
911
909
912
912
917
918
922
924
929
933
934
935
938
937
937
937
938
941
940
945
946
948
949
948
947
945
942
942
941
937
938
941
944
945
947
945
943
941
940
939
938
938
940
939
941
941
939
938
939
938
937
938
939
938
940
941
941
942
942
941
941
939
938
938
937
935
937
938
940
941
942
941
938
936
934
932
933
936
938
940
941
940
940
939
936
936
937
938
940
944
947
949
950
951
950
950
948
950
954
955
958
956
954
953
952
953
950
950
949
949
948
947
946
945
944
944
946
945
946
941
940
939
937
934
932
933
935
938
938
940
942
941
940
939
935
937
936
935
932
929
927
929
939
952
976
1004
1042
1085
1129
1164
1180
1168
1129
1070
1011
961
933
924
934
948
958
965
965
964
961
959
955
953
952
950
950
949
949
949
948
950
950
953
955
953
951
951
949
947
949
949
949
952
953
955
957
957
958
957
956
956
955
954
956
958
960
961
963
963
962
961
959
957
957
958
960
959
962
964
964
964
962
960
958
956
958
959
960
963
963
963
966
965
964
962
959
960
960
961
962
964
967
968
969
969
968
968
969
970
971
973
976
980
982
983
985
983
983
980
981
979
979
978
978
979
978
977
976
974
971
970
968
967
967
965
965
966
967
968
968
967
963
962
958
958
956
958
962
962
967
968
966
964
963
961
962
960
962
963
963
963
964
962
963
963
963
959
960
957
959
959
961
962
962
963
961
960
960
959
958
958
956
956
958
959
962
964
967
970
970
968
967
967
967
967
969
972
978
978
980
982
978
974
970
968
966
967
967
968
968
968
968
969
967
965
962
960
956
953
952
950
953
953
957
960
958
957
956
954
952
951
950
953
955
957
958
957
952
948
945
954
968
995
1027
1068
1109
1149
1179
1197
1192
1163
1114
1057
1002
962
944
944
957
974
982
990
988
983
977
970
964
963
962
965
967
969
968
967
965
963
965
968
970
966
966
963
963
964
966
971
973
972
971
967
965
963
963
965
968
969
971
971
971
969
971
972
971
972
971
971
970
970
971
971
973
973
970
970
969
969
971
972
974
974
975
974
973
972
970
970
971
971
971
972
974
975
975
974
975
975
974
975
976
980
983
983
985
980
973
971
969
970
970
972
975
976
977
979
982
982
983
983
984
984
982
982
979
979
980
982
982
985
986
986
982
975
966
960
956
958
960
965
968
967
966
966
964
962
962
963
963
965
968
973
977
975
965
956
948
947
946
953
956
957
958
958
958
957
960
961
963
962
962
961
958
954
953
952
957
962
964
967
964
960
956
950
948
946
953
960
968
970
969
969
967
963
954
949
946
947
952
957
963
968
967
969
965
963
960
959
957
957
958
959
959
957
958
958
959
959
952
947
941
938
941
946
949
951
949
947
946
944
943
943
941
942
944
947
947
947
943
942
936
934
936
944
961
983
1011
1047
1088
1130
1165
1182
1171
1131
1077
1019
970
942
937
947
958
970
974
976
972
965
961
957
954
953
950
950
951
954
954
956
954
952
950
949
949
945
947
951
952
956
956
959
959
953
945
941
941
942
950
953
955
957
955
952
952
949
948
948
949
949
954
958
960
959
960
954
949
948
947
950
952
954
956
956
960
959
962
960
961
959
954
954
953
952
955
957
959
957
956
958
955
954
954
954
954
955
957
960
961
962
964
965
968
967
967
965
965
965
968
969
972
975
977
979
975
976
974
972
971
973
971
969
970
970
970
970
968
968
965
962
960
957
958
958
958
961
960
961
959
955
954
952
952
952
953
954
956
955
955
957
956
955
953
952
950
950
951
951
952
952
952
954
954
949
949
946
948
945
946
947
950
951
952
954
951
947
943
941
939
943
946
949
953
956
957
959
959
960
958
958
958
957
958
961
963
968
970
971
972
969
967
963
961
957
960
962
962
962
963
963
960
957
953
953
950
948
947
947
948
947
948
951
952
948
949
949
947
945
948
948
952
954
953
949
944
940
942
953
972
996
1030
1071
1114
1157
1188
1200
1181
1138
1077
1017
967
942
937
946
961
972
978
979
978
974
970
970
965
962
959
962
963
963
963
963
962
960
958
957
957
958
957
958
959
960
963
960
961
961
960
960
958
958
958
959
960
963
963
966
968
968
967
966
964
964
964
962
964
965
967
967
967
968
965
965
964
965
963
967
967
970
969
969
968
967
963
964
962
962
964
964
964
967
968
967
967
967
969
967
968
967
968
970
970
974
977
981
983
983
982
980
981
980
981
982
981
981
979
979
977
976
973
972
970
967
966
965
964
965
966
966
963
963
961
958
956
955
954
955
958
958
959
959
957
956
954
953
953
951
950
954
951
954
953
955
952
951
948
946
943
943
946
949
949
950
950
948
948
948
945
943
943
944
946
948
948
947
947
945
945
944
946
946
947
946
948
950
950
952
952
954
956
957
961
961
961
959
955
955
953
956
956
955
954
951
949
948
947
945
946
944
943
943
940
940
938
936
933
933
935
935
937
937
939
940
941
940
940
937
937
935
932
927
923
923
929
944
966
996
1035
1079
1123
1166
1191
1191
1164
1111
1051
1001
970
961
962
969
974
975
970
963
956
951
948
947
946
944
945
942
941
938
937
936
938
939
938
940
940
942
943
942
941
939
939
937
938
937
938
944
944
943
944
941
941
939
939
937
939
940
942
946
947
950
949
948
946
944
944
942
942
943
945
945
946
947
947
945
943
941
940
940
941
941
941
941
941
943
943
942
944
944
943
941
940
942
945
947
950
951
952
951
949
948
949
949
950
955
957
956
959
957
956
954
955
953
950
947
947
947
949
950
948
948
945
943
941
936
938
935
936
937
937
939
938
938
937
935
936
935
933
932
934
935
936
939
937
936
935
935
933
933
930
931
931
932
934
933
935
934
932
931
928
925
925
925
925
928
930
934
935
936
936
931
928
927
924
924
927
930
933
935
938
942
941
939
940
936
936
936
938
942
945
948
949
946
944
939
935
932
932
931
933
934
933
934
934
932
931
930
928
924
922
921
920
920
922
925
922
925
923
924
925
924
923
923
922
921
918
913
911
914
920
935
960
990
1031
1073
1121
1157
1180
1175
1141
1080
1010
953
916
899
905
916
931
940
943
946
947
946
942
940
935
932
930
929
929
930
929
932
932
933
934
932
930
929
929
926
928
929
932
933
934
934
933
934
935
932
932
931
934
937
941
941
941
941
941
939
938
936
936
936
939
941
941
944
943
943
942
941
940
939
939
937
940
942
942
944
945
947
946
942
941
939
938
938
939
938
938
939
940
942
942
940
939
938
938
938
941
944
946
952
952
956
956
959
957
955
955
953
956
954
957
959
957
958
958
955
952
950
947
947
948
947
948
948
950
948
948
947
946
944
942
942
942
942
942
943
943
944
944
943
941
939
938
937
938
940
940
942
944
945
942
941
938
936
934
934
935
935
938
939
940
939
937
938
937
936
937
935
935
935
935
937
938
939
939
940
941
941
944
942
944
944
944
947
946
949
951
953
956
955
954
953
950
950
947
946
946
948
949
947
946
945
941
939
940
938
936
936
936
935
934
933
932
931
927
931
932
934
933
937
936
936
936
935
933
933
930
926
924
920
919
926
937
956
982
1014
1051
1090
1131
1166
1179
1168
1133
1080
1021
973
940
926
930
941
953
960
964
962
961
958
953
948
946
944
942
941
940
941
940
941
941
943
943
945
944
944
942
939
939
938
938
940
943
945
946
945
945
942
942
938
939
940
940
943
945
947
949
949
949
950
948
947
946
946
944
947
947
950
952
953
955
950
953
947
946
945
945
946
952
955
955
955
954
950
948
947
947
946
948
951
953
954
953
955
952
954
953
952
953
954
954
955
957
958
959
961
959
963
965
965
964
968
966
966
966
966
966
967
969
967
967
965
962
958
958
957
957
957
957
956
955
954
952
952
953
953
951
951
948
951
951
951
949
951
950
949
949
947
948
946
947
948
949
949
949
948
946
943
944
941
941
942
944
946
947
949
949
947
944
944
942
942
940
941
943
944
946
948
948
948
944
943
939
939
938
941
943
944
944
944
945
944
945
947
948
949
951
952
954
954
954
953
956
957
957
960
961
960
958
957
952
953
951
953
953
952
949
949
947
947
945
943
944
945
944
944
942
941
940
939
940
939
941
940
941
944
945
946
946
947
943
940
937
931
929
928
931
946
966
991
1027
1068
1110
1152
1185
1199
1187
1143
1086
1023
974
944
938
945
957
967
975
975
973
970
966
961
957
953
952
950
951
952
951
952
951
950
951
952
952
952
955
953
951
951
950
949
950
950
950
953
955
958
957
958
954
952
953
953
953
955
956
959
961
960
961
959
957
956
955
955
957
956
957
958
960
960
962
961
961
959
960
959
955
959
960
962
963
963
963
963
962
962
961
959
960
961
962
965
967
967
967
967
963
963
965
968
972
978
980
979
982
978
980
978
976
975
972
970
973
972
971
969
970
970
972
974
972
964
961
956
956
956
958
960
960
960
961
964
963
963
960
956
954
952
951
951
953
955
956
958
961
958
956
950
945
943
943
944
946
950
952
951
950
946
947
947
949
950
952
952
952
951
951
947
945
944
944
945
944
946
948
949
952
954
957
958
958
959
960
958
956
952
956
960
966
969
973
972
967
960
957
954
955
956
957
957
957
954
952
947
944
943
942
940
937
938
939
938
940
940
939
940
941
940
940
939
940
942
946
947
951
948
942
935
928
924
927
937
954
978
1006
1042
1080
1122
1162
1186
1188
1156
1103
1042
984
948
934
937
949
962
969
971
969
966
960
956
948
944
944
946
950
955
954
951
945
942
941
939
938
938
940
942
944
947
945
947
946
944
941
942
943
949
948
948
949
949
949
947
946
945
945
944
944
947
950
951
951
950
949
949
947
946
945
945
947
950
952
953
953
952
953
953
951
949
949
949
950
951
953
952
954
954
953
954
951
952
950
948
947
945
947
949
953
957
958
958
957
957
957
960
963
967
968
972
973
972
974
972
970
966
964
963
962
960
960
963
963
962
960
959
957
954
956
958
960
962
961
957
956
952
951
947
944
943
944
944
944
947
949
953
953
951
950
947
946
948
948
949
950
949
946
943
944
946
949
949
947
942
940
937
935
939
943
948
951
948
946
944
940
937
938
940
940
946
947
949
950
948
950
950
952
954
958
955
953
950
953
954
959
962
966
962
957
952
949
949
948
950
952
955
961
966
966
958
941
927
920
921
924
933
939
943
945
946
946
944
939
937
937
936
938
940
937
933
927
926
935
952
976
1008
1042
1080
1118
1156
1179
1181
1155
1103
1042
984
946
930
933
945
955
959
962
963
962
959
958
953
948
944
943
943
945
947
948
951
952
951
950
951
950
946
944
944
942
942
944
947
948
950
950
951
951
949
944
940
935
939
942
944
950
952
952
950
943
944
945
949
950
952
953
951
952
952
951
951
946
945
944
943
945
950
951
950
953
952
951
950
949
946
944
945
944
947
946
948
949
949
949
951
951
952
951
952
955
958
960
961
961
964
967
968
969
967
968
968
967
969
971
972
972
972
973
972
969
967
963
961
960
958
960
959
959
959
959
957
954
955
954
954
950
949
949
947
949
950
952
952
951
948
948
945
943
946
947
950
951
950
948
947
946
941
942
939
940
941
944
944
945
946
945
944
942
940
939
940
940
940
942
942
943
942
942
943
945
945
946
947
947
950
948
951
951
950
955
957
959
961
958
957
952
952
949
949
950
949
948
950
948
946
944
942
