966
959
954
953
951
946
946
945
944
943
948
950
951
951
948
945
943
941
942
945
947
950
949
949
947
943
939
934
935
943
959
993
1043
1106
1180
1261
1340
1402
1434
1425
1375
1295
1204
1106
1016
938
869
811
776
759
767
789
818
846
869
881
884
880
875
870
863
861
857
854
851
852
853
856
856
858
855
852
851
847
848
847
848
846
845
844
846
846
850
854
857
856
855
853
856
858
864
868
876
881
886
889
894
896
903
909
917
922
929
934
940
950
958
968
977
986
988
993
999
1006
1014
1023
1031
1037
1044
1048
1052
1057
1061
1066
1071
1076
1079
1077
1081
1080
1080
1081
1083
1082
1077
1073
1066
1061
1058
1057
1055
1053
1053
1047
1043
1032
1028
1021
1015
1012
1008
1002
995
989
984
978
975
972
969
963
960
954
950
948
946
947
948
951
952
949
944
941
939
942
947
955
962
968
974
980
983
987
993
995
1000
998
999
999
999
1002
1001
997
988
976
961
946
935
926
921
920
919
920
921
920
921
921
921
919
921
918
915
914
914
915
916
922
920
921
920
918
913
909
909
906
907
911
921
947
983
1030
1088
1156
1228
1300
1367
1412
1432
1421
1374
1307
1228
1146
1065
991
920
856
809
782
782
799
825
848
865
869
866
857
850
845
840
839
839
841
839
839
838
835
830
825
821
817
819
820
820
819
819
818
816
815
816
815
818
819
821
822
823
824
830
832
834
840
843
847
848
852
856
862
869
880
886
893
900
907
914
920
930
939
944
950
958
963
971
979
991
1001
1009
1012
1018
1023
1030
1037
1045
1049
1053
1055
1057
1053
1053
1055
1056
1055
1057
1053
1053
1049
1049
1046
1045
1042
1038
1031
1024
1020
1019
1018
1012
1012
1009
1004
998
990
985
980
977
970
966
963
958
956
951
950
947
948
944
943
938
932
930
931
932
936
937
941
946
950
956
960
966
971
977
982
984
988
989
991
995
994
993
988
980
966
952
942
933
925
923
916
916
916
913
911
909
909
910
914
913
915
913
913
913
910
909
912
911
911
910
909
906
907
905
903
903
900
906
922
951
993
1046
1113
1189
1268
1337
1389
1404
1380
1321
1242
1150
1058
973
896
835
792
778
784
804
832
857
872
877
874
868
861
853
851
850
851
849
848
846
844
845
843
838
837
834
831
836
838
837
836
837
836
833
831
832
833
839
844
848
850
854
853
857
862
866
871
876
883
884
893
901
908
917
927
935
942
948
953
959
972
984
996
1008
1019
1026
1031
1038
1043
1051
1059
1066
1071
1077
1082
1084
1091
1096
1101
1106
1107
1107
1106
1105
1104
1103
1104
1104
1102
1099
1096
1093
1086
1083
1077
1074
1071
1065
1061
1058
1053
1052
1045
1044
1038
1029
1021
1014
1008
1001
1000
996
993
988
981
976
971
968
965
962
958
955
953
953
951
950
951
951
948
949
947
947
951
959
968
979
990
996
1003
1006
1010
1011
1012
1014
1015
1015
1015
1011
1003
992
977
967
958
948
940
933
932
931
934
938
942
942
939
935
932
929
930
935
939
944
947
947
944
941
938
937
934
932
927
920
910
913
927
957
1013
1087
1175
1269
1361
1433
1471
1479
1447
1390
1318
1246
1171
1100
1037
981
931
894
872
866
870
877
883
884
880
870
862
852
843
840
842
844
843
841
839
836
833
832
836
831
831
827
827
826
828
831
834
837
838
838
838
837
837
839
841
843
842
842
847
853
858
864
869
873
875
876
882
889
894
906
915
919
925
930
934
941
950
958
965
969
976
982
989
998
1011
1020
1024
1027
1030
1029
1028
1031
1034
1039
1041
1046
1044
1043
1039
1036
1035
1032
1028
1025
1021
1018
1017
1015
1011
1009
1002
997
993
989
983
978
975
971
966
963
957
952
950
944
941
936
930
923
921
917
919
920
924
927
926
925
921
916
917
919
922
928
936
945
954
963
972
975
983
984
984
984
985
985
986
987
983
975
966
952
938
926
917
913
911
911
910
909
908
908
908
908
907
907
904
903
901
903
905
909
912
913
912
908
902
902
896
897
895
899
914
942
987
1044
1115
1192
1272
1346
1401
1429
1425
1385
1324
1252
1171
1086
1004
929
861
800
757
739
743
762
790
816
836
848
848
842
836
828
823
821
819
818
822
823
825
825
821
817
813
810
810
810
811
814
817
816
814
811
807
806
810
811
814
815
815
821
822
826
832
837
840
844
847
849
853
858
865
874
881
890
893
899
905
911
918
925
935
940
947
954
959
968
977
988
998
1007
1013
1017
1019
1025
1030
1038
1045
1050
1051
1053
1056
1053
1056
1054
1053
1055
1054
1050
1047
1044
1043
1041
1036
1032
1025
1017
1010
1001
997
996
991
991
985
981
971
965
957
951
948
946
945
939
935
933
931
926
927
927
924
924
921
916
914
914
919
923
927
931
935
940
948
955
959
963
970
974
976
978
980
980
976
971
965
959
945
933
920
912
904
902
901
896
895
890
891
889
889
888
891
892
890
889
887
888
889
890
891
888
882
875
867
866
867
880
897
929
979
1044
1121
1199
1273
1338
1395
1439
1466
1476
1458
1425
1373
1308
1236
1161
1080
1002
933
877
844
832
831
837
839
840
839
832
825
820
815
809
807
807
806
806
806
802
799
793
792
790
791
793
796
794
793
792
789
789
786
789
787
786
787
789
790
792
796
798
804
804
806
806
811
813
822
825
833
839
843
848
850
858
864
874
881
887
895
905
915
925
937
946
953
958
963
967
972
979
987
996
1002
1008
1009
1008
1009
1010
1013
1014
1016
1016
1012
1010
1012
1011
1009
1006
1000
996
992
988
987
980
977
976
971
969
962
958
950
942
938
928
925
918
912
909
904
902
905
907
906
902
896
894
892
894
898
902
903
905
910
915
920
928
939
946
952
953
957
963
967
971
975
977
976
971
966
956
946
935
920
912
903
898
898
898
899
900
901
899
897
895
894
894
898
900
905
907
903
902
899
899
899
899
900
898
894
893
894
904
928
960
1005
1058
1113
1182
1256
1325
1380
1404
1383
1327
1240
1141
1045
955
882
824
777
747
737
745
767
792
814
833
843
843
840
831
829
828
825
827
827
825
819
819
815
814
814
813
815
816
813
816
819
822
822
822
820
816
811
811
814
815
821
828
835
839
842
843
844
847
850
857
864
871
874
876
883
888
897
904
911
917
923
928
938
943
954
966
977
986
991
994
999
1006
1014
1020
1027
1034
1037
1040
1042
1044
1047
1051
1053
1052
1050
1044
1044
1041
1040
1041
1042
1038
1034
1026
1018
1013
1006
1004
999
996
991
984
978
971
968
964
960
957
951
945
940
934
928
924
922
920
917
914
910
906
904
901
903
905
906
904
903
904
904
905
911
916
923
929
935
943
945
954
960
964
966
964
962
957
951
942
933
925
917
909
902
895
886
881
876
874
876
873
875
875
875
877
879
880
882
879
874
874
873
872
875
876
880
879
877
870
865
858
857
863
888
931
995
1075
1168
1264
1355
1422
1457
1452
1415
1357
1290
1222
1160
1103
1055
1010
963
914
868
833
820
817
825
830
828
825
820
815
813
810
807
803
799
796
792
790
790
790
793
792
789
785
783
780
779
778
775
776
776
773
770
769
773
775
774
777
780
779
780
780
782
786
790
796
802
801
805
806
807
814
819
824
831
837
842
851
861
869
878
884
895
899
904
910
917
926
937
948
956
963
968
972
977
981
987
996
999
1004
1007
1010
1011
1015
1016
1018
1017
1015
1010
1006
1005
1004
1004
1006
1001
999
994
983
979
976
970
967
960
958
952
947
941
937
936
931
927
922
915
907
907
906
905
908
908
907
905
900
901
901
906
913
919
928
933
936
939
944
947
950
951
953
956
955
954
951
946
944
936
927
914
900
889
880
876
876
881
885
886
885
886
883
879
877
880
881
882
880
880
881
883
884
888
885
887
887
886
883
877
875
878
885
897
924
964
1016
1078
1150
1229
1303
1365
1393
1374
1320
1239
1147
1055
972
908
863
827
800
774
764
764
777
802
825
843
856
856
850
844
838
834
833
833
833
832
834
832
833
835
832
829
827
825
821
821
821
824
830
831
830
827
827
823
823
825
830
836
840
842
842
848
851
857
864
869
875
879
880
887
894
902
912
918
926
934
937
944
950
958
966
977
986
995
1002
1007
1009
1017
1021
1031
1038
1041
1046
1051
1056
1059
1063
1069
1072
1074
1075
1074
1071
1066
1062
1062
1062
1064
1065
1062
1060
1050
1043
1037
1030
1026
1021
1016
1013
1009
1005
1000
995
993
984
975
970
962
959
956
952
949
949
942
936
927
924
918
919
916
914
911
909
908
908
908
908
910
911
910
913
914
919
923
928
938
948
954
960
962
966
968
971
976
976
972
971
964
955
943
935
928
922
919
911
906
901
895
897
898
898
901
901
900
893
883
877
868
865
865
872
881
901
928
961
997
1038
1080
1122
1162
1198
1237
1276
1313
1349
1382
1420
1453
1483
1504
1516
1513
1496
1458
1408
1335
1251
1161
1070
990
916
860
822
801
795
799
803
810
806
804
796
787
776
770
767
764
761
761
761
755
752
746
745
742
741
739
734
731
726
721
717
716
715
716
715
711
705
700
694
692
691
693
697
695
695
698
695
698
701
703
707
707
710
710
715
719
724
734
742
750
757
760
767
774
785
795
804
812
822
826
836
844
852
862
872
881
887
891
898
903
910
919
925
931
935
937
938
938
939
941
942
941
942
940
938
936
933
931
925
922
914
910
908
904
902
904
900
897
891
885
877
870
867
865
869
867
869
867
866
865
863
863
864
866
865
868
872
878
883
893
901
905
907
909
909
912
916
923
926
926
922
916
908
895
885
877
865
858
851
848
849
854
854
862
865
868
872
869
869
871
874
883
892
901
910
918
926
933
949
970
992
1013
1029
1042
1049
1054
1058
1054
1045
1022
988
942
894
844
801
751
717
698
691
699
709
727
748
769
789
804
814
821
825
828
831
835
839
839
839
836
836
833
830
832
835
836
839
843
845
844
846
848
852
853
852
854
854
858
862
866
873
879
886
890
895
898
903
908
916
927
937
946
957
966
974
980
986
995
1002
1010
1019
1027
1032
1041
1049
1059
1064
1073
1076
1081
1085
1088
1094
1100
1105
1111
1114
1113
1111
1108
1106
1106
1104
1100
1098
1093
1087
1082
1076
1072
1065
1055
1045
1034
1023
1016
1009
1005
1002
999
992
985
978
972
967
966
960
960
958
954
953
950
948
948
944
938
937
934
928
928
927
928
930
928
927
929
925
922
922
923
924
923
919
916
917
920
929
932
937
939
944
944
942
945
953
958
962
962
959
956
950
942
936
925
916
905
899
888
882
878
878
879
880
880
877
875
874
874
876
877
881
884
886
885
880
879
877
880
879
880
878
876
874
872
881
900
933
977
1042
1120
1213
1309
1387
1439
1451
1427
1381
1314
1242
1169
1093
1013
934
862
807
783
784
803
826
843
844
841
831
818
811
806
806
811
815
815
810
805
800
795
797
795
792
789
789
785
786
788
786
788
787
782
782
780
780
781
785
785
787
787
788
791
793
795
802
805
808
810
816
820
827
831
842
846
849
854
861
869
875
882
888
895
902
907
916
925
932
942
947
952
956
963
970
981
989
994
999
1003
1002
1007
1004
1008
1009
1011
1011
1011
1012
1014
1017
1015
1015
1012
1006
1000
992
988
984
983
980
976
971
963
958
952
944
943
939
935
930
928
923
919
919
918
924
922
918
917
913
912
917
922
928
935
941
945
947
949
953
955
961
961
967
967
967
964
963
957
948
933
921
907
897
889
887
889
890
893
892
891
888
887
886
886
887
888
889
889
888
889
890
891
894
894
892
889
886
881
880
880
883
893
916
952
1006
1078
1163
1253
1339
1403
1433
1426
1384
1332
1270
1200
1136
1069
1000
930
865
813
790
791
808
833
856
866
864
856
847
839
834
832
832
834
831
830
830
829
826
827
825
823
819
817
816
816
817
819
817
817
812
807
808
807
802
804
810
813
813
817
816
820
824
827
832
835
837
840
845
853
860
868
875
885
890
894
899
904
913
922
931
938
948
957
964
972
982
991
998
1004
1009
1012
1018
1025
1032
1040
1046
1051
1053
1050
1053
1051
1051
1051
1051
1055
1055
1051
1049
1049
1047
1044
1043
1038
1028
1023
1019
1016
1015
1012
1010
1003
995
987
980
973
967
967
962
958
955
951
946
944
941
940
935
934
931
930
928
927
930
933
940
942
946
947
951
955
960
963
969
972
977
980
985
984
985
982
975
966
952
939
927
920
917
911
908
906
903
900
899
899
899
900
898
899
897
897
899
903
901
904
903
903
899
896
897
897
899
898
893
893
893
904
927
969
1026
1097
1184
1279
1368
1438
1470
1461
1417
1350
1277
1203
1135
1072
1010
943
886
844
827
830
843
857
867
868
863
854
849
842
837
836
836
835
837
834
832
829
829
823
820
818
817
820
820
820
817
813
808
806
806
805
806
807
807
808
811
813
816
818
820
821
825
824
824
828
832
838
845
850
855
857
864
865
873
878
888
894
901
906
913
918
925
933
942
949
955
961
967
974
981
992
997
1005
1013
1016
1018
1018
1022
1026
1032
1034
1037
1040
1041
1040
1039
1042
1041
1042
1039
1034
1030
1026
1026
1026
1025
1024
1021
1015
1010
1001
996
990
987
983
979
976
971
964
959
954
949
946
944
941
939
938
936
936
936
939
938
938
937
936
935
937
938
948
954
964
972
974
979
979
980
983
988
991
994
995
992
987
980
970
960
953
945
937
927
920
912
907
909
910
910
916
917
916
911
909
907
908
907
906
908
906
908
911
911
914
918
917
916
912
906
902
902
902
914
939
979
1030
1093
1164
1245
1323
1388
1421
1414
1370
1298
1218
1136
1059
998
951
912
876
843
815
797
792
803
826
849
868
880
882
876
872
867
865
862
864
865
864
860
857
854
851
850
853
852
854
854
851
854
856
857
860
862
860
859
857
858
862
867
875
882
889
892
895
897
900
907
910
915
923
929
937
945
954
966
972
979
985
990
994
1000
1008
1018
1029
1039
1045
1052
1054
1059
1063
1067
1075
1080
1083
1085
1087
1087
1087
1090
1090
1091
1087
1083
1080
1077
1074
1074
1074
1073
1071
1061
1057
1051
1044
1042
1038
1033
1031
1024
1019
1011
1007
999
996
990
984
975
965
960
955
952
951
949
946
942
937
936
933
931
930
929
928
929
931
932
934
935
939
939
940
943
949
955
965
972
981
986
991
996
999
1003
1004
1004
1004
998
992
984
974
963
954
945
938
930
927
925
922
926
930
930
932
932
929
926
926
926
926
919
907
895
890
891
896
907
924
945
971
1000
1034
1076
1132
1200
1274
1348
1416
1476
1520
1546
1551
1541
1513
1468
1408
1334
1256
1174
1097
1023
960
908
878
863
860
861
865
864
863
858
852
847
840
835
832
831
827
824
824
822
821
816
815
814
816
814
813
807
803
799
795
795
797
797
799
799
798
798
797
796
795
795
795
797
798
799
800
803
807
812
816
819
816
819
824
827
838
845
856
862
867
871
879
884
889
896
899
907
915
922
930
941
951
962
968
972
976
977
981
986
992
1002
1007
1012
1013
1009
1012
1010
1009
1008
1008
1008
1007
1007
1004
1003
1000
998
998
995
991
986
982
977
973
970
967
964
959
955
946
942
935
932
931
930
930
928
926
924
924
921
922
924
928
926
927
926
926
928
932
939
945
949
953
957
961
966
969
975
981
985
991
992
995
993
991
988
983
975
962
951
940
930
926
921
919
920
920
918
915
910
908
908
910
914
914
917
918
916
911
910
908
909
910
914
913
911
909
906
906
902
901
902
913
932
968
1022
1085
1162
1249
1332
1401
1434
1427
1377
1301
1211
1114
1025
951
889
838
796
768
760
764
784
806
830
845
851
850
848
845
843
839
839
837
836
835
833
833
835
832
831
827
824
822
822
825
825
823
822
819
820
820
823
827
832
833
837
838
837
837
837
843
849
854
860
863
868
872
878
884
890
895
903
908
914
922
927
934
943
955
962
968
974
984
993
1001
1008
1016
1025
1030
1037
1045
1052
1057
1062
1065
1065
1066
1066
1066
1072
1076
1075
1074
1071
1065
1060
1055
1052
1048
1045
1043
1038
1030
1029
1023
1015
1011
1010
999
993
988
983
976
973
972
968
967
963
957
951
951
947
945
950
950
951
949
950
948
949
950
955
961
967
970
978
982
986
994
1001
1008
1011
1011
1011
1009
1008
1004
1000
997
989
978
967
952
942
935
928
923
922
921
920
919
918
918
922
924
925
922
920
916
916
913
913
914
912
908
903
900
899
904
913
929
948
974
1004
1040
1088
1148
1217
1290
1364
1434
1489
1526
1546
1540
1516
1479
1428
1367
1295
1218
1146
1075
1009
946
896
866
855
859
864
866
868
862
855
849
843
837
834
830
830
828
827
828
831
827
825
822
817
814
812
810
811
813
812
816
812
813
817
820
823
820
817
814
813
813
818
821
831
833
836
835
835
836
844
851
857
866
874
876
880
883
889
896
902
911
919
923
930
940
949
959
969
976
982
989
993
998
1001
1004
1014
1018
1023
1027
1027
1034
1036
1040
1044
1045
1046
1043
1042
1040
1036
1041
1043
1042
1041
1038
1030
1022
1014
1009
1005
1005
1008
1006
1002
995
987
979
971
965
962
958
953
951
947
945
943
943
946
947
944
941
936
935
935
937
942
943
946
947
953
955
958
962
974
984
986
993
999
1005
1008
1011
1012
1018
1017
1011
1004
995
984
978
970
964
957
953
949
943
938
933
933
934
935
937
938
940
940
940
942
940
939
940
941
938
937
936
935
939
941
944
941
938
937
945
967
1001
1048
1103
1160
1228
1298
1367
1421
1448
1429
1374
1289
1187
1082
990
916
857
816
792
785
793
811
832
853
870
884
889
890
887
