916
915
914
913
918
927
935
940
947
950
951
954
959
966
978
985
991
991
988
985
978
971
962
949
940
926
917
909
909
908
909
909
910
908
908
906
906
908
911
914
912
914
911
909
910
913
914
915
913
908
903
898
894
898
912
938
984
1041
1114
1199
1282
1355
1414
1449
1451
1419
1355
1268
1169
1063
960
872
801
755
740
751
779
812
843
861
866
861
853
846
840
839
838
841
843
843
843
843
842
844
839
838
834
832
832
835
841
844
847
848
848
846
846
849
854
857
860
863
867
872
876
877
884
890
895
898
901
905
908
914
922
929
938
946
951
954
958
961
966
970
975
982
991
996
1003
1013
1020
1027
1034
1042
1043
1049
1046
1052
1059
1067
1074
1077
1078
1076
1074
1072
1070
1072
1069
1070
1066
1062
1055
1049
1041
1034
1028
1019
1010
999
992
985
981
978
975
969
961
954
943
936
931
926
921
918
915
915
910
908
908
907
907
906
903
900
899
900
900
907
908
912
914
910
907
904
901
904
907
913
919
923
927
929
931
934
940
945
948
948
948
950
948
948
948
941
933
919
902
890
880
874
872
874
875
877
876
875
873
872
869
872
868
862
858
849
843
840
845
850
858
876
895
921
950
979
1009
1038
1062
1092
1132
1182
1245
1310
1374
1432
1478
1506
1514
1505
1481
1437
1376
1301
1214
1117
1014
922
844
796
777
779
792
801
809
804
794
780
768
760
757
754
750
748
746
743
741
739
739
735
732
727
725
720
718
717
718
720
722
719
715
708
707
703
702
699
702
702
702
700
703
705
706
707
708
708
707
709
710
718
723
728
735
738
744
749
750
754
764
770
780
790
800
809
817
823
834
843
852
860
867
875
882
889
896
908
919
925
929
935
940
942
945
952
955
960
964
964
966
966
964
963
960
957
952
945
940
937
933
931
930
929
927
922
916
908
898
892
884
883
880
876
874
872
869
867
865
862
863
863
860
859
860
860
863
865
871
877
880
883
884
888
891
895
899
903
909
911
913
912
907
904
899
891
877
870
862
856
854
850
850
850
851
850
848
847
846
848
852
853
855
856
856
856
855
857
858
858
860
864
861
860
861
859
857
854
852
863
881
914
974
1044
1132
1226
1315
1384
1421
1419
1382
1322
1249
1170
1090
1013
943
876
819
780
759
760
778
803
824
837
838
833
826
819
817
819
818
815
813
810
807
804
802
803
804
801
803
799
797
794
792
793
792
793
794
792
791
790
791
794
798
802
801
802
804
803
804
810
813
818
823
828
833
838
840
850
861
871
881
889
899
906
912
919
927
936
947
958
970
980
989
998
1010
1018
1026
1034
1045
1053
1057
1058
1061
1062
1068
1074
1079
1085
1086
1083
1085
1082
1079
1081
1081
1081
1075
1074
1066
1061
1055
1052
1050
1048
1045
1040
1034
1026
1017
1010
1006
1001
1002
997
991
984
975
966
959
950
943
942
936
930
929
924
921
917
913
911
909
907
904
904
905
904
906
907
911
909
908
903
902
899
901
907
917
925
931
938
943
944
944
947
949
951
957
961
963
962
962
957
953
943
935
922
914
904
896
890
888
886
888
889
891
889
888
884
882
881
881
883
886
889
891
893
891
893
889
892
891
891
891
887
882
879
878
884
899
924
961
1008
1066
1133
1210
1288
1357
1409
1432
1417
1367
1295
1213
1126
1045
977
916
865
825
794
781
785
801
819
837
847
846
843
833
826
823
821
821
821
821
817
814
810
807
805
803
804
810
810
813
813
811
811
812
813
814
813
812
812
818
818
819
825
827
830
834
836
836
838
840
844
851
857
864
870
873
875
874
878
882
886
892
894
902
905
910
919
928
934
942
947
951
952
955
962
968
977
988
996
999
1000
998
1000
995
995
999
1003
1009
1012
1012
1013
1013
1013
1012
1006
998
990
984
978
975
973
970
967
960
952
944
941
935
933
932
927
919
911
907
901
899
894
891
886
879
871
865
862
863
863
866
865
865
861
859
858
858
860
862
862
864
864
869
868
871
875
876
877
880
885
890
898
905
913
919
920
920
922
921
924
923
921
913
906
896
885
875
868
864
863
861
859
856
855
853
856
857
858
860
862
860
860
858
856
857
857
861
863
862
862
862
860
858
856
852
849
854
872
908
959
1015
1076
1141
1215
1293
1364
1403
1402
1359
1283
1182
1079
976
887
811
754
724
715
732
756
781
801
808
812
811
806
805
801
796
795
792
789
787
787
785
783
783
781
779
776
779
778
776
777
775
774
772
772
774
777
780
783
783
783
778
779
778
781
785
791
795
799
801
805
808
812
817
822
827
828
830
834
836
841
846
854
866
870
875
879
885
889
894
904
913
918
924
931
935
942
948
951
958
965
965
969
972
974
978
982
985
983
982
979
975
972
968
969
966
961
958
956
949
942
937
930
927
921
915
910
905
898
896
894
891
888
885
879
873
870
866
866
869
871
872
873
872
868
867
866
868
868
868
871
871
877
883
890
895
901
906
907
905
906
905
907
909
913
916
915
908
901
890
880
870
859
852
847
843
843
840
842
843
843
843
846
844
843
841
842
841
842
844
848
852
850
848
849
847
848
848
848
849
846
843
840
844
858
888
932
994
1071
1160
1252
1336
1401
1433
1427
1387
1331
1258
1181
1103
1025
950
884
828
786
764
763
775
795
813
826
828
824
817
811
803
800
798
797
796
796
797
796
792
788
785
783
782
783
784
790
788
786
783
782
780
781
783
782
785
786
790
790
791
795
798
802
802
804
808
812
815
822
830
840
845
850
854
857
863
870
878
886
896
904
912
922
927
936
945
949
959
965
970
976
984
996
1003
1009
1015
1017
1014
1016
1018
1016
1020
1025
1028
1029
1027
1025
1023
1023
1020
1017
1012
1007
999
996
994
991
989
988
983
979
972
966
958
953
948
945
939
935
928
925
921
919
913
910
906
901
897
895
895
897
898
900
902
900
899
895
895
898
901
906
914
919
923
925
927
930
933
937
938
940
942
941
940
935
934
926
915
902
892
882
873
868
870
872
877
877
875
875
873
877
875
877
876
875
872
873
873
876
878
880
878
877
873
868
865
868
881
908
953
1011
1084
1176
1274
1364
1434
1470
1462
1419
1341
1251
1151
1056
971
901
842
800
778
780
795
820
841
853
858
852
847
843
842
842
844
846
846
843
841
838
836
837
834
837
840
838
835
834
834
836
835
835
836
837
839
842
845
848
852
853
857
860
860
863
867
875
879
887
893
896
902
905
908
915
923
933
943
950
956
963
969
974
977
984
993
998
1002
1012
1018
1025
1034
1044
1048
1049
1051
1049
1049
1052
1056
1062
1065
1068
1067
1063
1059
1051
1048
1044
1043
1044
1042
1039
1035
1029
1027
1025
1023
1020
1014
1005
994
984
976
973
969
967
965
960
952
943
936
930
926
924
919
914
907
902
897
894
893
891
888
884
879
872
869
869
872
877
884
883
889
888
883
880
879
882
882
889
893
900
903
908
911
919
921
927
931
934
935
936
936
933
932
933
930
923
914
902
887
878
872
866
863
865
867
869
868
867
864
867
867
867
865
868
866
865
866
869
872
874
874
873
870
866
862
859
855
852
862
881
912
957
1008
1069
1145
1225
1311
1381
1416
1405
1351
1262
1154
1041
944
859
792
745
719
720
736
762
788
807
818
818
819
815
811
805
801
800
802
802
802
806
810
809
808
804
800
795
796
797
797
799
802
803
805
806
807
807
809
815
818
819
820
823
826
831
835
840
844
849
852
851
851
856
863
872
877
886
889
894
901
906
911
916
921
924
930
935
944
953
961
966
971
969
969
972
974
977
985
989
996
996
998
998
997
996
994
994
989
987
982
975
975
975
971
968
963
956
950
944
937
932
930
928
923
920
912
905
896
888
886
882
881
878
871
870
865
864
865
865
866
864
859
856
852
851
851
853
853
857
859
860
861
859
857
856
858
858
861
869
871
878
883
890
894
899
900
902
903
903
905
908
912
914
913
910
901
890
877
867
859
854
852
848
849
847
847
846
847
847
848
847
846
842
843
840
842
846
846
850
850
848
846
841
839
839
837
836
835
832
835
846
868
903
948
1007
1074
1155
1245
1331
1398
1423
1402
1344
1258
1153
1050
953
867
795
747
724
721
739
761
785
801
807
808
805
798
794
790
786
787
784
784
785
784
784
783
779
779
775
771
773
774
777
777
778
777
775
771
770
771
776
777
778
780
782
783
783
786
788
794
795
796
801
804
810
812
819
827
833
837
840
843
847
853
860
867
873
878
883
886
892
899
906
914
921
924
930
936
943
950
957
966
971
974
976
976
973
976
977
982
987
986
988
986
984
979
976
977
973
970
966
960
958
952
945
943
941
938
934
929
922
915
913
910
908
910
909
907
902
897
891
887
886
885
885
886
888
887
887
882
886
885
885
884
887
889
892
898
905
909
914
914
917
915
917
919
923
922
919
911
899
887
880
871
864
860
856
853
851
850
851
852
855
856
856
855
853
852
851
851
852
854
854
855
855
856
854
854
853
847
843
843
851
869
904
957
1025
1116
1218
1316
1396
1434
1423
1367
1283
1176
1072
976
896
836
794
774
775
789
807
826
836
837
833
827
823
815
813
810
811
809
810
809
809
805
805
802
798
798
801
804
804
803
801
798
797
795
797
799
804
806
808
807
810
809
813
816
818
817
821
825
829
835
841
850
856
860
862
864
866
872
880
888
899
906
915
919
927
933
940
951
959
966
972
978
986
992
1000
1006
1011
1015
1016
1016
1017
1016
1016
1020
1023
1025
1024
1026
1023
1017
1014
1014
1011
1008
1006
1002
999
994
993
989
990
988
985
979
973
965
960
955
952
952
951
945
944
935
929
923
920
917
915
913
912
909
908
905
906
907
906
906
904
905
904
902
906
910
915
920
926
931
935
935
939
940
945
950
954
956
961
960
959
956
951
946
939
930
919
911
904
897
891
893
894
896
895
894
891
888
888
889
891
894
896
896
896
894
892
890
891
892
893
894
896
893
894
891
886
881
881
890
910
943
988
1046
1115
1191
1277
1355
1421
1458
1454
1413
1343
1254
1158
1068
992
929
882
842
817
807
812
824
846
861
870
873
869
862
857
852
853
854
854
856
853
850
848
847
848
848
849
848
845
846
844
844
844
847
852
853
853
857
857
860
860
865
867
871
871
873
876
880
886
896
901
908
910
913
916
918
924
928
938
945
953
959
964
970
974
979
986
994
1001
1008
1011
1018
1020
1026
1037
1041
1049
1056
1059
1062
1062
1066
1070
1073
1077
1079
1077
1075
1072
1072
1068
1064
1064
1064
1058
1055
1053
1049
1044
1037
1032
1025
1019
1016
1008
1001
997
991
988
983
979
974
966
958
952
946
938
936
930
926
924
918
914
909
906
903
897
895
893
893
895
898
899
900
902
902
897
898
894
896
897
902
903
908
911
913
922
930
938
944
946
947
946
945
946
946
948
948
948
940
931
916
903
892
884
880
876
880
880
879
881
881
884
889
891
892
890
887
881
880
880
884
889
889
893
891
889
884
881
876
874
877
886
903
936
984
1041
1105
1173
1249
1322
1387
1436
1452
1421
1356
1265
1161
1054
958
879
818
774
752
751
766
792
814
835
847
847
844
839
828
828
822
823
825
825
826
826
822
824
824
823
821
819
820
823
822
825
827
828
825
826
827
827
827
831
834
837
839
840
842
841
847
852
856
858
860
861
864
865
866
870
875
885
891
896
900
900
903
909
913
917
924
931
937
944
950
958
963
968
971
974
973
976
976
983
985
991
999
1003
1006
1007
1008
1005
1003
1002
1002
1005
1007
1007
1003
997
993
988
984
979
974
971
965
961
958
955
951
947
942
938
932
927
920
911
909
905
904
902
899
895
889
886
880
878
876
874
873
872
873
872
871
873
874
874
875
873
871
873
871
874
876
879
880
883
884
884
886
890
891
895
900
907
911
917
919
919
920
922
924
922
919
915
907
899
890
884
878
874
869
865
863
862
860
863
862
866
866
867
865
863
864
863
861
863
866
867
866
867
868
870
870
870
871
868
861
858
859
870
903
952
1016
1098
1194
1293
1385
1454
1496
1499
1467
1401
1320
1224
1125
1026
941
867
809
770
755
763
780
804
824
838
842
841
836
833
826
822
817
816
815
814
818
819
820
821
819
817
813
813
811
810
811
812
812
809
811
811
813
814
815
818
816
819
816
817
821
826
832
837
841
843
844
849
854
857
863
867
871
875
882
886
894
902
909
915
920
923
930
933
941
951
960
968
976
981
983
986
993
996
1001
1010
1017
1020
1026
1030
1033
1039
1041
1040
1039
1037
1033
1028
1027
1028
1033
1030
1028
1021
1018
1011
1008
1003
1001
996
993
989
984
980
976
973
970
967
956
953
947
945
940
940
942
946
947
944
941
940
938
939
938
938
940
942
947
950
954
959
969
972
977
977
976
977
981
984
989
993
994
992
984
977
968
958
947
937
931
928
922
922
921
923
924
926
923
925
920
917
918
919
922
924
926
927
925
923
921
918
919
919
922
922
916
914
916
935
967
1021
1090
1179
1278
1378
1465
1522
1535
1504
1432
1337
1226
1117
1021
940
882
840
825
830
850
876
894
903
905
896
887
879
871
868
870
872
875
878
876
878
876
872
868
867
870
872
872
876
875
877
878
877
877
877
879
880
881
882
885
890
895
899
904
910
913
916
921
928
936
943
951
957
960
965
968
976
982
988
996
1004
1011
1016
1023
1030
1037
1046
1058
1067
1074
1077
1079
1081
1085
1093
1101
1111
1118
1122
1123
1121
1115
1116
1115
1116
1115
1112
1110
1105
1099
1100
1098
1094
1092
1088
1080
1072
1066
1060
1055
1052
1048
1043
1036
1032
1027
1022
1021
1018
1014
1010
1004
996
987
978
975
971
968
966
959
953
950
945
941
941
941
941
940
939
938
934
933
933
934
937
938
941
943
947
953
960
970
973
977
979
980
979
981
988
991
995
999
997
994
990
981
969
956
948
938
933
931
929
928
925
925
925
925
930
927
925
925
926
926
927
931
932
932
932
932
929
928
926
926
928
926
927
925
926
931
950
986
1039
1109
1193
1290
1386
1471
1529
1550
1522
1459
1370
1271
1166
1067
983
916
865
826
807
803
811
828
847
865
879
887
887
884
877
869
867
867
867
867
867
868
866
862
859
857
857
860
865
869
870
871
870
869
867
869
871
875
876
877
878
881
883
887
889
893
895
898
902
903
908
917
925
929
936
936
935
939
940
946
952
962
968
973
978
983
987
994
999
1005
1011
1018
1022
1029
1034
1042
1052
1060
1063
1062
1062
1059
1056
1057
1061
1066
1067
1064
1059
1055
1052
1048
1045
1039
1034
1027
1020
1017
1011
1007
1005
1003
999
992
986
982
974
971
967
966
961
958
953
945
940
936
935
934
931
925
922
920
921
922
923
920
921
923
920
920
921
924
922
925
928
927
929
929
933
938
944
949
955
957
961
963
969
974
978
982
981
981
977
972
964
957
948
940
930
926
919
918
915
916
915
918
916
912
911
910
911
913
917
918
922
921
919
918
918
914
917
917
916
914
913
905
905
911
926
960
1009
1073
1148
1234
1321
1404
1468
1513
1518
1485
1424
1341
1241
1138
1038
954
883
832
806
797
805
829
849
867
879
881
877
871
865
863
862
862
863
862
864
861
859
856
853
854
853
853
854
855
855
853
850
851
853
853
854
852
853
854
854
856
859
863
867
869
869
868
868
872
876
882
887
895
897
901
901
903
909
915
921
930
935
943
949
958
965
971
980
983
987
993
997
1005
1013
1021
1029
1034
1037
1038
1040
1041
1044
1048
1050
1054
1055
1055
1056
1057
1060
1059
1058
1055
1051
1043
1038
1036
1035
1035
1032
1030
1027
1022
1012
1004
997
991
989
989
986
982
980
977
976
975
975
972
971
967
965
964
966
970
972
976
976
975
975
973
973
977
982
987
996
1004
1008
1009
1011
1016
1016
1019
1022
1020
1017
1015
1012
1007
1002
994
987
978
967
957
951
947
947
949
952
952
953
949
948
948
949
948
951
947
943
945
945
947
951
954
955
955
953
949
939
937
937
947
975
1014
1077
1153
1248
1354
1454
1527
1561
1551
1503
1439
1371
1299
1227
1153
1078
1006
938
887
860
861
876
903
923
936
940
932
921
911
908
907
904
906
908
906
906
906
903
904
905
905
903
902
900
897
894
898
898
899
901
903
904
903
902
902
903
907
909
911
913
914
916
921
923
927
930
933
937
938
943
948
956
960
971
979
988
996
1001
1010
1012
1019
1027
1035
1044
1048
1054
1061
1068
1077
1087
1091
1098
1104
1112
1118
1120
1125
1132
1136
1139
1138
1136
1135
1136
1133
1134
1134
1135
1136
1134
1131
1126
1124
1119
1115
1113
1108
1103
1101
1093
1092
1088
1086
1083
1078
1071
1063
1057
1050
1044
1045
1044
1042
1041
1035
1030
1028
1024
1023
1021
1022
1021
1021
1019
1019
1020
1022
1022
1026
1028
1026
1026
1027
1028
1034
1044
1051
1060
1064
1066
1070
1071
1072
1073
1074
1078
1077
1071
1062
1053
1043
1033
1025
1021
1016
1011
1009
1009
1010
1013
1014
1016
1019
1017
1017
1018
1022
1033
1054
1083
1120
1158
1197
1235
1279
1330
1385
1437
1485
1523
1550
1572
1587
1600
1616
1626
1640
1654
1662
1667
1672
1678
1680
1681
1675
1658
1626
1579
1508
1420
1308
1184
1066
970
908
880
883
896
910
919
916
908
899
888
879
871
866
858
857
853
851
851
849
846
841
836
830
825
821
818
818
818
817
817
814
811
808
805
802
802
802
802
802
800
802
803
804
807
809
812
815
815
819
825
831
835
844
850
854
855
857
862
