884
879
878
874
874
874
873
870
865
866
868
868
869
869
873
871
870
868
868
869
870
873
876
880
881
882
883
885
888
894
899
903
905
907
911
916
923
930
939
944
949
955
961
967
973
984
992
995
1002
1006
1014
1023
1028
1038
1046
1049
1056
1063
1070
1077
1086
1093
1099
1101
1102
1103
1101
1102
1105
1108
1110
1108
1105
1104
1101
1098
1095
1089
1087
1080
1072
1067
1060
1056
1053
1050
1044
1037
1028
1018
1010
1004
998
997
993
988
985
979
975
974
968
966
964
960
957
953
955
959
961
963
962
959
956
956
957
960
965
973
979
986
990
998
1002
1007
1014
1016
1018
1018
1020
1018
1016
1010
1008
1003
994
981
967
953
942
935
929
934
935
935
937
934
933
934
933
935
932
931
928
923
919
912
909
906
905
907
908
919
934
955
985
1023
1066
1119
1179
1249
1322
1394
1458
1510
1545
1564
1566
1550
1518
1475
1414
1342
1258
1167
1076
992
918
870
851
851
861
867
872
868
861
853
842
838
835
831
827
826
823
822
818
818
817
812
808
805
801
799
797
798
799
799
799
795
792
790
788
789
790
788
787
787
787
789
793
796
799
799
800
798
799
799
802
809
816
824
831
836
840
845
852
860
869
878
884
889
895
900
910
919
931
942
953
960
965
972
978
986
998
1006
1013
1018
1021
1022
1022
1025
1028
1032
1037
1038
1039
1037
1038
1039
1040
1038
1037
1032
1028
1025
1019
1016
1013
1011
1011
1006
1002
995
988
981
976
972
970
965
964
960
957
956
957
960
960
960
958
954
951
952
957
964
975
982
988
993
997
998
1003
1007
1009
1018
1022
1025
1024
1020
1019
1010
1000
988
976
963
951
947
944
941
945
947
947
944
942
940
936
939
937
939
938
939
941
942
943
944
944
943
941
939
936
934
933
932
938
948
974
1008
1053
1108
1173
1245
1325
1396
1445
1456
1426
1358
1267
1164
1063
975
899
841
806
798
810
838
869
893
904
901
896
886
879
876
871
871
875
877
880
882
881
880
877
872
866
864
862
863
864
865
866
864
865
867
873
876
879
880
882
884
888
893
899
907
915
918
925
931
937
941
950
963
969
976
984
990
1000
1010
1022
1031
1042
1050
1058
1066
1076
1086
1096
1103
1111
1113
1115
1116
1119
1122
1126
1130
1137
1140
1141
1142
1141
1138
1133
1130
1124
1115
1110
1106
1107
1105
1107
1101
1098
1090
1081
1072
1063
1061
1054
1050
1048
1041
1036
1030
1026
1023
1020
1014
1010
1004
998
993
991
990
986
988
984
981
980
979
978
981
981
983
986
992
999
1008
1017
1025
1032
1038
1040
1041
1042
1045
1048
1051
1048
1044
1034
1021
1008
995
986
978
973
969
968
966
970
971
973
974
971
968
964
962
960
965
966
962
958
951
945
942
946
957
976
1002
1033
1068
1112
1160
1216
1278
1340
1403
1457
1507
1547
1564
1567
1543
1499
1441
1368
1286
1198
1119
1045
982
936
909
899
902
907
909
907
903
899
892
885
880
872
869
866
864
865
866
868
864
859
857
856
855
856
856
852
849
844
843
843
845
848
849
846
842
839
838
838
839
843
845
846
849
850
849
845
848
851
856
860
866
871
876
884
892
896
904
908
914
920
926
934
940
951
960
972
980
988
996
1002
1008
1016
1023
1030
1036
1043
1049
1055
1059
1064
1066
1069
1069
1067
1065
1062
1064
1065
1069
1070
1071
1070
1063
1059
1053
1049
1040
1038
1036
1035
1031
1029
1027
1024
1023
1017
1012
1003
997
988
984
979
978
980
983
981
979
975
974
974
975
978
981
982
985
983
986
990
993
998
1000
1005
1011
1016
1024
1031
1040
1048
1052
1055
1057
1057
1055
1051
1049
1040
1030
1018
1005
995
990
986
984
983
982
981
978
975
976
975
977
981
981
981
981
979
979
980
979
979
981
982
982
982
978
976
974
968
971
979
998
1035
1086
1156
1233
1318
1398
1464
1499
1496
1451
1379
1290
1194
1103
1022
957
901
859
829
819
826
847
872
894
909
916
914
914
913
912
909
906
902
901
900
898
899
897
899
895
895
894
895
897
895
897
897
896
895
893
892
894
899
902
908
911
912
912
911
914
915
922
928
933
937
939
942
946
951
956
962
968
974
976
981
990
1001
1010
1021
1027
1030
1034
1040
1044
1051
1059
1068
1079
1082
1091
1095
1099
1106
1109
1113
1118
1118
1116
1119
1119
1121
1119
1123
1122
1122
1117
1110
1104
1098
1095
1092
1092
1089
1086
1081
1074
1067
1060
1053
1049
1044
1041
1030
1027
1023
1021
1017
1015
1008
1004
998
994
992
991
990
993
998
997
997
997
994
992
991
992
995
1000
1008
1015
1023
1030
1037
1045
1051
1054
1056
1055
1052
1057
1058
1057
1056
1053
1043
1030
1017
1003
992
984
978
976
973
972
973
972
972
972
974
975
972
968
968
966
966
968
971
975
975
975
973
967
966
962
957
959
962
963
970
986
1017
1057
1112
1175
1250
1329
1407
1467
1495
1484
1442
1378
1298
1220
1144
1082
1030
982
932
890
864
856
868
888
909
921
925
921
917
906
900
895
894
894
895
895
896
899
895
891
886
884
880
880
879
883
883
886
883
882
881
879
879
879
880
883
885
888
887
889
891
895
898
901
905
907
909
911
916
923
930
937
943
947
949
955
958
968
976
984
994
1002
1009
1013
1020
1027
1035
1042
1048
1054
1059
1064
1070
1078
1085
1092
1100
1104
1106
1106
1106
1107
1106
1111
1114
1115
1114
1112
1109
1105
1104
1103
1101
1101
1096
1090
1086
1085
1080
1081
1078
1075
1071
1065
1058
1053
1046
1042
1038
1038
1036
1031
1028
1022
1016
1013
1010
1008
1006
1005
1003
999
1001
998
998
1000
1000
1002
1005
1008
1012
1022
1029
1038
1047
1051
1056
1056
1055
1058
1060
1062
1062
1060
1057
1046
1035
1022
1010
1000
996
989
984
979
975
970
976
979
981
985
985
981
979
978
979
978
979
980
981
980
978
979
980
979
977
973
972
973
989
1018
1066
1121
1181
1251
1327
1406
1468
1493
1480
1428
1343
1242
1135
1040
960
902
862
845
849
866
888
907
924
934
937
938
936
933
931
929
927
927
923
922
921
920
921
919
919
921
922
923
924
921
918
918
915
915
918
924
927
929
931
933
937
939
944
944
949
954
957
963
970
969
977
982
994
1000
1007
1010
1012
1021
1031
1042
1053
1063
1072
1077
1083
1091
1098
1106
1111
1118
1126
1133
1139
1145
1153
1159
1165
1168
1171
1171
1168
1165
1166
1166
1166
1168
1163
1158
1154
1149
1146
1150
1147
1144
1136
1132
1125
1118
1113
1109
1104
1100
1089
1082
1076
1072
1070
1066
1063
1058
1051
1044
1038
1034
1030
1026
1023
1020
1018
1019
1018
1021
1021
1021
1018
1015
1015
1015
1020
1028
1038
1048
1055
1062
1069
1074
1079
1083
1086
1088
1087
1084
1078
1073
1068
1061
1054
1045
1032
1022
1013
1006
1006
1008
1010
1014
1017
1017
1013
1010
1007
1006
1009
1010
1012
1010
1009
1007
1011
1014
1014
1016
1015
1013
1011
1001
990
986
987
999
1024
1071
1137
1214
1302
1390
1472
1532
1561
1552
1510
1447
1373
1298
1227
1166
1110
1056
1011
979
957
951
953
958
965
965
961
954
945
937
934
933
931
931
931
928
925
925
924
922
924
924
920
918
915
913
916
920
922
925
925
925
921
919
921
922
924
925
925
927
929
934
935
938
944
946
948
947
945
948
955
963
972
979
987
993
999
1004
1013
1020
1029
1036
1041
1046
1050
1054
1063
1070
1077
1084
1093
1095
1098
1103
1109
1113
1117
1124
1126
1129
1127
1127
1125
1123
1122
1120
1122
1120
1117
1114
1112
1111
1107
1107
1101
1095
1088
1081
1080
1077
1074
1074
1069
1067
1062
1055
1047
1043
1037
1034
1032
1030
1029
1024
1020
1017
1017
1015
1016
1014
1013
1009
1007
1007
1008
1013
1020
1025
1030
1035
1038
1042
1049
1057
1062
1068
1072
1078
1081
1082
1082
1077
1073
1064
1050
1034
1023
1011
1007
1003
1003
1002
999
996
994
994
994
994
997
997
996
996
996
997
996
997
997
996
995
991
989
987
988
984
982
981
986
997
1018
1051
1098
1159
1231
1312
1389
1457
1501
1504
1465
1402
1317
1227
1133
1052
985
927
879
852
847
860
887
912
931
940
941
937
931
927
921
921
918
919
916
915
916
914
910
908
904
903
907
909
912
912
907
907
905
902
903
905
906
912
911
913
914
917
921
927
930
933
930
934
940
946
955
964
975
980
988
994
1002
1008
1014
1023
1029
1036
1042
1047
1056
1065
1078
1087
1097
1103
1110
1115
1119
1128
1136
1141
1147
1147
1146
1144
1146
1145
1148
1146
1144
1143
1139
1137
1134
1132
1129
1123
1118
1114
1106
1099
1096
1092
1089
1085
1080
1075
1067
1062
1058
1052
1050
1044
1041
1036
1033
1033
1031
1032
1030
1028
1025
1021
1018
1016
1020
1028
1032
1038
1042
1048
1055
1061
1066
1073
1076
1079
1083
1085
1088
1089
1086
1086
1078
1065
1050
1035
1025
1015
1011
1008
1007
1006
1007
1006
1006
1007
1008
1007
1007
1004
1005
1000
998
990
988
987
990
1000
1016
1039
1074
1109
1146
1184
1215
1248
1279
1319
1361
1406
1449
1493
1536
1574
1604
1614
1615
1590
1552
1493
1416
1331
1248
1172
1098
1038
985
952
935
932
935
939
938
932
923
916
909
903
900
900
897
895
896
894
892
888
885
879
875
871
870
871
872
874
874
871
869
865
862
860
856
857
857
857
855
856
858
860
865
865
866
867
867
866
867
872
879
886
894
901
904
908
915
922
930
940
950
958
967
974
984
993
1008
1016
1025
1031
1034
1039
1050
1060
1072
1081
1088
1095
1098
1098
1099
1100
1099
1102
1105
1106
1108
1108
1109
1109
1108
1105
1102
1093
1087
1083
1079
1077
1077
1078
1076
1068
1063
1052
1045
1039
1033
1028
1024
1020
1015
1017
1018
1018
1019
1020
1017
1015
1016
1015
1016
1018
1023
1027
1032
1035
1041
1046
1056
1061
1065
1069
1075
1079
1086
1092
1101
1104
1102
1098
1090
1080
1066
1055
1047
1038
1032
1024
1023
1020
1020
1021
1018
1014
1013
1012
1013
1014
1016
1019
1021
1021
1021
1021
1021
1022
1022
1023
1021
1021
1019
1017
1011
1009
1016
1036
1069
1116
1174
1231
1295
1361
1430
1484
1510
1495
1439
1356
1260
1160
1071
994
934
888
863
856
866
890
915
936
955
963
963
960
954
949
944
944
947
947
948
948
947
945
943
944
943
947
944
944
943
943
943
944
947
948
949
949
947
949
952
957
964
968
970
971
973
973
978
982
987
998
1003
1011
1015
1020
1029
1034
1041
1048
1051
1056
1066
1073
1082
1094
1102
1114
1118
1123
1127
1130
1138
1144
1149
1157
1162
1167
1172
1173
1178
1182
1182
1181
1178
1175
1176
1174
1172
1174
1174
1171
1167
1162
1154
1144
1137
1131
1128
1125
1122
1117
1112
1106
1098
1094
1087
1079
1073
1068
1064
1060
1053
1052
1050
1048
1045
1039
1036
1028
1027
1027
1028
1030
1033
1034
1031
1031
1030
1030
1029
1032
1035
1043
1048
1055
1062
1066
1075
1083
1087
1091
1092
1093
1093
1091
1092
1092
1089
1083
1077
1064
1049
1037
1028
1021
1015
1012
1010
1010
1008
1011
1012
1015
1016
1016
1013
1010
1001
996
990
983
983
984
987
998
1017
1042
1068
1096
1125
1149
1175
1205
1238
1281
1330
1384
1439
1487
1531
1567
1590
1601
1596
1576
1544
1495
1433
1362
1289
1214
1135
1058
995
951
930
925
930
933
933
928
925
919
913
908
903
899
896
892
890
890
889
888
885
878
874
869
866
864
865
864
863
861
858
855
855
852
851
850
847
845
842
843
844
846
848
849
851
854
853
853
856
861
866
873
880
885
894
898
906
917
926
932
940
947
953
964
972
983
996
1007
1016
1023
1032
1041
1052
1060
1068
1074
1080
1086
1091
1095
1100
1102
1102
1102
1098
1097
1097
1099
1098
1096
1095
1090
1086
1081
1077
1075
1069
1063
1058
1052
1046
1043
1041
1038
1033
1029
1021
1015
1011
1009
1011
1014
1013
1013
1010
1008
1009
1009
1010
1013
1017
1023
1026
1035
1046
1055
1065
1068
1073
1076
1077
1075
1076
1077
1079
1077
1072
1063
1050
1037
1027
1017
1009
1002
999
994
994
996
999
1000
1005
1007
1006
1003
1002
1002
1004
1005
1008
1006
1005
1004
1002
1002
1002
1002
1003
1000
997
998
1009
1037
1081
1140
1212
1292
1374
1445
1499
1521
1502
1448
1371
1281
1187
1095
1016
952
905
874
873
882
907
933
952
969
975
975
971
967
960
956
951
950
951
952
953
954
953
952
952
950
950
952
954
951
952
950
949
949
952
958
960
965
966
967
970
971
976
978
985
992
996
999
1007
1011
1017
1021
1026
1033
1039
1047
1052
1064
1073
1082
1091
1100
1105
1111
1116
1121
1128
1135
1144
1151
1158
1166
1175
1181
1190
1197
1198
1199
1197
1195
1191
1195
1192
1196
1202
1202
1203
1197
1188
1181
1177
1173
1169
1166
1164
1158
1150
1146
1140
1134
1132
1130
1124
1119
1112
1109
1103
1096
1091
1086
1081
1073
1066
1059
1055
1051
1048
1048
1045
1046
1040
1039
1035
1031
1033
1034
1036
1034
1032
1031
1032
1035
1041
1048
1056
1061
1066
1070
1075
1080
1086
1094
1102
1108
1110
1108
1103
1098
1092
1084
1076
1067
1057
1047
1039
1031
1025
1023
1026
1027
1029
1029
1025
1022
1017
1014
1009
1008
1005
1000
997
993
996
1002
1017
1044
1080
1118
1158
1198
1238
1275
1317
1355
1390
1417
1439
1460
1482
1508
1535
1558
1582
1595
1603
1598
1584
1556
1512
1450
1380
1301
1223
1142
1068
1001
952
924
916
918
921
928
926
920
910
901
894
891
887
883
880
877
875
870
866
861
860
856
855
849
847
844
841
840
837
833
830
824
818
814
812
814
816
815
816
814
810
806
804
805
809
812
814
816
818
818
821
826
836
842
847
855
860
868
876
883
897
907
919
926
933
944
954
964
978
989
1000
1008
1015
1023
1031
1037
1046
1052
1055
1059
1061
1065
1070
1074
1078
1081
1078
1078
1075
1071
1069
1070
1068
1071
1069
1064
1060
1052
1046
1044
1040
1039
1036
1034
1028
1023
1019
1016
1014
1012
1008
1005
1000
996
994
993
997
999
1002
1005
1005
1002
1003
1002
1003
1004
1006
1013
1020
1026
1033
1040
1048
1055
1061
1064
1067
1068
1068
1073
1077
1081
1084
1080
1072
1060
1047
1032
1021
1012
1005
1002
1000
999
999
998
1001
1000
1000
998
999
996
994
993
994
995
1001
1002
1001
997
994
995
990
990
987
988
987
984
989
1006
1040
1085
1151
1221
1301
1377
1443
1487
1501
1474
1420
1353
1275
1189
1104
1026
953
892
846
830
833
854
883
909
929
939
939
935
925
921
912
911
912
914
917
916
920
916
914
908
903
903
904
904
906
907
909
907
904
903
901
901
903
903
901
903
904
906
911
915
922
927
931
932
934
934
937
942
949
957
964
972
977
983
986
995
1003
1009
1020
1025
1030
1039
1046
1055
1065
1072
1081
1089
1092
1098
1105
1112
1122
1130
1136
1140
1143
1141
1141
1141
1142
1143
1144
1147
1142
1139
1137
1135
1131
1128
1122
1118
1111
1104
1097
1092
1087
1084
1080
1077
1071
1065
1055
1047
1043
1038
1032
1028
1024
1020
1016
1012
1011
1010
1010
1010
1007
1006
1003
1001
1002
1004
1004
1008
1013
1013
1015
1019
1023
1031
1037
1046
1051
1057
1058
1063
1064
1065
1066
1070
1069
1065
1055
1043
1030
1016
1005
999
996
992
987
983
978
976
975
978
979
979
980
979
977
975
973
975
974
974
972
973
975
977
976
978
980
978
972
969
972
988
1020
1074
1139
1215
1297
1376
1442
1482
1499
1473
1422
1348
1261
1173
1091
1018
950
898
859
842
843
859
884
906
922
929
927
921
917
909
904
899
899
901
902
900
898
896
891
892
891
894
896
894
894
891
888
886
881
882
885
885
887
889
891
896
899
904
908
912
911
918
924
929
939
947
957
963
973
979
987
997
1005
1014
1025
1030
1037
1045
1055
1066
1079
1090
1099
1104
1109
1113
1117
1124
1133
1139
1145
1148
1149
1146
1146
1145
1144
1146
1147
1144
1144
1141
1134
1132
1127
1124
1118
1111
1102
1097
1092
1089
1088
1089
1087
1082
1073
1064
1058
1051
1046
1042
1040
1036
1033
1030
1024
1019
1015
1009
1008
1005
1000
998
998
1000
1002
1004
1003
1001
997
994
995
1003
1012
1027
1037
1048
1054
1056
1065
1069
1071
1070
1071
1070
1066
1062
1053
1043
1034
1024
1016
1006
995
987
984
987
990
992
993
994
991
992
991
991
989
992
990
986
983
983
985
990
993
995
994
988
980
976
983
1000
1030
1075
1127
1184
1251
1324
1396
1446
1466
1449
1392
1311
1217
1125
1042
979
933
895
863
839
832
838
856
879
902
920
929
930
923
915
909
906
906
909
912
910
909
907
902
901
902
903
904
903
902
901
899
902
903
905
905
904
904
905
903
905
908
916
919
919
920
923
928
932
942
950
955
961
964
967
971
976
981
991
999
1007
1014
1019
1026
1034
1041
1052
1056
1062
1067
1074
1083
1091
1101
1107
1113
1116
1118
1119
1119
1122
1124
1126
1129
1123
1120
1117
1115
1115
1112
1110
1109
1099
1092
1087
1084
1080
1078
1078
1075
1068
1065
1057
1048
1042
1037
1034
1031
1029
1020
1015
1009
1003
1001
997
994
990
985
980
979
977
977
977
982
978
979
975
975
973
973
974
980
984
990
995
998
1003
1008
1014
1019
1025
1027
1030
1034
1038
1040
1040
1040
1038
1031
1021
1005
989
977
966
960
954
958
957
957
955
953
953
952
951
950
947
948
948
950
952
953
955
954
953
948
946
944
942
942
940
940
944
961
990
1038
1097
1170
1251
1334
1406
1454
1469
1443
1385
1304
1211
1111
1023
940
872
820
793
791
807
836
865
888
898
898
890
879
870
864
860
859
863
865
869
870
865
863
859
855
852
853
855
858
859
856
855
851
850
851
852
854
854
855
853
855
857
862
869
874
876
879
879
883
886
891
900
910
917
922
928
934
939
947
955
966
972
980
987
993
1004
1013
1022
1028
1035
1042
1048
1049
1055
1060
1067
1073
1079
1080
1080
1081
1086
1085
1085
1085
1083
1080
1075
1071
1067
1064
1064
1062
1057
1051
1047
1038
1033
1029
1025
1021
1017
1014
1008
1003
997
993
987
985
979
971
965
961
959
958
961
959
957
956
953
951
946
945
946
948
953
957
963
971
977
984
989
994
999
1002
1004
1005
1009
1013
1016
1013
1009
1000
984
974
959
949
937
934
932
928
926
927
926
927
926
924
921
918
918
918
920
923
925
927
928
924
921
916
916
916
915
913
911
908
911
922
946
983
1034
1096
1166
1246
1323
1388
1426
1425
1389
1328
1256
1176
1098
1021
952
889
838
803
787
791
809
835
859
873
878
877
869
861
852
849
846
847
849
854
856
853
848
846
842
840
840
842
844
846
847
845
846
842
841
842
843
845
847
849
852
858
861
867
873
875
878
880
884
887
894
906
915
925
934
942
949
954
963
970
979
987
996
1004
1013
1022
1030
1039
1048
1055
1062
1067
1070
1073
1082
1090
1096
1101
1102
1105
1104
1104
1102
1100
1101
1104
1103
