1018
1006
997
985
974
968
960
955
957
959
960
962
958
955
952
949
951
955
955
959
959
958
956
956
957
958
960
958
957
955
951
946
947
956
975
1008
1056
1112
1182
1264
1347
1423
1471
1482
1452
1391
1316
1229
1144
1060
985
919
867
834
824
833
860
889
915
929
929
917
905
898
891
891
894
899
903
900
898
895
890
888
889
889
889
890
889
889
891
891
894
897
896
893
891
891
893
896
903
909
915
918
921
922
923
929
934
943
950
957
966
973
979
988
995
1001
1007
1013
1021
1028
1036
1045
1053
1063
1070
1080
1085
1088
1093
1095
1103
1110
1118
1124
1129
1132
1132
1132
1135
1132
1130
1132
1129
1128
1127
1123
1121
1120
1119
1121
1117
1110
1104
1095
1090
1087
1085
1084
1084
1080
1075
1068
1063
1055
1050
1043
1040
1034
1026
1023
1018
1017
1014
1013
1009
1003
992
985
980
980
980
983
987
984
985
981
978
978
977
980
988
992
1002
1009
1017
1021
1029
1034
1039
1042
1044
1043
1040
1040
1038
1038
1035
1026
1014
1000
987
976
969
966
966
965
967
967
968
964
966
967
968
969
970
966
964
960
960
964
966
969
973
974
972
967
962
958
956
955
957
964
979
1004
1042
1091
1153
1228
1309
1388
1452
1484
1476
1433
1365
1291
1212
1134
1067
1001
942
892
856
841
850
872
896
913
921
917
912
902
897
893
891
890
888
887
882
884
881
883
879
877
872
869
868
867
869
875
875
876
873
874
874
876
878
881
882
885
888
890
894
898
905
908
910
911
912
913
918
925
936
945
953
957
961
963
966
972
978
983
990
999
1005
1011
1012
1023
1037
1047
1054
1060
1064
1068
1072
1075
1080
1084
1088
1089
1088
1093
1092
1093
1095
1096
1097
1094
1091
1087
1084
1081
1079
1078
1074
1068
1063
1055
1049
1045
1039
1038
1035
1033
1028
1023
1019
1012
1010
1004
996
992
988
982
978
975
977
977
976
974
971
965
966
965
968
971
973
976
980
985
992
996
1004
1014
1018
1025
1029
1033
1035
1039
1038
1038
1032
1024
1010
998
986
978
973
969
963
959
958
956
962
962
962
959
955
951
948
951
953
955
959
958
957
955
954
954
954
953
952
949
946
948
965
1002
1055
1118
1195
1278
1360
1424
1455
1441
1388
1308
1212
1113
1023
945
881
831
802
790
797
819
846
871
893
906
913
909
901
893
884
880
880
883
887
887
888
884
881
878
877
876
878
876
875
873
870
870
870
871
874
876
876
874
875
875
878
883
888
895
898
902
904
906
912
919
926
930
934
940
943
951
959
965
977
982
993
1000
1003
1010
1020
1029
1038
1050
1055
1063
1067
1073
1077
1081
1087
1093
1097
1100
1104
1106
1108
1111
1113
1114
1112
1107
1104
1102
1101
1100
1098
1094
1090
1084
1078
1074
1070
1067
1063
1061
1058
1052
1046
1040
1037
1034
1033
1028
1023
1016
1009
1002
999
996
999
997
997
994
994
991
990
989
988
987
988
991
996
1002
1012
1019
1025
1031
1035
1037
1040
1042
1048
1052
1053
1054
1051
1044
1033
1020
1005
996
986
975
967
960
960
958
961
964
967
966
966
963
959
958
956
956
960
964
967
966
965
962
960
959
960
957
958
953
951
951
960
984
1018
1067
1122
1182
1245
1319
1393
1449
1473
1458
1411
1339
1255
1164
1076
998
930
876
840
832
842
867
896
919
932
931
924
914
902
897
893
894
897
900
903
901
898
893
890
887
885
882
880
880
878
878
878
879
880
881
882
881
880
876
877
881
886
893
898
903
905
907
910
915
922
931
941
951
962
969
977
986
996
1004
1014
1022
1028
1035
1043
1055
1066
1080
1089
1099
1100
1106
1108
1115
1125
1132
1138
1140
1144
1144
1147
1149
1151
1148
1147
1143
1140
1135
1132
1132
1129
1124
1122
1116
1109
1107
1103
1102
1100
1094
1090
1084
1076
1071
1067
1065
1062
1057
1049
1043
1037
1031
1027
1023
1023
1021
1018
1013
1011
1009
1010
1009
1007
1004
1002
1006
1011
1019
1029
1036
1041
1048
1052
1057
1062
1064
1069
1074
1073
1070
1064
1057
1046
1035
1024
1012
1002
992
986
984
984
987
991
994
992
990
985
986
983
986
989
990
992
992
991
990
989
990
989
990
988
981
975
971
973
988
1011
1047
1093
1148
1209
1280
1356
1422
1470
1485
1459
1397
1317
1226
1132
1049
979
927
886
855
835
835
851
874
902
928
942
943
942
930
917
910
907
906
911
913
916
915
913
908
904
903
903
900
897
898
897
895
896
901
902
904
904
906
906
906
911
912
919
920
924
927
930
935
937
943
949
956
960
964
970
977
984
992
1001
1008
1012
1013
1015
1022
1028
1039
1049
1058
1065
1072
1077
1085
1088
1094
1097
1101
1104
1109
1112
1116
1120
1124
1128
1128
1126
1122
1115
1112
1106
1106
1106
1106
1104
1101
1095
1090
1084
1079
1074
1069
1067
1062
1058
1053
1049
1044
1041
1037
1033
1025
1021
1013
1007
1002
1001
1000
999
995
993
986
980
976
974
975
976
977
977
977
979
980
982
985
983
986
987
990
993
1001
1010
1023
1030
1036
1043
1043
1044
1042
1042
1046
1045
1047
1043
1037
1027
1017
1006
995
987
981
974
969
965
964
966
967
972
973
973
971
969
970
967
968
970
972
977
977
976
976
974
974
970
966
962
960
966
988
1024
1084
1151
1231
1313
1391
1451
1485
1484
1441
1371
1283
1192
1101
1019
947
890
846
819
816
831
851
879
903
917
922
923
919
912
904
899
895
894
894
892
894
894
893
891
890
888
889
888
885
886
882
880
880
878
882
885
884
887
888
887
888
892
894
900
906
911
917
925
929
935
943
945
950
953
955
961
969
978
988
998
1008
1014
1019
1026
1034
1041
1051
1057
1070
1076
1083
1093
1099
1106
1109
1110
1108
1109
1111
1114
1118
1121
1122
1121
1118
1114
1109
1103
1102
1098
1093
1088
1083
1077
1073
1075
1072
1067
1062
1053
1042
1035
1030
1027
1028
1023
1019
1013
1008
1006
1004
1002
997
994
994
990
992
993
993
994
999
1002
1005
1009
1012
1020
1025
1033
1039
1044
1046
1049
1052
1056
1057
1054
1051
1044
1034
1022
1009
999
992
985
977
975
970
966
965
964
964
965
967
966
964
965
968
968
969
969
969
966
964
961
962
963
964
965
962
960
956
958
969
990
1025
1073
1130
1196
1268
1345
1413
1460
1471
1445
1383
1300
1204
1107
1021
948
889
849
826
823
836
860
885
908
921
925
923
918
908
902
898
895
895
895
897
894
890
889
889
886
885
886
886
885
884
880
878
874
872
872
874
877
882
881
882
883
882
883
887
889
893
895
899
900
907
916
925
933
939
941
943
948
950
957
968
979
988
995
1004
1010
1020
1028
1037
1048
1057
1064
1072
1079
1083
1088
1095
1102
1107
1109
1112
1110
1109
1107
1111
1115
1119
1123
1126
1124
1116
1113
1110
1108
1104
1100
1096
1092
1089
1085
1084
1081
1077
1074
1066
1064
1059
1053
1050
1048
1046
1041
1035
1032
1025
1019
1012
1008
1009
1011
1010
1008
1007
1006
1004
1001
1002
1001
996
996
996
1001
1010
1018
1029
1037
1044
1050
1055
1058
1063
1066
1070
1069
1069
1065
1059
1052
1043
1033
1025
1013
1006
996
990
989
989
992
995
999
999
998
994
990
988
989
991
988
989
990
991
994
991
995
991
990
986
981
979
982
1000
1031
1072
1124
1186
1255
1331
1402
1455
1473
1452
1392
1316
1231
1146
1071
1006
955
915
880
856
846
852
871
895
920
934
942
942
936
928
918
918
915
917
917
914
911
908
908
910
910
910
907
902
901
900
899
900
904
909
911
911
911
911
911
913
915
917
923
928
932
938
944
952
957
965
970
973
975
979
986
994
1002
1013
1021
1028
1035
1041
1045
1052
1058
1067
1075
1082
1087
1092
1098
1107
1115
1117
1122
1122
1123
1123
1124
1129
1129
1131
1130
1127
1122
1119
1117
1117
1117
1114
1111
1103
1096
1088
1085
1080
1078
1076
1072
1065
1059
1054
1050
1047
1045
1040
1039
1033
1026
1020
1012
1007
1003
999
995
991
987
982
982
979
979
982
984
984
984
982
979
979
977
983
987
996
1000
1007
1012
1016
1021
1026
1031
1038
1043
1042
1046
1045
1045
1045
1043
1037
1028
1016
1002
990
982
982
977
977
977
975
972
968
968
965
968
969
972
972
972
970
970
974
975
976
977
977
973
970
969
966
964
962
964
966
974
994
1030
1082
1147
1222
1300
1372
1438
1474
1482
1453
1397
1322
1237
1152
1068
994
925
872
829
811
812
830
855
881
897
909
913
913
911
908
905
902
899
895
892
892
891
889
890
888
887
885
884
886
886
886
885
885
881
881
879
880
881
885
890
894
897
896
897
896
896
900
903
908
913
918
924
926
933
940
946
953
956
961
960
968
977
988
999
1006
1013
1016
1022
1027
1032
1041
1047
1057
1066
1071
1078
1083
1091
1097
1100
1106
1107
1107
1107
1107
1108
1109
1113
1114
1113
1112
1107
1102
1098
1094
1088
1085
1085
1077
1075
1070
1065
1060
1057
1053
1048
1042
1034
1027
1024
1017
1017
1013
1010
1007
1001
995
990
985
984
984
985
985
983
983
983
978
979
979
984
985
990
996
1003
1010
1021
1027
1034
1039
1039
1040
1037
1037
1036
1035
1037
1025
1016
1004
992
982
974
969
962
958
955
953
953
955
957
959
960
959
952
953
950
950
950
954
954
955
957
954
952
953
954
951
947
945
944
956
980
1018
1068
1127
1196
1271
1347
1413
1452
1453
1412
1346
1256
1158
1062
979
905
847
813
800
809
835
866
890
910
918
917
912
903
896
890
885
886
884
887
885
888
884
883
881
880
880
880
877
874
871
866
867
868
867
870
873
876
875
876
877
877
879
884
889
894
898
905
911
917
925
931
937
941
947
952
959
969
981
990
1002
1011
1019
1028
1035
1043
1052
1060
1065
1070
1079
1085
1090
1102
1108
1111
1113
1111
1112
1111
1113
1114
1114
1115
1114
1110
1107
1102
1101
1098
1098
1089
1088
1082
1078
1074
1071
1070
1067
1062
1055
1050
1043
1035
1032
1031
1030
1027
1024
1020
1013
1008
1001
1000
996
994
991
990
989
988
988
989
989
989
987
987
988
993
1002
1012
1022
1028
1033
1036
1036
1035
1037
1037
1041
1039
1038
1034
1024
1013
1003
991
982
972
963
956
953
951
953
955
956
960
959
960
960
959
956
957
960
959
960
962
961
960
960
961
962
962
960
955
953
952
956
974
1005
1053
1111
1179
1258
1335
1406
1458
1480
1465
1417
1348
1263
1177
1090
1012
946
894
858
839
837
853
876
903
924
938
939
935
929
919
913
910
910
909
912
916
915
913
913
907
906
903
903
903
904
904
902
902
902
903
906
907
909
908
909
906
906
909
912
918
924
927
934
937
944
950
955
961
965
972
979
987
995
1005
1015
1022
1030
1036
1040
1044
1049
1054
1064
1074
1084
1089
1097
1100
1107
1113
1118
1123
1128
1128
1128
1130
1129
1131
1135
1136
1137
1134
1127
1120
1116
1109
1108
1108
1106
1105
1099
1094
1091
1083
1080
1075
1073
1067
1062
1055
1049
1047
1043
1040
1035
1027
1023
1012
1007
1001
1000
997
996
994
989
984
979
974
974
973
974
975
971
972
969
973
978
987
995
1001
1006
1010
1013
1014
1022
1031
1040
1044
1050
1052
1047
1041
1035
1025
1013
1000
985
975
969
966
968
969
968
968
964
961
961
960
963
968
969
968
966
962
963
965
967
969
965
965
962
957
949
948
955
971
1004
1050
1109
1174
1246
1323
1391
1441
1457
1425
1358
1268
1164
1066
976
903
845
807
792
801
826
854
880
899
909
910
905
898
890
887
886
883
884
884
887
889
889
885
880
876
874
872
872
875
878
881
883
885
882
880
882
885
886
888
890
893
896
899
907
915
921
925
928
931
934
941
948
956
963
971
976
984
988
1000
1008
1017
1021
1022
1030
1035
1043
1054
1066
1076
1081
1082
1083
1085
1088
1095
1099
1103
1106
1104
1104
1102
1102
1102
1101
1097
1092
1088
1081
1078
1076
1075
1075
1070
1066
1055
1049
1043
1038
1034
1031
1028
1023
1016
1013
1007
1006
1002
996
992
986
979
973
969
972
974
976
975
972
971
972
969
970
972
977
979
984
989
996
1005
1017
1024
1029
1030
1032
1031
1036
1036
1039
1037
1033
1025
1011
997
982
973
964
958
953
950
947
950
950
952
954
955
956
951
951
948
947
947
948
950
951
950
947
946
945
946
944
943
940
938
941
957
990
1041
1100
1171
1249
1328
1397
1440
1446
1418
1361
1290
1208
1119
1040
963
897
845
810
797
804
829
858
885
901
907
906
897
888
878
873
869
866
872
873
876
876
873
866
861
858
859
859
861
862
859
856
857
856
857
860
863
861
860
861
861
863
869
873
879
884
887
887
891
892
897
903
910
916
924
930
937
943
955
966
972
977
983
989
992
1001
1010
1022
1028
1037
1046
1054
1059
1064
1071
1076
1082
1086
1087
1092
1091
1096
1099
1098
1103
1101
1100
1096
1090
1084
1083
1084
1083
1081
1078
1073
1068
1062
1057
1051
1051
1049
1046
1042
1035
1031
1027
1022
1019
1010
1006
1001
993
990
985
987
985
986
984
980
975
972
970
967
965
966
969
972
975
975
982
988
994
1001
1008
1009
1012
1016
1019
1023
1029
1033
1035
1027
1024
1015
1005
994
983
972
963
957
951
946
944
943
948
946
946
947
944
943
941
942
944
947
952
953
951
949
946
945
946
945
946
948
945
942
938
938
948
971
1013
1063
1127
1204
1285
1364
1426
1457
1447
1402
1338
1264
1187
1114
1046
988
937
886
851
828
825
840
864
887
904
913
910
901
891
883
876
877
877
880
880
877
873
867
864
860
860
861
862
864
862
861
860
854
852
853
853
853
853
856
854
856
860
862
866
866
868
867
869
873
874
884
890
898
905
913
918
923
930
937
946
954
963
970
975
982
990
1002
1009
1016
1023
1031
1036
1043
1051
1059
1069
1078
1087
1092
1091
1095
1095
1097
1099
1105
1109
1113
1114
1114
1114
1112
1108
1108
1104
1100
1096
1088
1083
1079
1079
1078
1075
1074
1069
1060
1054
1046
1041
1037
1036
1034
1031
1026
1018
1014
1008
1002
998
996
991
988
985
984
983
982
982
982
981
976
970
967
966
969
978
988
998
1006
1012
1016
1020
1023
1029
1037
1042
1046
1050
1049
1045
1044
1042
1037
1030
1019
1006
991
979
970
964
963
963
967
969
970
970
966
962
960
958
961
966
971
973
972
972
967
966
970
971
972
969
969
964
959
953
954
962
979
1009
1053
1102
1160
1229
1304
1375
1425
1442
1419
1355
1273
1182
1095
1021
963
917
881
851
828
821
827
843
870
895
911
919
916
910
901
896
895
894
896
897
896
894
892
889
889
886
885
884
881
883
881
882
883
886
888
887
885
885
881
884
888
893
899
904
909
913
911
913
917
920
924
928
935
939
945
951
958
965
971
979
984
989
993
1000
1007
1018
1028
1039
1048
1054
1057
1058
1059
1065
1073
1082
1095
1101
1108
1111
1111
1111
1109
1110
1111
1110
1109
1108
1104
1102
1105
1107
1105
1100
1092
1087
1081
1071
1068
1068
1066
1066
1065
1059
1052
1040
1034
1030
1026
1024
1019
1015
1007
1001
994
991
987
985
983
978
971
963
959
955
954
955
955
954
953
952
948
949
949
948
952
955
962
968
976
988
995
1002
1007
1008
1008
1010
1012
1017
1020
1023
1024
1019
1009
997
981
969
958
953
947
945
946
945
948
950
953
952
949
947
944
941
941
941
945
947
950
951
948
947
947
945
943
937
933
932
928
931
949
982
1026
1080
1147
1224
1305
1376
1433
1453
1432
1378
1306
1225
1148
1078
1016
967
914
870
839
828
835
857
879
897
903
903
893
883
875
867
864
863
865
865
867
865
863
861
855
852
846
850
848
848
847
848
849
848
851
851
851
850
848
848
846
848
850
854
857
863
866
869
868
870
873
878
885
891
897
903
909
914
922
927
936
941
944
950
956
962
973
984
994
1001
1007
1014
1020
1027
1034
1041
1046
1049
1053
1055
1059
1064
1068
1071
1072
1074
1070
1067
1062
1061
1062
1063
1063
1060
1053
1050
1044
1038
1033
1033
1029
1025
1021
1018
1011
1006
1000
997
991
987
979
974
964
962
961
961
963
964
963
960
955
951
947
946
948
947
950
950
953
960
966
975
980
986
988
991
992
993
995
1001
1007
1009
1008
1002
990
978
964
950
941
935
929
926
922
922
921
922
924
921
923
921
918
918
919
919
922
924
926
923
924
919
919
919
919
922
921
920
917
917
926
947
980
1027
1090
1150
1222
1296
1364
1416
1442
1434
1392
1325
1244
1157
1075
998
928
868
822
795
786
796
820
845
867
882
885
883
874
865
861
857
856
856
860
858
856
853
846
843
841
841
843
842
843
841
841
838
835
833
838
836
838
836
838
835
839
843
845
848
854
856
854
857
862
866
876
885
891
898
904
909
915
922
931
938
945
955
961
968
979
992
999
1012
1022
1027
1031
1037
1038
1048
1056
1067
1072
1078
1080
1082
1082
1084
1086
1088
1085
1085
1083
1082
1079
1079
1079
1076
1075
1071
1065
1058
1052
1048
1046
1044
1039
1037
1031
1023
1017
1013
1010
1007
1004
996
991
986
981
979
979
977
974
970
963
959
956
956
959
960
961
961
961
964
966
970
978
983
989
993
996
1002
1007
1012
1018
1022
1023
1019
1014
1007
999
991
981
971
958
950
944
938
937
936
939
940
938
936
935
934
931
927
921
918
918
927
943
973
1012
1057
1102
1139
1177
1214
1255
1293
1330
1365
1398
1432
1466
1495
1519
1534
1542
1542
1532
1515
1483
1439
1376
1301
1214
1119
1022
938
875
842
830
838
846
855
854
843
833
819
809
804
806
803
803
796
793
785
779
778
772
769
767
762
760
758
754
750
747
744
740
735
726
724
724
727
730
731
728
726
726
724
727
726
732
737
741
746
750
758
764
772
783
790
797
802
807
813
823
838
848
863
873
884
893
902
913
923
934
943
954
959
967
976
981
990
995
1002
1004
1004
1004
1006
1010
1012
1018
1019
1016
1013
1008
1006
1004
1001
1001
999
997
993
991
986
986
983
981
975
972
966
959
957
956
957
958
958
956
952
947
946
946
947
951
954
957
957
958
961
968
972
976
979
986
991
998
1003
1010
1017
1024
1029
1034
1034
1033
1030
1027
1025
1020
1014
1009
998
987
980
970
964
960
957
958
954
952
955
955
956
961
961
962
961
958
956
956
958
959
960
962
961
958
955
950
947
944
949
958
972
1001
1042
1093
1154
1226
1305
1373
1416
1425
1386
1315
1226
1133
1046
972
919
876
840
815
798
795
802
824
849
870
884
892
894
892
893
891
888
884
880
875
873
870
868
873
875
873
875
873
