913
911
909
907
909
909
911
911
908
904
904
906
908
909
907
906
908
912
912
912
913
912
916
917
920
922
921
923
925
929
934
934
933
932
936
941
943
946
950
950
954
958
963
965
967
968
973
977
981
984
984
985
987
992
998
1000
1001
1002
1005
1011
1013
1015
1014
1013
1015
1016
1021
1020
1019
1016
1015
1018
1020
1018
1015
1013
1012
1013
1014
1010
1010
1006
1004
1005
1007
1005
1003
1002
1002
1004
1004
1002
1004
1004
1004
1007
1007
1008
1006
1006
1007
1008
1011
1007
1007
1007
1010
1014
1018
1018
1016
1014
1015
1016
1015
1014
1013
1008
1010
1012
1016
1015
1015
1013
1012
1013
1011
1002
993
989
984
984
982
978
972
971
970
972
973
972
971
968
972
971
973
973
971
972
969
973
974
974
972
969
972
974
976
975
973
971
970
976
976
976
975
976
976
977
980
981
981
978
977
978
981
982
981
981
979
983
980
978
973
968
969
972
985
1005
1034
1059
1087
1112
1130
1146
1164
1192
1224
1252
1279
1304
1316
1321
1321
1319
1313
1296
1265
1225
1190
1161
1134
1105
1070
1026
988
957
932
905
881
862
854
850
851
852
852
852
855
856
862
870
875
883
888
894
898
903
904
909
914
920
925
927
926
925
928
931
931
932
928
925
924
924
926
926
922
921
919
920
921
920
920
917
916
916
917
916
914
911
910
913
913
915
911
910
911
913
916
915
913
912
914
918
922
923
922
921
925
930
935
934
934
938
939
942
950
953
954
954
959
965
967
970
971
973
976
981
985
987
990
993
996
1002
1003
1004
1006
1005
1008
1012
1017
1015
1016
1016
1018
1022
1024
1021
1023
1020
1022
1020
1023
1021
1019
1017
1019
1020
1021
1020
1017
1012
1013
1013
1015
1012
1012
1009
1010
1010
1014
1014
1014
1010
1014
1013
1011
1014
1012
1012
1012
1012
1014
1015
1019
1017
1018
1021
1023
1021
1019
1017
1018
1015
1015
1016
1016
1013
1016
1019
1021
1019
1017
1011
1007
1001
995
995
989
979
978
975
975
973
970
968
966
969
970
969
968
967
967
970
973
974
972
967
971
974
974
976
973
971
974
973
975
978
975
972
974
979
977
979
978
977
977
980
978
979
979
978
979
980
984
981
981
978
977
977
977
970
967
969
977
996
1025
1055
1083
1106
1126
1145
1172
1200
1229
1258
1289
1313
1324
1327
1323
1312
1300
1272
1235
1195
1162
1129
1100
1067
1022
978
942
913
885
868
856
850
846
846
848
853
855
856
859
867
875
888
892
898
897
902
908
914
919
924
926
923
926
927
931
927
926
923
923
923
925
925
920
919
917
920
918
919
916
915
913
914
916
914
913
910
913
914
913
911
910
909
911
911
916
914
915
916
917
920
922
924
926
925
928
933
937
937
939
939
942
947
953
957
958
958
962
967
972
977
978
979
983
986
991
996
995
994
998
1003
1006
1010
1009
1008
1010
1015
1017
1016
1017
1015
1017
1018
1017
1016
1015
1012
1012
1015
1014
1013
1012
1008
1010
1009
1012
1007
1005
1002
1000
1001
1002
1002
1001
1000
1003
1007
1009
1009
1006
1001
1003
1004
1002
1003
1004
1003
1006
1009
1013
1012
1012
1010
1008
1011
1010
1009
1007
1004
1005
1008
1011
1012
1011
1009
1008
1008
1005
1002
993
986
982
978
977
972
967
963
964
965
965
964
962
962
962
964
965
962
963
961
963
965
966
965
964
963
964
964
966
967
965
964
963
967
967
970
967
965
967
968
970
971
966
968
968
971
973
973
971
972
973
976
975
974
971
967
963
962
963
961
968
986
1015
1043
1074
1101
1116
1130
1155
1188
1215
1244
1270
1292
1310
1320
1320
1320
1311
1288
1252
1212
1176
1144
1109
1075
1039
999
962
930
905
878
858
845
842
836
835
833
835
840
843
843
847
856
864
873
882
883
888
891
895
901
907
911
912
912
915
916
921
919
918
914
914
914
915
916
913
910
908
909
910
908
908
902
906
906
906
906
902
900
901
900
903
902
902
899
899
901
903
904
902
901
902
905
908
908
906
909
909
915
918
919
922
922
926
930
934
938
938
939
941
947
951
955
956
956
962
965
972
974
975
974
978
985
989
990
991
994
996
1001
1003
1005
1004
1002
1005
1007
1010
1009
1008
1006
1005
1007
1007
1008
1007
1004
1003
1005
1006
1005
1003
999
1001
1000
1000
998
997
992
992
992
992
992
992
993
994
994
996
997
995
993
994
994
993
992
992
990
995
999
1002
1006
1003
1000
1000
1003
1003
1003
1002
999
998
999
1003
1003
1003
1002
1001
1001
999
996
988
978
975
972
972
967
964
958
958
956
957
959
957
954
955
956
956
960
957
954
957
956
959
961
958
956
958
961
961
960
961
956
960
960
961
962
960
958
959
961
963
963
961
960
962
965
966
965
964
961
963
965
969
968
966
967
967
967
967
966
961
958
957
961
971
991
1020
1046
1075
1104
1127
1142
1163
1189
1219
1245
1275
1299
1315
1321
1321
1321
1313
1297
1266
1222
1187
1157
1131
1098
1066
1031
990
951
919
895
868
848
835
830
830
828
832
831
835
841
846
854
860
867
875
881
883
888
894
898
901
906
911
911
912
910
911
912
914
912
909
907
907
907
909
909
905
904
903
904
903
902
898
896
896
897
898
899
897
894
897
897
898
900
897
895
897
897
900
903
903
902
903
906
909
913
913
914
917
921
926
929
932
931
937
941
947
949
953
954
959
962
966
968
973
975
979
984
988
990
990
991
992
997
1001
1003
1001
999
1002
1004
1007
1006
1003
1002
1003
1003
1007
1004
1001
1001
1000
1000
1002
999
998
997
994
996
996
992
992
989
989
994
996
996
996
997
999
1000
1000
999
997
995
997
1000
1002
1004
1002
1002
1003
1005
1007
1007
1005
1002
999
1001
1006
1006
1004
1003
1005
1006
1007
1002
998
989
981
978
977
974
968
960
960
962
961
962
960
958
957
959
961
961
957
956
956
958
958
961
960
957
957
959
964
962
962
960
959
963
963
963
963
961
962
964
967
966
965
963
965
965
967
968
969
966
969
971
972
971
970
967
966
967
964
960
956
954
958
974
999
1026
1056
1079
1101
1119
1141
1165
1193
1220
1249
1277
1303
1320
1326
1324
1323
1320
1311
1283
1243
1203
1172
1146
1119
1083
1045
1002
967
937
914
884
861
840
832
829
831
831
831
833
832
836
845
850
860
865
869
878
883
887
890
892
900
904
908
911
912
908
911
913
914
913
910
908
908
910
913
909
906
903
902
903
905
905
901
901
898
899
901
900
897
896
896
896
899
901
898
896
896
899
900
901
899
901
903
907
909
912
912
911
915
921
925
927
928
930
931
935
940
943
948
947
952
956
961
965
966
968
973
976
981
982
984
984
989
994
999
1002
1000
999
1003
1006
1009
1011
1010
1009
1010
1011
1013
1012
1010
1009
1009
1009
1011
1009
1004
1002
1003
1002
1002
1002
998
995
995
996
996
992
993
992
991
997
998
998
996
994
996
997
997
999
998
998
1000
1005
1008
1010
1005
1005
1005
1007
1006
1004
1003
1000
1003
1006
1007
1008
1007
1000
1000
997
992
985
977
971
968
965
966
960
960
957
957
958
960
960
958
956
958
959
961
960
961
958
958
961
962
962
962
958
959
961
963
963
961
961
960
962
963
964
966
965
965
966
966
967
966
966
969
970
968
968
968
965
967
967
967
962
959
954
955
961
972
995
1021
1044
1073
1098
1118
1132
1155
1179
1214
1245
1274
1300
1318
1323
1325
1325
1324
1313
1289
1250
1211
1182
1153
1124
1095
1058
1017
981
947
918
892
865
847
836
834
830
828
828
832
836
839
843
846
855
861
871
878
880
883
882
889
895
903
905
906
905
908
909
912
912
910
905
905
909
909
907
905
903
902
904
906
903
903
898
900
904
901
903
899
898
898
899
899
897
897
896
897
898
899
897
896
897
899
898
903
904
902
903
903
910
911
914
915
913
919
923
926
929
933
933
938
941
946
948
952
951
954
961
966
969
970
970
973
979
984
986
987
985
992
995
999
1000
999
1000
1000
1003
1006
1008
1007
1005
1005
1008
1010
1008
1005
1003
1004
1004
1006
1002
1002
998
999
999
1000
997
995
993
992
992
993
993
993
992
994
997
995
998
995
995
996
996
997
996
997
998
998
1001
1006
1008
1003
1002
1002
1006
1005
1002
1002
998
999
1003
1004
1004
1004
1002
1000
999
997
993
985
977
975
974
972
967
961
956
955
957
959
956
954
950
950
955
956
957
957
954
955
954
958
960
958
956
958
960
965
962
958
957
958
959
962
959
962
959
961
963
964
965
965
962
963
964
965
966
963
962
965
965
967
967
966
963
965
965
967
962
956
951
953
956
967
983
1005
1028
1056
1084
1104
1121
1133
1153
1183
1212
1244
1270
1296
1313
1326
1331
1332
1327
1311
1287
1251
1218
1189
1160
1129
1095
1065
1025
988
950
921
893
868
849
836
829
822
821
822
825
831
831
830
831
838
847
856
863
869
873
874
880
883
889
894
897
901
905
910
909
908
909
909
911
911
910
908
903
905
907
905
903
901
898
898
899
900
896
896
894
893
895
897
894
894
892
892
893
895
895
893
891
891
892
895
896
894
892
894
898
899
902
903
899
901
908
911
911
914
913
918
923
926
930
932
931
934
938
945
947
951
950
956
960
966
970
969
970
975
978
981
984
987
988
989
993
996
997
999
999
1003
1004
1006
1008
1006
1003
1006
1005
1005
1006
1003
1002
1001
1001
1003
1000
997
992
991
996
994
993
990
986
986
987
989
988
984
983
988
990
994
995
993
989
990
991
992
993
990
992
996
999
1002
1005
1003
1002
1001
1003
1003
998
1001
998
1000
1002
1006
1006
1003
1002
1000
1000
998
991
982
975
972
971
969
964
959
956
958
960
961
958
955
954
955
958
959
960
959
956
959
960
962
964
960
958
957
959
962
958
960
959
960
962
965
966
966
961
960
964
966
967
965
964
966
967
969
969
967
967
969
971
972
971
969
966
964
966
964
964
967
975
997
1027
1059
1085
1109
1128
1146
1168
1192
1219
1243
1269
1298
1318
1336
1343
1341
1335
1327
1314
1285
1245
1204
1169
1137
1105
1073
1035
993
952
921
898
876
855
838
825
821
824
826
828
831
829
831
836
846
851
857
862
866
875
879
881
886
888
894
900
906
908
909
906
908
910
911
909
905
904
906
909
908
908
904
900
902
902
904
903
901
900
898
899
899
899
896
894
893
895
895
893
893
891
890
894
894
894
894
891
891
896
896
900
896
896
899
901
906
907
908
907
911
915
918
921
922
922
926
930
934
937
937
939
944
947
953
954
958
958
961
965
970
971
974
974
978
981
989
988
988
992
994
997
1002
1001
1002
1000
1002
1005
1005
1007
1004
1003
1003
1005
1005
1004
1005
998
999
1000
1000
1000
996
994
994
994
996
995
991
990
990
988
988
989
985
984
985
987
989
993
992
990
990
991
992
992
991
988
989
993
996
999
999
999
1001
1003
1004
1003
1003
1001
1000
1002
1003
1004
1003
1001
1003
1004
1007
1005
1003
996
995
992
985
981
972
969
965
963
962
959
958
956
954
956
958
957
957
954
957
958
960
958
958
956
958
963
963
960
961
958
959
964
964
963
964
959
961
964
965
964
963
964
963
964
966
966
966
962
965
965
965
965
968
965
968
969
967
967
968
966
963
961
960
959
964
969
989
1018
1050
1082
1104
1123
1143
1166
1194
1224
1253
1281
1309
1331
1344
1347
1341
1335
1323
1298
1261
1222
1187
1155
1124
1096
1066
1023
980
940
913
888
865
848
836
828
827
827
832
834
833
831
836
842
856
862
868
873
879
883
890
892
896
899
904
908
912
915
916
913
913
914
917
915
913
908
909
911
910
909
909
905
903
906
905
904
902
900
901
900
900
900
899
897
896
897
899
898
894
895
895
898
900
901
899
899
898
902
903
905
907
907
906
908
911
913
914
915
919
922
928
928
932
932
936
940
945
949
950
947
952
959
962
965
969
968
971
974
981
983
983
985
989
995
998
999
999
1000
1001
1004
1007
1010
1009
1008
1009
1011
1012
1012
1009
1008
1009
1010
1012
1008
1008
1005
1005
1004
1007
1007
1005
1002
1000
1001
1000
1001
996
994
996
997
999
999
997
995
996
1003
1005
1003
1002
999
998
1000
1004
1005
1003
1004
1006
1009
1012
1010
1009
1006
1007
1008
1009
1007
1007
1004
1008
1009
1012
1012
1011
1004
1002
1001
997
991
985
980
974
974
970
966
962
960
959
963
962
962
961
960
959
962
964
963
962
961
960
961
965
966
962
961
961
963
964
967
967
963
963
966
970
966
964
965
964
967
968
970
967
966
970
970
974
973
971
967
967
968
969
963
956
952
962
980
1007
1037
1066
1092
1115
1133
1156
1187
1218
1247
1281
1309
1330
1340
1344
1338
1332
1318
1290
1248
1207
1172
1138
1109
1073
1028
983
943
913
886
864
845
833
826
824
828
832
834
834
835
842
855
864
871
875
877
882
890
897
900
902
904
907
909
912
912
910
909
910
908
909
909
905
901
903
906
905
903
900
897
896
896
897
896
893
891
891
894
895
894
892
891
890
893
897
897
894
894
896
897
900
901
899
901
902
909
913
915
915
917
918
924
929
931
932
932
937
940
944
948
948
951
955
961
966
968
972
971
975
980
985
986
987
990
995
997
999
1004
1001
1000
1004
1006
1009
1008
1006
1004
1006
1008
1011
1009
1009
1006
1004
1007
1007
1004
1005
1000
1000
998
1000
996
995
992
993
993
993
993
993
990
992
996
999
1000
997
995
996
997
1002
1004
1006
1004
1006
1008
1012
1011
1010
1009
1008
1010
1011
1009
1006
1005
1006
1008
1010
1011
1009
1004
1001
1001
997
991
983
976
973
971
968
966
961
957
960
960
962
960
959
957
958
961
962
961
960
957
957
962
963
963
961
960
959
962
963
962
963
961
963
965
966
968
967
963
966
968
969
970
970
967
967
970
972
972
973
969
972
971
970
968
963
960
963
974
996
1023
1057
1088
1117
1142
1166
1197
1230
1262
1296
1328
1350
1355
1352
1343
1329
1295
1253
1211
1171
1130
1094
1049
999
950
913
881
858
841
835
832
827
830
833
836
841
848
855
864
873
881
887
891
893
897
903
910
916
914
914
911
913
915
916
915
912
908
911
911
908
908
907
906
905
905
905
905
904
899
897
898
904
902
900
897
896
896
898
900
897
894
897
900
902
900
901
900
902
908
911
914
914
914
919
921
924
932
931
934
937
943
947
951
954
955
959
965
972
975
977
978
981
985
991
994
992
995
998
999
1004
1005
1006
1004
1004
1010
1013
1013
1010
1008
1005
1009
1009
1008
1007
1002
1006
1006
1006
1006
1002
998
996
997
997
998
995
991
993
994
998
998
998
997
997
997
998
996
996
995
997
999
1000
1002
1005
1003
1003
1007
1011
1011
1007
1006
1002
1005
1005
1006
1008
1005
1006
1009
1009
1007
1004
996
988
985
981
976
972
968
965
964
965
964
962
959
958
959
960
959
960
957
958
959
961
962
961
958
959
960
960
962
963
961
962
964
965
964
966
963
962
965
967
967
967
965
966
968
970
972
969
967
968
972
974
973
971
970
969
968
966
963
965
972
997
1030
1067
1099
1125
1146
1167
1195
1225
1257
1287
1313
1339
1355
1360
1358
1350
1331
1300
1259
1217
1177
1137
1099
1059
1014
967
929
894
865
843
830
825
819
817
819
824
828
833
833
837
845
854
866
874
878
881
885
891
896
902
907
904
907
910
912
913
914
914
910
911
912
912
911
908
905
904
906
906
907
903
899
899
902
904
900
897
894
896
898
901
898
898
896
896
896
900
899
896
894
897
901
904
906
905
902
907
911
915
916
918
918
920
925
930
933
934
936
938
944
947
951
952
954
959
961
967
967
971
972
978
983
987
990
988
990
996
1000
1004
1004
1006
1006
1008
1009
1011
1011
1010
1005
1007
1010
1012
1012
1011
1005
1006
1008
1006
1007
1003
1000
1000
1002
1001
999
997
993
993
994
996
995
994
993
993
997
998
997
999
995
994
997
1000
999
997
993
995
1000
1002
1005
1006
1005
1004
1007
1010
1009
1007
1004
1004
1005
1006
1007
1005
1003
1003
1009
1009
1008
1003
995
991
986
982
978
973
968
966
963
965
964
962
960
959
961
963
962
961
959
959
961
965
962
962
960
960
964
966
962
961
960
961
962
964
963
963
960
964
963
965
965
965
962
964
965
967
968
965
965
965
969
970
973
970
969
968
971
971
971
968
963
962
963
967
973
990
1012
1048
1080
1111
1136
1153
1172
1199
1233
1262
1290
1318
1338
1353
1358
1358
1354
1342
1320
1284
1242
1204
1171
1136
1102
1067
1028
983
945
914
884
864
848
836
825
823
824
827
833
834
837
839
845
856
865
872
878
882
883
888
894
901
906
908
908
908
912
916
918
915
912
911
914
914
913
910
906
908
908
907
906
905
902
903
900
903
901
899
896
896
897
902
901
899
897
896
898
899
899
897
896
900
901
906
907
906
908
908
913
915
918
919
921
925
929
933
935
937
937
942
947
951
956
959
960
965
971
973
979
979
981
985
990
994
995
996
997
1000
1005
1004
1009
1006
1005
1005
1010
1013
1013
1014
1009
1011
1011
1014
1009
1007
1005
1005
1006
1008
1006
1003
1000
1000
1001
1003
1000
1001
996
996
1000
1002
1004
1002
1001
1003
1003
1004
1004
1000
1000
1003
1006
1011
1008
1011
1011
1013
1014
1017
1016
1015
1010
1009
1011
1013
1014
1011
1012
1012
1012
1013
1010
1002
992
988
986
983
978
970
965
965
963
967
965
962
959
961
961
965
965
965
961
961
963
964
966
964
961
963
967
968
968
964
963
964
967
970
970
968
966
970
969
970
972
965
968
971
973
975
974
972
971
971
975
977
977
975
972
971
969
968
964
964
962
968
987
1017
1047
1075
1101
1124
1145
1169
1201
1233
1263
1295
1322
1344
1352
1353
1351
1346
1338
1314
1273
1233
1200
1173
1144
1117
1079
1034
987
951
924
899
875
854
842
838
838
842
843
841
841
843
849
857
865
872
877
887
890
896
898
903
905
912
917
