951
951
953
953
950
953
957
952
956
955
953
957
959
961
959
958
957
957
961
963
961
960
958
960
959
960
956
954
951
948
949
954
960
972
998
1026
1052
1075
1094
1111
1131
1158
1188
1215
1239
1265
1286
1303
1314
1317
1315
1308
1292
1263
1228
1193
1163
1132
1100
1068
1030
983
949
920
892
870
855
841
833
830
828
832
836
838
836
835
840
849
859
867
869
873
876
881
887
892
896
900
903
906
909
911
910
909
909
911
914
912
911
908
905
906
907
906
904
903
898
901
901
901
899
896
894
895
897
895
895
891
891
893
895
893
894
892
890
894
897
897
896
897
896
899
901
905
907
907
909
915
918
919
923
923
926
931
937
937
940
942
943
947
952
956
956
956
959
963
966
969
973
975
977
982
988
989
990
990
992
995
995
996
996
999
998
1000
1002
1003
1002
1001
998
1002
1000
1003
999
999
995
997
994
994
991
987
988
990
990
989
986
985
985
989
994
993
992
990
989
992
993
994
989
986
985
992
993
996
998
996
998
998
999
1000
998
995
993
995
995
995
995
994
993
994
998
1002
998
995
990
986
983
977
973
967
961
960
959
954
951
951
949
950
950
949
948
946
941
947
951
952
951
951
950
951
952
952
950
948
949
952
954
956
955
953
952
955
957
958
956
956
955
957
959
958
958
957
958
958
961
961
960
960
959
958
959
960
960
958
957
956
956
953
953
955
965
987
1016
1042
1068
1091
1108
1126
1147
1174
1201
1225
1251
1278
1303
1314
1319
1316
1314
1305
1291
1258
1219
1185
1153
1124
1096
1064
1028
990
954
924
900
873
856
840
830
830
830
831
833
832
833
834
841
848
852
860
866
872
877
880
883
889
894
899
900
902
905
906
907
908
912
910
907
903
905
904
906
904
902
900
897
899
901
901
898
897
894
896
897
897
895
894
893
891
894
896
894
892
892
895
899
899
897
898
898
900
902
907
908
907
911
912
916
917
920
921
922
926
930
929
932
936
938
942
948
950
951
953
955
960
967
969
972
973
977
981
986
989
989
990
992
994
996
997
997
996
998
1000
1001
1003
1002
1002
1002
1005
1005
1004
1003
1000
999
1000
1000
999
997
994
991
990
990
989
989
988
986
985
987
988
990
990
990
993
995
993
989
988
990
991
991
992
989
991
992
997
1003
1002
999
999
999
999
1000
999
996
995
995
996
999
999
999
998
994
996
994
986
981
974
970
968
967
963
955
952
949
952
953
949
948
950
949
950
952
954
953
948
949
953
956
955
952
951
948
955
957
957
955
953
952
953
958
957
956
956
955
958
960
961
961
959
958
962
963
964
963
963
961
961
961
957
954
953
955
971
995
1022
1048
1076
1098
1118
1136
1156
1183
1209
1236
1265
1286
1293
1294
1289
1279
1267
1244
1207
1172
1141
1115
1093
1062
1018
975
941
913
885
867
856
844
836
839
843
846
847
846
849
856
866
876
882
883
886
887
894
903
906
909
907
910
913
917
916
914
910
911
912
913
911
911
906
906
908
909
907
906
904
902
905
907
906
905
903
904
903
906
907
906
901
903
904
906
907
906
904
906
908
914
913
916
914
918
922
925
925
929
932
933
938
942
946
948
949
951
957
965
967
968
968
972
975
985
987
987
989
989
993
997
999
999
996
998
1002
1005
1005
1005
1004
1003
1006
1006
1007
1007
1004
1002
1003
1001
1003
1001
1000
1000
1001
1000
999
996
993
993
993
994
993
994
993
993
998
1000
1001
1001
999
996
1000
1002
1001
1001
1001
1003
1007
1008
1008
1007
1005
1005
1006
1004
1002
1001
1003
1001
1004
1005
1007
1005
1003
1002
1002
997
993
985
978
971
971
968
964
960
957
956
960
960
958
957
955
956
958
962
960
960
956
955
956
959
958
960
957
955
957
961
962
959
959
958
961
963
963
962
963
962
962
966
965
965
966
964
968
971
973
972
971
969
966
966
961
958
955
958
972
997
1027
1052
1075
1091
1110
1132
1158
1189
1217
1244
1271
1287
1291
1289
1280
1263
1232
1195
1163
1133
1105
1071
1029
989
954
922
897
875
862
859
855
851
851
851
854
857
865
871
879
882
892
895
900
904
907
911
918
919
921
922
923
922
923
925
921
922
919
918
919
920
920
920
916
916
916
919
914
914
912
910
913
912
914
911
911
909
912
913
912
915
914
913
917
918
921
923
924
924
929
935
936
938
940
944
948
953
956
960
959
961
967
973
975
975
978
982
987
991
993
994
995
996
1000
1002
1004
1004
1005
1005
1009
1011
1011
1010
1009
1008
1010
1011
1011
1010
1009
1009
1007
1009
1008
1007
1006
1003
1002
1002
1002
1001
998
997
996
1001
1000
1000
999
997
1001
1004
1005
1002
998
999
999
1003
1005
1007
1005
1004
1009
1013
1011
1011
1009
1011
1010
1009
1008
1005
1006
1006
1007
1010
1010
1009
1005
1003
1003
1003
997
990
982
978
978
977
972
967
965
964
965
965
962
961
961
961
961
961
962
962
964
960
964
965
966
966
965
962
965
967
968
970
968
967
970
970
973
971
970
972
973
976
975
973
972
972
974
978
977
974
973
972
972
973
970
965
962
961
972
991
1019
1047
1072
1096
1116
1137
1165
1196
1224
1254
1279
1299
1306
1305
1302
1291
1273
1240
1202
1171
1146
1117
1087
1049
1008
968
937
910
886
870
857
852
848
849
853
856
857
856
864
872
882
890
893
895
898
903
910
916
921
922
923
924
927
929
927
927
926
923
924
926
924
921
919
918
919
919
917
915
914
914
914
912
914
911
910
911
913
914
913
912
911
910
916
919
920
918
918
919
924
927
928
931
930
929
937
939
941
945
946
949
955
959
961
962
964
965
971
974
977
978
980
986
989
993
996
998
999
1000
1003
1008
1009
1009
1010
1009
1014
1015
1017
1016
1016
1016
1018
1020
1019
1017
1016
1015
1015
1018
1014
1012
1010
1008
1008
1009
1008
1005
1003
1002
1001
1002
1001
1001
1000
1001
1005
1008
1010
1008
1005
1004
1004
1008
1006
1006
1007
1007
1011
1015
1016
1014
1009
1013
1014
1016
1013
1009
1008
1009
1012
1013
1014
1015
1012
1011
1011
1010
1005
998
989
985
982
982
975
969
968
964
967
965
965
964
961
961
963
965
966
965
966
965
965
967
967
967
964
965
966
970
968
968
968
965
970
968
969
969
968
967
970
970
969
971
969
970
970
971
972
972
971
973
976
976
977
975
973
971
967
962
961
963
966
981
1007
1038
1065
1092
1107
1123
1148
1181
1213
1239
1265
1290
1306
1313
1314
1308
1295
1268
1233
1198
1170
1145
1115
1079
1041
1000
960
925
897
874
864
856
853
852
850
851
855
857
861
869
877
883
892
897
900
903
907
912
919
923
922
925
924
925
927
927
927
923
923
922
922
924
922
922
919
916
919
919
917
917
914
912
915
915
916
916
915
915
916
917
918
914
914
913
917
921
920
921
921
922
927
930
930
930
935
933
939
945
949
950
952
953
959
962
965
969
969
972
978
983
982
986
986
990
996
999
1003
1004
1006
1004
1008
1012
1016
1013
1013
1014
1015
1018
1017
1016
1014
1013
1013
1014
1016
1012
1008
1008
1008
1011
1012
1009
1006
1002
1003
1002
1004
1000
1001
999
1000
1002
1001
1003
1002
1003
1003
1006
1006
1004
1001
1003
1005
1008
1009
1010
1010
1008
1011
1013
1012
1014
1011
1012
1010
1008
1008
1007
1007
1008
1010
1013
1012
1010
1008
1006
1004
1000
994
988
982
978
977
974
971
967
966
964
966
966
967
964
963
963
965
967
965
965
964
964
965
967
966
966
963
962
966
968
969
967
967
964
967
972
973
970
970
968
971
973
974
973
971
973
974
974
975
975
977
976
978
976
979
979
975
975
977
976
971
964
962
963
970
987
1006
1030
1057
1079
1104
1121
1139
1162
1189
1218
1248
1275
1297
1309
1312
1314
1312
1308
1286
1256
1218
1185
1163
1139
1113
1084
1047
1009
974
949
924
900
876
859
856
851
850
850
848
848
851
853
857
864
872
878
886
892
896
896
902
905
915
920
922
922
922
922
923
925
926
924
924
922
924
925
923
921
920
916
918
919
917
917
914
911
914
914
912
912
909
908
911
912
911
911
910
907
910
912
912
910
912
913
915
920
922
922
924
925
930
936
937
937
939
941
948
949
955
956
958
959
964
967
971
975
976
977
981
987
987
989
993
991
994
999
999
1000
1002
1002
1006
1011
1010
1010
1012
1012
1015
1019
1016
1015
1013
1013
1016
1017
1018
1015
1015
1010
1013
1013
1012
1009
1008
1005
1007
1008
1007
1005
1004
1001
1002
1001
1002
1000
999
999
1001
1005
1006
1004
1002
1003
1001
1009
1007
1007
1004
1005
1010
1014
1014
1013
1011
1010
1014
1016
1015
1013
1009
1008
1010
1014
1014
1014
1014
1013
1013
1015
1011
1008
998
992
987
984
980
977
971
968
968
968
967
964
963
960
960
963
965
964
962
962
967
967
967
965
965
963
968
968
966
965
966
966
967
972
972
971
970
968
970
972
973
973
970
969
970
974
972
970
972
972
974
975
975
974
973
972
972
976
975
974
971
969
965
966
964
964
969
984
1006
1033
1058
1079
1100
1116
1133
1157
1182
1208
1231
1256
1279
1301
1312
1321
1320
1321
1318
1307
1283
1251
1215
1185
1158
1135
1105
1073
1034
993
959
935
909
883
864
852
849
848
845
844
846
844
846
851
855
860
867
877
882
888
891
893
898
902
908
913
918
918
919
921
925
926
926
923
923
919
922
920
919
919
918
917
918
919
920
915
915
911
913
914
911
910
910
907
908
908
908
907
908
906
909
912
913
911
909
909
913
913
915
914
913
912
917
921
924
927
927
928
932
936
940
943
943
944
950
954
959
960
961
964
970
976
979
981
982
984
990
993
997
998
996
999
1002
1005
1006
1006
1006
1007
1011
1015
1015
1013
1008
1011
1012
1013
1014
1010
1007
1007
1008
1007
1007
1005
1003
999
1001
1002
1003
998
997
993
995
999
997
996
994
995
999
999
998
999
999
998
999
1002
1004
1004
1004
1004
1008
1013
1012
1010
1010
1009
1010
1009
1007
1004
1002
1002
1008
1009
1013
1011
1007
1004
1004
1001
997
990
983
978
973
975
968
964
961
958
960
962
959
959
958
955
959
963
964
961
960
956
962
963
962
961
961
959
960
962
963
962
963
961
963
967
966
965
965
966
967
970
968
969
970
966
968
971
972
971
971
969
974
978
975
974
970
968
971
969
964
962
964
976
1001
1029
1058
1083
1108
1121
1139
1165
1192
1219
1243
1268
1299
1317
1330
1330
1329
1323
1313
1292
1256
1218
1185
1157
1128
1096
1062
1023
983
952
925
902
877
859
846
839
839
839
838
839
839
842
843
846
857
865
870
877
880
887
890
895
896
902
908
913
915
914
915
917
920
920
919
916
913
913
914
917
913
915
911
909
911
914
911
910
907
907
908
908
907
903
903
903
904
905
904
903
902
901
903
908
909
906
905
905
910
911
913
912
914
915
919
924
925
926
929
930
935
938
943
944
944
950
952
957
960
961
963
969
974
978
982
983
983
986
990
995
998
997
997
995
1001
1004
1006
1004
1003
1004
1005
1008
1010
1008
1007
1006
1008
1008
1008
1006
1003
1002
1000
1003
1002
1001
996
997
997
995
998
997
994
990
990
995
996
996
996
996
999
999
999
998
993
992
996
1000
1001
1001
1001
1003
1008
1010
1010
1009
1006
1004
1004
1004
1007
1004
1005
1005
1006
1009
1008
1006
1000
993
990
985
981
978
970
964
963
962
962
960
958
955
956
959
961
958
957
957
957
959
959
959
958
956
960
961
962
960
958
961
962
966
967
964
962
962
963
965
966
968
966
965
969
969
967
968
969
968
970
973
971
969
967
961
962
962
961
963
969
987
1018
1045
1074
1097
1113
1130
1151
1180
1210
1236
1258
1278
1295
1300
1303
1298
1291
1270
1243
1209
1178
1150
1124
1097
1067
1031
991
954
925
897
878
861
853
846
842
842
847
851
850
854
855
863
873
884
888
890
893
897
901
908
913
917
916
917
922
926
926
922
922
921
924
923
918
918
918
915
917
916
916
916
913
910
912
913
913
910
908
908
909
909
909
908
907
906
908
910
913
911
913
910
915
915
918
918
919
920
925
928
929
933
932
931
937
942
944
944
947
950
952
958
960
963
964
967
970
976
979
981
982
984
988
994
998
996
999
999
1005
1007
1009
1011
1010
1009
1012
1019
1017
1016
1014
1015
1017
1018
1018
1018
1014
1014
1014
1014
1014
1011
1010
1009
1010
1007
1006
1003
1002
1000
1001
999
999
1000
999
999
1001
1005
1006
1005
1005
1002
1006
1008
1009
1009
1011
1013
1015
1020
1020
1019
1019
1019
1020
1020
1018
1014
1011
1015
1014
1018
1018
1016
1013
1014
1014
1011
1005
996
993
986
984
979
979
974
968
967
969
971
969
966
964
965
967
968
968
968
965
962
968
971
970
969
967
969
971
972
973
971
968
969
971
972
973
970
970
970
972
975
976
973
972
971
974
975
976
977
975
975
978
978
979
978
976
972
969
968
964
964
968
982
1005
1035
1060
1082
1101
1112
1132
1159
1184
1213
1237
1260
1286
1304
1312
1315
1313
1307
1298
1282
1247
1209
1177
1151
1128
1100
1065
1025
984
955
931
908
886
871
859
854
851
852
852
854
854
854
859
869
878
883
889
891
896
903
907
909
913
916
920
926
925
924
923
924
927
929
925
927
924
923
923
924
924
921
918
916
917
919
918
918
916
915
916
914
916
914
913
911
913
914
915
913
913
909
914
914
917
915
914
912
918
921
921
923
925
925
929
933
935
937
939
940
945
949
952
954
955
958
963
969
973
973
975
978
981
985
990
993
992
993
999
1003
1005
1008
1007
1008
1010
1013
1015
1013
1015
1015
1016
1018
1018
1016
1014
1014
1016
1016
1017
1014
1012
1012
1012
1012
1011
1011
1010
1005
1004
1008
1006
1004
1002
1002
1002
1004
1007
1005
1005
1006
1007
1012
1013
1010
1007
1006
1009
1013
1014
1015
1012
1014
1016
1018
1018
1013
1015
1013
1014
1013
1013
1011
1012
1012
1014
1018
1018
1016
1013
1012
1012
1008
1002
996
991
984
982
978
976
971
967
965
967
968
963
966
964
965
965
968
967
966
964
963
966
968
969
968
967
965
967
970
968
967
969
969
971
974
974
973
972
969
975
976
976
975
976
974
977
977
978
980
977
977
979
979
978
973
968
964
962
971
979
1000
1024
1055
1087
1112
1133
1157
1186
1218
1251
1282
1308
1323
1329
1328
1327
1318
1294
1253
1214
1181
1153
1126
1091
1051
1003
963
932
906
880
862
849
844
846
849
852
849
849
851
861
873
882
888
892
894
898
903
908
913
916
920
923
923
926
926
927
925
927
927
926
922
922
921
921
921
922
917
917
914
916
915
915
914
909
909
910
910
913
909
909
909
910
912
912
911
912
912
917
920
920
922
922
926
930
934
934
936
939
940
947
951
956
957
961
964
966
970
975
977
982
982
987
993
995
996
997
999
1002
1006
1008
1007
1011
1013
1016
1018
1019
1017
1017
1017
1020
1021
1021
1020
1019
1017
1019
1020
1019
1019
1015
1014
1013
1013
1012
1011
1007
1005
1005
1005
1005
1003
1003
1003
1005
1012
1010
1010
1009
1008
1009
1010
1009
1011
1012
1014
1015
1018
1021
1019
1016
1016
1019
1020
1019
1015
1014
1013
1017
1017
1021
1020
1019
1016
1017
1014
1010
999
995
988
985
983
980
973
970
968
968
970
968
967
964
965
965
969
970
970
968
968
970
970
971
969
968
968
971
973
973
972
969
969
969
972
974
975
974
971
974
976
976
977
975
972
975
978
980
979
978
976
978
980
979
978
975
971
968
969
970
980
1003
1031
1061
1090
1116
1133
1154
1179
1212
1244
1273
1295
1318
1325
1332
1334
1332
1319
1294
1257
1220
1191
1161
1128
1095
1052
1005
966
934
904
875
857
851
846
846
846
845
848
851
854
861
870
877
886
894
897
904
908
914
917
920
925
929
928
926
925
927
927
926
924
921
919
920
919
920
919
918
915
915
917
915
914
912
912
912
915
913
912
911
910
911
913
915
916
917
913
920
923
924
927
928
928
930
935
941
941
944
946
950
957
961
963
966
969
976
978
982
987
989
989
995
1001
1003
1007
1008
1010
1015
1016
1020
1022
1021
1022
1024
1025
1027
1025
1024
1023
1025
1026
1023
1023
1021
1016
1017
1017
1016
1016
1015
1013
1013
1012
1011
1010
1007
1008
1011
1014
1015
1016
1013
1013
1015
1016
1017
1015
1014
1015
1018
1023
1024
1024
1024
1024
1025
1027
1022
1021
1018
1018
1019
1022
1021
1021
1020
1018
1019
1016
1015
1009
999
992
990
988
984
977
975
971
971
974
973
970
969
969
969
972
974
973
972
973
973
975
976
972
973
973
975
973
974
972
973
973
974
976
977
975
974
975
974
980
982
979
977
976
979
981
984
984
983
982
983
986
987
985
984
979
978
977
974
972
971
982
1005
1035
1065
1092
1112
1129
1151
1177
1209
1239
1266
1296
1324
1334
1342
1342
1340
1333
1316
1286
1246
1210
1176
1145
1113
1075
1031
989
953
923
898
875
861
851
847
844
848
852
852
854
856
863
873
883
890
892
895
899
905
913
919
922
923
924
928
928
931
928
927
925
926
924
928
922
922
922
922
922
922
920
916
917
918
917
917
916
913
911
913
914
914
914
911
910
913
916
916
917
917
917
918
924
926
924
924
927
934
938
941
944
946
948
953
957
958
963
963
967
975
980
983
987
986
989
994
999
1005
1005
1007
1008
1012
1015
1018
1019
1017
1018
1023
1026
1025
1027
1023
1024
1026
1026
1028
1024
1023
1022
1023
1023
1023
1022
1021
1018
1018
1017
1014
1011
1012
1010
1011
1012
1011
1011
1011
1012
1015
1018
1019
1018
1014
1012
1013
1014
1018
1016
1014
1017
1018
1023
1023
1024
1022
1021
1023
1024
1020
1019
1018
1019
1020
1023
1022
1022
1020
1016
1018
1016
1010
1004
998
993
989
987
985
978
972
968
972
972
971
968
968
966
967
970
972
971
969
968
970
972
972
970
968
969
973
974
974
975
973
972
973
977
976
973
975
974
975
979
979
979
978
978
979
982
982
982
980
979
983
985
985
983
979
977
977
974
971
968
968
974
986
