907
910
912
915
916
925
928
931
933
932
935
943
947
949
953
956
958
961
966
970
971
971
974
977
981
982
983
985
987
990
992
994
993
993
993
994
996
998
996
994
992
994
993
996
993
992
990
993
996
996
997
996
995
996
998
996
995
992
991
990
993
993
991
994
995
998
1000
998
997
994
994
993
993
993
990
990
987
989
991
991
992
988
983
982
978
972
967
960
955
953
950
948
944
942
943
943
946
944
942
941
940
942
944
944
942
942
941
942
943
943
942
942
942
944
944
944
943
943
942
945
948
947
945
945
944
948
951
950
949
949
948
953
952
955
952
950
947
949
945
941
935
935
941
954
977
1005
1030
1056
1075
1091
1109
1135
1163
1188
1215
1242
1262
1275
1279
1278
1275
1266
1255
1226
1188
1157
1131
1102
1073
1033
991
953
917
891
867
850
834
826
820
822
826
828
827
827
829
838
847
856
861
864
867
870
880
884
888
890
894
896
901
902
899
899
898
899
901
902
899
898
895
897
899
899
895
891
890
892
892
891
889
887
885
887
888
887
886
886
886
890
891
892
890
893
894
895
898
901
903
901
905
910
913
918
922
922
924
933
938
940
942
943
946
950
954
958
962
963
964
970
974
974
975
977
977
983
986
989
987
988
987
989
991
993
990
990
989
989
990
988
988
987
984
990
990
990
989
990
990
992
992
994
991
988
985
987
986
986
983
985
989
993
995
990
989
988
988
989
989
988
987
986
986
987
989
990
988
986
982
978
976
968
962
957
951
948
947
944
940
938
935
939
938
937
937
936
936
938
940
938
938
934
935
938
941
941
939
941
937
939
944
943
942
942
942
945
948
948
947
945
945
946
951
951
951
949
948
950
953
954
953
946
946
949
945
939
937
936
939
950
970
993
1018
1039
1059
1076
1093
1113
1138
1165
1195
1221
1244
1265
1274
1278
1276
1273
1267
1248
1213
1179
1145
1121
1097
1067
1032
992
954
925
899
875
854
836
823
820
823
824
826
825
825
827
834
840
849
853
860
865
871
876
877
879
886
890
893
896
896
896
897
900
903
901
900
897
896
898
898
898
895
893
891
890
893
892
890
889
886
887
884
888
887
885
884
886
887
887
886
886
884
888
890
889
889
889
890
896
898
901
900
903
904
907
912
916
917
917
922
925
929
934
935
936
938
943
949
952
953
955
957
961
966
968
968
970
973
978
982
984
983
982
985
987
990
990
990
989
987
990
990
990
990
988
987
990
991
990
987
987
985
987
991
990
992
988
985
989
989
991
987
982
981
986
990
989
992
993
991
990
993
994
990
987
982
986
987
987
986
986
985
987
988
989
986
980
974
970
964
963
957
951
946
945
942
943
939
938
936
939
940
939
938
936
937
938
937
940
940
940
940
940
945
943
941
940
940
941
944
945
944
941
941
942
944
948
947
948
944
947
947
948
947
948
946
949
952
952
951
948
944
945
941
939
938
935
943
959
984
1010
1035
1057
1075
1092
1111
1137
1163
1189
1213
1240
1266
1285
1289
1290
1288
1284
1274
1249
1211
1176
1145
1121
1096
1065
1028
989
950
922
898
869
846
832
822
820
819
820
823
820
822
825
833
840
845
853
857
865
868
872
873
876
882
887
896
899
898
900
898
901
903
902
900
896
896
898
897
895
891
889
889
891
893
890
889
887
888
886
887
886
884
883
883
886
889
887
888
884
885
888
890
888
888
885
888
889
895
896
899
897
897
903
905
907
907
907
910
914
919
921
924
926
927
931
937
941
938
941
945
949
953
958
958
960
962
971
974
974
976
977
978
982
982
984
983
985
989
989
991
991
992
990
991
992
995
992
989
986
986
987
988
985
985
984
981
985
987
987
988
986
984
984
987
984
984
981
978
979
984
984
984
987
988
990
990
990
987
987
985
988
990
986
984
982
983
986
987
986
982
980
973
972
965
960
955
950
943
942
941
935
937
935
935
938
937
937
934
933
934
938
939
940
937
937
936
939
943
942
939
940
938
941
944
943
941
941
942
943
946
944
943
944
942
944
946
946
945
943
942
946
950
948
946
945
940
938
939
940
942
956
983
1015
1046
1071
1093
1105
1123
1152
1185
1214
1239
1261
1277
1291
1292
1288
1279
1264
1237
1203
1169
1138
1110
1080
1046
1007
969
931
901
878
852
837
829
820
818
817
816
820
823
823
824
828
836
845
854
861
863
864
866
873
881
886
888
891
891
895
897
898
896
893
889
893
893
891
890
886
885
888
889
888
885
886
881
884
885
884
881
884
880
883
884
882
882
883
878
882
884
886
885
879
881
883
891
892
891
891
890
898
901
904
902
903
903
907
913
914
918
920
923
927
931
933
935
935
940
944
949
955
954
956
957
961
964
968
970
971
973
978
980
980
979
980
982
986
988
989
988
984
985
987
986
984
985
984
982
983
985
983
981
979
980
981
980
984
982
984
981
982
988
986
985
987
984
984
984
981
983
979
982
986
992
993
990
989
988
991
993
993
991
988
985
985
989
989
986
983
986
989
987
986
979
972
965
961
959
951
949
942
941
942
941
941
942
937
935
937
940
938
938
937
937
938
942
941
940
938
940
944
944
943
941
939
941
941
943
944
944
944
943
942
944
945
941
945
944
946
949
950
950
950
949
951
953
953
952
950
947
945
944
944
945
954
970
996
1027
1051
1078
1094
1104
1126
1149
1175
1197
1216
1236
1251
1258
1256
1253
1245
1230
1209
1182
1152
1125
1102
1078
1057
1031
999
962
932
904
883
866
849
838
830
827
830
835
838
837
837
838
847
857
864
868
871
872
879
884
889
893
894
895
898
903
906
903
901
902
902
905
908
902
902
900
900
903
902
902
898
896
897
899
894
896
893
894
892
896
894
892
894
894
896
898
900
896
897
895
899
902
902
903
902
903
908
912
915
916
918
919
923
926
929
930
932
934
941
944
947
947
951
953
959
962
966
965
966
967
976
981
980
983
984
984
987
993
994
990
991
989
993
996
994
993
992
989
992
993
993
989
988
987
988
988
987
988
987
986
987
990
991
990
990
989
990
993
990
992
989
987
989
990
990
992
994
995
997
998
997
996
996
991
993
992
992
990
987
985
988
991
991
993
989
985
985
980
971
966
960
958
958
953
949
946
943
942
945
946
945
945
943
943
943
947
947
947
946
944
948
949
950
945
947
944
948
947
946
947
944
944
949
952
950
950
949
950
954
954
951
952
953
952
954
958
956
955
954
955
956
958
956
952
946
945
945
948
952
964
979
1002
1031
1052
1067
1076
1088
1109
1137
1165
1187
1208
1226
1237
1246
1249
1248
1244
1234
1216
1190
1163
1143
1124
1103
1079
1052
1024
992
960
931
907
887
874
859
848
845
843
844
848
847
848
849
851
860
870
875
878
882
884
886
893
895
898
901
901
908
911
913
912
910
911
913
914
913
912
910
908
911
912
910
908
907
906
909
909
907
906
905
903
905
906
905
904
901
900
904
904
904
902
902
902
903
908
907
908
903
904
909
912
913
914
914
914
921
925
927
928
929
931
934
942
943
945
944
947
952
957
958
961
962
966
970
972
977
980
978
980
984
991
991
989
992
992
995
997
998
998
997
997
999
1003
1001
1002
1000
997
1000
1002
1001
998
997
996
997
999
998
997
991
991
993
995
998
998
999
998
1000
999
999
998
998
996
996
999
998
1000
999
999
1004
1006
1005
1004
1002
1000
999
999
998
997
994
994
996
998
998
999
997
994
994
991
988
980
972
969
968
965
961
955
951
948
950
953
951
948
945
943
949
949
950
948
947
946
948
950
948
947
946
947
949
951
950
949
947
948
952
953
950
950
949
951
954
956
954
954
953
952
955
957
956
956
955
957
960
961
961
960
959
957
957
959
954
947
945
943
947
956
972
992
1012
1034
1056
1076
1091
1102
1125
1150
1179
1204
1225
1245
1257
1264
1270
1272
1269
1261
1245
1216
1186
1162
1139
1118
1096
1071
1043
1014
980
953
927
903
883
869
858
849
842
839
840
844
844
842
842
845
855
864
868
872
878
880
885
893
894
899
900
901
909
912
911
912
913
911
912
913
913
912
910
910
910
912
909
907
906
905
908
909
908
905
903
903
902
903
902
899
900
899
900
903
903
903
901
902
903
905
906
907
907
906
912
915
915
917
918
921
926
929
932
934
937
938
942
949
951
954
956
958
961
968
970
971
974
974
980
985
986
986
986
986
991
994
996
997
997
999
1000
1002
1002
1003
1002
1000
1002
1002
1003
1002
1000
996
998
1000
1000
997
995
994
996
997
999
998
997
997
997
998
997
995
994
990
991
996
999
999
1000
1001
1002
1003
1002
1000
998
996
995
998
997
998
995
994
999
999
1000
1001
998
989
985
980
976
969
963
958
954
955
952
949
948
947
946
947
947
946
946
947
947
949
950
951
948
946
951
952
952
950
947
951
952
955
955
955
952
950
956
958
958
958
956
957
959
960
959
960
961
960
963
966
963
962
959
957
958
953
947
947
945
952
968
992
1016
1038
1058
1078
1093
1111
1135
1160
1189
1214
1242
1265
1280
1287
1284
1284
1279
1268
1243
1209
1176
1147
1122
1100
1070
1030
991
954
926
905
881
862
846
841
835
836
834
834
835
837
840
844
853
860
866
870
878
883
886
889
890
898
902
908
909
911
911
912
914
916
915
913
909
908
909
911
910
908
905
903
904
904
901
901
899
898
899
902
901
898
896
896
900
899
899
898
897
896
898
903
903
903
903
902
905
908
911
914
914
918
920
926
924
926
929
932
933
940
941
945
946
946
953
958
960
960
963
964
969
976
976
981
980
981
985
991
993
993
993
993
998
1000
998
999
998
998
1000
1001
1000
1000
997
997
996
998
996
997
992
991
990
993
989
991
991
995
996
1000
996
994
992
990
994
996
992
993
994
997
1000
1003
1001
995
996
996
995
995
993
994
992
992
993
997
997
996
988
989
984
981
971
965
959
955
951
949
948
944
942
942
943
946
944
946
944
944
945
946
945
945
947
945
949
951
951
950
952
950
952
951
952
952
951
950
952
953
954
952
952
952
955
958
956
957
956
956
955
954
952
946
941
944
951
974
1003
1032
1060
1083
1100
1122
1151
1183
1212
1239
1266
1288
1297
1297
1292
1278
1257
1220
1181
1148
1118
1085
1054
1013
967
931
901
874
852
844
835
832
830
828
831
834
834
838
843
849
859
870
874
876
878
882
890
896
900
904
903
904
908
909
910
907
904
902
905
906
905
902
899
897
899
901
900
899
896
895
897
896
895
893
891
892
893
894
894
893
890
890
893
897
897
898
897
897
900
904
905
906
906
907
911
915
920
920
919
922
927
931
934
935
938
939
942
950
952
955
958
960
965
969
970
972
976
976
981
984
986
987
987
991
994
998
998
999
996
996
998
1000
999
995
993
989
993
995
993
992
990
986
988
989
988
988
987
989
992
995
995
991
990
989
991
994
990
989
992
993
999
999
998
998
995
989
990
991
990
988
988
987
989
992
990
988
982
979
971
966
960
954
948
943
942
944
944
943
940
940
941
942
944
945
942
941
942
941
946
944
941
942
942
946
948
947
942
942
945
950
947
946
944
943
945
948
951
948
947
945
949
950
952
952
952
950
952
952
950
947
941
937
941
944
959
980
1002
1031
1057
1080
1097
1114
1141
1171
1202
1234
1257
1278
1289
1291
1293
1289
1278
1253
1213
1178
1150
1122
1095
1060
1020
975
938
912
889
865
846
835
830
829
827
827
828
828
831
836
840
848
853
860
867
872
875
878
884
886
894
895
899
898
899
898
900
901
901
901
899
900
901
899
901
899
897
893
896
895
894
894
893
889
891
892
893
887
889
886
888
889
889
888
887
887
891
894
890
892
889
892
896
901
900
903
903
902
909
914
916
918
918
921
926
931
933
934
935
938
943
946
951
952
955
958
963
968
971
971
972
973
978
981
984
983
984
986
987
992
992
991
989
987
992
994
994
990
990
990
989
991
989
988
983
983
985
986
984
981
982
981
986
988
990
988
986
985
986
987
985
983
983
982
987
992
994
993
990
989
989
989
989
988
983
983
988
989
988
990
990
988
989
989
984
975
967
958
957
960
953
948
943
942
944
943
944
942
940
939
942
944
943
942
939
941
941
943
941
943
940
938
941
942
945
943
942
940
941
942
942
943
946
945
948
949
951
949
949
948
952
954
954
949
946
942
940
940
938
942
956
981
1014
1044
1067
1089
1108
1131
1168
1200
1229
1255
1277
1292
1301
1305
1299
1289
1267
1230
1194
1162
1130
1099
1068
1023
978
940
911
882
854
835
828
822
820
819
819
820
825
830
834
840
842
851
860
867
870
872
878
881
887
892
895
897
894
893
896
898
898
896
894
895
896
898
899
894
892
892
894
894
894
892
891
888
889
891
891
885
884
882
885
889
887
883
886
884
887
890
889
889
889
889
894
896
897
898
899
900
904
911
911
916
914
919
925
928
931
934
936
938
942
946
948
951
951
955
960
965
965
970
968
971
975
981
980
982
981
982
987
989
991
990
988
989
991
994
992
992
991
990
991
994
992
990
987
984
983
989
985
982
982
978
979
984
983
983
983
981
986
986
985
983
981
978
982
985
982
981
978
981
988
989
990
990
988
989
991
989
989
988
987
986
987
988
990
989
988
988
989
990
987
981
972
963
962
959
959
952
947
942
942
942
942
941
939
937
938
941
940
938
941
937
941
941
943
943
942
940
941
945
948
944
945
943
944
948
948
946
946
944
948
949
951
951
948
946
951
953
954
950
952
952
953
955
954
953
947
944
942
943
941
944
954
977
1007
1036
1063
1082
1095
1112
1139
1168
1199
1224
1248
1272
1293
1302
1304
1299
1290
1274
1247
1212
1177
1147
1118
1089
1056
1020
976
937
907
880
859
845
834
827
824
821
825
828
831
829
830
837
847
855
862
866
868
870
875
882
886
891
894
895
899
902
904
904
904
901
903
903
903
902
899
899
897
898
899
896
893
895
894
896
893
890
889
887
889
891
888
889
887
883
886
889
889
887
887
888
890
894
894
895
895
894
897
899
902
903
904
907
909
914
916
916
918
920
927
930
931
934
933
935
941
946
951
950
951
953
959
964
964
967
967
970
973
978
980
981
981
982
987
989
991
992
991
992
995
998
995
996
995
994
994
997
994
994
992
989
990
990
989
986
984
983
984
986
985
984
982
983
986
989
989
987
986
984
986
988
988
986
983
983
989
990
992
993
993
992
994
996
994
992
991
990
991
992
992
993
990
988
992
993
992
988
982
975
970
969
967
960
953
951
948
947
945
941
942
942
941
944
943
943
942
939
944
945
944
942
944
942
945
949
947
948
945
946
949
952
950
950
949
948
949
952
950
950
950
949
950
951
952
952
951
950
953
955
953
955
954
957
957
959
959
956
955
951
950
948
946
947
949
962
985
1015
1039
1064
1083
1098
1115
1137
1163
1192
1216
1242
1272
1293
1307
1314
1313
1310
1304
1286
1253
1213
1178
1148
1122
1095
1059
1016
976
940
911
890
866
848
832
829
830
830
831
834
832
833
839
848
857
863
866
873
877
885
888
893
895
899
905
907
908
910
906
904
906
907
904
903
902
901
902
904
901
898
898
896
896
899
898
895
892
893
894
897
897
894
894
891
893
896
895
895
895
894
896
900
899
901
899
898
902
907
910
910
911
914
918
923
925
927
930
931
937
942
945
946
948
953
957
962
966
967
970
970
978
981
983
986
986
986
993
995
999
997
998
996
997
1002
1001
998
997
997
1000
999
997
997
992
990
991
995
991
989
987
987
988
991
990
987
986
989
992
995
995
995
992
990
992
993
994
992
991
991
996
999
1000
1000
1000
998
999
999
999
997
994
993
993
995
995
993
994
995
997
998
998
992
986
980
976
973
969
964
959
956
952
952
952
952
950
948
947
950
952
950
947
947
950
950
952
952
952
947
949
953
953
950
951
950
952
955
954
954
950
953
953
954
954
954
952
954
954
959
958
957
955
956
960
963
963
961
962
961
962
963
960
958
954
949
951
954
959
974
994
1018
1047
1073
1092
1110
1128
1157
1189
1219
1247
1272
1292
1304
1315
1314
1313
1303
1285
1253
1214
1183
1153
1124
1095
1061
1023
985
948
916
888
865
846
839
833
828
825
825
831
833
832
834
838
847
853
862
866
871
874
876
884
892
894
899
899
899
904
905
907
907
904
903
903
905
904
904
902
898
897
901
902
900
898
897
896
897
897
896
892
892
893
895
894
890
890
889
893
895
895
895
896
893
896
901
904
901
901
905
910
913
916
918
917
922
926
930
933
934
937
938
944
951
951
957
957
959
964
967
970
973
974
976
981
984
987
988
987
987
993
998
997
997
995
997
998
1003
1001
999
997
997
999
999
999
998
997
993
993
995
995
994
989
986
989
991
991
993
992
994
995
997
998
994
992
992
993
994
997
992
992
994
997
999
999
998
997
993
999
998
996
994
993
992
995
995
998
997
995
995
992
991
986
978
974
967
967
964
959
954
953
949
953
953
951
947
947
945
947
949
949
948
946
947
949
952
952
950
949
949
952
