917
918
921
920
920
920
921
919
918
915
916
915
918
917
914
911
912
911
913
909
907
905
905
907
908
907
904
903
903
904
905
904
904
899
901
904
906
907
906
904
905
909
914
912
914
913
914
920
923
926
925
927
929
936
940
945
944
947
950
955
959
962
962
965
967
973
978
982
982
986
987
992
997
999
1002
997
1002
1007
1010
1013
1010
1010
1013
1017
1019
1019
1017
1014
1014
1017
1017
1017
1014
1010
1010
1010
1013
1010
1009
1005
1006
1005
1005
1003
1003
1003
1003
1004
1008
1008
1007
1005
1007
1009
1007
1007
1006
1007
1007
1013
1015
1016
1016
1013
1016
1015
1017
1013
1011
1008
1009
1010
1015
1012
1012
1011
1011
1010
1010
1002
996
987
984
982
979
974
968
963
966
965
967
966
966
961
963
965
969
970
968
965
965
969
972
969
968
964
964
967
969
969
967
968
972
971
973
973
972
969
972
972
975
975
972
971
973
976
979
978
977
976
976
976
977
974
969
963
965
970
981
1003
1030
1055
1086
1111
1132
1147
1170
1197
1229
1264
1292
1319
1338
1349
1354
1355
1355
1345
1325
1285
1239
1206
1174
1142
1106
1068
1025
986
951
921
892
867
848
837
837
834
834
832
837
840
843
844
851
857
865
873
883
887
890
889
895
899
908
910
914
912
917
920
921
922
922
918
920
920
920
918
916
916
914
914
914
914
911
909
909
909
911
908
905
903
905
906
907
904
903
902
900
900
902
905
903
901
900
902
904
906
908
904
908
911
915
916
916
917
921
923
929
934
934
935
937
945
947
948
952
952
956
961
968
969
972
973
977
982
986
988
990
990
993
999
1001
1005
1005
1002
1005
1010
1015
1016
1014
1015
1014
1016
1020
1021
1021
1015
1017
1018
1019
1018
1015
1013
1014
1014
1016
1013
1010
1007
1005
1006
1007
1005
1001
999
1000
1002
1004
1006
1006
1006
1006
1008
1010
1010
1006
1004
1008
1011
1013
1013
1014
1012
1015
1017
1019
1019
1019
1016
1015
1014
1016
1016
1016
1015
1019
1020
1021
1020
1016
1011
1007
1002
997
992
987
980
974
974
973
971
970
968
965
967
969
968
969
966
967
968
970
974
970
968
968
973
974
975
973
971
970
971
975
975
975
974
973
976
978
979
976
973
976
979
982
982
980
978
978
979
981
984
983
978
981
985
982
983
982
979
978
976
975
975
973
975
989
1014
1042
1071
1097
1116
1138
1156
1178
1204
1234
1262
1291
1322
1346
1363
1368
1367
1367
1362
1351
1324
1286
1246
1209
1182
1153
1121
1085
1038
995
961
932
907
880
860
848
840
841
839
838
840
841
847
848
851
854
864
872
882
888
893
895
894
899
907
915
918
922
921
922
926
929
929
927
925
926
928
928
927
923
921
922
922
923
921
918
916
915
915
917
917
916
911
912
915
916
914
913
910
912
914
913
915
912
908
909
913
914
916
915
912
915
917
919
921
922
919
924
928
930
933
933
935
937
940
948
949
950
951
957
961
964
969
969
973
975
979
985
988
989
993
995
1000
1004
1008
1008
1009
1010
1015
1018
1021
1023
1021
1022
1025
1027
1027
1026
1025
1022
1026
1026
1026
1024
1021
1019
1021
1020
1020
1017
1014
1012
1014
1013
1014
1009
1006
1009
1012
1015
1014
1015
1015
1015
1019
1017
1016
1014
1013
1012
1018
1022
1022
1022
1020
1023
1026
1027
1027
1025
1019
1016
1016
1022
1022
1021
1018
1019
1022
1024
1019
1015
1007
998
995
992
985
985
976
974
975
976
975
974
969
970
972
974
975
973
972
972
974
974
976
974
972
972
974
976
977
974
974
974
974
977
977
976
973
976
976
980
976
975
976
975
979
981
982
980
982
983
983
986
985
986
984
981
982
980
978
970
968
969
983
1004
1034
1062
1089
1113
1135
1158
1178
1205
1234
1266
1301
1328
1350
1361
1364
1364
1362
1353
1331
1293
1251
1216
1187
1157
1123
1081
1039
995
960
933
906
882
861
847
839
839
837
839
840
841
843
848
851
859
868
876
883
889
892
893
896
902
906
914
917
919
918
921
924
925
925
924
923
921
924
923
922
921
917
917
918
920
919
915
912
911
914
915
915
910
909
910
909
911
911
909
907
906
908
909
909
910
903
904
907
909
907
907
910
909
915
917
919
921
918
921
926
931
934
935
934
939
942
948
950
953
955
957
961
966
970
972
974
978
982
986
987
988
989
994
995
1003
1003
1005
1005
1007
1012
1017
1018
1019
1019
1020
1021
1023
1023
1024
1020
1019
1022
1023
1021
1022
1019
1017
1018
1019
1020
1018
1016
1015
1013
1016
1012
1010
1008
1006
1008
1010
1009
1007
1008
1008
1013
1013
1013
1013
1008
1007
1009
1012
1015
1015
1014
1014
1019
1024
1021
1023
1021
1020
1022
1022
1021
1019
1018
1019
1021
1021
1023
1023
1022
1022
1020
1018
1012
1003
997
993
990
987
983
976
971
972
973
975
973
970
969
968
970
971
972
972
971
969
974
974
975
974
973
973
975
975
977
976
974
974
977
979
979
975
976
975
979
981
980
981
978
978
980
984
983
982
982
982
985
987
985
985
979
978
977
976
974
973
977
988
1011
1044
1075
1105
1131
1155
1176
1199
1230
1257
1283
1313
1344
1372
1382
1384
1382
1376
1363
1338
1295
1249
1209
1171
1135
1100
1059
1012
969
932
904
881
858
840
832
822
826
830
832
832
832
835
838
848
858
865
872
878
886
892
899
899
903
908
915
922
923
922
923
922
924
926
927
922
920
918
919
918
919
917
914
913
913
914
917
914
910
910
912
913
911
910
905
905
909
909
907
905
903
904
907
909
910
906
907
907
909
913
915
914
914
917
921
924
927
927
929
931
934
938
941
943
943
948
955
961
960
961
962
967
973
980
982
982
984
989
993
996
1000
1003
1002
1005
1009
1011
1016
1016
1015
1016
1020
1024
1024
1023
1023
1023
1025
1025
1026
1023
1019
1018
1018
1020
1019
1016
1014
1013
1014
1016
1013
1009
1007
1006
1008
1008
1006
1002
1001
1000
1003
1005
1006
1005
1004
1004
1008
1010
1009
1005
1007
1004
1007
1010
1010
1011
1010
1014
1018
1021
1022
1022
1023
1019
1021
1021
1017
1016
1015
1016
1018
1019
1020
1017
1017
1015
1015
1011
1003
996
993
987
986
983
980
977
972
973
973
974
972
970
969
968
972
971
972
970
971
971
973
975
975
974
969
969
971
974
974
972
972
969
973
978
974
975
974
976
978
982
981
979
980
979
983
985
982
982
981
979
981
982
977
974
974
978
995
1024
1060
1096
1129
1157
1182
1212
1244
1275
1308
1336
1364
1380
1382
1376
1365
1344
1309
1262
1221
1175
1134
1093
1053
1009
965
925
893
867
846
830
824
819
818
822
825
831
831
834
843
852
866
876
881
884
886
890
897
907
913
914
916
917
918
921
919
921
918
916
916
918
917
914
913
911
913
913
913
909
907
906
906
906
902
899
899
895
900
904
900
901
898
898
900
902
904
901
902
902
906
909
910
913
912
915
920
925
925
926
926
934
939
941
946
945
949
952
959
964
967
968
971
976
977
985
987
988
989
992
996
999
1001
1004
1006
1006
1009
1013
1015
1013
1012
1012
1014
1018
1017
1015
1012
1014
1016
1015
1013
1010
1010
1007
1007
1008
1006
1003
1002
999
999
1002
1000
996
995
994
997
999
998
997
996
997
998
1000
1000
1000
999
999
1001
1007
1007
1008
1006
1008
1013
1014
1012
1013
1009
1005
1007
1012
1010
1008
1009
1012
1012
1013
1011
1008
1002
993
988
986
980
973
967
963
961
966
962
960
960
960
960
962
963
960
958
958
963
964
962
962
960
960
965
966
965
963
962
963
965
968
969
967
964
965
967
968
967
967
966
967
967
971
972
971
971
969
971
975
973
969
967
963
960
959
959
965
981
1005
1040
1073
1103
1127
1148
1174
1211
1244
1279
1312
1342
1357
1366
1366
1359
1344
1309
1261
1215
1176
1133
1094
1047
998
952
918
885
857
839
826
821
825
827
829
828
828
837
848
858
862
868
875
880
887
893
897
901
904
909
912
911
911
910
908
909
912
907
904
902
900
902
901
902
900
896
896
897
899
897
892
889
890
893
894
891
889
888
888
891
893
893
893
891
891
892
899
899
897
898
902
906
913
914
914
916
918
925
930
931
935
939
944
948
954
958
961
960
965
972
975
978
978
981
984
989
995
994
996
997
999
1004
1006
1005
1006
1006
1003
1005
1008
1007
1003
1001
1003
1005
1005
1004
1002
997
998
998
999
1000
996
992
993
994
995
994
992
993
995
997
1003
999
997
997
996
1000
1002
1002
1002
1004
1003
1005
1006
1005
1005
1003
1000
1001
1003
1001
1002
1002
1002
1003
1006
1004
1000
994
984
984
979
973
968
962
957
956
958
957
953
952
950
950
954
955
953
951
953
952
956
955
954
953
952
953
955
957
954
953
953
957
958
957
958
955
956
960
963
962
963
960
959
963
963
962
964
963
962
966
967
968
968
966
963
965
966
960
955
951
956
968
994
1021
1050
1077
1104
1126
1146
1170
1202
1234
1267
1300
1329
1347
1356
1357
1353
1348
1333
1292
1249
1210
1171
1141
1106
1060
1013
966
925
895
873
847
830
820
816
815
817
820
820
821
825
834
844
853
857
863
864
871
879
884
890
892
897
900
904
906
907
904
903
905
904
904
902
900
897
899
900
898
897
895
892
895
896
894
891
888
887
887
891
888
884
883
883
885
885
884
883
884
882
883
888
888
887
888
889
890
896
898
898
899
902
906
911
912
914
916
920
921
930
932
933
934
935
942
947
951
953
955
957
963
968
970
971
973
975
980
986
986
987
984
989
994
998
998
999
999
1001
1002
1007
1005
1004
1004
1000
1004
1004
1004
1002
1000
999
1002
1001
1000
998
995
991
996
996
993
991
988
986
988
990
989
988
990
989
992
995
991
992
990
991
993
996
995
995
993
997
999
1003
1004
1005
1003
1001
1004
1006
1002
997
996
997
1002
1002
1003
1002
1003
1002
1000
1003
998
991
982
974
971
970
964
960
955
952
952
954
954
951
947
948
950
953
952
951
950
950
953
954
954
954
951
951
953
955
955
955
954
954
955
957
956
956
953
954
955
959
959
957
956
955
960
959
959
958
957
956
960
962
959
959
962
960
962
963
961
959
952
947
949
953
961
977
1003
1034
1065
1098
1121
1135
1154
1185
1218
1248
1277
1302
1325
1342
1354
1359
1353
1350
1335
1306
1263
1224
1189
1154
1117
1081
1043
1001
953
917
886
856
838
825
817
809
805
807
811
815
816
817
817
825
837
847
855
859
862
866
872
878
884
888
889
893
895
901
901
900
899
897
897
898
898
894
892
892
891
889
892
888
885
885
884
887
887
884
883
883
882
884
883
880
881
876
881
883
882
881
879
880
883
886
886
888
883
886
891
894
895
894
895
899
903
910
912
914
915
916
923
924
928
932
934
937
946
952
952
955
957
960
967
970
972
975
975
980
985
990
989
991
991
992
996
999
1000
999
999
997
997
1002
1000
998
994
995
997
999
997
993
994
991
991
991
991
987
985
983
986
986
984
985
985
982
987
989
990
988
987
986
985
991
988
987
988
986
994
996
998
998
995
993
996
995
997
993
991
991
994
993
995
993
994
995
996
995
986
981
972
966
964
962
958
953
948
945
947
948
947
944
941
942
945
948
949
945
943
942
947
946
945
943
944
943
945
950
948
948
946
947
951
951
951
951
951
949
951
955
953
954
952
952
952
955
952
956
952
954
956
959
957
959
956
954
953
952
949
948
954
960
984
1017
1050
1082
1111
1135
1155
1181
1206
1236
1264
1294
1323
1345
1355
1355
1353
1348
1335
1316
1278
1236
1197
1163
1130
1097
1061
1016
970
929
892
867
842
820
804
794
795
797
801
802
803
806
808
815
825
833
839
846
856
861
862
867
871
876
885
889
890
892
892
896
896
897
896
893
893
890
890
894
893
889
888
887
889
890
887
885
881
881
881
881
879
881
876
876
878
879
880
878
879
877
880
880
881
880
878
879
880
884
884
885
885
887
891
896
897
899
900
903
908
913
916
917
918
922
927
931
935
934
937
940
946
952
954
958
958
962
966
972
975
974
975
978
985
987
990
992
992
994
994
1000
999
998
997
997
996
999
996
994
993
992
994
995
992
991
988
987
987
990
985
981
979
976
978
981
982
980
979
980
984
987
986
982
981
982
986
985
986
983
983
986
990
995
997
999
997
997
997
1001
1001
997
995
994
995
999
996
999
998
996
995
994
986
979
971
964
964
960
956
951
948
947
950
952
949
946
946
945
948
951
950
952
949
947
952
953
951
952
948
949
953
955
953
952
952
951
951
954
954
955
954
952
954
958
960
957
957
958
959
963
963
962
960
957
959
959
955
953
949
950
956
971
993
1020
1048
1079
1109
1135
1153
1176
1204
1232
1259
1290
1313
1334
1343
1345
1344
1341
1325
1295
1254
1212
1178
1145
1115
1084
1046
998
957
921
890
864
841
824
814
811
810
806
809
808
816
818
820
824
833
839
849
860
864
867
868
872
879
885
890
893
893
894
898
902
902
900
898
899
899
901
900
898
898
894
896
898
896
894
890
890
890
891
889
889
887
885
887
888
887
886
884
882
885
889
887
883
882
883
886
888
889
888
885
889
891
895
894
896
896
901
906
910
912
913
917
917
923
928
931
931
933
935
942
947
951
954
955
958
964
968
973
974
974
978
982
985
987
989
991
992
997
999
1000
998
997
998
1002
1004
1005
1004
1001
1001
1003
1004
1003
1001
999
998
999
1000
997
995
993
991
993
993
991
990
989
988
991
994
993
993
995
995
995
995
995
994
997
997
998
1004
1001
1003
1004
1004
1006
1009
1009
1009
1003
1000
1004
1006
1007
1006
1007
1009
1008
1009
1005
998
994
988
984
983
975
969
963
958
958
958
954
953
949
949
950
951
951
950
950
950
952
955
956
954
951
952
954
957
955
954
954
955
958
960
957
959
957
954
959
959
960
960
956
957
960
961
963
964
961
959
963
964
962
963
959
961
962
963
960
955
951
950
953
958
973
994
1019
1048
1078
1107
1126
1142
1163
1194
1226
1256
1281
1310
1331
1343
1352
1354
1353
1345
1329
1300
1263
1223
1191
1158
1124
1089
1056
1018
974
935
901
869
845
830
819
811
808
808
812
816
817
816
816
823
835
844
853
857
859
861
870
873
878
882
884
889
893
897
903
902
901
897
900
904
899
897
894
894
897
897
897
894
893
889
891
892
890
889
884
883
884
887
884
884
883
879
881
885
882
881
880
878
884
885
884
885
883
882
887
889
891
889
890
891
895
901
902
902
904
906
912
916
918
921
922
923
927
934
939
940
941
944
947
954
953
958
960
960
965
972
977
977
981
980
986
989
991
991
994
994
997
997
1001
998
998
998
999
998
998
996
994
994
994
996
993
988
986
985
988
987
985
982
978
976
980
982
979
978
978
975
981
985
982
983
983
981
983
985
981
980
980
980
984
990
995
992
990
991
991
990
987
987
985
984
985
988
991
990
988
982
983
978
970
964
957
955
955
954
949
942
939
937
938
940
937
939
937
938
939
943
941
940
940
939
942
944
945
942
942
941
943
944
944
942
942
940
945
945
945
946
944
947
946
946
947
946
944
947
950
951
953
952
950
947
949
952
953
948
946
946
952
965
986
1017
1047
1072
1098
1119
1129
1143
1161
1183
1205
1229
1246
1257
1258
1251
1249
1243
1228
1203
1168
1138
1115
1095
1073
1046
1018
977
944
917
893
867
846
830
820
818
819
818
820
821
825
829
833
837
845
852
859
866
870
870
873
878
886
892
895
897
896
896
899
903
902
902
901
897
899
903
901
901
898
897
899
902
897
896
894
893
897
899
898
898
894
892
896
895
896
900
900
896
897
896
896
896
895
897
898
902
902
901
901
903
906
911
914
913
913
914
919
925
927
928
929
932
937
941
944
947
949
953
957
958
960
961
961
961
967
973
975
977
977
982
982
988
984
983
985
989
992
994
993
991
991
993
993
995
996
993
990
988
988
991
990
987
985
983
987
988
987
985
982
977
978
979
979
978
979
981
981
982
983
984
983
983
986
984
981
984
987
991
994
997
995
994
995
997
999
994
985
984
984
988
989
991
988
987
986
992
995
998
992
984
970
958
951
954
956
956
951
942
943
946
943
941
937
934
938
944
946
948
948
947
949
951
949
949
949
948
946
951
948
940
937
939
947
950
951
952
948
946
953
959
960
957
955
948
942
941
947
954
959
958
958
956
949
949
952
961
959
958
969
996
1022
1043
1067
1084
1091
1093
1106
1118
1133
1145
1146
1139
1126
1118
1124
1130
1124
1106
1082
1068
1067
1063
1052
1036
1018
994
968
939
909
881
860
855
855
852
845
839
840
848
854
858
857
865
868
871
871
878
885
888
889
895
904
916
919
916
916
922
926
928
925
915
901
888
894
901
908
909
905
901
901
907
907
902
902
901
907
911
914
913
909
906
905
906
911
913
915
912
912
911
909
915
918
924
925
923
919
919
922
922
927
934
938
939
938
941
941
941
943
942
942
944
952
962
971
971
970
968
971
977
981
983
985
984
981
983
981
985
988
992
991
993
996
1000
1002
999
1000
997
995
997
999
1002
998
990
985
991
998
1000
994
987
979
973
969
964
970
973
978
984
986
982
981
983
980
975
974
982
991
992
992
995
1002
1004
1004
1000
997
997
1004
1013
1019
1017
1000
975
958
955
966
980
990
991
981
973
980
985
986
977
963
955
952
945
937
927
926
934
946
952
950
946
940
942
946
951
952
947
940
939
948
952
948
938
941
955
967
957
938
926
931
944
954
951
944
935
931
937
947
958
960
959
949
942
947
952
954
947
941
948
958
958
951
947
948
951
973
1000
1026
1044
1058
1062
1068
1081
1101
1122
1141
1158
1165
1160
1149
1142
1142
1139
1127
