976
978
981
985
988
989
992
994
997
1002
1004
1004
1005
1005
1004
1009
1010
1013
1011
1009
1010
1012
1013
1013
1011
1008
1009
1009
1009
1010
1006
1002
1001
1002
1005
1003
1001
1000
1000
1004
1004
1005
1004
1000
1000
1005
1004
999
996
992
994
999
1003
1005
1005
1003
1004
1005
1006
1006
1004
1003
1003
1004
1005
1007
1006
1005
1009
1011
1010
1005
999
990
986
985
979
975
970
965
965
965
968
965
963
963
962
964
966
964
965
963
962
963
964
964
965
962
964
966
968
966
964
964
965
967
970
972
969
966
966
966
970
968
969
965
965
966
970
970
968
969
969
970
972
972
969
967
966
963
966
964
966
974
997
1028
1057
1082
1102
1116
1132
1155
1184
1209
1233
1257
1281
1301
1312
1314
1308
1300
1289
1271
1239
1200
1168
1138
1113
1084
1051
1013
976
941
914
891
872
857
846
840
838
838
842
844
845
841
844
853
863
870
876
878
883
888
890
899
901
903
909
914
916
915
917
915
917
918
921
918
918
914
916
914
916
912
910
909
908
908
910
908
906
904
902
903
905
906
904
902
902
904
905
906
902
900
902
903
907
907
905
905
908
909
914
913
914
913
917
920
926
924
926
926
929
933
937
938
941
943
949
953
956
958
958
960
964
969
975
975
977
978
982
986
988
992
994
995
996
999
1002
1003
1003
1003
1002
1002
1006
1005
1005
1003
1005
1004
1004
1005
1002
997
998
1000
1002
1000
999
997
996
996
995
995
993
992
994
997
995
999
996
996
995
997
997
994
993
987
988
991
991
990
990
990
995
996
1000
1000
998
995
998
1000
1001
1002
997
994
998
997
999
1002
1003
1001
1000
1000
1000
994
989
983
981
979
975
972
966
964
961
962
962
963
962
958
956
960
962
963
961
959
960
961
963
963
963
959
963
962
961
960
959
956
958
960
961
962
961
961
962
965
967
966
964
961
964
965
968
965
967
962
965
969
970
970
968
966
966
967
970
967
961
961
965
973
988
1011
1038
1062
1090
1112
1127
1138
1153
1173
1198
1221
1243
1263
1276
1281
1283
1283
1280
1274
1258
1239
1209
1176
1149
1126
1102
1076
1051
1023
991
958
932
906
884
869
857
847
842
839
838
843
846
849
845
846
850
859
867
873
878
879
882
889
894
896
902
904
905
909
912
914
914
913
917
918
915
915
913
910
913
913
912
915
914
911
911
911
913
913
909
907
907
907
909
907
908
906
906
906
908
907
905
901
903
906
909
909
908
906
908
907
913
913
914
915
916
918
920
924
923
923
928
933
935
939
939
939
942
947
950
952
955
957
960
965
969
969
972
970
975
979
982
985
984
987
989
993
995
996
996
996
1000
1002
1005
1004
1002
1000
1001
1005
1005
1005
1003
1001
1003
1003
999
1003
997
995
995
997
997
997
994
992
993
996
996
996
995
994
994
994
994
997
994
992
990
989
990
992
990
990
993
997
1001
1000
997
996
997
1000
1004
1001
1000
998
1000
1000
1005
1005
1004
1000
994
993
990
983
978
974
969
966
965
963
960
957
959
960
960
960
956
956
956
958
962
960
957
956
957
959
960
960
959
957
959
961
962
962
961
960
962
963
965
964
963
960
963
967
967
967
966
965
965
967
968
971
969
966
968
966
967
962
957
955
958
968
984
1008
1031
1054
1076
1094
1107
1122
1141
1163
1190
1215
1236
1252
1262
1261
1264
1263
1260
1246
1223
1191
1164
1145
1130
1107
1079
1050
1017
981
954
928
903
879
866
857
851
851
846
849
851
852
854
857
859
865
875
881
887
888
891
891
898
904
912
915
917
915
917
919
922
923
920
917
916
917
920
917
916
915
913
914
915
913
913
909
908
911
912
912
911
908
909
906
911
909
910
907
907
908
910
908
910
908
907
911
915
914
914
913
916
921
923
923
925
925
928
932
937
939
939
940
944
949
955
954
958
959
961
966
972
973
973
974
977
979
986
987
991
988
991
995
999
1002
1001
999
1001
1006
1006
1008
1008
1005
1008
1009
1011
1010
1007
1006
1008
1008
1007
1008
1005
1004
1002
1003
1005
1003
1001
997
997
999
1004
1005
1004
1003
1001
1004
1005
1004
1004
1003
999
1000
1002
1000
1001
1002
1004
1009
1013
1010
1006
1005
1006
1009
1008
1005
1002
1004
1004
1006
1009
1010
1008
1004
1002
1003
1002
996
987
980
974
974
972
965
962
960
959
960
961
959
958
956
960
960
961
964
962
959
958
962
963
964
963
961
959
963
966
966
964
962
963
966
968
965
965
965
963
967
969
969
967
965
965
969
972
973
970
970
970
971
972
968
965
960
958
967
983
1007
1035
1060
1082
1096
1113
1139
1168
1193
1218
1241
1263
1271
1276
1272
1269
1261
1238
1208
1178
1152
1128
1105
1078
1041
1001
964
935
906
887
873
862
853
849
852
856
857
854
855
861
869
881
885
889
892
897
905
909
912
916
918
922
921
925
924
922
920
921
920
922
924
921
917
916
917
917
917
916
911
912
912
914
915
913
909
908
909
912
912
911
906
908
911
914
914
912
913
913
913
918
920
918
919
924
925
927
931
934
934
937
939
945
946
949
949
953
956
962
966
966
969
971
972
980
983
984
984
988
991
996
998
998
996
999
1003
1007
1007
1007
1006
1004
1007
1009
1012
1011
1010
1010
1011
1012
1011
1010
1007
1006
1006
1007
1007
1003
1001
1000
1003
1003
1004
1002
1001
998
1000
1006
1006
1004
1002
1003
1005
1006
1004
999
998
998
1000
1004
1006
1006
1005
1004
1007
1009
1008
1008
1004
1004
1003
1003
1005
1004
1001
1004
1006
1009
1009
1004
998
995
989
986
982
977
974
970
964
966
963
961
959
961
962
961
962
959
958
960
960
962
962
961
960
960
961
963
962
961
960
962
963
965
963
965
963
964
967
967
967
968
965
968
969
972
971
970
968
971
972
975
972
970
964
960
959
962
963
976
998
1028
1058
1076
1094
1108
1129
1159
1191
1222
1247
1266
1274
1280
1283
1280
1268
1246
1210
1177
1151
1131
1104
1076
1037
999
964
934
907
884
867
855
851
850
848
849
850
850
852
859
869
877
882
887
892
896
899
904
906
910
916
918
920
921
920
917
922
923
921
917
915
916
917
918
917
914
911
912
913
914
912
909
906
907
907
910
909
907
906
904
908
912
911
907
907
907
910
912
913
913
912
915
916
921
924
923
924
928
932
935
937
939
939
945
951
955
957
955
957
962
968
972
974
978
976
982
986
990
992
992
994
998
1000
1007
1006
1004
1004
1006
1011
1013
1013
1013
1010
1010
1013
1015
1016
1012
1008
1009
1010
1012
1008
1004
1004
1004
1004
1005
1003
1000
998
996
997
1001
1003
1004
1002
1001
1003
1003
1003
1002
997
996
998
1003
1003
1004
1004
1006
1010
1010
1007
1008
1008
1006
1007
1008
1006
1004
1005
1004
1008
1009
1011
1008
1002
1001
996
992
987
981
974
972
969
970
967
965
963
962
963
965
963
964
963
962
964
964
966
962
960
963
964
963
965
963
963
962
965
967
968
966
966
965
967
968
967
967
965
967
968
968
972
968
965
969
972
974
972
971
966
966
962
960
959
961
969
990
1021
1053
1078
1097
1109
1136
1166
1200
1233
1258
1280
1295
1301
1299
1294
1275
1241
1202
1170
1144
1114
1081
1041
998
960
929
900
873
855
844
842
842
841
844
844
845
850
862
870
878
882
886
889
894
901
906
907
911
918
917
920
918
917
915
916
917
915
911
909
911
911
912
911
908
907
903
905
906
906
903
901
902
902
903
904
902
900
900
902
904
906
905
904
906
906
911
913
912
911
915
920
925
926
927
928
931
936
940
941
944
945
949
956
959
961
963
962
968
973
977
978
980
981
984
991
996
996
997
997
1000
1004
1004
1007
1006
1004
1005
1007
1008
1008
1005
1003
1004
1005
1004
1002
1000
994
996
998
1001
998
994
990
990
994
993
994
996
994
997
995
996
998
995
993
992
991
995
994
997
997
999
1002
1006
1005
1001
999
1001
1000
1000
1000
998
997
998
1000
1002
1002
1004
999
999
995
992
985
977
972
970
966
964
962
960
957
958
960
960
959
953
954
956
958
958
959
959
956
955
958
961
960
958
956
957
959
961
961
959
957
960
960
961
961
960
959
961
964
964
964
962
963
963
966
967
969
969
967
966
969
969
966
962
958
958
962
970
987
1013
1039
1068
1096
1116
1134
1151
1176
1204
1232
1260
1284
1300
1302
1303
1299
1289
1268
1241
1201
1166
1140
1112
1083
1051
1012
971
939
913
886
863
845
835
834
831
832
836
835
837
838
842
850
859
863
871
878
885
885
890
892
898
904
909
911
912
912
912
913
913
914
911
909
908
909
908
908
906
904
904
904
903
904
899
898
899
899
900
900
897
896
899
899
899
900
898
898
898
900
905
905
904
903
906
910
914
915
917
918
922
926
930
931
933
934
938
941
949
953
954
955
961
965
968
971
974
974
979
983
987
989
991
990
993
996
999
1001
999
1000
1002
1003
1007
1005
1004
1002
1002
1003
1005
1002
1001
998
1000
999
999
999
996
993
994
994
993
991
988
987
989
990
995
994
994
994
994
997
996
997
993
991
986
988
992
993
994
996
999
1003
1000
1001
1001
999
1000
997
999
998
1000
999
999
1000
1003
1005
1002
998
994
991
987
981
978
971
967
965
963
961
959
958
955
956
957
957
954
951
952
953
955
955
953
950
950
953
957
957
954
956
952
955
956
959
957
955
957
958
959
959
956
957
957
960
963
963
962
961
962
965
967
966
963
962
964
963
967
963
958
957
955
960
969
987
1012
1041
1069
1096
1115
1128
1142
1161
1183
1205
1227
1248
1264
1276
1278
1280
1277
1270
1256
1239
1207
1176
1151
1128
1104
1077
1052
1020
988
953
921
893
867
855
845
837
833
833
835
841
844
844
844
847
856
863
872
879
879
883
885
892
901
902
908
908
911
913
918
915
917
912
911
914
912
911
910
908
908
909
912
912
909
907
906
907
910
908
905
904
903
904
905
905
902
901
902
903
908
906
906
905
906
907
908
912
912
912
915
919
922
925
926
926
928
933
938
940
942
946
946
953
958
961
961
963
967
973
976
979
980
981
983
990
994
995
994
995
997
1001
1005
1005
1001
1003
1003
1006
1007
1007
1004
1005
1004
1005
1007
1004
1001
998
994
994
998
994
993
990
992
993
992
994
993
994
994
995
999
998
995
993
992
997
997
994
997
1000
999
1006
1008
1007
1005
1001
1000
1001
1003
1003
1002
1001
1000
1003
1004
1006
1003
998
992
988
983
978
973
967
962
961
960
957
956
957
954
956
957
956
955
954
955
956
960
958
957
956
956
961
961
960
957
958
958
960
964
961
961
959
959
962
964
963
962
962
961
964
968
964
966
966
962
968
969
970
967
966
965
966
965
959
956
955
960
976
998
1022
1047
1070
1084
1098
1116
1139
1164
1187
1210
1231
1248
1259
1262
1262
1263
1256
1246
1219
1187
1160
1138
1121
1098
1070
1035
999
962
936
912
890
871
857
849
846
845
844
845
844
845
849
854
858
864
872
877
882
890
891
894
898
902
906
916
914
914
914
916
918
919
919
917
914
914
916
917
915
913
911
911
914
912
912
910
905
905
908
911
907
907
903
904
907
908
907
906
903
902
906
908
910
910
907
908
913
915
917
917
918
921
924
929
931
933
934
935
940
945
947
948
951
951
957
964
966
968
968
972
978
982
983
985
987
990
994
998
1000
1001
999
1001
1004
1007
1008
1007
1009
1009
1011
1013
1012
1011
1009
1007
1007
1010
1009
1008
1007
1006
1007
1008
1006
1003
999
1001
1002
1002
999
998
999
998
1002
1008
1007
1006
1005
1003
1003
1006
1005
1002
1002
1004
1007
1011
1012
1010
1008
1012
1011
1013
1008
1005
1005
1006
1007
1010
1012
1011
1008
1007
1006
1005
997
990
984
979
978
977
972
966
962
961
963
964
963
962
959
958
961
963
962
964
960
963
960
966
964
964
963
962
964
968
967
965
963
965
967
968
968
969
966
966
968
971
971
970
970
969
972
975
974
973
972
971
972
972
967
962
959
959
969
987
1011
1035
1060
1078
1096
1114
1134
1160
1186
1217
1242
1264
1277
1280
1280
1278
1275
1267
1242
1212
1179
1156
1138
1117
1088
1053
1018
982
952
925
898
879
864
853
852
850
849
847
847
850
855
862
870
879
881
886
892
898
901
905
906
911
914
922
922
924
922
922
923
926
925
923
922
919
921
923
923
919
916
916
916
916
915
914
915
910
913
913
913
912
909
907
910
912
911
909
910
910
911
914
915
914
914
913
916
919
919
923
924
927
928
933
935
936
938
939
945
950
953
952
956
958
962
967
970
973
974
976
978
984
986
989
989
990
995
1001
1001
1002
1003
1005
1008
1010
1012
1013
1011
1013
1016
1019
1019
1017
1017
1015
1016
1018
1016
1016
1011
1012
1013
1013
1013
1010
1010
1006
1006
1008
1004
1003
1002
1000
1001
1002
1005
1004
1005
1007
1010
1010
1010
1008
1006
1006
1009
1010
1009
1007
1008
1009
1011
1016
1018
1016
1014
1014
1016
1016
1016
1012
1011
1010
1011
1013
1014
1014
1011
1011
1009
1010
1005
997
989
987
983
982
978
974
968
967
968
969
966
965
964
962
965
969
967
966
965
964
968
969
969
968
967
966
967
970
967
968
967
967
970
973
972
970
969
969
971
975
972
974
972
971
973
974
977
975
976
975
979
979
978
977
977
975
976
974
967
966
962
962
975
994
1018
1040
1059
1078
1098
1113
1131
1150
1172
1200
1230
1254
1276
1289
1297
1298
1298
1297
1283
1260
1227
1197
1171
1151
1128
1100
1066
1032
999
972
945
916
891
873
862
857
851
848
847
847
851
854
853
856
859
865
876
880
885
889
889
893
899
906
911
912
915
916
922
926
927
924
924
920
922
925
924
922
920
918
920
921
918
919
916
916
915
917
915
916
912
911
912
914
914
912
910
910
912
914
912
910
908
910
911
917
915
915
913
914
918
922
922
923
923
925
929
934
934
935
935
939
943
949
951
953
955
956
964
966
971
973
974
973
979
984
988
987
989
993
997
999
999
1002
1000
1001
1009
1011
1012
1014
1012
1013
1014
1017
1018
1017
1016
1016
1015
1017
1018
1016
1015
1013
1014
1015
1011
1010
1008
1007
1008
1008
1009
1007
1004
1000
1002
1004
1003
1000
1000
999
1003
1005
1007
1006
1004
1004
1006
1006
1005
1005
1002
1004
1006
1011
1013
1014
1015
1015
1017
1016
1017
1016
1016
1010
1011
1011
1011
1009
1009
1008
1012
1015
1012
1014
1010
1008
1005
1000
994
987
980
976
974
973
971
968
963
962
964
968
965
963
961
960
963
966
964
963
963
962
963
965
966
962
961
963
966
967
965
965
965
964
967
971
969
966
968
967
968
971
971
971
969
968
971
972
972
972
971
971
971
974
974
972
971
968
963
963
960
962
968
981
1009
1038
1063
1085
1099
1114
1136
1165
1193
1223
1245
1270
1290
1303
1308
1307
1300
1291
1273
1244
1208
1178
1152
1123
1099
1067
1029
989
955
923
900
879
862
850
842
839
842
848
848
849
852
857
869
882
887
890
889
895
902
908
911
914
915
915
917
921
921
919
917
915
919
917
917
914
913
913
914
915
914
912
911
910
910
914
913
909
905
906
907
908
906
904
904
906
907
907
908
906
903
904
906
910
914
913
913
913
917
921
925
922
924
925
932
939
938
942
943
944
949
958
960
961
963
966
969
974
978
981
981
984
989
995
997
995
996
999
1005
1008
1010
1009
1009
1010
1012
1013
1013
1012
1009
1010
1010
1013
1012
1009
1008
1006
1008
1011
1008
1004
999
999
1001
1000
1000
998
996
995
997
1000
1000
1000
1002
1000
1001
1004
1003
1001
1000
999
998
1000
1002
1003
1003
1002
1006
1010
1010
1008
1007
1006
1006
1008
1006
1007
1004
1003
1005
1008
1008
1007
1008
1003
1002
999
992
986
978
975
971
972
965
963
960
960
962
962
959
958
958
957
958
960
962
960
958
958
959
962
959
958
960
961
961
963
963
961
957
961
962
965
963
962
961
961
963
969
966
967
968
967
969
971
971
969
970
970
971
973
967
969
966
961
960
961
965
972
996
1026
1058
1088
1108
1126
1141
1167
1199
1232
1260
1287
1306
1318
1324
1323
1313
1294
1262
1220
1185
1157
1128
1095
1060
1019
976
946
916
889
861
845
835
832
830
829
827
830
835
840
843
850
859
869
873
881
882
886
889
897
903
908
910
910
910
913
914
917
915
910
909
906
909
911
910
906
903
902
906
906
905
903
900
901
898
900
900
897
896
896
898
899
899
900
899
898
900
905
906
905
906
908
913
918
920
921
922
924
928
934
938
939
940
943
948
954
956
957
960
963
968
973
975
978
980
983
989
991
995
995
997
997
1001
1003
1006
1005
1005
1005
1005
1008
1007
1005
1002
1002
1003
1002
1002
1000
997
995
995
996
992
990
989
988
991
991
991
991
991
990
993
993
993
994
992
988
991
992
994
995
994
998
1001
1003
1002
1002
999
998
997
1000
1001
1000
998
996
1001
1002
1003
1003
996
990
982
979
973
969
966
958
957
955
955
953
952
950
952
955
957
953
952
953
952
954
956
955
953
952
955
957
956
956
956
954
955
957
957
957
955
954
956
958
960
961
959
960
960
965
964
962
963
963
965
967
966
965
961
957
954
957
958
967
983
1012
1042
1070
1095
1115
1130
1148
1173
1202
1229
1255
1277
1292
1303
1303
1297
1288
1273
1243
1206
1172
1142
1113
1083
1049
1012
975
939
906
878
853
841
835
827
827
828
828
832
834
836
842
849
858
868
874
879
879
884
888
894
899
903
903
904
904
907
909
909
907
905
905
905
905
904
902
899
899
900
900
901
899
896
894
897
897
898
896
895
894
895
895
894
893
893
894
896
899
901
897
898
900
907
908
913
912
913
916
922
929
929
936
936
940
943
949
949
954
953
960
962
969
970
971
975
976
983
987
989
990
990
991
997
997
999
999
996
998
1000
1002
1004
999
999
999
1000
1001
999
997
993
992
994
995
995
990
991
990
988
990
988
