932
936
935
932
933
931
932
932
934
934
931
928
929
930
928
928
925
926
925
926
925
921
921
920
920
924
922
919
918
914
921
924
924
920
920
922
923
929
928
929
929
930
932
937
940
940
942
944
951
957
957
961
961
963
970
975
979
980
981
982
987
992
994
995
998
995
1003
1005
1008
1009
1008
1011
1015
1019
1018
1019
1017
1017
1020
1022
1020
1019
1019
1016
1019
1020
1020
1018
1018
1016
1017
1019
1018
1019
1016
1019
1020
1022
1021
1018
1017
1017
1019
1019
1016
1013
1012
1011
1018
1021
1024
1022
1021
1019
1021
1022
1020
1017
1015
1014
1015
1017
1021
1018
1018
1020
1017
1018
1013
1005
998
992
991
988
983
977
974
972
971
972
971
970
969
967
971
972
970
970
968
968
970
973
974
970
969
971
971
975
974
972
972
972
975
978
978
978
975
976
980
984
982
978
980
979
983
985
983
983
980
978
983
985
985
979
982
981
981
978
973
970
965
968
978
994
1016
1036
1058
1080
1101
1119
1136
1158
1183
1210
1239
1263
1283
1292
1296
1300
1300
1296
1284
1264
1233
1200
1179
1161
1139
1112
1084
1051
1013
985
956
934
909
891
879
871
868
863
861
862
869
869
869
871
874
881
892
899
904
904
906
910
917
923
929
932
932
935
938
941
939
939
939
937
938
943
938
937
932
931
933
934
933
932
929
927
929
932
927
930
925
924
925
927
925
925
923
924
924
928
926
927
925
926
929
931
931
932
932
931
934
939
938
940
940
941
946
949
951
953
954
954
960
965
966
965
970
973
977
980
984
985
988
989
994
999
1000
1001
1002
1002
1009
1014
1014
1016
1017
1018
1021
1024
1025
1026
1025
1024
1027
1029
1029
1027
1026
1024
1024
1028
1024
1021
1020
1019
1019
1021
1020
1019
1018
1016
1019
1023
1020
1018
1017
1018
1019
1021
1020
1016
1015
1016
1020
1024
1028
1026
1027
1023
1025
1028
1026
1022
1019
1020
1018
1022
1020
1020
1018
1016
1021
1021
1017
1012
1004
1001
996
994
988
983
977
976
976
975
974
972
971
971
970
975
975
973
972
973
975
977
976
975
974
974
976
980
977
977
974
974
974
976
978
976
974
973
975
979
979
977
976
975
977
983
982
980
980
978
981
985
984
983
980
980
979
981
976
971
971
974
990
1012
1036
1061
1080
1101
1117
1137
1160
1187
1210
1233
1261
1281
1293
1300
1302
1301
1298
1290
1265
1228
1190
1164
1144
1121
1092
1060
1020
980
953
929
906
884
869
860
858
858
857
856
859
859
862
867
873
878
884
891
898
901
903
906
907
914
920
924
929
931
932
930
933
933
931
930
928
927
927
928
925
923
921
923
923
923
923
922
920
918
917
920
920
917
919
915
915
919
918
913
913
913
916
917
918
917
917
916
918
921
921
921
922
923
925
930
931
931
933
937
941
944
947
946
948
951
957
961
962
966
969
971
976
983
981
983
984
987
992
998
999
997
999
1000
1002
1005
1006
1005
1007
1006
1010
1013
1011
1010
1009
1009
1011
1012
1010
1009
1004
1004
1004
1007
1003
1004
1000
999
1002
1007
1006
1008
1006
1007
1007
1006
1008
1004
1002
1000
999
1002
1001
1003
1004
1005
1009
1009
1007
1007
1003
1001
1002
1002
1002
1000
999
998
999
1003
1001
1000
996
990
986
982
977
971
965
961
960
964
961
957
955
951
956
959
956
957
954
955
957
959
956
953
953
952
954
957
958
956
954
954
957
960
959
959
959
956
959
962
965
964
961
962
965
967
968
968
965
963
967
967
964
960
953
951
954
966
986
1014
1040
1070
1097
1114
1130
1156
1184
1210
1239
1263
1277
1284
1284
1280
1273
1258
1227
1188
1154
1128
1105
1079
1046
1005
966
932
907
884
860
847
836
834
835
838
840
842
838
842
851
860
868
872
875
877
883
891
896
898
901
904
906
911
912
913
911
910
912
911
911
908
908
908
909
910
907
904
902
899
901
903
903
901
900
897
899
901
902
901
896
897
898
898
900
901
901
902
905
908
910
908
910
910
914
917
921
923
924
926
929
935
938
937
941
943
943
948
951
953
954
957
961
967
969
970
973
975
978
984
985
986
984
985
990
993
993
991
993
992
995
997
994
993
994
995
995
997
994
992
990
989
989
990
989
984
985
983
985
987
988
987
987
984
987
988
987
984
980
979
982
986
990
990
993
991
993
995
996
994
991
991
991
993
993
991
993
992
995
999
995
991
984
979
973
970
965
959
954
947
946
948
949
947
944
941
943
946
945
944
944
941
946
948
948
945
947
946
952
952
951
952
950
951
953
954
954
952
953
952
954
954
955
954
952
951
956
958
959
957
957
955
961
963
959
957
952
945
944
952
961
981
1004
1031
1058
1084
1101
1115
1134
1160
1188
1213
1233
1248
1255
1253
1251
1246
1229
1200
1164
1132
1111
1089
1063
1027
989
954
928
903
879
864
850
846
845
848
851
852
850
854
861
870
879
882
885
890
896
901
905
910
912
912
917
920
921
921
919
918
918
921
919
916
915
913
914
917
914
914
910
908
908
911
912
908
906
908
909
912
913
911
907
910
912
915
914
915
915
913
918
919
923
919
920
921
925
928
932
934
935
937
945
948
951
952
954
956
964
968
967
970
970
974
977
984
984
986
987
991
996
1000
1003
1002
1004
1003
1007
1010
1008
1006
1006
1005
1008
1008
1008
1005
1004
1003
1005
1006
1004
1004
1001
998
1000
1003
1002
1001
1001
999
1003
1006
1007
1005
1000
1003
1007
1007
1007
1005
1006
1007
1013
1015
1015
1015
1011
1011
1012
1012
1009
1004
1003
1005
1007
1009
1009
1007
1008
1004
1001
999
993
987
981
975
972
971
969
964
962
959
959
962
961
961
960
961
963
965
963
962
962
962
963
965
967
965
962
961
961
967
968
963
963
964
966
965
966
967
966
965
967
968
969
966
967
965
969
970
971
971
972
969
974
975
974
970
963
960
959
961
968
985
1006
1030
1057
1080
1093
1106
1124
1153
1184
1209
1231
1248
1264
1272
1274
1276
1270
1260
1240
1205
1178
1155
1134
1109
1082
1049
1017
984
952
926
900
882
869
862
858
853
855
856
858
858
860
860
868
874
882
889
893
894
897
902
909
915
919
919
917
919
921
926
926
925
922
923
923
924
923
923
921
920
921
922
920
919
916
916
918
920
919
916
914
914
914
916
914
914
908
911
914
916
915
914
914
913
915
918
921
922
921
921
926
931
931
928
932
935
940
944
945
950
952
955
961
965
968
969
970
971
976
983
983
984
985
986
992
996
998
999
999
998
1003
1006
1008
1007
1004
1007
1010
1011
1009
1009
1008
1010
1010
1012
1010
1008
1008
1006
1006
1008
1007
1005
1003
1002
1004
1004
1006
1002
1004
1003
1005
1009
1009
1007
1004
1003
1003
1006
1004
1002
999
1003
1004
1008
1009
1009
1009
1008
1010
1010
1008
1005
1005
1003
1003
1006
1002
1006
1005
1004
1007
1007
1005
1002
994
988
987
983
977
973
966
965
962
962
961
959
956
955
957
960
957
956
956
952
956
961
960
957
957
955
958
959
961
961
959
957
961
963
961
960
958
960
961
963
965
965
964
963
966
968
968
968
966
966
967
970
973
969
969
968
970
970
970
967
962
958
954
955
954
957
966
983
1007
1034
1053
1073
1085
1098
1119
1145
1175
1198
1221
1245
1266
1278
1283
1281
1282
1276
1268
1248
1217
1185
1160
1137
1117
1092
1061
1027
989
953
928
904
880
863
850
841
843
844
843
843
845
843
848
854
864
869
873
879
883
889
891
893
897
902
907
914
917
917
916
916
921
921
920
920
918
916
917
919
918
915
912
909
911
910
909
907
905
903
904
906
906
903
903
901
902
905
905
903
903
904
906
906
909
907
906
906
912
915
917
918
918
920
925
930
931
932
934
935
941
946
947
947
949
951
957
962
963
966
966
968
973
979
978
982
983
985
990
994
997
995
998
997
999
1001
1004
1004
1003
1003
1003
1006
1006
1005
1003
1001
1002
1004
1005
1002
999
996
1000
996
996
994
993
993
996
1001
1000
1000
999
996
998
999
997
997
994
994
997
1000
1001
1000
1004
1002
1004
1003
1004
1005
1000
996
997
999
1000
999
999
998
1000
1002
1001
998
992
984
980
976
971
967
962
956
954
955
952
951
946
946
945
948
947
948
945
947
948
950
948
948
949
949
950
952
953
952
954
953
954
956
957
955
951
953
955
957
956
955
953
951
954
957
957
957
955
955
956
959
959
960
957
958
960
957
958
954
948
944
944
949
952
962
981
1009
1038
1061
1081
1094
1111
1134
1163
1193
1218
1240
1259
1274
1286
1292
1291
1288
1279
1261
1234
1199
1169
1140
1113
1088
1058
1026
987
952
922
896
873
857
845
836
832
830
834
836
838
838
839
840
852
860
868
872
876
879
883
889
893
897
900
902
906
910
911
911
909
908
909
910
909
907
905
903
905
906
905
903
900
899
898
900
899
897
895
896
895
897
897
895
894
891
893
896
896
895
895
894
896
899
900
899
901
898
902
903
906
906
904
906
909
915
916
917
918
920
924
929
934
936
937
939
943
949
950
954
952
956
961
964
968
969
967
972
976
981
984
984
987
987
992
995
994
994
994
995
996
1000
1001
999
996
997
995
997
996
996
992
991
993
993
990
989
985
985
986
987
986
984
984
984
988
989
990
988
988
987
990
991
990
987
987
988
993
994
997
995
996
997
996
998
993
992
989
990
990
990
990
988
990
989
990
991
985
983
976
967
964
961
957
952
947
942
945
948
947
944
941
942
943
944
948
945
947
947
947
950
948
946
944
945
946
946
946
945
946
944
945
946
949
948
947
945
947
947
949
951
949
949
950
951
954
952
949
951
953
956
955
954
950
947
946
945
945
953
967
993
1020
1048
1071
1090
1102
1124
1156
1187
1214
1237
1257
1277
1289
1298
1299
1293
1282
1260
1231
1197
1166
1134
1104
1073
1040
1000
961
926
900
875
854
840
830
825
822
822
823
829
832
831
828
832
844
853
859
862
864
868
872
879
883
888
888
890
894
897
898
897
897
895
896
897
896
894
890
893
893
894
893
892
889
889
888
893
889
888
888
886
887
888
887
885
883
882
885
885
884
883
884
882
886
886
887
886
885
886
891
893
893
895
896
896
899
904
908
908
907
911
917
920
923
925
927
928
936
940
943
942
944
948
954
959
960
961
962
964
970
970
975
973
972
978
980
982
982
985
984
986
984
987
987
986
985
984
984
985
984
982
979
978
980
982
981
978
974
975
976
977
976
979
978
979
981
982
982
981
979
978
978
980
979
976
974
975
979
983
983
985
983
979
982
982
981
977
975
976
979
983
981
981
980
980
980
979
975
969
962
956
955
955
951
946
941
938
940
940
938
937
935
931
934
934
935
936
930
931
934
935
934
935
935
934
935
937
937
935
933
935
938
940
938
936
935
934
933
938
938
938
939
940
941
944
945
945
943
944
945
949
949
948
944
943
945
945
939
938
938
942
958
982
1007
1033
1057
1075
1094
1114
1132
1158
1181
1201
1226
1248
1261
1264
1265
1260
1256
1246
1224
1191
1159
1131
1108
1089
1061
1030
995
954
926
904
881
856
841
828
824
822
820
821
821
823
825
828
834
839
845
851
858
864
869
872
870
877
881
885
890
892
891
894
894
899
898
895
894
895
896
897
897
895
893
890
893
891
892
891
887
886
887
889
888
887
885
882
886
886
885
885
884
883
883
888
889
888
888
888
887
894
894
894
892
895
899
904
907
907
908
910
916
920
919
924
923
927
932
934
938
939
940
940
946
949
951
951
951
956
961
966
968
970
970
971
975
978
980
977
975
978
981
985
986
985
982
985
986
990
988
986
985
983
985
987
985
984
981
982
979
980
978
976
973
973
975
976
976
975
973
977
976
979
978
977
975
977
977
977
976
978
979
981
987
989
988
987
985
985
986
987
986
984
985
984
985
987
988
990
987
986
983
978
970
963
959
954
953
950
945
944
941
941
940
942
942
940
937
938
941
943
943
941
941
941
944
942
945
944
943
944
946
948
951
950
949
947
949
951
949
947
947
946
948
952
951
949
950
950
951
954
956
954
952
951
946
946
943
943
945
954
976
1005
1031
1056
1073
1088
1105
1131
1157
1184
1203
1225
1246
1256
1261
1256
1254
1247
1238
1210
1178
1146
1120
1100
1076
1048
1005
966
935
909
887
867
854
842
839
838
840
843
844
840
845
850
859
871
876
881
884
886
893
898
903
907
910
910
913
915
915
911
911
909
908
912
911
911
907
907
907
909
909
907
904
904
905
905
906
904
902
901
902
902
903
902
901
899
902
904
905
905
902
903
905
908
911
908
909
906
910
913
919
918
920
920
924
929
933
935
936
938
941
947
949
952
952
956
961
964
969
968
972
973
975
979
983
986
984
988
990
996
997
998
993
996
1001
999
1001
1000
998
999
1000
1002
1002
998
997
996
997
998
998
994
993
992
993
994
991
989
986
986
989
990
992
991
992
989
991
996
996
995
993
994
996
999
998
998
997
1001
1002
1005
1005
1005
1002
1000
1001
999
995
996
996
995
998
999
1000
999
997
993
992
990
981
978
969
964
962
961
956
952
951
948
952
953
954
949
951
950
954
953
956
953
954
952
954
955
953
953
953
950
954
956
956
956
954
954
957
959
960
957
958
956
960
962
961
962
958
958
961
964
964
966
965
963
965
967
965
959
954
950
954
962
977
999
1023
1050
1074
1090
1106
1123
1147
1177
1206
1234
1257
1273
1282
1283
1284
1282
1273
1248
1211
1177
1147
1119
1091
1059
1019
977
944
917
892
874
857
849
846
843
845
841
845
845
848
855
862
871
877
880
885
889
894
899
900
905
908
914
914
914
913
914
916
918
917
915
913
913
911
913
914
912
911
908
910
912
910
909
907
906
906
909
908
907
905
903
903
902
905
902
902
901
904
907
907
907
907
907
911
914
917
917
918
919
926
930
931
934
936
937
943
946
951
953
954
958
965
968
971
971
972
973
980
983
984
987
987
987
993
995
998
998
997
997
1001
1006
1002
1003
1006
1004
1007
1007
1004
1007
1002
1002
1004
1002
1005
1003
1000
999
1000
1000
1000
998
996
995
997
998
997
997
995
997
999
1001
1001
1000
999
996
1001
1000
1000
999
998
998
1001
1004
1006
1007
1005
1002
1006
1004
1005
1003
999
997
1000
1001
1005
1004
1001
1003
1006
1005
1003
999
993
985
983
979
976
971
966
960
958
958
956
957
952
951
953
954
955
954
952
951
952
955
952
953
952
953
955
955
958
957
955
955
957
959
960
959
958
958
962
964
964
964
962
962
965
965
966
965
965
963
965
969
966
967
964
963
959
956
953
954
959
972
1002
1032
1060
1082
1098
1113
1140
1171
1199
1229
1252
1273
1292
1300
1302
1298
1284
1263
1230
1193
1162
1131
1101
1066
1023
979
941
906
881
858
847
841
840
836
835
838
840
843
848
855
863
871
879
885
891
892
896
900
909
913
918
918
915
917
920
920
919
918
914
911
912
912
912
910
908
904
905
909
907
906
903
901
904
903
904
901
901
900
901
902
901
904
903
904
908
909
913
910
911
914
917
921
922
924
925
927
932
935
938
939
939
942
947
951
954
958
961
962
968
971
973
974
977
980
985
988
991
991
993
994
1000
1004
1006
1005
1006
1005
1009
1010
1008
1008
1007
1007
1008
1008
1007
1004
1000
999
999
1001
999
998
995
993
995
995
992
993
992
992
993
999
999
998
995
995
996
1000
996
995
994
995
997
1003
1004
1005
1004
1003
1006
1005
1005
1004
999
997
998
1003
999
1000
998
998
1000
1002
998
991
985
977
974
969
966
962
956
952
954
954
952
951
950
947
951
952
954
951
951
954
954
957
957
957
955
954
958
958
959
956
956
955
954
959
960
957
955
955
955
960
960
960
957
958
959
962
962
961
961
960
962
967
966
964
960
958
956
956
951
952
954
963
992
1024
1052
1076
1093
1110
1134
1162
1192
1221
1249
1273
1293
1303
1303
1302
1292
1275
1246
1212
1177
1145
1113
1078
1043
1004
960
924
896
873
855
844
838
834
833
834
838
840
841
845
856
861
869
877
880
884
884
891
897
903
903
905
905
905
910
909
909
908
906
903
904
905
905
906
901
899
901
900
900
900
900
896
898
899
895
895
894
894
897
899
896
895
892
891
893
896
898
897
897
899
902
904
908
911
910
914
917
920
926
928
930
931
936
943
944
948
951
951
957
963
967
970
972
972
979
983
984
987
985
985
990
993
994
993
992
993
995
997
998
999
994
993
997
995
995
994
992
989
990
991
990
988
985
983
986
988
989
985
984
987
989
993
990
991
990
986
987
987
989
989
987
987
993
996
998
997
994
992
994
991
992
989
990
993
993
995
994
994
990
988
982
979
972
968
963
956
956
951
950
948
947
944
945
948
946
945
943
943
946
946
947
946
947
947
948
949
947
949
947
947
947
948
951
948
949
949
949
951
950
951
951
953
957
958
959
958
957
956
960
962
961
962
960
958
956
957
956
952
947
946
953
969
997
1022
1051
1077
1101
1121
1142
1166
1196
1222
1253
1277
1296
1304
1302
1299
1292
1276
1245
1204
1170
1137
1110
1081
1045
1003
958
922
894
872
851
837
827
823
823
825
829
831
829
828
834
842
852
858
863
869
875
880
884
890
891
897
901
906
908
907
908
905
906
908
905
906
904
903
904
905
906
902
900
896
896
898
898
894
893
890
893
893
894
892
889
887
891
894
892
894
890
892
894
897
899
899
898
898
902
905
907
908
909
910
914
918
921
926
926
926
932
937
939
941
943
944
948
952
954
955
958
962
967
971
973
974
976
980
983
987
989
988
990
986
