1020
1020
1019
1026
1028
1031
1028
1029
1029
1032
1033
1033
1034
1027
1030
1031
1033
1033
1029
1028
1026
1026
1029
1026
1026
1021
1020
1022
1022
1023
1021
1019
1019
1025
1025
1027
1025
1024
1023
1026
1027
1026
1023
1019
1019
1022
1021
1025
1026
1025
1026
1029
1030
1029
1027
1024
1026
1027
1026
1025
1024
1022
1024
1025
1028
1028
1030
1026
1026
1023
1018
1013
1005
1001
998
999
994
988
986
981
982
981
982
979
978
975
976
976
978
979
976
974
975
976
976
981
977
975
977
980
981
982
981
977
978
980
983
983
983
979
980
983
987
988
985
984
985
988
989
992
989
984
986
989
991
990
988
986
985
987
987
982
978
973
971
973
981
993
1015
1038
1066
1094
1118
1134
1149
1171
1199
1230
1258
1283
1305
1323
1335
1343
1345
1342
1331
1313
1278
1241
1212
1183
1154
1122
1085
1048
1007
969
937
907
881
866
856
851
848
846
847
851
851
851
856
862
874
884
894
898
901
901
907
916
923
927
929
930
929
933
936
935
932
931
929
932
930
927
927
923
926
927
924
925
922
918
920
921
922
920
917
914
916
917
919
917
917
917
915
915
920
920
918
917
916
919
921
924
923
920
923
927
931
934
934
933
937
940
944
950
951
952
955
959
964
966
967
968
974
979
984
986
988
988
993
999
1003
1007
1008
1007
1009
1014
1017
1017
1019
1018
1021
1024
1026
1026
1022
1019
1025
1025
1029
1028
1024
1022
1023
1022
1023
1020
1017
1013
1014
1018
1017
1015
1015
1011
1013
1016
1017
1019
1016
1017
1015
1017
1018
1017
1015
1013
1012
1013
1010
1011
1009
1010
1013
1018
1021
1020
1018
1017
1018
1019
1020
1018
1015
1014
1016
1018
1019
1020
1019
1020
1020
1019
1017
1012
1005
999
993
991
988
983
977
974
971
974
973
971
969
966
967
969
970
968
968
966
970
969
970
972
971
969
968
971
975
975
976
972
973
975
978
978
978
978
977
980
984
984
981
979
980
982
984
984
984
980
980
982
983
984
983
980
983
982
984
980
975
972
973
977
992
1013
1039
1066
1098
1123
1145
1162
1182
1209
1238
1267
1295
1318
1331
1335
1335
1334
1331
1318
1297
1258
1224
1190
1164
1137
1107
1072
1031
993
962
928
900
877
862
850
846
843
842
841
847
849
852
855
861
870
877
885
890
897
897
901
904
913
920
922
924
923
925
927
928
926
926
924
923
925
925
925
921
919
919
919
922
921
920
915
918
916
917
918
916
914
915
919
919
918
917
914
915
918
920
921
920
918
919
921
925
925
927
927
929
933
938
938
939
940
944
951
953
957
958
960
967
970
976
980
981
981
986
991
996
999
1000
1001
1006
1012
1013
1016
1017
1014
1015
1019
1022
1021
1021
1021
1018
1023
1023
1023
1019
1016
1015
1017
1019
1020
1015
1012
1010
1014
1013
1012
1015
1009
1010
1014
1017
1016
1017
1011
1013
1013
1013
1011
1008
1005
1006
1008
1011
1013
1015
1015
1018
1020
1020
1019
1018
1017
1015
1014
1014
1015
1015
1015
1020
1022
1023
1022
1017
1007
1004
998
994
991
984
977
971
969
973
971
969
966
967
967
969
970
968
967
966
971
972
972
970
970
971
974
975
974
974
973
975
976
977
977
976
976
977
980
980
981
981
978
979
980
981
982
983
981
982
984
985
987
984
980
982
976
974
973
976
983
1003
1037
1067
1095
1116
1133
1147
1172
1199
1223
1248
1266
1279
1291
1290
1286
1280
1268
1249
1219
1189
1162
1140
1114
1089
1057
1023
990
956
929
903
886
872
863
856
855
857
861
864
863
867
871
881
889
898
901
905
905
910
918
925
928
929
928
932
933
936
935
934
931
932
934
936
936
933
928
932
932
933
932
929
926
927
930
931
931
927
926
929
928
929
930
930
925
928
928
927
931
930
926
929
932
935
937
936
936
939
944
949
951
952
950
955
960
963
967
970
969
975
981
983
991
992
993
996
1002
1006
1007
1009
1008
1011
1016
1020
1022
1021
1021
1021
1026
1029
1029
1028
1030
1030
1031
1035
1033
1031
1026
1028
1031
1031
1031
1029
1025
1026
1027
1027
1026
1023
1022
1021
1023
1023
1024
1023
1024
1023
1026
1026
1027
1024
1022
1023
1027
1029
1029
1031
1031
1034
1036
1037
1039
1035
1034
1034
1033
1035
1036
1035
1034
1036
1038
1040
1038
1034
1024
1018
1012
1009
1003
997
990
984
984
987
986
986
980
978
983
984
985
986
981
985
985
988
987
987
985
986
989
992
994
989
991
992
993
996
994
991
990
989
992
994
995
993
991
992
995
997
999
997
995
997
998
998
1000
996
992
988
984
984
988
999
1020
1051
1081
1108
1128
1142
1163
1194
1227
1258
1284
1302
1315
1317
1321
1316
1308
1287
1250
1214
1186
1166
1138
1105
1064
1024
990
961
935
910
889
877
874
873
874
871
871
873
876
882
891
896
902
909
912
917
921
927
929
934
940
943
946
944
942
944
944
947
948
945
941
941
943
944
943
940
938
939
940
941
939
938
936
934
936
936
935
933
928
930
932
935
935
932
932
929
933
934
936
936
935
936
940
944
947
946
947
950
956
961
963
965
964
968
975
981
984
984
985
989
992
997
1002
1000
999
1003
1007
1012
1014
1016
1017
1020
1025
1027
1030
1030
1028
1031
1034
1034
1037
1036
1034
1034
1036
1037
1038
1036
1037
1036
1036
1038
1038
1034
1031
1031
1031
1031
1030
1027
1023
1019
1022
1025
1024
1023
1022
1025
1027
1027
1028
1027
1026
1026
1026
1030
1029
1028
1030
1031
1035
1039
1040
1037
1038
1039
1037
1037
1036
1033
1031
1034
1036
1036
1037
1037
1034
1030
1028
1025
1022
1014
1004
1002
999
997
992
987
985
984
985
986
986
984
983
983
985
986
988
987
987
988
990
993
992
992
987
991
991
994
992
991
988
988
989
992
992
990
990
989
992
992
993
992
991
992
994
994
995
996
995
996
998
1002
1001
999
995
995
993
990
989
988
987
1000
1018
1049
1072
1098
1117
1136
1153
1178
1209
1236
1262
1291
1313
1331
1339
1337
1334
1325
1308
1281
1242
1209
1180
1154
1131
1103
1066
1028
993
963
941
917
894
877
867
866
867
865
866
867
864
870
878
887
896
902
904
909
912
919
926
929
931
935
939
946
946
944
939
941
946
945
946
941
941
939
943
944
942
940
936
937
937
940
938
936
932
934
932
933
929
930
928
929
930
931
930
931
929
929
932
933
937
933
933
936
939
942
944
944
944
947
950
957
957
959
958
962
965
970
973
973
975
980
981
984
987
989
989
992
998
1001
1004
1007
1006
1011
1013
1017
1017
1018
1020
1020
1025
1029
1031
1032
1030
1033
1035
1040
1038
1039
1037
1039
1040
1040
1042
1040
1038
1037
1036
1038
1038
1034
1027
1029
1027
1029
1029
1025
1021
1023
1022
1021
1023
1022
1019
1021
1027
1031
1029
1030
1026
1026
1027
1028
1029
1027
1028
1027
1032
1035
1038
1038
1038
1037
1038
1039
1037
1034
1030
1028
1031
1031
1034
1032
1032
1036
1034
1035
1032
1029
1021
1016
1013
1006
1004
995
991
990
987
987
988
986
984
985
986
989
988
987
985
985
987
988
988
986
984
986
988
990
987
987
985
987
990
991
991
988
988
989
991
994
993
992
988
988
993
995
995
995
995
995
998
998
1002
999
999
995
997
995
993
985
978
978
984
997
1022
1051
1078
1106
1129
1147
1171
1197
1225
1257
1285
1313
1335
1343
1344
1342
1337
1325
1296
1260
1223
1196
1171
1147
1114
1074
1031
990
964
937
912
885
868
860
860
858
860
861
859
861
866
874
883
892
898
901
904
913
916
922
925
928
934
939
941
940
941
942
942
944
942
941
937
938
937
938
937
933
932
932
930
931
930
925
924
924
924
924
923
922
921
922
921
926
927
923
921
923
922
927
930
931
929
930
936
940
939
940
940
942
943
951
951
953
953
957
957
963
966
966
969
971
977
981
984
985
985
989
992
997
999
1001
1002
1004
1007
1011
1017
1018
1018
1021
1025
1030
1029
1030
1029
1030
1033
1035
1035
1034
1031
1029
1030
1031
1031
1029
1025
1024
1024
1025
1024
1021
1019
1020
1019
1019
1016
1013
1010
1012
1012
1012
1015
1014
1015
1017
1019
1022
1022
1021
1020
1018
1021
1022
1025
1020
1021
1023
1024
1026
1026
1027
1024
1022
1027
1029
1027
1024
1021
1023
1027
1029
1026
1027
1024
1026
1025
1026
1022
1016
1009
1002
1002
999
996
990
984
983
981
983
981
977
976
976
977
979
977
977
974
975
975
979
979
977
976
978
978
980
981
979
976
975
979
982
980
979
978
979
981
984
984
983
982
984
986
988
986
988
987
986
988
990
991
990
988
987
989
989
989
987
982
977
976
978
978
987
1003
1031
1063
1091
1114
1136
1151
1169
1192
1224
1250
1277
1302
1321
1337
1341
1338
1335
1323
1298
1262
1223
1188
1155
1123
1089
1048
1006
967
936
907
880
862
855
851
846
844
845
849
852
855
858
865
874
886
894
897
901
904
909
916
921
925
925
925
928
931
935
932
927
926
925
927
925
925
925
921
919
921
922
921
920
917
915
915
919
917
917
915
912
917
916
919
916
917
917
919
919
923
921
922
922
924
928
927
927
927
928
933
938
939
942
943
943
949
955
959
958
959
961
970
975
977
979
980
984
989
997
998
999
1001
1005
1009
1013
1013
1018
1016
1018
1020
1022
1022
1017
1018
1020
1020
1024
1023
1021
1019
1017
1019
1021
1019
1016
1014
1013
1013
1016
1012
1012
1009
1007
1011
1010
1010
1010
1007
1007
1005
1009
1009
1009
1009
1007
1013
1013
1012
1010
1005
1008
1007
1010
1010
1009
1010
1011
1016
1021
1020
1020
1019
1019
1022
1023
1020
1018
1014
1016
1020
1021
1021
1021
1020
1022
1023
1023
1018
1014
1006
1001
998
997
992
985
979
975
974
975
975
974
971
966
968
972
972
972
970
968
972
973
972
971
973
973
974
976
975
974
973
972
976
978
977
978
977
977
982
980
983
981
979
981
980
983
982
981
980
981
984
984
983
984
982
982
985
987
986
982
980
975
974
977
980
986
1002
1027
1057
1087
1109
1132
1142
1160
1183
1209
1230
1253
1271
1285
1296
1296
1290
1284
1273
1252
1222
1193
1164
1138
1116
1089
1058
1022
983
950
923
901
882
873
864
860
855
858
860
865
865
866
873
880
891
900
902
905
905
907
917
922
926
929
929
932
933
936
936
936
932
935
937
937
935
935
931
928
930
932
929
930
927
928
930
931
931
928
926
927
928
930
928
925
923
923
925
926
926
927
927
927
928
934
934
932
933
936
941
944
946
949
947
951
955
960
965
965
967
971
978
980
983
987
988
989
996
998
1000
1002
1003
1004
1011
1012
1015
1016
1015
1017
1021
1023
1026
1025
1026
1025
1026
1029
1028
1027
1026
1028
1029
1031
1031
1028
1027
1027
1028
1029
1028
1027
1025
1022
1023
1026
1023
1021
1017
1018
1020
1017
1017
1014
1013
1010
1013
1017
1018
1018
1017
1018
1019
1024
1022
1022
1020
1022
1024
1029
1031
1032
1029
1030
1033
1037
1037
1037
1035
1032
1032
1034
1033
1035
1034
1035
1037
1039
1036
1034
1031
1028
1024
1020
1015
1007
1003
998
996
993
991
987
987
985
986
987
986
982
982
981
984
984
984
985
984
984
988
989
986
989
988
987
990
992
991
990
989
988
991
990
990
988
988
987
990
992
995
990
989
988
990
993
996
991
992
992
995
997
995
995
997
997
997
1001
999
996
994
988
987
987
990
993
1008
1029
1061
1090
1110
1128
1142
1164
1194
1223
1248
1271
1291
1306
1313
1315
1315
1306
1294
1270
1236
1209
1182
1157
1133
1105
1070
1038
1001
972
945
922
902
891
884
879
875
874
878
879
879
879
882
890
901
907
915
917
918
923
931
939
942
942
944
945
947
951
950
948
946
947
950
948
948
947
945
944
945
947
945
943
940
939
941
941
940
938
934
932
937
937
937
935
936
933
938
939
939
939
938
937
944
948
949
950
950
952
957
962
965
963
967
969
975
979
983
980
982
986
989
995
995
997
998
1001
1008
1009
1014
1016
1020
1019
1023
1028
1030
1031
1030
1034
1036
1039
1040
1037
1041
1039
1046
1048
1049
1045
1042
1042
1042
1045
1044
1043
1038
1038
1038
1039
1037
1035
1034
1030
1033
1029
1031
1029
1025
1024
1022
1026
1025
1023
1021
1022
1025
1030
1031
1032
1030
1028
1033
1033
1036
1033
1035
1037
1041
1043
1043
1044
1042
1040
1041
1044
1043
1039
1035
1033
1036
1040
1041
1039
1041
1038
1040
1042
1038
1034
1027
1020
1018
1015
1011
1005
1001
997
996
996
996
995
993
991
993
994
996
994
992
992
995
997
994
996
993
992
992
996
994
993
991
992
994
994
998
996
994
995
996
999
999
998
997
997
998
1000
1001
999
1001
999
1001
1006
1006
1007
1004
1005
1007
1009
1007
1005
1004
999
995
992
989
987
990
1003
1024
1052
1077
1102
1124
1139
1157
1176
1201
1225
1251
1272
1301
1322
1333
1336
1336
1333
1327
1316
1287
1254
1221
1194
1170
1143
1116
1077
1034
996
965
942
914
892
880
871
869
869
868
870
871
869
877
883
891
899
905
910
917
921
924
928
934
938
941
947
951
951
953
952
953
956
955
949
951
950
950
951
948
947
942
940
943
945
943
941
938
936
937
941
939
938
933
935
937
937
938
938
937
937
940
944
944
944
944
945
947
951
952
952
954
954
959
962
963
966
968
969
975
978
983
985
987
989
992
998
1001
1001
1006
1007
1010
1020
1021
1021
1021
1025
1028
1033
1035
1037
1036
1041
1042
1044
1045
1045
1044
1042
1042
1045
1044
1043
1043
1037
1041
1041
1041
1037
1034
1032
1032
1034
1033
1029
1029
1028
1028
1029
1027
1024
1023
1024
1024
1029
1028
1030
1029
1029
1033
1035
1031
1030
1028
1028
1033
1035
1035
1034
1036
1037
1041
1042
1043
1043
1039
1036
1034
1036
1039
1038
1035
1040
1039
1043
1043
1041
1036
1033
1031
1027
1023
1018
1011
1003
1004
1004
995
996
993
990
992
991
990
988
987
990
991
990
990
990
987
988
990
993
993
992
993
990
993
993
994
993
990
992
997
999
999
998
995
997
999
1000
1002
1000
1000
1000
999
999
1001
1002
999
999
1002
1004
1004
999
994
994
991
990
988
986
990
1004
1030
1057
1085
1112
1131
1148
1171
1202
1230
1260
1285
1310
1331
1342
1345
1346
1343
1332
1319
1292
1255
1220
1188
1157
1129
1096
1050
1007
971
940
916
894
878
866
862
861
865
868
871
870
870
873
882
894
904
907
911
914
921
926
931
934
938
943
945
949
949
947
947
945
946
947
944
943
940
938
940
941
941
939
937
936
939
938
937
935
932
933
934
934
936
935
932
931
935
936
935
934
934
931
934
937
938
938
939
942
944
948
950
950
952
955
960
965
969
971
971
974
979
986
987
992
993
994
1001
1006
1010
1012
1012
1015
1018
1023
1026
1027
1026
1025
1030
1035
1037
1033
1034
1033
1036
1037
1038
1037
1034
1032
1033
1032
1031
1030
1026
1026
1028
1028
1030
1028
1024
1022
1023
1024
1023
1023
1019
1018
1020
1022
1023
1023
1020
1019
1019
1021
1025
1025
1025
1025
1029
1028
1033
1033
1034
1033
1032
1035
1030
1032
1029
1028
1032
1035
1038
1036
1031
1029
1027
1024
1018
1009
1002
998
993
991
987
983
979
980
980
982
981
981
980
978
981
984
984
982
981
983
984
987
988
990
987
988
989
991
993
990
991
989
990
990
990
990
988
987
992
992
990
990
991
989
993
996
996
993
992
990
994
994
992
989
985
983
986
996
1015
1041
1070
1101
1129
1151
1169
1188
1217
1244
1273
1302
1323
1335
1337
1339
1336
1330
1306
1271
1230
1195
1166
1138
1111
1074
1029
990
955
929
905
883
868
862
860
863
865
865
867
867
871
880
889
896
898
903
910
913
916
923
924
930
934
937
939
935
936
937
938
938
940
939
936
935
934
937
937
935
934
932
932
933
931
931
930
926
928
929
929
927
924
923
924
926
924
922
923
921
925
929
930
929
929
928
932
936
937
938
939
942
942
948
952
954
955
956
965
967
973
974
976
978
984
990
992
994
995
994
999
1003
1006
1007
1008
1008
1013
1021
1021
1022
1019
1016
1023
1027
1027
1026
1024
1024
1023
1028
1025
1023
1023
1023
1023
1024
1022
1021
1016
1014
1014
1015
1015
1011
1009
1007
1008
1008
1007
1004
1003
1005
1008
1013
1013
1012
1011
1009
1012
1012
1010
1012
1014
1013
1017
1023
1024
1023
1025
1023
1024
1025
1023
1023
1021
1020
1022
1024
1022
1020
1020
1017
1013
1010
1004
997
990
985
983
982
978
976
975
973
973
976
976
974
974
975
978
979
981
980
978
976
978
980
980
978
975
975
980
980
982
980
975
977
980
981
983
983
981
979
981
985
985
985
986
984
984
989
992
991
991
987
989
986
984
980
979
984
1003
1033
1062
1088
1112
1130
1146
1165
1191
1217
1239
1262
1284
1294
1297
1292
1287
1272
1252
1222
1188
1159
1134
1108
1086
1055
1016
983
952
926
905
888
876
869
863
861
865
870
872
873
877
883
893
902
907
910
908
916
924
928
933
935
936
937
943
945
945
946
943
941
943
943
943
944
940
940
940
940
939
936
934
932
933
933
933
929
931
928
929
932
932
931
932
931
931
933
934
937
935
934
938
942
944
944
946
947
952
954
957
959
959
960
964
970
972
973
974
973
981
985
988
990
992
995
996
1002
1003
1005
1008
1011
1014
1020
1019
1021
1020
1024
1027
1032
1031
1034
1033
1035
1035
1040
1042
1037
1036
1039
1038
1040
1036
1035
1032
1032
1031
1031
1031
1026
1024
1023
1028
1026
1027
1025
1022
1020
1020
1022
1023
1023
1019
1020
1025
1028
1030
1030
1028
1026
1029
1033
1034
1036
1036
1037
1040
1044
1042
1041
1040
1039
1040
1039
1040
1036
1035
1036
1039
1040
1041
1040
1039
1037
1035
1032
1027
1020
1013
1007
1008
1003
1001
999
996
994
996
999
998
995
993
992
995
995
995
994
992
992
993
994
995
991
989
992
993
996
996
995
995
993
993
996
997
995
994
995
997
998
1001
999
1000
1002
1004
1005
1004
1004
1004
1003
1007
1005
1007
1002
1003
1001
999
999
994
990
987
988
996
1013
1037
1060
1083
1105
1123
1142
1160
1183
1207
1233
1260
1285
1302
1313
1315
1319
1318
1312
1302
1272
1236
1201
1175
1155
1130
1102
1063
1022
990
962
938
914
896
882
879
876
878
876
877
877
879
884
891
899
904
910
917
922
925
928
933
937
941
946
951
951
950
951
956
957
957
956
952
951
949
949
949
949
946
943
944
945
944
943
940
940
939
941
941
939
938
936
938
939
939
937
937
936
939
940
942
942
940
940
942
945
944
