898
905
909
911
915
917
921
925
925
922
920
921
923
924
922
919
920
919
921
920
920
916
915
914
914
916
914
912
911
910
910
914
912
910
908
907
909
909
908
909
909
907
911
915
915
916
917
918
921
927
930
931
932
936
941
945
948
950
951
956
960
964
969
970
972
974
979
983
988
988
990
991
995
1000
1000
1002
1003
1005
1008
1010
1014
1012
1013
1016
1016
1017
1018
1018
1017
1017
1019
1020
1019
1018
1016
1015
1016
1018
1015
1015
1011
1010
1010
1011
1013
1010
1010
1011
1014
1017
1015
1012
1011
1011
1013
1012
1009
1004
1003
1004
1007
1014
1016
1015
1014
1014
1015
1019
1015
1013
1012
1011
1010
1013
1016
1013
1014
1013
1014
1016
1012
1005
998
990
986
986
980
975
971
965
965
967
966
962
959
959
960
960
961
960
962
961
963
964
962
965
964
963
967
968
966
967
966
965
969
970
970
970
968
969
970
972
971
971
969
967
972
974
973
972
968
967
971
974
971
968
963
956
957
964
974
996
1024
1057
1088
1112
1127
1147
1176
1207
1240
1270
1295
1316
1329
1334
1337
1334
1319
1288
1244
1204
1168
1133
1093
1047
996
951
915
886
857
837
828
823
826
830
832
831
834
841
852
866
873
878
881
883
890
899
903
905
906
909
909
915
913
911
912
911
909
906
907
907
903
900
899
903
902
899
896
894
898
900
900
898
895
895
896
896
898
897
896
896
897
900
901
899
899
902
906
908
909
912
911
913
917
920
923
925
928
930
936
938
943
947
950
952
957
962
966
967
970
972
978
983
985
988
987
990
994
999
998
1000
1000
1001
1004
1007
1006
1005
1006
1005
1010
1009
1004
1001
1001
1001
1002
1002
1001
998
993
995
997
996
998
992
995
995
998
1001
1002
999
996
997
998
1000
998
994
991
989
994
996
998
1001
1004
1003
1005
1006
1004
1002
999
997
998
1000
998
997
997
996
1001
1004
1004
998
995
991
983
981
978
972
966
962
958
959
958
956
955
954
955
955
954
953
951
951
955
955
955
955
952
952
952
955
954
954
954
953
955
955
955
953
954
954
958
963
964
961
960
961
962
966
965
965
964
962
964
964
963
965
962
960
958
958
956
958
964
987
1021
1053
1083
1104
1120
1142
1171
1203
1231
1256
1280
1296
1303
1308
1304
1292
1276
1241
1200
1165
1130
1099
1070
1033
990
952
915
886
860
841
832
829
828
827
828
829
831
835
841
847
856
862
870
875
879
882
887
892
898
905
907
906
907
909
908
910
909
908
906
905
907
909
907
905
901
900
901
902
899
901
896
893
895
897
893
891
891
890
891
892
891
889
890
888
891
895
898
898
896
898
901
906
907
909
909
912
915
922
924
924
925
930
933
939
940
940
943
944
953
957
958
960
959
964
967
970
970
972
973
977
978
985
987
987
988
986
990
996
996
996
995
996
996
997
998
995
995
994
996
996
995
992
990
987
989
990
989
987
985
983
985
988
987
985
983
985
984
987
986
988
985
982
982
981
982
983
983
988
993
996
995
994
992
993
993
998
996
994
992
992
993
994
996
997
996
996
997
995
990
981
974
967
964
960
958
952
948
946
948
952
947
946
945
942
946
950
947
948
944
947
947
951
948
947
949
947
948
950
951
950
949
950
951
954
954
952
951
951
958
956
958
955
952
953
954
957
958
956
954
956
958
961
960
960
955
954
949
952
951
952
958
980
1010
1042
1069
1090
1104
1121
1146
1175
1204
1226
1248
1268
1278
1280
1279
1272
1262
1238
1204
1173
1145
1118
1093
1065
1029
993
953
924
896
871
855
845
838
833
833
837
838
841
846
850
859
867
877
882
884
889
892
896
905
911
914
913
913
912
912
914
912
911
910
907
908
909
909
909
907
905
908
907
907
905
902
904
904
905
905
904
905
904
905
908
907
903
901
904
910
910
911
910
911
914
916
919
919
920
918
920
925
930
934
935
936
938
945
950
956
959
960
961
967
969
974
976
976
980
985
988
991
994
995
996
999
1004
1005
1005
1006
1007
1010
1012
1013
1012
1011
1011
1012
1013
1012
1011
1010
1008
1007
1010
1006
1005
1004
1003
1005
1007
1007
1002
1000
1001
1004
1006
1008
1005
1004
1008
1009
1010
1011
1008
1005
1004
1006
1008
1008
1009
1011
1011
1015
1017
1016
1016
1013
1011
1010
1011
1009
1007
1004
1006
1009
1010
1011
1009
1011
1012
1010
1010
1007
998
990
986
984
980
976
972
967
965
964
966
966
965
965
961
963
965
967
964
962
961
963
965
963
961
961
960
962
964
966
965
959
963
963
966
966
963
961
965
967
969
971
967
968
967
970
972
972
971
968
969
972
976
974
973
972
972
975
975
974
971
967
964
959
962
962
963
978
998
1028
1054
1075
1091
1105
1122
1149
1179
1203
1230
1251
1270
1289
1300
1301
1300
1298
1293
1279
1257
1221
1189
1160
1137
1115
1089
1052
1014
975
947
919
897
875
860
848
840
840
841
842
843
841
843
848
856
863
870
877
878
884
891
894
899
903
909
912
916
919
920
918
916
919
923
920
919
916
915
915
917
917
916
913
912
915
915
913
910
907
904
907
905
905
904
902
901
902
907
903
903
901
901
902
906
908
907
909
907
912
914
917
918
917
919
923
928
930
931
930
934
938
944
945
947
950
950
957
962
963
964
967
968
975
979
980
983
985
986
989
993
996
994
996
997
1002
1006
1008
1007
1007
1007
1013
1016
1016
1013
1012
1013
1014
1016
1015
1015
1011
1011
1011
1011
1010
1008
1006
1007
1006
1005
1005
1002
1002
1001
1001
1005
1005
1003
1002
1003
1003
1004
1005
1004
1001
1000
1002
1003
1004
1006
1006
1009
1011
1015
1013
1012
1011
1008
1010
1010
1009
1006
1007
1005
1008
1011
1012
1011
1009
1010
1009
1009
1004
997
989
983
979
978
975
967
962
961
961
961
962
959
957
956
957
960
962
960
959
960
963
964
964
962
962
964
963
966
966
963
963
964
966
967
966
964
964
966
967
968
967
967
965
964
966
967
966
968
965
965
967
971
971
969
964
967
969
971
971
968
966
961
958
960
959
961
966
984
1010
1038
1059
1081
1099
1113
1132
1154
1179
1203
1228
1250
1274
1294
1307
1311
1313
1314
1314
1305
1286
1253
1216
1185
1157
1133
1108
1073
1037
996
961
934
908
884
861
846
840
841
838
837
837
840
842
844
845
849
857
867
874
881
883
888
888
891
897
904
911
912
913
915
916
920
918
918
914
913
915
917
915
913
911
907
910
910
910
909
908
908
909
909
909
906
904
906
906
909
908
906
903
903
904
909
906
907
904
907
910
913
913
912
911
910
913
916
917
921
921
926
931
934
938
941
942
944
949
956
959
961
964
966
972
977
980
982
983
985
990
992
996
999
999
1001
1003
1008
1013
1011
1011
1011
1014
1014
1012
1013
1011
1011
1012
1014
1015
1012
1009
1007
1008
1011
1012
1006
1005
1006
1008
1009
1005
1005
1004
1007
1010
1013
1012
1011
1008
1008
1010
1011
1009
1004
1002
1003
1007
1012
1013
1016
1013
1008
1009
1012
1012
1008
1004
1004
1005
1006
1008
1005
1005
1009
1012
1012
1010
1004
999
992
988
985
980
976
969
966
965
964
963
963
961
959
962
963
962
960
960
960
960
960
962
961
960
960
961
962
961
960
960
960
961
963
965
962
964
963
965
969
966
969
965
967
967
970
970
970
971
970
972
974
973
970
969
970
971
972
972
967
962
957
958
958
964
975
994
1023
1052
1078
1099
1112
1126
1151
1183
1213
1241
1268
1291
1307
1315
1321
1319
1310
1292
1259
1225
1195
1167
1137
1108
1071
1037
999
966
931
903
878
862
848
839
833
831
832
836
840
841
842
842
851
861
870
874
879
884
886
892
898
904
906
909
912
915
918
919
918
914
914
916
917
915
912
910
909
912
914
913
909
906
904
906
906
903
902
900
898
897
902
900
895
895
896
898
901
902
902
901
900
905
906
908
908
907
907
912
916
919
916
920
920
925
933
934
934
934
938
945
950
954
955
957
957
962
967
971
971
972
975
980
985
988
990
993
997
1000
1006
1007
1006
1008
1007
1013
1015
1016
1015
1015
1014
1015
1019
1019
1015
1012
1012
1011
1012
1012
1009
1006
1006
1003
1002
1003
1003
1002
1005
1007
1008
1009
1006
1003
1005
1007
1009
1005
1003
1000
1002
1006
1012
1012
1014
1014
1011
1014
1015
1014
1011
1009
1007
1008
1009
1009
1009
1010
1011
1013
1014
1010
1005
998
989
986
981
977
972
966
963
963
963
962
962
963
960
960
964
966
965
962
963
966
968
966
965
964
963
965
968
967
967
964
963
966
968
966
966
964
964
967
970
967
969
967
966
967
968
969
970
968
971
973
976
977
975
969
968
965
963
961
964
973
994
1021
1052
1080
1101
1118
1136
1163
1198
1226
1251
1280
1304
1325
1334
1336
1330
1318
1295
1257
1218
1181
1149
1115
1081
1041
998
959
923
895
870
852
844
837
834
831
831
838
841
841
843
847
858
867
876
880
885
885
888
895
903
909
908
909
910
913
916
914
912
910
910
910
913
914
910
908
909
909
909
906
906
903
902
902
905
905
900
900
898
901
900
900
898
896
894
899
899
900
899
897
898
901
901
905
903
905
904
911
914
918
914
918
923
928
934
936
938
939
942
946
952
955
957
958
960
965
970
974
973
974
980
982
988
989
991
992
994
996
998
1001
999
998
999
1001
1003
1003
1003
1000
999
1001
1005
1003
1001
997
997
998
998
998
995
992
992
993
994
995
994
992
994
997
998
997
994
993
992
994
993
990
986
986
989
992
996
998
997
995
994
994
997
995
992
992
991
995
995
998
995
996
996
998
999
995
986
981
974
973
968
965
959
954
949
949
952
952
948
945
942
946
948
946
946
945
944
947
947
947
947
946
947
952
952
951
953
951
949
952
954
954
953
950
951
954
956
955
956
954
955
955
959
959
957
956
960
959
961
960
958
956
955
956
954
950
948
944
947
956
978
1003
1030
1057
1080
1104
1121
1145
1168
1193
1220
1246
1273
1294
1306
1307
1309
1304
1298
1277
1241
1198
1163
1136
1113
1081
1046
1007
963
930
903
874
852
830
826
821
822
824
824
825
825
830
838
843
851
858
863
871
875
879
883
887
890
899
905
906
906
905
906
910
908
906
905
902
900
903
905
901
901
899
897
898
898
895
894
892
892
893
896
892
889
889
890
892
894
892
893
892
891
894
897
896
894
894
896
898
902
904
904
903
907
910
916
916
916
917
918
922
929
930
932
934
940
942
948
948
952
953
955
960
965
966
971
972
974
978
982
982
983
983
984
986
992
991
991
991
991
994
999
997
995
994
994
995
996
995
993
990
988
989
989
984
985
982
980
982
982
980
979
979
978
984
985
987
986
981
983
986
988
986
983
981
980
985
988
988
991
991
993
993
996
996
994
992
989
989
990
992
989
987
986
989
993
993
987
985
982
978
974
967
963
960
956
954
953
951
949
948
944
948
948
947
947
947
946
946
950
949
950
948
946
946
951
951
948
947
946
947
948
950
948
946
947
951
952
953
953
950
951
954
960
958
957
956
957
959
962
963
962
959
959
958
964
957
953
950
951
956
976
1001
1026
1053
1079
1100
1115
1135
1157
1182
1208
1236
1261
1276
1283
1280
1276
1269
1254
1220
1183
1145
1120
1093
1063
1025
979
944
911
888
869
851
840
834
833
832
836
837
838
839
844
854
865
870
873
877
881
890
898
900
904
905
905
908
914
914
914
911
909
912
912
911
909
907
907
908
907
908
905
903
902
905
906
905
905
902
902
901
906
900
901
900
898
900
904
905
904
903
904
909
914
915
916
915
919
924
926
930
931
933
934
942
946
948
950
953
957
959
965
967
969
970
973
978
983
983
985
986
988
992
997
997
998
998
999
1002
1006
1007
1007
1006
1005
1012
1012
1010
1013
1009
1008
1008
1012
1009
1006
1005
1002
1003
1005
1002
999
999
1001
999
1002
1001
1000
999
1000
1004
1006
1004
1003
1001
1000
1002
1003
1003
1005
1007
1008
1011
1011
1014
1014
1012
1011
1012
1013
1009
1008
1007
1008
1007
1012
1009
1009
1010
1008
1005
1007
999
993
986
980
979
975
971
965
962
962
964
965
965
961
961
961
964
967
965
964
965
963
967
969
966
967
966
965
967
971
970
967
969
968
970
971
971
971
969
968
971
970
971
969
968
966
970
973
973
974
972
970
974
974
973
970
970
963
961
959
965
970
985
1010
1039
1065
1089
1104
1117
1136
1166
1195
1223
1250
1273
1290
1303
1307
1307
1299
1283
1250
1209
1176
1144
1116
1079
1037
995
958
923
895
872
856
851
850
848
848
847
846
849
858
864
869
877
884
890
896
898
901
905
909
916
921
921
920
922
921
924
925
922
920
919
918
919
920
919
915
912
912
917
917
915
913
911
910
910
912
909
909
908
908
910
911
911
910
908
910
913
914
916
914
917
916
922
928
928
931
931
932
943
945
950
952
954
957
964
969
972
973
974
979
982
990
990
992
993
993
999
1004
1003
1004
1004
1006
1008
1014
1013
1009
1009
1010
1011
1013
1013
1010
1009
1006
1008
1011
1009
1006
1004
1003
1003
1005
1004
999
999
999
1001
1004
1006
1004
1004
1002
1002
1005
1005
1004
1002
998
1000
1002
1004
1003
1004
1006
1007
1011
1008
1007
1006
1004
1005
1006
1008
1007
1003
1005
1008
1010
1011
1006
1004
999
994
990
983
978
974
969
968
967
964
962
958
961
962
961
960
959
957
958
958
961
960
959
959
958
961
961
963
962
960
961
964
965
967
966
963
963
966
968
969
967
967
968
969
972
972
970
971
971
970
972
975
975
970
971
973
973
972
967
962
958
958
958
963
974
997
1026
1058
1084
1107
1122
1140
1169
1203
1233
1263
1287
1304
1314
1319
1319
1311
1293
1259
1218
1186
1160
1128
1095
1055
1013
973
944
914
885
864
845
841
840
840
841
842
842
845
854
864
872
878
883
892
896
899
904
908
912
919
923
924
921
922
921
922
925
922
921
917
916
915
919
915
913
910
910
911
912
911
910
909
908
909
911
910
909
908
909
911
912
911
908
908
909
911
915
915
916
915
918
921
925
927
928
928
931
937
940
942
943
945
947
950
956
958
962
963
965
970
976
977
980
981
985
991
997
998
1000
1002
1002
1007
1012
1010
1011
1012
1013
1014
1018
1018
1017
1017
1014
1018
1019
1018
1015
1015
1013
1014
1012
1012
1005
1005
1003
1008
1006
1005
1001
1001
1000
1001
1004
1004
1005
1006
1006
1008
1010
1008
1007
1006
1006
1005
1006
1007
1006
1006
1007
1011
1014
1014
1014
1012
1012
1015
1015
1013
1008
1005
1006
1009
1008
1009
1009
1009
1008
1010
1008
1005
1000
993
987
987
985
982
976
971
967
966
967
965
966
962
958
961
965
966
964
962
959
963
965
962
961
963
962
965
967
967
963
964
963
965
966
965
965
965
965
968
968
969
970
967
967
971
975
972
974
974
972
972
977
978
975
975
975
976
977
977
971
968
963
961
965
969
982
1006
1030
1056
1081
1102
1113
1133
1158
1186
1216
1239
1264
1284
1301
1313
1316
1316
1309
1300
1273
1240
1206
1175
1148
1119
1089
1053
1014
975
940
912
886
867
857
850
844
842
842
846
849
849
849
854
861
871
880
887
889
890
893
900
908
912
915
915
915
919
923
923
922
920
917
918
921
920
918
914
912
914
916
915
912
910
909
908
911
908
906
903
902
905
906
904
901
900
898
904
907
907
904
904
905
910
914
916
916
919
917
922
927
929
928
930
932
938
942
944
946
948
951
956
960
963
963
965
967
973
976
976
978
979
984
987
992
991
992
994
996
1000
1002
1001
1003
1004
1004
1006
1010
1008
1008
1006
1003
1006
1006
1006
1003
1001
1001
1001
1001
998
998
996
995
996
996
994
991
991
990
992
992
997
995
993
991
993
994
994
995
993
991
995
999
1001
1002
1001
1002
1001
1006
1007
1003
1002
999
1001
1003
1002
1001
998
1000
1003
1005
1004
1000
998
994
987
983
977
973
968
961
961
959
959
952
952
952
954
953
952
952
950
952
953
956
956
953
954
954
955
958
959
957
957
956
958
961
960
959
958
955
959
962
960
962
960
958
959
962
962
960
959
959
959
962
963
963
960
963
964
966
965
965
964
963
963
962
958
954
954
955
963
981
1003
1030
1052
1075
1096
1115
1131
1152
1180
1204
1231
1257
1281
1299
1308
1313
1317
1316
1310
1296
1267
1226
1191
1164
1134
1105
1072
1034
994
958
928
906
880
860
850
842
836
837
835
837
840
842
843
847
848
857
866
874
880
881
884
887
894
898
902
904
907
908
910
914
913
913
911
910
911
913
913
909
908
907
907
910
911
909
907
906
905
907
906
904
902
901
903
903
905
902
900
899
902
900
900
900
899
898
900
902
902
901
901
902
906
909
911
910
912
913
918
922
925
927
929
934
935
941
945
947
947
952
957
960
963
965
965
971
976
980
979
982
983
985
988
991
995
996
996
998
1001
1001
1002
1002
1001
1000
1003
1007
1008
1004
1002
1000
1003
1006
1005
1003
999
999
1001
1002
1000
996
996
994
996
995
996
993
992
993
996
997
997
999
999
998
998
1001
1000
997
995
994
996
999
1001
1001
1000
1002
1004
1005
1002
1003
1003
1001
1000
1001
1003
1003
1002
999
1003
1006
1007
1007
1004
1001
997
994
988
982
976
971
970
969
964
963
959
957
961
961
960
956
956
955
956
957
959
958
956
956
958
960
960
959
959
960
961
966
964
962
963
959
965
967
965
965
963
962
966
969
968
967
967
966
967
969
972
969
968
968
972
972
971
970
968
968
967
971
967
963
957
952
955
960
972
992
1015
1038
1065
1088
1104
1118
1139
1164
1193
1220
1249
1272
1295
1309
1318
1323
1322
1318
1308
1287
1257
1222
1192
1160
1133
1103
1071
1033
990
954
926
901
881
864
853
844
840
835
838
842
841
843
843
845
849
859
869
874
877
881
888
895
900
903
908
908
914
918
922
920
920
916
