930
934
935
934
937
940
944
944
946
948
950
953
958
963
965
966
968
972
977
977
981
980
983
984
991
994
994
995
994
996
998
1002
1001
1000
998
1000
1002
1002
1002
999
998
1000
1002
1006
1005
1006
1006
1009
1014
1011
1011
1009
1007
1004
1005
1001
1000
1000
998
1005
1009
1008
1006
1008
1004
1007
1008
1008
1005
1004
1000
1000
1001
1003
1006
1006
1001
998
995
989
984
977
970
966
966
962
959
958
956
957
958
959
954
953
952
955
956
959
956
958
957
958
960
960
958
957
958
958
961
959
958
957
955
960
963
963
963
961
961
962
966
966
966
965
965
967
966
969
968
963
959
959
959
961
965
980
1001
1024
1047
1058
1066
1074
1089
1114
1138
1158
1176
1188
1197
1201
1204
1203
1200
1190
1176
1156
1140
1126
1111
1091
1069
1040
1012
984
957
934
911
900
888
883
877
874
872
875
876
877
881
883
889
896
902
906
911
910
911
916
922
925
923
924
926
929
932
934
935
933
932
935
937
936
934
931
931
931
929
931
929
929
927
926
928
929
927
926
927
926
928
927
930
926
924
930
930
934
933
928
931
934
936
938
935
937
940
943
947
950
949
951
950
955
958
959
962
963
963
969
975
976
981
981
983
991
993
996
998
1000
1000
1005
1007
1007
1009
1010
1009
1014
1016
1016
1017
1016
1016
1018
1017
1020
1021
1021
1020
1022
1021
1022
1020
1017
1014
1018
1019
1020
1020
1014
1016
1016
1015
1015
1013
1008
1004
1002
1004
1002
1004
1003
1004
1008
1007
1007
1005
1003
1003
1002
1002
1002
999
1000
997
998
998
998
999
996
990
988
983
977
972
967
963
959
957
953
950
947
945
945
945
943
942
939
937
938
939
939
937
934
932
931
933
933
929
930
930
931
933
932
929
929
927
929
929
928
928
926
926
927
929
930
930
931
928
931
933
934
934
934
930
933
932
929
925
920
917
919
923
933
951
970
991
1011
1029
1037
1050
1063
1082
1108
1132
1149
1169
1181
1188
1194
1193
1194
1189
1179
1162
1137
1116
1098
1080
1060
1033
1007
980
950
924
900
877
857
845
835
827
819
818
821
823
825
822
820
822
831
838
846
848
851
851
856
861
864
865
869
870
874
878
877
879
878
877
877
880
879
881
877
874
877
880
877
877
872
872
873
872
871
868
865
864
864
867
867
866
864
862
864
866
867
867
866
863
867
869
871
870
870
869
872
874
876
875
876
878
883
884
886
888
887
891
896
897
901
900
902
905
907
913
917
918
919
919
924
929
930
932
932
933
938
942
943
946
947
945
950
955
956
954
953
954
957
958
959
957
958
956
957
959
961
959
959
959
961
964
967
965
962
963
963
963
967
966
962
958
960
958
960
959
955
956
960
963
966
964
964
961
963
963
966
965
962
959
960
962
962
963
957
958
963
963
960
954
949
943
941
938
932
928
924
916
917
917
917
916
916
912
914
917
913
915
915
913
916
920
918
919
917
918
918
920
923
920
918
917
922
922
922
922
920
918
921
922
924
921
921
922
924
925
923
926
925
924
926
929
926
927
926
924
921
920
916
916
916
922
944
969
995
1018
1034
1047
1060
1080
1107
1130
1150
1168
1189
1204
1208
1207
1203
1199
1192
1178
1151
1125
1100
1079
1062
1041
1014
983
949
918
897
879
860
842
832
826
827
825
825
826
826
825
831
839
845
852
856
859
864
869
873
877
882
883
887
892
893
893
892
893
896
895
895
892
892
890
895
896
893
891
888
888
889
888
889
890
886
885
887
887
889
888
885
885
886
889
888
888
886
886
888
892
894
893
894
894
897
898
902
904
906
904
911
914
915
916
917
919
923
928
930
932
930
933
939
940
946
944
947
951
954
957
963
963
963
964
967
971
972
974
971
975
975
981
982
981
978
976
977
978
981
981
979
977
981
986
987
984
984
982
984
983
984
978
977
973
975
978
979
979
980
980
980
981
980
984
980
979
981
981
981
980
978
975
977
979
978
979
978
974
969
966
961
958
952
947
942
942
939
935
933
931
934
936
938
937
934
934
936
938
937
939
936
937
937
940
939
939
936
935
937
939
941
938
938
937
936
939
938
940
938
938
939
939
944
944
941
940
944
944
948
944
942
941
941
941
939
939
939
942
955
979
1003
1024
1046
1065
1085
1099
1112
1130
1148
1172
1197
1219
1236
1243
1240
1236
1233
1222
1207
1175
1145
1116
1094
1074
1052
1022
989
956
933
910
889
866
848
836
829
829
830
830
832
831
832
837
846
850
858
864
871
875
878
882
883
889
895
901
902
905
902
905
905
909
907
906
904
902
902
905
904
904
901
900
902
903
903
903
899
898
902
904
903
902
900
899
900
903
906
906
903
906
908
908
908
909
910
911
915
917
919
920
920
921
924
931
934
935
937
937
941
945
948
950
952
954
961
964
968
970
970
972
976
979
983
984
986
986
989
992
994
993
993
992
995
996
995
995
993
993
996
998
997
996
996
996
997
1000
1001
1000
995
995
994
993
995
993
990
993
998
998
1000
999
1000
1000
1000
998
999
997
993
995
999
1001
999
997
995
986
985
980
972
969
964
959
956
957
956
955
951
952
952
956
956
954
954
951
955
957
956
954
955
956
958
958
956
958
956
955
959
960
960
959
956
956
960
960
961
960
959
959
960
961
962
961
962
959
960
962
960
956
952
951
956
967
984
1008
1027
1050
1072
1087
1094
1112
1133
1154
1179
1199
1212
1224
1229
1228
1225
1222
1213
1191
1164
1137
1120
1102
1082
1057
1028
996
967
943
919
897
877
866
859
860
861
857
859
858
860
865
870
875
880
884
894
896
898
901
902
906
914
920
922
923
922
922
923
926
927
923
921
921
922
926
924
923
920
917
919
922
921
921
920
917
920
921
920
919
917
916
919
921
921
924
920
920
922
927
928
926
924
927
933
936
936
936
936
939
943
946
949
952
950
953
959
963
966
964
965
967
973
979
981
981
983
984
988
993
995
997
998
999
1002
1006
1008
1008
1007
1008
1007
1012
1011
1010
1005
1007
1009
1010
1010
1009
1009
1009
1013
1013
1014
1011
1012
1012
1014
1016
1010
1007
1003
1003
1006
1011
1013
1012
1013
1011
1012
1013
1014
1015
1013
1010
1010
1011
1010
1011
1009
1012
1013
1009
1004
995
990
982
982
980
973
967
964
962
964
969
966
962
959
959
961
962
963
962
960
963
965
967
966
965
965
963
966
968
968
967
963
964
966
968
968
966
963
965
968
971
972
970
969
967
970
972
974
972
969
968
966
962
960
961
962
971
995
1018
1043
1064
1075
1085
1102
1125
1147
1169
1187
1204
1225
1237
1241
1241
1236
1231
1219
1195
1169
1146
1127
1104
1083
1056
1024
986
960
935
911
893
881
871
863
860
862
865
867
864
864
869
876
886
892
895
898
898
903
910
916
917
921
923
926
928
928
928
925
925
927
928
927
927
926
924
924
926
926
924
921
920
921
922
922
919
919
919
918
920
922
922
922
920
923
923
923
924
923
924
927
929
930
931
931
930
934
937
940
942
942
943
948
952
954
957
960
960
965
968
974
975
974
978
983
985
987
990
993
994
1001
1003
1005
1005
1005
1009
1011
1016
1015
1016
1015
1012
1017
1020
1017
1018
1016
1016
1019
1021
1023
1021
1019
1020
1022
1024
1023
1023
1021
1023
1023
1020
1020
1015
1014
1015
1018
1021
1023
1022
1016
1016
1020
1022
1023
1019
1016
1017
1016
1016
1017
1018
1014
1011
1007
1003
998
991
984
979
976
976
973
971
970
969
971
969
969
970
967
969
971
973
972
970
969
970
971
973
972
971
971
970
974
974
972
972
971
971
973
976
976
974
974
974
976
976
977
975
976
973
974
970
966
964
964
970
985
1012
1038
1061
1080
1093
1108
1127
1159
1184
1206
1227
1248
1260
1262
1261
1255
1245
1231
1204
1175
1149
1128
1106
1080
1047
1015
981
954
927
906
890
878
869
865
861
864
865
866
866
866
871
882
890
896
900
899
905
909
917
919
922
925
924
928
931
933
932
929
930
931
933
931
930
926
925
925
927
927
925
923
922
923
926
924
922
920
920
921
924
924
921
923
922
925
925
928
927
925
926
930
931
932
934
935
934
940
940
944
945
944
947
953
957
961
960
961
963
967
972
976
978
979
980
988
989
993
994
994
997
1000
1002
1004
1005
1007
1004
1009
1015
1013
1017
1016
1016
1017
1019
1019
1018
1014
1016
1019
1020
1020
1019
1017
1015
1017
1023
1024
1022
1021
1020
1021
1022
1023
1023
1016
1015
1014
1016
1018
1017
1018
1018
1022
1024
1021
1018
1018
1017
1016
1018
1015
1016
1014
1011
1013
1019
1019
1016
1013
1008
1002
1000
993
988
982
976
975
974
971
973
970
967
967
970
971
968
967
964
968
969
968
970
969
966
969
971
970
971
969
969
970
970
973
971
970
969
971
973
972
969
969
967
972
976
977
975
973
972
974
975
972
967
962
960
964
973
991
1015
1040
1066
1088
1101
1120
1143
1168
1193
1220
1243
1259
1267
1267
1264
1263
1255
1231
1200
1168
1141
1119
1099
1073
1040
1003
969
940
923
900
879
866
859
857
858
859
861
861
859
863
870
880
886
889
892
899
903
907
909
912
917
920
925
925
924
925
924
926
929
925
924
925
920
923
923
924
921
918
916
920
920
921
916
915
914
915
917
916
917
915
912
917
917
917
915
915
919
922
923
922
922
921
923
925
929
930
932
935
935
941
945
948
948
950
951
958
963
964
963
966
969
971
978
977
983
984
987
989
993
997
997
999
1002
1006
1009
1010
1010
1008
1010
1014
1015
1013
1014
1011
1011
1013
1012
1013
1013
1013
1014
1015
1015
1017
1016
1017
1014
1016
1020
1019
1016
1014
1009
1010
1012
1011
1011
1008
1008
1012
1016
1017
1017
1015
1012
1011
1014
1015
1013
1011
1009
1009
1010
1013
1011
1011
1011
1011
1011
1006
998
991
986
984
983
976
971
967
965
967
968
967
964
963
959
962
965
962
964
960
961
962
966
964
964
962
961
963
965
965
966
963
961
963
963
967
964
964
963
967
969
969
967
967
967
970
972
971
970
972
968
969
971
967
962
957
956
958
967
992
1018
1040
1067
1087
1100
1115
1138
1162
1188
1210
1236
1255
1266
1269
1269
1270
1264
1250
1226
1191
1156
1131
1109
1083
1049
1012
972
941
918
894
875
859
853
851
851
855
852
851
851
858
869
877
882
888
892
896
903
906
907
911
915
919
923
923
922
922
917
918
921
920
917
919
917
918
919
919
917
913
911
911
915
912
912
914
911
912
915
911
912
911
911
915
917
917
917
916
916
918
919
920
921
921
919
926
931
933
936
935
935
940
943
944
948
952
952
957
960
964
965
968
970
977
979
982
985
984
985
991
995
996
997
997
997
1000
1006
1005
1003
1003
1001
1006
1005
1008
1002
1002
1003
1004
1005
1004
1002
1003
1003
1007
1009
1008
1005
1005
1003
1002
1008
1008
1003
997
995
997
998
999
1002
1001
1002
1008
1006
1004
1003
1003
1002
1005
1005
1002
1000
998
996
1000
1003
1004
1003
998
993
986
983
980
973
966
962
962
960
958
957
955
950
954
956
956
953
953
953
955
955
955
953
951
951
953
957
957
955
955
955
953
956
955
953
950
952
955
957
959
957
956
956
958
962
962
960
959
958
960
963
964
962
963
961
960
958
956
955
953
957
972
992
1019
1045
1066
1088
1107
1124
1143
1165
1187
1209
1235
1255
1270
1272
1272
1267
1262
1252
1230
1199
1167
1140
1118
1095
1073
1041
1005
969
942
917
892
868
850
840
836
835
837
837
839
839
840
847
852
859
864
871
877
882
885
887
888
894
898
904
907
907
906
907
911
914
911
908
907
906
907
908
909
907
902
903
906
906
906
902
900
901
904
905
903
901
901
900
901
903
903
904
901
900
904
907
904
906
906
907
911
914
918
916
917
919
923
927
930
931
934
936
941
944
947
950
952
953
960
964
964
966
968
971
978
980
982
982
985
982
986
991
994
993
993
993
997
998
1001
999
997
996
995
997
999
998
997
994
997
999
1000
997
996
997
999
1000
1000
999
998
998
1000
999
997
993
993
993
995
997
1001
1002
1001
997
1000
1003
1002
1003
999
998
998
999
997
996
997
998
999
999
997
990
983
978
973
972
968
962
959
956
958
958
957
955
955
951
956
958
953
956
951
951
955
957
954
955
953
952
953
956
957
956
955
953
954
957
957
955
955
956
958
961
961
960
958
959
962
962
963
963
962
964
963
963
965
959
955
952
953
958
966
979
1003
1028
1054
1078
1090
1097
1113
1136
1159
1182
1202
1219
1235
1242
1241
1240
1239
1230
1214
1187
1164
1143
1125
1107
1085
1060
1031
999
969
940
915
892
877
867
860
855
854
854
857
860
858
859
864
871
878
885
892
892
893
895
901
908
911
913
915
916
919
921
924
918
917
918
919
921
921
919
916
914
916
922
919
918
915
912
916
918
916
915
915
912
916
918
917
917
916
914
917
916
919
918
915
916
920
919
920
918
921
922
925
931
932
931
932
934
938
941
944
945
946
950
953
960
961
960
961
965
970
975
976
979
980
980
984
986
989
992
993
993
995
1002
1003
1001
1001
1000
1001
1005
1004
1007
1004
1002
1003
1003
1005
1003
1001
1001
1003
1005
1004
1004
1002
1001
1005
1008
1008
1007
1006
1003
1004
1009
1010
1006
1004
1000
1002
1002
1004
1004
1005
1006
1008
1014
1010
1007
1005
1003
1004
1008
1007
1002
1003
998
1000
1002
1004
1004
1003
1001
1001
999
992
986
980
975
973
969
966
961
956
953
958
960
960
955
954
953
954
959
958
956
953
955
957
959
955
955
953
952
954
957
956
955
954
955
957
958
958
959
956
955
959
961
961
962
959
956
960
962
960
963
964
963
964
968
967
964
961
957
953
953
952
953
959
974
997
1020
1039
1057
1068
1077
1094
1114
1139
1161
1180
1201
1222
1238
1245
1246
1245
1241
1235
1222
1195
1165
1142
1126
1107
1087
1059
1028
992
961
936
915
896
878
863
856
855
852
851
852
850
849
851
859
866
868
872
880
884
891
892
896
899
903
908
914
915
917
915
917
919
922
920
918
919
917
918
920
920
916
914
914
916
919
917
915
911
913
913
914
915
915
914
911
913
915
914
914
910
909
912
915
917
917
912
913
916
918
919
919
921
921
927
929
930
932
933
936
939
942
945
944
948
950
955
957
959
962
965
965
968
973
974
975
978
978
984
986
992
991
992
993
996
1000
1000
999
1003
1002
1006
1008
1006
1007
1005
1004
1008
1009
1010
1008
1007
1006
1008
1008
1007
1010
1004
1006
1005
1010
1012
1008
1009
1008
1011
1014
1014
1010
1007
1005
1003
1005
1007
1008
1009
1008
1013
1015
1014
1007
1009
1008
1011
1011
1007
1004
1002
1002
1001
1005
1005
1005
1004
1002
1001
1001
995
989
981
976
973
970
965
963
956
953
957
958
956
955
954
953
955
959
959
955
954
954
957
956
959
955
953
953
956
958
958
956
954
955
956
959
958
958
957
956
957
962
960
960
958
960
963
963
965
963
962
962
964
965
961
959
955
949
950
952
960
974
994
1021
1047
1072
1085
1097
1117
1144
1177
1205
1228
1248
1261
1262
1266
1264
1256
1238
1209
1178
1154
1133
1109
1082
1050
1013
980
951
923
900
876
860
850
848
846
845
842
842
846
850
853
857
863
871
879
884
885
887
889
893
900
907
910
913
913
915
913
918
918
917
912
912
915
917
915
915
912
911
914
913
912
911
908
908
909
911
911
905
904
905
907
909
909
908
907
906
908
911
909
910
909
913
912
918
920
921
921
920
924
929
931
933
933
934
939
945
947
947
949
952
958
961
964
967
969
971
975
979
981
981
983
986
990
993
993
994
995
995
997
999
1002
1000
999
1002
1003
1003
1004
1002
1003
1001
1002
1001
1001
1000
999
998
1001
1002
1004
1005
1004
1002
1004
1005
1003
1002
1002
1000
1001
1001
999
996
998
1001
1003
1007
1005
1006
1003
1002
1004
1002
1001
999
994
993
996
997
997
997
999
996
999
999
994
989
981
974
974
971
965
962
956
952
952
953
953
954
953
949
953
952
953
951
949
950
951
954
954
952
951
949
950
951
954
953
951
951
952
955
953
952
955
951
954
957
954
957
955
955
957
957
959
957
960
958
961
960
963
962
956
950
948
950
954
965
985
1012
1041
1069
1085
1098
1117
1143
1173
1200
1222
1244
1259
1266
1270
1270
1266
1254
1230
1197
1169
1148
1122
1095
1060
1020
985
949
918
888
867
851
845
842
839
838
841
842
840
846
852
862
867
873
880
886
889
893
895
900
907
910
915
913
912
912
913
914
915
912
911
908
908
909
907
906
907
905
907
905
907
904
902
899
902
904
906
901
897
899
902
904
903
901
903
904
907
911
910
912
910
915
918
924
924
925
924
931
936
942
944
946
949
951
954
961
964
965
969
971
976
979
984
983
983
985
987
994
994
993
994
993
996
999
999
998
997
997
999
1000
1000
997
995
996
994
1000
1000
1004
1001
998
1002
1002
1001
1002
999
997
998
1000
999
999
1001
1003
1004
1006
1004
999
997
994
997
996
995
994
993
992
992
994
994
997
994
989
988
983
977
968
964
960
957
955
953
947
944
947
949
950
949
948
947
945
949
951
949
947
948
946
948
948
950
949
947
947
949
951
949
948
947
948
950
954
952
951
950
951
951
954
956
953
953
954
957
956
959
957
955
953
954
952
948
945
943
945
959
980
1006
1031
1051
1072
1090
1107
1130
1156
1183
1208
1235
1257
1269
1274
1272
1263
1252
1229
1193
1158
1126
1102
1074
1041
999
957
923
892
870
855
844
836
833
832
837
839
838
840
846
853
863
872
874
879
881
884
891
898
901
905
903
906
908
911
910
908
905
906
906
907
905
904
902
899
897
899
900
897
894
896
895
896
895
892
892
890
893
893
893
893
891
894
894
898
898
901
901
902
906
