1007
1008
1009
1005
1005
1009
1006
1007
1007
1006
1009
1011
1016
1015
1015
1011
1014
1018
1020
1015
1010
1011
1010
1014
1015
1017
1016
1013
1014
1016
1016
1012
1009
1002
997
996
993
989
984
977
974
976
976
971
972
968
967
968
971
969
968
967
968
970
971
971
970
970
969
971
972
972
973
971
973
973
976
978
977
975
976
979
983
981
980
977
980
981
982
980
979
978
979
982
982
981
982
981
980
982
982
980
975
970
969
972
974
986
1005
1030
1059
1087
1113
1135
1151
1170
1200
1230
1258
1285
1308
1326
1338
1339
1336
1330
1312
1273
1230
1194
1163
1129
1094
1053
1008
966
935
906
879
858
848
844
842
843
846
844
846
850
853
861
867
877
884
895
899
901
902
905
911
920
924
925
924
925
927
928
927
927
925
924
922
923
923
923
922
920
918
920
917
918
915
913
915
915
916
915
913
911
913
914
915
915
912
911
913
915
916
915
913
912
912
915
916
919
918
914
919
922
925
928
926
929
935
939
941
946
949
949
951
957
961
961
964
965
971
973
977
983
984
983
988
991
997
997
997
996
1001
1003
1007
1006
1007
1007
1011
1014
1013
1015
1015
1014
1014
1016
1018
1017
1017
1012
1014
1014
1015
1014
1013
1011
1013
1012
1012
1010
1008
1008
1006
1007
1006
1005
1004
1003
1002
1003
1006
1006
1005
1003
1005
1007
1006
1008
1007
1006
1007
1012
1014
1014
1016
1013
1016
1016
1021
1020
1018
1015
1012
1015
1021
1022
1018
1016
1019
1021
1022
1021
1018
1012
1005
1002
1000
993
986
982
980
977
973
972
970
967
968
967
969
969
966
966
966
969
971
969
969
969
971
969
974
974
973
970
970
973
977
977
976
972
973
975
975
976
972
971
973
973
975
974
975
976
975
979
980
980
979
975
978
980
981
980
978
972
970
970
974
980
995
1022
1053
1089
1116
1132
1147
1164
1193
1221
1248
1273
1292
1305
1313
1312
1313
1305
1287
1255
1216
1178
1147
1115
1086
1050
1007
968
940
910
888
868
854
853
851
854
854
853
855
859
865
871
880
885
889
895
900
903
910
912
918
921
924
928
926
922
925
925
926
926
922
921
921
924
924
924
918
918
920
919
920
918
916
914
914
915
914
914
912
910
911
914
916
915
916
914
915
918
920
920
918
919
926
928
930
931
932
936
939
942
948
951
953
955
957
962
965
967
969
969
974
979
982
986
987
987
993
997
1001
1003
1003
1003
1008
1012
1013
1015
1016
1013
1016
1017
1018
1018
1019
1016
1020
1019
1020
1019
1017
1015
1015
1014
1014
1012
1008
1006
1006
1006
1005
1006
1004
1005
1007
1010
1012
1013
1012
1008
1010
1011
1013
1014
1013
1015
1016
1019
1020
1025
1023
1023
1022
1022
1022
1022
1021
1019
1021
1022
1022
1021
1021
1016
1017
1012
1008
1000
996
991
986
984
981
978
976
971
972
975
975
974
972
971
973
977
979
978
978
973
975
979
982
979
977
975
977
979
978
978
976
977
975
977
981
978
979
978
979
979
982
983
982
979
980
981
986
984
985
983
987
990
991
989
987
983
979
977
976
973
978
998
1024
1057
1088
1108
1121
1139
1166
1196
1225
1252
1278
1296
1310
1316
1320
1317
1299
1270
1236
1203
1175
1146
1118
1083
1041
997
964
934
902
877
864
858
855
852
853
855
856
858
863
870
879
886
892
898
904
908
912
915
922
927
930
931
933
932
935
935
937
933
934
931
930
930
932
930
927
924
922
922
922
922
919
917
918
920
921
918
916
916
918
919
920
919
918
915
917
923
923
924
926
923
929
931
934
937
937
937
938
942
949
947
950
951
954
958
960
963
965
967
970
974
979
981
982
985
987
993
997
998
1000
1002
1004
1008
1011
1014
1014
1015
1018
1019
1020
1021
1019
1019
1021
1023
1023
1023
1019
1016
1017
1015
1014
1016
1013
1011
1011
1011
1011
1011
1007
1006
1007
1009
1009
1010
1011
1008
1011
1014
1015
1016
1014
1012
1014
1018
1020
1021
1021
1021
1022
1025
1025
1022
1021
1017
1015
1015
1016
1016
1015
1014
1017
1016
1019
1016
1012
1003
1001
996
993
989
984
978
973
977
975
975
973
972
974
974
974
973
972
970
972
973
974
974
971
968
973
973
975
973
972
971
971
976
974
976
975
972
973
976
978
977
975
974
977
979
981
981
981
978
979
980
983
982
981
981
982
982
981
979
974
968
968
966
968
972
986
1006
1035
1060
1085
1103
1117
1140
1168
1198
1228
1258
1281
1302
1318
1323
1322
1321
1311
1289
1250
1214
1180
1150
1119
1082
1041
1000
962
928
899
873
858
850
846
847
847
846
849
853
858
865
871
879
889
894
899
904
906
910
919
923
925
925
929
926
929
930
927
926
925
919
919
920
921
918
916
915
912
913
915
912
910
908
908
910
910
908
906
906
906
913
914
915
912
914
914
916
918
920
919
920
920
923
925
928
929
931
934
939
941
944
944
947
953
959
963
967
967
969
974
977
983
983
985
988
991
996
1002
1002
1004
1003
1008
1008
1012
1013
1009
1007
1009
1012
1014
1013
1012
1010
1012
1011
1013
1014
1010
1006
1006
1006
1008
1008
1005
1002
1002
1004
1004
1005
1006
1006
1009
1010
1011
1011
1008
1009
1007
1008
1011
1010
1007
1007
1010
1013
1014
1013
1013
1012
1010
1007
1010
1009
1007
1007
1010
1012
1011
1011
1009
1005
1003
1000
994
990
985
979
974
972
970
968
964
963
965
963
964
961
962
959
960
961
963
962
962
959
962
965
964
964
964
961
964
965
967
966
966
961
965
967
971
967
969
969
968
972
974
972
970
968
968
971
974
972
971
969
969
973
974
973
968
965
965
965
964
960
959
964
979
1003
1031
1057
1078
1101
1123
1141
1166
1194
1221
1247
1280
1305
1323
1330
1329
1325
1323
1310
1283
1243
1205
1172
1140
1110
1077
1038
994
953
922
899
876
856
840
830
830
833
838
839
841
840
844
852
863
872
879
879
885
891
896
904
906
909
911
915
918
916
917
912
912
915
916
914
912
907
908
911
909
909
905
905
904
905
905
904
903
901
901
902
903
902
900
899
901
901
902
901
899
897
899
902
903
904
903
902
903
906
910
912
915
915
918
922
926
927
928
927
933
936
942
944
949
948
953
958
964
968
969
971
975
978
983
987
986
988
987
992
995
996
998
995
996
1000
1001
1001
1002
998
1001
1002
1004
1001
1002
998
999
1001
1001
1000
998
994
995
996
998
998
994
992
994
997
1000
1000
999
997
997
998
997
998
996
993
996
997
1001
1001
1005
1000
1004
1006
1005
1006
1004
999
1000
999
1003
1000
1003
1002
1003
1005
1008
1006
1001
998
992
986
982
980
973
967
963
961
962
960
956
953
952
955
955
954
955
953
955
956
957
958
955
956
956
958
960
959
959
955
958
959
963
962
961
959
960
963
964
966
963
962
960
966
965
965
964
961
963
964
968
967
966
964
966
970
969
969
968
963
963
962
962
963
962
972
994
1022
1053
1080
1107
1121
1138
1161
1189
1213
1235
1257
1282
1303
1313
1312
1309
1302
1290
1269
1233
1195
1159
1127
1098
1072
1044
1004
963
931
907
885
867
851
837
831
828
831
837
838
838
836
841
850
857
865
872
876
881
884
888
892
895
899
903
909
911
911
910
910
911
912
914
912
910
908
909
908
910
909
908
905
905
905
907
906
905
901
902
903
903
902
902
897
899
899
901
900
898
896
899
898
902
903
903
901
902
905
907
906
908
907
913
915
919
920
921
922
924
930
934
937
939
940
946
949
951
958
958
959
963
969
972
973
977
974
977
982
988
990
990
992
995
998
1000
1000
1002
1000
1001
1004
1006
1007
1005
1001
1004
1003
1005
1005
1003
1001
1000
1003
1003
1001
998
992
994
994
997
994
992
991
993
996
997
997
995
992
994
993
996
996
996
993
997
1002
1008
1009
1006
1005
1006
1006
1007
1008
1005
1004
1004
1005
1009
1009
1009
1006
1004
1000
997
988
982
972
970
968
966
963
959
959
958
959
958
960
956
956
958
960
961
961
961
960
961
964
965
964
965
963
965
965
968
968
967
964
965
966
967
967
966
962
963
965
968
970
969
967
969
969
970
969
968
968
968
972
974
973
972
968
966
965
963
963
964
970
987
1016
1044
1071
1095
1110
1121
1141
1167
1192
1217
1241
1264
1285
1297
1300
1298
1297
1292
1279
1261
1226
1194
1162
1134
1108
1083
1050
1009
971
941
917
896
876
860
851
846
847
848
851
849
849
852
856
864
873
877
880
886
892
897
900
903
906
913
916
919
923
923
921
925
925
926
926
924
921
920
922
923
922
921
919
919
919
922
920
918
916
914
916
917
918
911
910
909
911
913
910
909
906
905
907
908
909
909
908
908
910
912
915
914
916
916
921
923
927
925
926
929
935
939
942
945
945
946
953
956
960
963
963
965
967
974
972
976
974
978
984
985
989
990
991
992
995
1001
1002
1003
1003
1004
1007
1011
1013
1013
1011
1011
1015
1016
1017
1016
1014
1013
1016
1017
1016
1015
1011
1011
1014
1011
1011
1007
1004
1003
1006
1006
1007
1006
1004
1007
1009
1012
1012
1009
1007
1009
1008
1013
1013
1016
1012
1015
1017
1019
1020
1020
1017
1019
1017
1018
1017
1017
1016
1016
1016
1018
1016
1013
1006
1002
999
993
988
985
978
975
973
972
969
968
964
965
964
967
968
966
964
964
967
971
972
971
970
970
972
972
975
973
969
969
972
971
972
971
968
971
972
973
971
974
971
973
972
976
977
976
974
977
977
980
980
978
976
977
980
982
982
979
973
970
968
970
970
975
989
1011
1036
1063
1087
1108
1121
1142
1169
1197
1227
1254
1277
1300
1314
1319
1318
1318
1308
1287
1259
1225
1194
1166
1135
1107
1075
1039
998
963
930
906
882
867
855
848
845
846
851
850
853
853
854
863
871
880
887
891
892
897
902
909
914
915
917
923
926
928
930
927
925
923
926
927
929
927
924
924
925
929
926
923
920
920
918
921
919
915
912
913
912
913
912
909
907
908
909
911
911
909
909
909
910
913
914
914
913
917
919
923
925
926
925
929
933
936
940
940
940
944
949
952
953
952
952
957
963
965
969
969
968
974
975
980
983
985
987
988
993
998
996
998
999
1001
1004
1009
1006
1009
1010
1011
1012
1015
1016
1015
1013
1013
1015
1018
1016
1013
1013
1011
1010
1010
1007
1007
1003
1001
1002
1004
1003
1000
999
1000
1003
1005
1006
1006
1005
1005
1004
1003
1004
1005
1002
1005
1008
1013
1013
1014
1012
1013
1016
1018
1017
1014
1011
1008
1010
1010
1009
1008
1009
1009
1013
1013
1012
1009
1002
999
996
991
985
979
974
970
968
966
967
966
962
963
964
964
965
963
961
963
963
968
964
964
964
963
963
965
965
963
963
964
967
967
964
964
962
962
966
965
968
967
963
965
968
972
971
969
967
970
972
973
973
974
969
971
976
978
977
974
972
972
971
966
963
959
959
961
975
998
1021
1045
1067
1090
1110
1127
1146
1171
1195
1222
1251
1278
1298
1313
1318
1321
1323
1320
1310
1280
1241
1207
1178
1151
1124
1096
1059
1017
975
946
917
892
867
847
838
836
834
832
831
835
836
840
842
846
851
860
868
876
882
881
885
889
896
903
908
908
911
913
915
918
919
919
913
914
919
917
918
916
911
911
913
913
912
907
905
904
908
907
906
901
898
899
901
901
902
898
896
897
898
901
900
900
895
898
899
902
903
903
903
906
908
912
913
913
911
914
917
922
923
924
922
926
931
934
936
938
938
942
946
951
956
955
959
962
966
970
971
973
974
977
980
984
987
987
988
992
995
997
1001
1000
1001
1002
1002
1005
1005
1005
1004
1005
1006
1006
1006
1005
1001
999
1001
1003
1003
999
997
997
996
997
996
995
992
994
993
998
999
998
994
995
997
997
999
999
997
997
999
1004
1003
1003
1003
1007
1008
1009
1007
1005
1003
1002
1001
1001
999
998
996
998
998
1000
1002
1001
1000
999
997
994
987
982
973
968
969
966
963
958
954
954
956
957
956
954
954
953
954
956
956
954
951
952
953
954
956
954
950
951
952
955
954
954
954
955
955
958
958
957
955
955
958
960
962
960
959
961
963
964
963
964
962
964
965
969
970
965
963
961
962
964
961
956
950
952
959
968
988
1015
1043
1073
1099
1120
1138
1161
1191
1219
1248
1280
1301
1316
1319
1320
1318
1316
1299
1262
1218
1184
1153
1122
1089
1052
1010
966
932
902
877
855
832
820
817
819
823
825
825
825
831
839
849
857
861
866
875
878
882
887
889
895
901
905
906
907
905
906
906
908
907
904
903
898
902
905
903
899
898
897
899
897
897
895
894
893
894
896
896
893
890
891
893
892
894
891
890
891
893
896
898
897
896
896
900
904
906
905
903
904
909
913
918
917
918
924
927
934
935
937
939
942
945
949
954
955
956
958
964
969
972
973
975
978
984
987
989
991
990
992
995
996
997
997
994
993
996
998
998
997
994
995
996
997
994
995
989
989
991
991
990
988
985
985
984
989
988
989
988
990
991
994
992
991
989
987
988
988
989
986
988
988
995
998
998
995
995
993
998
995
994
991
992
993
993
994
998
995
995
995
994
994
986
981
974
968
966
964
961
956
952
949
952
951
948
948
943
944
948
948
949
948
944
947
947
950
949
947
947
950
950
952
952
951
950
951
954
956
955
955
953
956
957
961
960
958
957
956
957
960
960
959
958
955
959
959
961
959
956
957
957
959
952
951
947
948
960
980
1005
1035
1066
1096
1117
1137
1161
1189
1213
1243
1272
1296
1311
1312
1309
1304
1295
1275
1238
1194
1157
1124
1091
1064
1028
988
946
916
891
870
853
837
826
823
825
829
832
833
833
835
845
857
866
869
873
878
883
892
893
902
903
906
908
911
911
911
907
907
910
910
909
908
907
906
908
908
905
903
901
901
901
902
902
899
898
899
901
901
901
899
897
898
900
903
901
898
896
898
901
906
907
904
905
907
913
916
920
922
923
926
929
933
936
938
942
943
949
953
958
958
962
966
968
975
980
979
979
984
986
992
991
993
991
996
999
1001
1004
1002
1001
1003
1004
1005
1005
1002
1000
1000
1003
1003
1004
999
999
999
999
997
999
996
994
997
1000
999
999
1001
998
999
997
1001
1000
997
997
1002
1004
1008
1011
1008
1004
1005
1007
1009
1009
1006
1003
1005
1006
1010
1010
1009
1008
1007
1008
1007
1001
994
988
980
976
974
969
962
960
957
960
960
960
955
956
956
954
959
960
961
955
958
961
961
963
961
960
960
963
966
965
965
963
961
965
968
966
964
962
963
965
967
965
966
962
966
967
967
968
966
966
968
971
971
970
969
966
963
960
960
960
960
963
982
1008
1035
1062
1085
1102
1119
1143
1175
1205
1228
1257
1281
1304
1316
1316
1315
1307
1291
1261
1225
1188
1157
1126
1094
1062
1024
981
944
914
887
869
854
847
841
839
839
845
848
844
847
852
862
871
879
881
884
889
891
899
906
910
912
913
914
916
916
916
914
913
913
914
915
914
912
907
909
907
912
910
910
907
906
908
906
907
904
900
899
903
901
901
899
899
897
899
905
904
903
903
905
909
910
910
910
911
917
921
926
930
929
934
934
941
944
948
948
949
953
957
961
964
966
968
972
974
977
980
983
983
987
991
996
998
999
999
999
1001
1004
1006
1003
1002
1005
1009
1008
1010
1008
1006
1005
1007
1006
1006
1003
1000
1000
999
1000
998
998
996
999
1000
1004
1002
999
997
999
999
1000
998
1001
997
1001
1005
1009
1010
1007
1007
1005
1008
1009
1006
1002
1001
1001
1004
1004
1005
1005
1003
1001
997
997
990
983
977
971
969
967
961
956
955
952
953
956
953
953
949
952
956
959
957
958
956
957
959
962
959
957
955
958
960
960
959
958
956
957
959
960
962
961
958
959
961
962
961
964
962
962
966
968
968
967
965
965
970
971
969
970
967
963
964
962
959
958
961
974
996
1023
1048
1069
1087
1106
1124
1148
1176
1203
1230
1261
1290
1309
1318
1321
1316
1313
1301
1276
1240
1203
1170
1138
1107
1076
1033
988
948
920
895
874
855
843
835
833
834
836
838
838
836
840
850
856
866
871
876
880
887
892
896
899
899
903
910
912
913
910
910
913
916
915
913
911
909
908
909
909
907
905
900
901
902
903
901
898
898
896
897
899
898
896
896
896
895
898
898
898
895
896
900
903
903
903
905
907
913
917
919
920
918
921
926
933
932
934
935
937
943
949
952
956
958
962
966
973
976
977
978
978
982
988
992
993
996
997
1001
1004
1005
1006
1002
1003
1002
1004
1005
1003
999
999
996
997
996
994
991
991
992
993
992
989
988
989
991
996
994
993
990
991
992
997
995
993
990
989
996
999
999
1001
999
998
998
1001
997
995
995
992
994
995
996
993
992
992
996
996
995
989
978
973
968
967
964
958
952
951
952
952
952
953
951
950
953
955
955
952
948
949
949
950
952
950
951
951
951
953
952
951
950
949
953
956
956
954
952
953
955
959
955
956
955
955
959
961
962
959
959
960
961
962
963
959
959
956
958
957
953
950
948
950
958
972
997
1023
1051
1076
1102
1124
1138
1160
1184
1211
1239
1268
1288
1306
1310
1313
1314
1314
1304
1283
1250
1211
1178
1149
1117
1088
1055
1015
976
943
911
882
859
840
827
824
821
819
822
824
829
831
831
833
841
850
860
866
873
874
874
880
888
894
896
898
900
902
903
908
910
905
903
906
905
905
903
899
898
898
898
898
898
894
892
892
891
895
892
888
887
886
891
891
890
888
887
886
889
894
893
892
890
891
894
897
898
897
899
897
900
903
905
906
905
905
911
916
920
919
921
924
927
930
933
936
940
941
947
954
955
958
962
965
968
973
976
977
978
982
985
989
991
995
991
992
995
996
995
995
993
992
995
994
994
993
990
988
990
992
991
990
985
985
985
987
984
984
981
982
984
988
989
988
985
988
987
989
989
988
985
983
980
983
985
984
984
988
992
