958
960
959
954
956
957
956
952
950
946
944
946
952
969
990
1011
1028
1039
1049
1056
1056
1066
1078
1093
1111
1123
1125
1125
1128
1132
1134
1130
1120
1103
1089
1078
1074
1069
1066
1056
1038
1013
989
966
944
921
903
891
879
874
871
865
864
869
870
865
863
867
870
874
880
882
885
889
892
896
899
904
907
910
910
916
919
926
926
920
913
910
911
915
919
921
918
913
911
911
910
906
902
905
910
913
912
914
909
905
911
913
912
909
907
911
912
910
909
908
910
915
918
923
924
924
925
924
922
921
924
932
941
944
943
940
935
938
941
948
951
951
950
951
957
964
968
975
970
964
964
970
976
983
984
984
982
989
996
996
994
992
992
998
1000
1000
1000
1003
1002
1002
1010
1014
1014
1010
1007
1007
1010
1009
1009
1006
1001
1000
1004
1008
1007
1003
1002
1006
1007
1008
1003
999
996
1000
1006
1007
1006
1003
1004
1007
1009
1009
1005
1000
994
985
978
973
973
970
966
960
951
953
955
952
948
947
947
949
952
948
945
946
951
954
954
951
949
949
951
951
945
945
946
956
960
961
956
952
948
951
951
955
957
954
951
954
957
960
960
958
957
958
957
955
944
942
943
952
966
985
1007
1031
1049
1064
1073
1079
1097
1120
1141
1163
1182
1195
1197
1189
1181
1175
1172
1166
1152
1137
1122
1108
1094
1078
1049
1020
986
959
937
914
892
878
866
862
858
855
856
856
853
853
859
865
868
870
873
879
884
883
884
887
894
900
908
913
912
912
910
913
916
915
913
913
911
913
916
913
912
911
909
909
913
913
912
910
907
908
911
912
909
903
903
905
909
910
909
907
906
910
911
914
912
910
906
914
920
922
923
923
924
926
929
930
928
933
936
941
946
948
949
950
952
957
959
961
961
961
959
964
969
970
971
969
972
976
985
988
994
993
990
992
995
998
1000
998
997
998
999
1001
1000
999
997
998
1002
1002
1003
1003
1001
1003
1004
1003
1001
998
997
997
998
999
997
1000
997
1000
1000
1001
999
999
997
996
997
998
995
992
993
998
1002
1001
998
992
982
975
974
972
965
957
954
952
951
952
951
950
949
948
948
950
946
944
944
945
945
946
944
944
943
943
943
941
941
941
945
947
947
946
944
944
945
945
946
946
945
944
945
946
949
950
945
942
940
939
946
954
966
984
1012
1037
1064
1081
1088
1094
1105
1124
1144
1163
1176
1181
1177
1171
1162
1157
1142
1124
1103
1092
1080
1063
1047
1022
992
963
937
913
882
861
842
838
836
837
836
832
831
831
836
845
846
847
851
856
861
865
868
877
880
885
887
890
891
891
891
894
897
898
898
897
893
895
897
895
895
892
892
891
892
895
893
890
887
888
889
890
889
887
888
888
890
890
890
889
892
894
898
899
897
897
899
904
908
906
909
911
910
917
920
925
925
927
929
931
933
936
940
941
942
945
951
956
959
958
959
962
966
968
969
969
970
973
979
976
975
976
976
980
983
982
979
977
978
979
986
990
985
986
983
985
982
983
983
979
977
976
977
979
981
980
981
982
983
982
982
976
974
973
975
977
973
972
971
974
977
976
974
970
967
965
962
955
953
945
938
936
937
934
932
931
930
929
929
928
926
927
926
930
930
926
925
925
924
930
930
929
927
925
924
926
928
930
929
927
926
928
931
932
932
931
930
931
933
935
933
933
931
934
937
938
935
934
933
933
940
949
973
996
1019
1040
1050
1052
1054
1064
1082
1102
1117
1124
1127
1121
1112
1107
1107
1104
1091
1074
1065
1055
1048
1035
1016
985
956
932
913
888
869
855
848
847
847
848
844
842
840
847
851
856
858
861
863
868
870
875
879
880
882
890
894
898
899
898
895
898
896
899
896
895
890
892
894
894
895
893
894
892
895
895
896
894
888
892
894
893
896
894
893
897
900
899
898
895
894
900
903
903
903
905
906
907
914
915
915
915
917
921
926
929
929
927
930
933
937
940
939
942
944
943
951
954
953
954
954
958
962
964
963
961
967
967
970
969
967
967
965
969
972
974
971
971
968
974
975
973
973
977
977
978
982
980
977
973
973
975
978
977
974
973
971
975
978
978
977
977
976
978
980
981
982
980
974
974
976
978
978
975
971
978
981
977
975
968
961
962
956
954
949
943
936
933
933
936
933
933
933
936
933
933
931
929
931
935
934
934
935
932
931
933
935
935
934
931
930
932
933
934
934
932
932
934
938
939
939
938
935
939
940
942
942
941
938
940
940
942
937
930
927
931
936
945
963
981
996
1010
1019
1023
1032
1050
1067
1087
1100
1112
1115
1116
1116
1117
1117
1116
1109
1096
1083
1077
1072
1068
1056
1040
1022
1001
978
955
930
907
896
885
878
874
870
868
868
865
865
865
867
871
876
883
883
886
884
887
889
897
902
904
903
904
905
909
912
911
909
907
907
907
911
909
909
907
906
907
910
910
909
907
903
904
906
908
908
905
901
905
906
908
909
908
907
910
914
913
916
913
913
915
919
921
922
923
921
928
931
934
938
935
938
944
947
952
952
950
952
959
961
965
967
969
968
972
975
979
979
979
980
984
986
990
990
988
989
992
994
993
993
993
993
998
998
997
997
994
992
993
995
993
992
993
993
994
997
998
997
994
993
990
995
994
992
991
987
989
990
991
992
991
991
989
984
978
970
964
958
955
954
948
947
943
940
942
942
941
941
939
940
941
943
944
943
941
941
941
942
945
945
944
943
944
945
941
942
942
942
943
944
943
944
939
941
944
945
947
945
944
944
946
944
943
940
937
933
936
943
959
980
998
1014
1028
1036
1047
1061
1084
1106
1126
1141
1153
1160
1163
1162
1164
1165
1158
1147
1125
1110
1101
1092
1077
1056
1033
1006
980
953
926
907
896
882
875
873
870
867
865
862
860
863
865
866
872
871
880
882
885
888
889
893
898
904
908
908
910
910
910
912
908
907
902
899
901
903
902
903
904
902
903
905
904
905
903
903
904
905
903
902
900
900
903
904
904
903
905
904
907
908
910
912
913
911
914
919
918
921
923
921
925
925
928
932
931
935
937
942
946
948
948
948
953
958
961
963
966
964
970
972
974
975
978
978
980
984
987
988
989
989
990
992
992
994
991
990
993
997
995
996
994
991
996
1000
998
996
992
987
987
989
990
992
992
992
994
996
996
996
994
991
992
995
992
994
991
989
992
997
997
991
983
976
974
971
965
959
951
944
943
943
944
946
944
943
944
940
940
943
944
943
945
947
947
946
942
943
944
946
946
946
946
945
946
949
949
946
945
946
948
952
951
950
945
942
944
954
957
954
951
948
948
947
946
946
946
954
974
1002
1025
1045
1059
1064
1077
1097
1119
1140
1158
1183
1200
1207
1206
1203
1198
1191
1183
1162
1145
1129
1112
1098
1081
1061
1034
1005
974
941
914
895
883
871
865
860
861
860
857
855
856
859
864
871
877
878
879
879
884
891
894
898
899
901
904
909
910
908
907
906
906
906
908
905
904
903
901
903
903
902
898
899
899
900
900
896
896
893
893
896
895
895
897
899
900
906
904
903
903
903
904
910
907
910
910
911
917
921
922
922
922
923
929
933
937
938
939
939
942
946
946
948
950
952
961
967
972
974
972
971
976
976
981
982
986
986
989
993
991
995
992
994
997
1003
1003
1001
999
1000
1002
1008
1005
1009
1006
1004
1006
1005
1004
1001
999
996
996
995
997
997
998
999
999
1002
1004
1000
1002
1000
997
1000
1000
999
994
996
997
999
1001
1002
999
996
992
988
980
976
970
965
962
959
956
950
949
950
949
949
947
947
944
944
947
948
950
948
945
945
947
948
948
946
946
945
949
948
950
948
948
950
952
950
952
954
952
950
953
954
956
957
953
954
956
958
959
958
957
955
955
952
949
949
950
954
968
992
1019
1041
1058
1074
1091
1101
1112
1133
1151
1171
1194
1214
1230
1239
1239
1234
1232
1230
1220
1203
1176
1155
1139
1124
1107
1088
1061
1028
1003
980
954
926
898
877
865
858
854
849
845
844
846
846
846
849
852
855
859
866
872
874
874
877
884
889
894
899
899
899
900
903
907
906
903
905
905
906
906
906
905
904
902
903
905
901
899
899
898
897
897
896
894
891
893
896
893
895
893
892
894
896
898
900
896
896
897
902
902
902
903
905
905
909
910
911
914
916
918
922
926
925
927
928
932
938
939
941
942
944
947
951
954
956
955
957
962
968
971
970
971
974
978
980
982
984
985
984
991
992
995
994
993
991
996
997
997
997
995
999
1001
1005
1008
1007
1007
1007
1007
1008
1011
1009
1006
1002
1003
1001
1002
999
1000
1001
1003
1005
1007
1005
1000
1000
1002
1005
1004
1002
1000
999
1002
1003
1002
1001
1002
1001
1001
1000
995
990
983
978
975
971
971
962
956
952
952
952
952
950
948
946
947
948
947
949
947
944
945
946
949
945
945
944
943
947
948
948
945
945
946
947
950
952
952
948
951
951
952
952
949
948
950
951
953
954
950
954
954
958
957
958
956
953
951
950
946
946
947
953
967
985
1010
1033
1051
1066
1081
1092
1107
1129
1149
1171
1194
1215
1228
1236
1235
1231
1234
1231
1224
1207
1182
1163
1148
1136
1120
1098
1073
1041
1012
985
961
931
909
890
880
873
862
857
853
853
852
853
850
850
855
856
862
870
874
876
876
880
885
891
895
898
895
896
900
905
910
907
906
903
901
901
901
900
898
895
899
899
900
897
894
891
893
895
895
892
889
888
891
893
894
891
889
891
892
895
894
893
891
893
899
900
899
900
902
901
907
910
914
913
917
916
924
931
935
934
932
932
943
947
950
951
951
950
954
958
962
964
963
964
965
972
976
979
979
978
982
984
985
986
987
988
990
994
995
994
992
992
995
998
998
998
996
994
997
996
998
995
994
988
988
992
990
992
993
996
999
1001
1000
996
996
996
996
997
997
993
990
988
990
993
994
995
990
984
982
977
972
963
958
952
951
951
949
947
947
944
945
949
948
948
945
944
944
946
947
947
945
944
945
946
945
947
945
943
945
947
945
946
943
946
947
950
950
948
945
943
946
952
952
952
952
951
951
953
953
951
950
949
950
952
953
954
958
970
993
1023
1046
1068
1089
1103
1110
1121
1142
1161
1180
1202
1223
1234
1238
1234
1226
1222
1215
1206
1187
1164
1144
1131
1117
1102
1084
1062
1034
1002
980
958
933
907
882
866
855
852
852
850
849
844
844
846
849
851
853
856
862
871
873
875
872
876
883
890
892
896
898
899
903
904
905
906
906
904
907
908
906
902
902
900
902
901
903
903
899
897
899
902
899
899
898
896
899
898
899
898
895
895
899
900
901
901
900
900
902
904
904
907
908
910
910
916
918
920
921
923
926
931
935
935
939
942
945
949
953
957
957
959
963
967
972
974
976
978
982
982
983
983
986
987
992
994
996
996
994
993
996
997
996
996
997
995
999
999
1001
1002
1001
998
1000
1003
1005
1005
1002
992
991
995
1000
1003
1004
999
997
995
999
999
998
995
995
996
997
993
995
995
997
996
991
982
976
969
966
963
961
958
955
952
952
950
948
949
949
949
949
950
948
953
963
968
964
956
953
954
954
947
939
936
937
941
941
943
947
949
952
951
947
945
948
951
953
954
951
952
953
954
954
952
947
943
945
954
970
995
1023
1051
1078
1097
1104
1103
1106
1118
1139
1164
1189
1200
1200
1195
1195
1199
1199
1188
1171
1144
1120
1100
1082
1066
1054
1037
1012
989
965
939
913
890
875
864
861
856
855
853
856
854
855
858
862
865
870
876
876
878
884
895
911
915
911
904
901
899
897
897
899
901
902
908
911
914
909
898
887
884
889
895
901
907
908
907
908
908
909
910
908
904
908
914
915
912
911
907
903
901
898
901
904
905
906
909
906
896
891
893
910
923
930
936
947
952
942
929
915
912
917
922
926
933
940
953
959
964
965
963
954
947
946
946
951
956
961
969
981
989
993
987
979
976
976
978
986
1001
1015
1016
993
967
955
959
974
983
986
985
987
996
996
988
977
973
983
992
984
968
960
961
978
993
1002
1000
993
986
984
984
983
976
969
963
970
981
983
980
978
979
980
977
972
966
960
948
939
936
934
934
939
944
945
943
943
943
937
932
929
933
945
954
961
958
949
935
931
931
938
938
937
936
936
941
952
956
947
934
933
935
934
927
925
930
938
942
940
937
936
938
938
936
932
933
940
944
944
957
973
993
1009
1022
1031
1042
1061
1084
1108
1124
1138
1148
1150
1149
1152
1153
1150
1136
1120
1102
1093
1088
1077
1059
1033
1005
981
957
934
907
889
878
875
874
867
857
852
844
841
843
850
864
872
879
885
883
880
874
875
879
888
895
901
905
909
913
923
926
926
921
909
900
895
896
895
900
903
906
910
911
912
909
910
908
911
910
914
909
911
909
913
916
913
911
908
907
907
908
913
910
911
910
914
918
919
918
914
915
919
925
928
930
931
935
938
943
945
948
950
945
947
946
945
945
951
957
961
965
966
970
973
972
977
979
984
984
981
979
978
981
981
978
978
980
982
982
983
981
983
982
984
986
988
989
990
991
995
996
995
992
995
994
992
993
993
993
994
994
996
1001
1003
1003
1000
1000
1002
1005
1003
1000
997
996
998
1000
1002
1001
996
991
993
990
986
977
965
960
960
961
958
956
954
953
953
953
957
954
954
955
953
959
958
960
960
957
957
958
958
956
955
956
956
957
957
959
957
956
958
961
960
962
963
961
964
967
965
964
962
957
954
953
952
952
956
971
994
1020
1035
1043
1046
1060
1084
1111
1132
1147
1157
1158
1164
1166
1164
1157
1143
1126
1113
1102
1092
1074
1051
1025
1000
975
951
926
907
894
887
884
880
876
871
872
875
876
879
883
886
891
897
902
903
905
905
910
914
919
920
921
921
922
924
926
925
925
923
920
922
921
922
921
919
919
920
919
921
919
916
917
918
920
921
918
916
918
916
920
921
922
920
918
921
925
925
926
924
923
926
934
936
935
935
935
937
943
944
946
947
947
951
954
960
961
961
962
965
971
973
976
977
977
981
983
985
990
991
990
993
993
995
997
993
995
996
1000
1002
1001
998
997
997
998
999
999
996
994
997
1000
1003
1003
1002
998
1003
1002
1002
1002
999
995
994
996
998
997
997
999
1003
1004
1005
1003
1000
1002
1003
1003
1000
999
995
995
995
994
994
998
995
994
991
987
981
972
968
964
962
959
957
954
953
952
953
952
953
952
952
952
955
956
955
953
954
953
953
953
954
954
952
952
952
957
953
955
953
955
957
959
959
958
954
957
957
960
959
959
959
961
960
963
962
959
955
950
948
953
963
979
1002
1025
1045
1057
1067
1079
1101
1121
1144
1167
1185
1190
1191
1187
1185
1182
1167
1143
1123
1101
1088
1071
1048
1019
986
955
932
913
895
881
871
866
866
870
869
868
866
868
875
884
892
896
895
899
900
909
910
912
915
918
923
925
926
925
922
922
925
925
927
923
922
921
922
922
923
920
918
920
919
919
918
916
914
915
917
918
921
920
918
916
917
919
921
921
920
918
922
922
925
923
925
923
926
931
935
935
935
934
942
944
949
950
950
952
957
961
964
965
966
968
969
974
976
977
976
976
979
983
982
985
988
989
990
990
994
993
991
990
991
996
993
993
994
990
994
996
997
997
997
995
998
1001
1001
998
996
994
995
996
995
991
988
990
991
994
997
995
995
994
994
997
998
996
996
992
991
995
994
992
991
992
996
994
994
988
981
975
970
967
964
958
952
949
950
948
948
946
943
943
945
949
947
948
946
946
952
954
955
953
952
950
954
956
954
953
952
951
951
956
955
954
951
951
951
954
955
954
953
954
955
958
956
957
956
955
955
957
956
957
951
950
952
956
966
984
1008
1032
1059
1082
1096
1104
1118
1136
1153
1175
1198
1212
1215
1214
1207
1200
1195
1179
1154
1129
1112
1095
1073
1051
1020
986
957
935
914
889
869
854
850
848
848
849
849
849
851
853
859
865
868
872
881
890
893
894
896
899
903
910
914
914
913
912
915
916
915
915
912
909
912
915
913
911
908
906
910
911
912
908
907
909
909
911
911
912
912
910
909
914
914
915
915
915
918
919
922
923
924
926
929
934
936
936
937
937
943
948
950
949
950
953
959
964
966
967
967
969
974
976
981
981
984
984
989
990
991
993
992
992
996
999
1001
1000
998
997
997
999
999
998
995
994
996
1001
1001
1003
1000
999
1000
1000
1001
999
997
992
991
990
993
992
994
995
996
1000
1001
1000
997
997
999
999
997
995
994
993
995
997
996
998
993
990
987
984
979
974
966
961
959
958
956
952
949
949
952
953
951
949
949
949
951
952
951
953
949
952
954
956
954
955
953
953
954
956
956
954
952
949
953
954
958
957
956
955
959
961
960
956
958
957
959
960
963
959
955
950
951
952
953
962
976
999
1020
1045
1064
1072
1076
1089
1110
1131
1148
1166
1181
1187
1193
1194
1189
1184
1176
1163
1144
1124
1106
1090
1074
1055
1033
1004
976
951
928
909
891
882
875
868
864
861
864
869
869
868
871
874
883
889
894
899
897
898
903
910
917
916
915
917
918
922
925
923
919
916
918
920
918
920
915
914
913
917
915
915
912
911
911
911
912
911
910
910
911
914
915
915
911
910
912
917
917
917
916
915
917
922
921
922
924
925
927
