932
930
935
940
942
946
948
948
953
957
962
965
965
967
975
980
984
986
985
983
988
989
993
994
996
992
995
998
999
1000
999
998
1001
1001
1000
999
996
996
996
997
998
997
996
990
989
987
989
989
986
986
988
991
995
995
997
996
996
998
1001
997
995
993
992
993
998
999
1002
999
1001
1001
1004
1004
1000
996
998
997
999
999
999
998
997
1001
1001
999
997
993
990
984
980
974
969
964
959
958
954
954
954
952
951
950
950
951
948
949
949
950
952
954
953
952
950
954
954
955
954
950
955
956
959
958
957
955
957
960
960
962
962
957
962
963
965
963
963
961
963
964
964
964
965
963
963
963
966
960
955
951
952
955
963
981
1003
1028
1056
1081
1098
1109
1123
1148
1173
1199
1227
1248
1263
1269
1271
1271
1268
1260
1247
1217
1188
1165
1142
1121
1095
1064
1026
992
963
933
907
882
863
855
848
846
846
844
847
848
850
854
859
866
875
882
886
892
894
898
904
909
915
918
919
920
921
924
924
922
920
920
919
920
920
917
917
914
915
915
916
916
914
911
911
912
912
913
911
908
910
912
912
916
911
910
910
913
915
915
913
912
910
915
918
917
916
916
921
922
926
928
926
927
931
934
939
940
943
943
948
953
956
960
960
961
968
969
974
976
981
981
985
991
993
995
997
1000
1001
1003
1007
1007
1009
1008
1009
1011
1015
1014
1012
1012
1012
1013
1016
1014
1013
1009
1011
1011
1014
1010
1009
1005
1005
1007
1005
1006
1006
1005
1004
1012
1012
1015
1015
1012
1013
1012
1014
1012
1012
1012
1012
1015
1020
1019
1020
1018
1019
1020
1018
1016
1014
1012
1014
1015
1017
1016
1016
1014
1013
1012
1010
1004
995
989
984
982
979
974
969
963
965
965
968
963
961
959
960
963
965
965
962
961
961
963
966
965
965
965
966
966
968
968
968
966
966
970
972
973
973
970
969
974
975
977
975
971
970
976
977
977
975
973
974
974
974
969
959
956
957
965
984
1010
1039
1069
1092
1114
1133
1158
1191
1218
1252
1282
1304
1313
1315
1310
1307
1299
1272
1236
1199
1169
1138
1108
1074
1031
986
949
917
895
872
858
848
841
840
843
847
846
845
846
853
864
872
879
883
888
891
899
905
910
915
915
920
922
925
923
925
922
922
921
923
922
920
918
918
920
921
920
919
916
915
914
915
914
913
911
911
913
913
912
912
909
911
911
913
915
912
912
912
916
916
918
915
914
916
920
921
925
925
925
928
935
937
938
938
940
944
949
954
956
958
962
962
967
973
975
977
979
984
990
993
995
998
1000
1002
1006
1010
1012
1012
1012
1014
1018
1019
1020
1019
1018
1018
1021
1021
1023
1019
1018
1019
1021
1022
1022
1018
1015
1016
1016
1017
1014
1012
1011
1010
1013
1018
1016
1017
1017
1020
1020
1021
1020
1018
1015
1015
1016
1018
1020
1019
1020
1021
1023
1025
1024
1022
1020
1017
1016
1017
1018
1016
1014
1017
1020
1020
1018
1014
1008
1006
1004
997
992
986
981
973
972
972
969
970
965
964
964
967
965
964
961
963
964
967
968
965
964
965
965
966
968
965
965
967
968
971
973
970
969
968
972
974
973
974
970
973
975
975
974
972
970
973
975
974
974
975
968
965
962
961
966
976
998
1030
1062
1091
1111
1126
1148
1177
1210
1242
1271
1299
1318
1330
1332
1330
1320
1298
1257
1216
1179
1148
1114
1077
1030
983
943
915
887
864
845
835
834
834
833
835
834
836
842
848
859
868
872
881
887
890
895
901
903
908
911
917
917
915
911
914
913
913
912
911
907
907
907
909
907
905
900
902
903
902
903
898
896
897
900
899
898
895
894
896
895
899
899
898
896
897
900
901
902
902
901
903
907
910
911
911
914
918
922
926
926
928
930
930
937
942
946
947
947
951
956
959
964
968
968
973
978
981
984
983
986
987
991
995
1000
999
998
999
1002
1002
1003
1003
1001
1002
1002
1005
1004
1004
1001
1003
1004
1006
1005
1000
994
996
996
997
993
994
993
994
995
996
996
997
995
997
999
1002
1001
998
994
995
996
998
995
994
993
994
997
1000
1005
1003
1001
1000
1002
1004
1002
1000
995
998
999
1001
1001
999
998
1002
1004
1003
998
995
986
981
977
973
969
964
959
957
956
955
953
949
943
946
947
952
954
952
949
947
954
952
954
954
950
952
952
955
955
952
949
953
954
958
959
959
958
957
960
963
962
961
957
961
960
965
963
962
959
963
964
964
966
965
958
959
958
957
956
956
965
984
1013
1045
1071
1097
1110
1126
1144
1169
1194
1217
1236
1257
1271
1278
1274
1270
1260
1249
1228
1197
1167
1139
1115
1091
1067
1036
997
961
925
896
873
859
845
836
832
834
837
839
839
838
839
845
855
865
869
873
874
880
884
891
898
900
902
905
907
911
913
911
909
909
911
912
911
909
908
908
907
910
908
903
903
905
904
907
904
902
900
902
903
906
906
903
901
903
906
906
906
905
901
904
907
908
907
905
902
907
909
911
914
912
911
916
920
923
922
925
924
932
936
942
942
943
943
946
951
955
957
957
959
964
970
975
977
979
979
986
989
991
994
993
993
997
999
1002
1003
1000
1001
1001
1006
1005
1004
1005
1002
1004
1004
1006
1004
1003
1000
1003
1002
1003
1001
999
997
997
998
997
998
996
995
996
996
998
996
997
996
999
1002
1000
1000
1000
998
995
995
997
996
996
994
999
1002
1006
1009
1007
1006
1009
1009
1010
1006
1008
1002
1002
1004
1007
1006
1006
1006
1007
1009
1010
1008
1004
997
992
988
985
983
975
970
967
963
961
958
959
954
954
953
955
958
956
953
957
957
959
957
955
953
954
958
961
958
956
956
956
961
966
963
964
962
962
965
967
968
965
964
967
965
964
966
963
965
964
967
969
971
969
966
967
967
968
965
959
954
954
960
972
994
1021
1049
1079
1101
1121
1137
1162
1189
1217
1242
1267
1280
1282
1281
1278
1270
1253
1224
1188
1159
1137
1119
1092
1058
1018
980
948
920
895
875
860
847
843
844
847
849
848
850
853
862
871
877
883
885
891
896
902
906
911
910
917
920
923
923
923
920
922
922
924
924
921
919
919
920
924
919
916
917
917
918
917
917
914
911
911
915
917
917
915
911
913
917
917
917
917
913
915
916
918
917
918
916
917
920
925
925
926
926
929
932
935
937
938
939
942
945
953
954
956
958
960
967
973
975
976
978
980
985
990
992
993
994
995
1001
1002
1004
1006
1002
1004
1008
1011
1012
1011
1011
1012
1014
1015
1015
1014
1013
1016
1018
1016
1018
1018
1015
1015
1017
1016
1014
1013
1011
1010
1014
1011
1012
1009
1005
1009
1011
1013
1014
1012
1008
1011
1013
1013
1009
1010
1007
1008
1010
1014
1015
1016
1014
1018
1021
1022
1021
1020
1019
1018
1017
1015
1014
1013
1012
1015
1018
1018
1019
1020
1016
1015
1015
1013
1005
997
990
985
982
979
976
968
964
963
967
967
966
963
960
962
964
965
963
963
960
961
963
967
966
965
963
962
966
968
968
967
965
968
969
972
971
974
968
970
972
975
973
970
968
971
971
971
971
972
969
971
973
976
974
971
969
971
971
973
967
962
958
958
960
970
991
1015
1039
1069
1095
1111
1123
1145
1167
1202
1230
1257
1283
1302
1311
1318
1319
1316
1306
1290
1259
1222
1192
1168
1141
1109
1077
1038
999
965
933
903
874
858
851
845
838
839
834
839
845
846
849
854
862
870
878
883
887
890
890
896
902
907
910
913
912
916
917
919
920
917
915
916
916
918
915
914
911
912
910
913
912
910
906
908
908
909
910
907
906
905
906
907
906
904
903
902
905
906
906
905
902
902
908
907
909
910
910
910
914
917
917
919
920
924
927
933
933
933
938
942
945
949
955
957
957
961
968
972
972
976
978
981
985
988
989
990
990
993
999
1003
1003
1003
1003
1005
1008
1010
1010
1011
1009
1008
1013
1015
1015
1014
1009
1011
1012
1014
1013
1011
1010
1010
1011
1011
1008
1005
1003
1005
1005
1004
1005
1004
1001
1003
1005
1007
1008
1005
1003
1002
1004
1005
1004
1003
1003
1005
1008
1014
1016
1015
1013
1014
1016
1016
1011
1009
1005
1005
1009
1013
1011
1010
1007
1012
1012
1009
1010
1003
999
991
987
983
978
972
965
962
961
959
960
955
953
953
953
953
955
952
951
954
954
953
955
955
952
955
956
956
957
958
959
958
961
962
962
960
960
962
962
961
962
958
959
958
959
962
961
961
959
959
962
961
963
963
960
964
966
969
965
963
962
957
957
957
954
955
967
989
1019
1048
1078
1101
1117
1134
1154
1178
1204
1229
1254
1283
1307
1324
1331
1331
1323
1316
1302
1276
1236
1200
1164
1133
1104
1072
1032
987
947
917
893
868
847
832
825
820
819
822
826
825
823
828
836
846
856
859
862
866
870
876
881
884
886
894
897
899
903
903
897
900
904
902
899
901
897
899
898
900
896
895
893
894
896
897
896
893
890
891
893
895
893
889
885
886
888
889
889
887
886
889
893
894
895
896
897
900
901
905
908
909
911
913
919
923
926
928
931
935
939
945
946
949
951
955
958
964
968
967
967
973
976
979
980
981
980
985
989
991
993
992
990
992
996
998
996
996
994
995
999
999
998
995
994
993
995
995
993
991
987
987
988
987
985
983
983
984
989
989
990
989
985
986
988
987
984
984
981
987
992
996
999
995
992
995
998
996
995
994
993
995
993
996
995
994
995
995
995
993
989
983
972
967
965
963
959
951
945
945
947
947
945
943
943
943
945
946
945
944
944
945
949
953
953
949
949
948
953
956
955
952
950
950
952
951
950
951
948
948
951
954
952
952
953
952
954
956
957
956
956
955
959
962
960
958
956
957
953
956
955
956
965
986
1016
1045
1073
1096
1114
1127
1147
1170
1193
1216
1235
1254
1268
1275
1270
1265
1257
1247
1225
1196
1168
1146
1121
1097
1074
1044
1006
969
936
904
881
862
846
836
829
828
831
835
835
835
836
841
852
861
868
870
871
875
882
889
894
899
902
903
907
909
910
907
905
907
907
910
910
906
904
906
907
911
908
904
901
902
903
905
903
899
897
897
898
897
899
898
898
898
900
902
902
903
900
903
906
908
911
911
911
914
917
922
926
925
927
931
936
942
947
948
949
953
958
961
962
964
966
969
970
977
981
982
984
984
991
993
995
995
996
998
1001
1006
1004
1002
1002
1004
1009
1010
1010
1007
1004
1003
1002
1003
1003
1001
999
996
996
997
995
997
994
996
1000
1003
1001
1000
996
997
998
997
999
997
997
1002
1006
1009
1009
1010
1007
1012
1012
1011
1008
1007
1003
1006
1008
1008
1009
1010
1005
1005
1005
1001
994
983
978
971
971
967
962
956
953
955
956
958
954
953
951
956
957
958
956
958
956
958
961
963
963
961
960
961
963
962
960
961
961
958
960
962
964
960
961
961
964
966
966
968
966
966
970
973
971
971
966
968
970
969
964
957
956
960
972
993
1023
1053
1076
1100
1116
1137
1165
1197
1223
1250
1276
1291
1296
1296
1289
1281
1263
1229
1192
1164
1137
1112
1085
1050
1011
970
935
904
880
866
854
843
839
840
844
846
844
848
853
865
873
881
885
887
889
893
904
909
912
914
914
917
919
921
922
919
917
917
917
919
921
917
915
913
917
918
916
913
912
909
911
911
910
907
904
905
907
908
910
908
904
907
908
910
909
911
911
913
915
919
919
920
919
923
928
933
937
938
937
939
943
948
955
955
954
957
961
968
970
969
972
972
978
983
987
992
992
992
997
1000
1004
1005
1003
1006
1010
1012
1013
1014
1013
1014
1018
1020
1018
1017
1016
1017
1016
1018
1014
1013
1011
1008
1009
1005
1005
1003
1003
1003
1006
1008
1010
1010
1009
1007
1007
1009
1006
1007
1005
1004
1005
1011
1012
1013
1012
1018
1021
1022
1020
1018
1016
1014
1015
1014
1017
1012
1010
1011
1011
1015
1012
1011
1008
1005
1000
996
985
981
974
973
967
968
963
960
958
959
958
961
961
959
958
961
963
963
966
964
963
963
965
967
965
963
961
962
964
966
966
965
962
962
966
967
967
966
964
963
967
969
969
968
968
968
971
972
972
973
973
975
974
975
975
970
966
960
962
964
971
983
1006
1036
1064
1090
1108
1123
1140
1170
1204
1237
1267
1291
1309
1324
1328
1327
1325
1314
1291
1257
1223
1190
1162
1134
1101
1064
1025
989
956
927
898
875
860
850
842
838
835
835
837
842
843
844
847
854
866
873
880
881
882
887
896
903
908
909
911
913
917
920
921
918
917
918
918
922
919
919
915
916
917
916
915
915
908
908
909
910
909
908
905
905
906
906
906
905
902
903
907
907
906
906
905
905
906
909
910
909
911
915
917
921
923
925
923
930
932
938
941
941
942
946
950
953
958
956
959
960
965
971
975
977
976
979
982
988
991
992
992
996
1003
1007
1009
1009
1007
1010
1014
1019
1019
1018
1016
1020
1022
1024
1023
1023
1021
1020
1021
1021
1018
1017
1012
1011
1012
1013
1009
1008
1006
1007
1009
1011
1013
1013
1011
1012
1013
1014
1014
1014
1010
1008
1008
1011
1013
1015
1015
1018
1020
1024
1024
1017
1018
1016
1018
1016
1014
1012
1009
1009
1009
1014
1017
1016
1013
1011
1009
1004
997
988
979
977
974
972
968
963
959
960
961
962
964
962
962
962
965
965
965
966
962
962
966
967
966
963
964
962
965
965
963
965
962
965
966
969
966
966
964
966
967
969
968
968
966
967
968
972
976
974
972
970
974
976
974
967
961
960
963
967
975
993
1020
1051
1083
1108
1129
1149
1173
1208
1244
1275
1306
1328
1342
1348
1348
1344
1333
1309
1274
1233
1198
1168
1137
1102
1058
1011
968
933
905
877
856
840
836
832
830
829
828
831
832
839
848
855
863
870
874
881
884
890
895
901
905
911
911
914
912
915
915
917
916
915
913
913
912
911
911
907
904
904
904
907
906
905
900
900
902
903
902
902
898
897
900
900
900
899
896
899
902
901
904
903
903
906
911
916
916
918
917
922
926
928
929
931
932
934
937
942
946
947
948
951
957
963
965
968
969
970
974
982
985
986
988
991
995
997
999
1001
1001
1002
1008
1009
1010
1010
1012
1011
1015
1018
1018
1016
1014
1013
1013
1015
1014
1011
1007
1007
1009
1010
1006
1003
1000
999
1002
1002
1001
1002
1001
1002
1003
1005
1005
1002
1001
1000
1001
1002
1001
1001
998
1000
1003
1009
1013
1014
1010
1010
1012
1016
1016
1012
1009
1009
1010
1009
1008
1007
1004
1008
1013
1013
1013
1009
1001
997
992
987
983
976
970
967
966
964
964
964
960
961
962
965
962
960
960
963
964
966
965
966
962
961
962
964
966
964
959
962
964
964
965
964
963
964
966
969
970
968
967
967
967
971
970
970
969
974
976
977
977
976
974
976
979
979
977
971
966
965
965
970
986
1006
1037
1075
1107
1131
1145
1162
1184
1217
1243
1270
1288
1294
1293
1292
1288
1281
1260
1232
1197
1171
1149
1128
1098
1062
1022
983
951
922
897
874
857
847
844
845
845
846
844
843
851
858
866
875
878
887
890
895
902
904
909
913
917
922
926
926
924
923
925
926
927
922
922
922
923
922
922
916
914
915
917
920
917
914
912
911
916
916
914
912
911
915
913
917
917
919
917
920
923
927
926
928
929
929
938
940
942
941
941
945
950
955
958
962
962
965
970
973
976
978
978
983
988
994
994
995
995
998
1001
1006
1010
1012
1013
1016
1020
1022
1025
1024
1023
1022
1024
1026
1026
1024
1020
1019
1021
1022
1021
1020
1018
1016
1017
1017
1014
1013
1011
1013
1015
1016
1017
1015
1017
1017
1019
1019
1017
1016
1017
1015
1017
1016
1018
1019
1019
1022
1025
1030
1029
1026
1023
1023
1025
1024
1023
1020
1016
1017
1019
1021
1023
1021
1020
1023
1024
1024
1021
1013
1005
1002
999
998
992
988
980
977
978
978
978
978
974
973
973
975
976
975
974
975
975
977
977
976
972
973
973
976
976
974
973
974
977
979
981
977
974
976
977
978
979
979
977
978
981
984
985
984
981
983
987
989
987
987
986
985
987
984
982
976
973
970
971
975
986
1007
1032
1061
1089
1112
1127
1137
1161
1191
1222
1247
1272
1288
1300
1304
1304
1301
1292
1272
1239
1206
1178
1154
1128
1097
1058
1019
984
957
926
902
878
866
860
858
856
854
853
855
858
862
868
875
880
886
895
901
905
910
912
919
923
931
932
933
934
935
937
941
938
936
935
935
933
934
932
929
927
927
929
928
926
926
922
920
924
924
926
922
919
920
921
924
921
922
920
919
922
925
925
925
924
925
931
931
932
932
930
935
938
941
943
943
943
948
949
956
956
956
960
964
967
974
974
977
977
980
987
992
993
992
994
1000
1003
1006
1008
1011
1010
1013
1018
1023
1025
1024
1022
1023
1026
1028
1028
1027
1025
1025
1026
1027
1027
1025
1023
1022
1025
1023
1025
1023
1019
1017
1019
1019
1020
1016
1016
1015
1017
1020
1022
1020
1021
1022
1023
1022
1023
1023
1023
1020
1020
1023
1022
1024
1021
1021
1026
1031
1031
1031
1027
1029
1029
1026
1026
1023
1020
1021
1025
1025
1024
1024
1024
1026
1026
1027
1025
1019
1010
1004
1002
1000
997
992
986
983
982
982
979
978
975
975
975
978
977
975
973
973
978
977
978
975
973
974
976
978
978
977
976
976
978
979
980
977
976
978
979
983
982
983
981
983
984
989
988
985
984
986
989
990
991
988
985
989
991
992
990
988
982
980
977
976
974
974
977
998
1024
1055
1081
1104
1119
1137
1164
1194
1226
1252
1277
1302
1319
1328
1329
1324
1315
1295
1263
1230
1201
1172
1144
1115
1082
1045
1002
967
937
914
891
877
867
858
850
852
857
859
858
861
866
876
886
896
901
906
907
911
921
924
930
930
931
934
937
939
939
936
934
932
933
934
933
930
925
928
930
930
929
927
925
922
925
925
924
922
918
920
924
925
925
922
921
922
922
925
928
925
925
925
931
932
933
933
933
935
938
941
944
946
946
950
952
960
961
962
963
967
972
978
981
982
982
985
990
995
998
999
1001
1005
1009
1016
1018
