908
911
909
906
908
904
902
905
905
902
901
898
897
898
900
900
899
896
899
901
904
902
900
901
903
906
910
913
910
910
913
916
923
923
926
925
927
932
936
943
942
944
947
950
956
960
961
965
970
974
980
979
983
988
990
992
999
1000
1001
1003
1003
1008
1011
1011
1014
1011
1013
1014
1016
1017
1015
1015
1013
1015
1018
1017
1011
1011
1009
1009
1010
1008
1008
1005
1005
1005
1006
1003
1002
999
1001
1002
1005
1008
1008
1006
1007
1009
1010
1008
1005
1006
1004
1009
1011
1012
1013
1012
1012
1015
1018
1017
1014
1012
1006
1009
1012
1014
1010
1007
1008
1009
1009
1010
1006
998
988
987
986
979
975
970
964
963
964
965
963
959
957
957
960
960
958
959
958
960
963
960
960
957
958
960
963
963
961
960
962
962
964
965
962
961
961
965
965
966
966
964
963
966
968
970
967
966
967
969
972
970
969
969
965
966
967
963
960
962
969
992
1022
1047
1074
1095
1115
1134
1153
1180
1208
1237
1264
1290
1316
1328
1334
1328
1320
1313
1294
1259
1216
1184
1153
1126
1098
1064
1024
981
943
913
888
861
845
830
826
824
826
829
832
833
833
838
845
854
858
867
871
874
882
884
890
892
895
902
908
909
909
909
909
909
910
909
909
909
906
908
909
907
904
902
901
904
902
903
901
900
898
899
902
897
896
896
896
896
899
900
900
896
895
897
899
903
902
903
904
907
913
915
916
919
923
928
932
933
934
937
940
946
950
953
956
958
962
968
973
974
977
978
982
988
993
995
996
997
999
1001
1007
1006
1009
1007
1005
1006
1012
1011
1011
1010
1007
1010
1010
1010
1009
1005
1003
1005
1004
1005
1002
998
997
999
997
995
994
992
992
997
999
1001
999
998
997
997
998
997
997
996
998
1002
1006
1008
1008
1006
1003
1007
1007
1005
1002
1000
1001
1003
1004
1003
1004
1003
1001
1000
1001
994
987
978
973
972
971
964
960
955
953
956
955
954
950
951
948
950
953
954
952
951
951
952
955
955
952
951
950
955
957
956
958
957
955
958
961
960
959
957
956
960
963
961
962
959
962
963
967
965
962
960
960
960
959
954
955
955
962
983
1014
1043
1071
1096
1113
1130
1152
1178
1203
1227
1251
1274
1288
1293
1292
1287
1279
1266
1242
1206
1173
1145
1121
1096
1068
1028
985
947
917
888
869
853
841
831
828
830
834
837
838
838
844
854
859
867
873
876
879
885
893
897
901
906
908
910
915
918
915
914
914
912
913
913
913
910
905
906
906
908
909
905
903
905
906
906
903
899
900
902
905
903
900
900
901
903
906
906
907
905
904
908
909
912
913
914
913
917
921
925
926
928
930
935
938
941
946
948
949
954
958
961
963
967
968
975
980
983
984
987
989
993
997
997
999
998
1001
1005
1008
1012
1010
1010
1009
1013
1015
1015
1014
1011
1010
1011
1012
1011
1010
1008
1006
1006
1008
1007
1003
1003
1000
999
1002
1000
998
998
996
999
1003
1004
1003
1003
1001
1004
1006
1004
1004
1006
1004
1005
1010
1013
1011
1011
1011
1015
1016
1015
1011
1008
1010
1008
1012
1011
1009
1009
1010
1009
1008
1007
1000
994
988
982
982
978
971
965
962
961
959
960
957
956
953
953
957
958
957
958
955
958
959
959
958
959
957
960
960
960
960
959
961
962
964
964
961
960
961
963
967
965
966
963
965
966
968
969
967
965
968
971
971
969
968
964
957
955
957
958
966
984
1012
1041
1068
1090
1104
1118
1140
1171
1201
1231
1256
1275
1289
1298
1301
1301
1292
1281
1255
1223
1193
1161
1135
1104
1068
1031
991
955
921
894
871
857
847
841
834
834
837
842
844
842
846
851
858
869
877
882
882
885
890
896
903
906
910
912
913
914
918
920
915
916
912
914
916
916
914
911
911
911
913
911
908
908
904
908
909
909
903
904
903
902
903
903
903
900
899
903
906
904
904
901
903
906
910
910
910
910
911
915
921
922
922
924
926
934
936
938
941
943
945
949
957
960
961
964
967
972
977
979
981
983
985
990
992
997
997
998
999
1003
1007
1009
1010
1010
1011
1014
1015
1016
1017
1016
1014
1018
1017
1016
1015
1011
1012
1009
1011
1011
1007
1006
1004
1004
1004
1002
999
997
996
998
1000
999
1001
1001
1003
1005
1005
1005
1002
1002
1000
1006
1006
1008
1010
1010
1011
1011
1014
1014
1011
1007
1003
1005
1008
1009
1008
1009
1008
1010
1012
1008
1003
995
988
984
981
976
971
962
960
958
961
960
960
957
956
958
960
960
961
958
957
961
962
960
959
958
959
959
960
964
962
960
960
962
965
965
965
963
962
966
968
966
967
964
965
968
970
970
970
971
967
973
969
966
961
956
954
963
980
1010
1042
1070
1093
1111
1133
1163
1200
1231
1262
1292
1309
1318
1323
1319
1307
1290
1259
1221
1185
1157
1129
1099
1064
1022
973
938
906
884
864
850
841
831
831
835
840
840
840
842
849
859
871
879
882
882
885
892
899
904
907
910
911
916
920
919
917
915
913
916
915
914
913
911
908
911
911
907
908
906
905
905
907
905
903
901
898
899
899
902
901
900
899
902
904
903
903
903
905
908
910
913
915
913
915
919
925
927
926
929
931
936
940
943
944
947
949
952
961
964
966
969
971
975
981
985
987
987
986
995
995
997
1000
1000
1003
1006
1010
1010
1013
1011
1011
1014
1016
1014
1016
1015
1013
1013
1014
1014
1013
1008
1006
1007
1007
1008
1007
1001
1001
1000
1002
1001
998
996
994
995
997
1000
997
1001
1001
1002
1004
1003
1001
1001
1000
1003
1006
1006
1008
1008
1008
1010
1013
1013
1013
1011
1007
1008
1007
1008
1008
1002
1008
1007
1011
1012
1009
1005
997
996
990
984
977
974
968
963
967
965
962
961
961
959
960
961
961
961
961
962
962
963
960
959
960
963
963
963
963
962
964
965
968
966
964
965
966
968
969
970
969
967
966
970
972
973
972
970
970
972
971
971
965
958
954
963
973
991
1023
1051
1079
1103
1123
1143
1168
1201
1233
1270
1299
1317
1325
1326
1323
1312
1287
1247
1206
1169
1139
1109
1075
1029
982
943
905
879
859
845
836
829
830
833
836
839
839
842
851
862
873
881
885
888
890
896
906
910
913
912
913
917
919
917
916
913
909
911
913
910
908
905
904
906
907
903
901
898
898
899
901
899
898
897
896
899
898
900
897
897
898
901
907
905
903
903
904
908
915
916
918
919
921
928
932
931
936
938
941
946
950
954
956
959
961
967
971
972
974
976
981
986
992
995
995
996
998
1003
1006
1008
1008
1008
1009
1013
1015
1014
1016
1012
1012
1015
1016
1016
1014
1013
1011
1012
1012
1012
1008
1007
1006
1005
1005
1004
1002
996
998
999
998
999
997
998
1001
1001
1004
1007
1004
1002
1001
1003
1005
1008
1007
1007
1006
1011
1011
1015
1015
1011
1010
1011
1011
1010
1008
1008
1009
1011
1011
1012
1010
1008
1005
1003
998
992
985
977
974
971
968
964
961
957
955
957
958
956
958
956
956
959
960
960
959
959
957
961
961
960
959
956
959
958
961
962
963
961
961
963
963
963
964
961
961
962
966
966
967
965
965
966
969
969
968
963
965
961
958
956
957
962
982
1014
1045
1076
1099
1114
1132
1159
1193
1223
1252
1279
1304
1321
1330
1334
1326
1315
1290
1254
1216
1182
1151
1117
1082
1041
996
952
917
887
862
846
838
830
826
825
826
830
833
834
836
844
853
862
871
875
879
885
887
893
900
902
906
905
905
909
910
912
909
908
905
906
909
906
905
901
902
901
901
901
899
898
894
895
898
895
893
893
892
891
893
894
892
889
889
890
892
893
893
894
892
894
898
900
900
901
901
906
909
912
915
915
918
922
927
931
935
937
940
943
947
952
953
957
959
966
967
973
976
979
980
985
991
993
995
996
997
1001
1004
1004
1005
1005
1005
1008
1011
1011
1010
1009
1006
1005
1010
1010
1006
1006
1004
1005
1008
1005
1002
1001
999
999
998
997
993
993
990
992
995
996
995
996
996
998
999
999
998
995
995
995
995
999
998
998
998
1001
1003
1005
1003
1004
1002
1004
1006
1005
1001
999
998
1002
1003
1003
1002
1001
1000
999
1000
996
990
982
976
974
971
966
962
956
952
953
955
954
953
949
947
950
953
951
949
948
948
952
953
956
954
952
949
953
955
954
952
952
953
954
956
957
953
956
954
956
957
960
957
957
958
961
961
965
961
962
961
963
964
963
964
960
957
955
954
953
952
962
986
1016
1049
1079
1105
1123
1141
1169
1204
1233
1258
1283
1306
1326
1336
1336
1329
1318
1295
1264
1223
1186
1153
1117
1077
1036
992
948
911
879
854
839
828
823
816
815
816
820
826
828
831
836
845
855
864
868
872
876
881
889
894
900
901
903
902
903
904
904
902
902
898
901
900
901
897
896
894
893
893
893
892
892
888
888
889
889
888
885
884
886
889
887
888
883
881
884
889
890
890
889
887
890
893
898
897
897
899
903
906
910
908
912
915
919
926
929
930
933
935
941
948
950
953
956
954
959
965
970
972
972
975
979
981
985
988
988
991
994
995
1000
999
999
997
1001
1002
1004
1002
1000
1002
1001
1005
1002
1002
999
999
998
1000
998
995
993
990
992
992
989
989
984
984
984
985
986
982
983
982
983
988
990
989
988
985
988
989
989
989
987
988
989
993
996
999
998
997
1000
1000
1003
999
997
994
993
994
995
997
993
994
997
999
1000
995
995
990
985
983
978
972
966
959
957
959
954
950
948
946
948
948
947
946
945
944
947
948
948
947
947
946
948
949
949
950
949
948
948
950
951
952
950
948
950
953
953
952
952
949
953
953
956
953
954
954
956
958
958
957
956
956
959
961
961
961
958
957
955
955
954
954
954
965
985
1013
1042
1068
1095
1114
1130
1150
1175
1201
1224
1249
1275
1298
1311
1313
1311
1307
1298
1279
1246
1208
1172
1144
1118
1089
1056
1013
966
926
898
874
852
836
824
820
820
821
824
824
824
825
832
839
850
855
859
863
869
875
878
882
887
890
896
900
901
901
902
900
904
906
907
904
903
899
900
903
900
901
899
896
899
900
899
898
896
893
893
896
894
894
891
890
894
890
893
889
891
890
892
891
895
896
895
897
899
903
905
906
906
908
914
917
919
922
923
923
929
935
938
940
943
944
948
952
952
957
958
960
965
970
973
973
977
980
984
987
992
992
992
993
997
1000
1001
1003
1002
1002
1005
1007
1005
1005
1006
1002
1005
1006
1006
1006
1003
999
1000
1002
1001
998
997
994
995
997
995
993
990
987
988
990
991
992
991
991
995
994
995
994
994
993
994
995
999
999
999
1001
1003
1006
1006
1007
1005
1003
1006
1004
1005
1002
1001
999
1001
1004
1005
1005
1001
1003
1003
1004
999
996
991
982
978
975
974
967
961
955
953
956
954
954
950
948
951
953
950
952
949
950
951
952
953
951
951
950
952
954
955
953
953
953
953
955
957
955
955
954
956
959
959
959
957
956
958
959
957
960
959
956
960
961
962
961
961
957
959
960
961
957
953
947
949
950
953
963
982
1008
1037
1062
1086
1102
1119
1138
1170
1199
1228
1252
1274
1294
1305
1312
1312
1309
1297
1276
1248
1213
1182
1155
1129
1102
1072
1038
1001
961
930
902
875
858
844
833
828
824
825
832
834
833
829
837
846
857
865
870
876
877
882
888
894
897
900
900
903
909
909
908
903
903
903
906
909
905
900
900
902
901
900
900
894
894
893
895
897
894
894
893
894
894
896
892
891
893
892
895
895
895
895
895
899
901
904
904
904
904
909
912
916
918
919
920
925
930
933
938
937
940
944
953
955
959
958
965
970
974
977
980
981
984
987
991
996
996
998
999
997
1004
1005
1005
1004
1006
1005
1006
1009
1009
1006
1004
1005
1007
1006
1004
1002
999
1000
999
998
998
994
992
994
994
993
991
989
985
990
992
994
995
993
994
996
998
998
995
996
998
999
1003
1004
1005
1004
1003
1007
1004
1005
1005
1001
997
999
999
1003
1003
1002
1002
1004
1004
1002
999
992
986
980
978
971
967
960
955
954
954
954
953
949
946
948
951
950
950
948
949
949
951
951
952
950
951
953
954
954
952
953
951
955
955
958
956
955
955
956
956
960
958
957
955
959
962
963
961
959
961
963
963
964
963
964
959
959
956
951
952
950
956
977
1003
1032
1060
1081
1098
1120
1140
1171
1201
1229
1257
1283
1305
1317
1321
1319
1314
1307
1284
1255
1216
1180
1150
1121
1092
1054
1010
966
930
902
878
856
841
830
820
821
823
826
828
827
826
832
843
850
859
863
867
872
880
884
890
893
897
900
903
908
906
907
906
906
906
905
903
901
900
900
899
900
896
894
891
894
892
893
892
889
887
888
887
888
887
886
885
885
890
889
890
885
885
889
892
893
894
895
896
898
904
907
910
910
912
915
923
927
931
933
933
938
943
946
947
953
954
959
964
968
972
971
975
981
985
985
989
989
992
995
997
1002
1002
1000
999
1003
1006
1006
1005
1002
1003
1004
1004
1004
1001
1000
995
998
998
997
996
993
988
988
989
990
986
985
986
987
990
991
992
989
988
991
994
993
992
993
994
995
997
1000
1000
999
1002
1002
1004
1002
998
995
994
997
998
1000
1002
1002
997
999
996
994
987
979
974
969
965
961
959
952
952
953
956
955
953
951
949
952
954
953
954
952
952
953
955
954
952
950
952
953
955
957
955
953
952
955
954
955
956
955
955
958
960
957
958
958
955
961
963
964
961
962
957
957
956
951
949
949
955
976
1003
1031
1058
1085
1104
1123
1149
1177
1206
1235
1264
1291
1314
1327
1330
1326
1315
1297
1266
1224
1186
1152
1120
1088
1046
996
952
915
886
863
846
834
824
818
818
821
823
825
827
828
835
845
857
863
865
870
871
880
887
892
895
898
895
900
903
903
902
902
898
900
900
901
898
896
894
897
895
895
894
892
889
890
892
891
888
887
886
888
889
887
887
886
886
886
888
888
889
889
889
892
895
898
899
898
900
904
911
912
914
916
920
926
931
932
937
937
941
943
950
953
956
957
960
965
970
974
978
979
980
983
990
992
992
991
993
997
1000
1002
1001
1001
1001
1001
1004
1003
1004
1003
1001
1002
1001
1000
999
996
996
995
996
994
994
992
990
989
990
991
988
986
985
986
989
992
991
991
992
992
992
993
992
991
991
993
996
998
999
998
999
1000
1001
1000
998
995
990
996
998
998
1001
998
998
1000
999
997
992
986
978
975
972
967
963
959
950
950
949
950
951
949
946
947
951
952
950
947
945
946
948
950
949
949
948
950
950
951
953
951
949
950
954
954
953
954
952
953
955
957
955
954
953
955
959
959
959
957
958
959
962
962
961
956
953
953
949
947
948
951
964
985
1015
1042
1070
1093
1107
1128
1153
1184
1220
1248
1276
1303
1320
1328
1329
1326
1319
1304
1271
1231
1192
1157
1128
1091
1054
1011
963
927
896
872
850
836
823
817
814
817
824
825
826
828
834
842
854
861
865
869
873
879
885
891
894
897
899
902
904
905
906
903
901
902
904
903
903
899
897
898
898
896
896
894
892
892
891
892
892
892
886
887
888
889
888
887
886
886
890
891
891
890
889
892
890
896
894
895
895
899
902
907
907
910
912
914
921
922
926
926
927
932
938
941
945
946
948
953
957
960
963
964
967
970
974
977
982
981
983
986
991
992
995
995
996
998
1002
1003
1003
1002
1000
1000
1003
1005
1003
1002
999
1001
1000
1000
997
994
992
993
994
991
992
988
984
984
985
987
984
983
981
983
989
992
992
990
988
989
991
991
992
989
991
990
993
996
997
997
997
1000
1001
1003
999
996
993
997
999
997
1000
1000
999
1000
1000
999
995
986
978
974
970
969
963
955
953
952
952
953
954
950
946
950
950
953
950
950
949
949
952
953
951
950
949
950
955
953
954
954
952
955
956
955
955
955
952
956
958
960
959
957
956
958
963
962
961
960
958
959
957
955
951
947
945
952
967
995
1026
1057
1086
1109
1130
1156
1187
1219
1247
1282
1310
1331
1339
1340
1334
1326
1305
1268
1223
1180
1144
1107
1072
1022
973
928
891
864
845
829
819
813
814
815
819
823
823
827
833
843
855
862
866
868
872
877
885
890
894
897
895
899
901
899
899
900
897
898
897
895
896
892
891
892
892
893
891
886
887
886
886
887
883
885
879
882
882
886
884
881
879
883
884
889
887
885
887
890
894
897
896
895
898
903
907
909
911
914
915
920
924
928
931
933
935
940
945
949
952
954
953
961
965
970
970
973
975
979
985
987
989
989
989
994
998
999
999
999
999
999
1002
1004
1003
1002
997
999
999
996
997
995
994
996
995
994
991
990
984
983
985
985
984
983
985
984
986
990
989
990
988
984
987
987
987
985
985
986
991
995
995
994
996
997
1000
1000
998
994
992
993
996
998
997
997
993
998
997
996
993
986
978
971
967
970
964
959
956
951
951
952
952
950
946
945
947
951
951
947
946
947
950
951
952
949
948
951
953
955
953
951
951
952
953
953
956
952
952
954
956
958
956
954
954
954
957
960
960
959
957
957
960
961
961
959
954
953
950
957
969
988
1023
1058
1091
1118
1137
1153
1179
1214
1249
1279
1307
1325
1336
1340
1338
1329
1308
1271
1222
1178
1146
1112
1074
1030
980
938
901
871
848
830
816
815
816
819
823
823
820
826
834
844
852
858
863
868
873
881
886
892
894
898
900
902
903
902
898
900
901
901
897
896
895
896
896
895
893
889
888
886
887
890
888
885
883
882
884
886
886
884
883
882
884
888
890
887
886
889
892
894
898
896
898
902
907
911
913
915
918
920
927
928
932
935
938
943
951
953
957
959
961
963
969
972
975
976
979
981
987
987
989
992
992
994
996
1000
999
998
996
999
1002
1001
1002
999
