901
900
903
904
906
908
911
909
909
913
917
921
923
923
925
927
933
938
939
943
943
951
953
956
960
960
962
969
975
975
979
982
981
985
989
992
992
992
993
999
998
1004
1002
1005
1004
1008
1013
1017
1017
1016
1016
1019
1021
1022
1021
1015
1015
1013
1013
1018
1015
1016
1018
1019
1022
1019
1016
1014
1012
1011
1011
1010
1007
1003
1003
1005
1006
1005
1005
1000
995
994
987
981
972
965
961
956
953
951
948
942
940
940
944
942
940
938
938
939
940
943
941
939
937
937
940
941
940
938
938
939
940
942
943
940
940
943
944
944
945
942
945
942
946
947
947
946
946
948
950
950
949
946
942
939
937
935
934
937
948
969
996
1020
1043
1058
1068
1087
1112
1140
1165
1187
1206
1226
1241
1245
1249
1247
1240
1228
1213
1185
1158
1137
1117
1097
1074
1044
1011
977
940
911
890
870
855
842
832
827
825
826
826
828
826
827
830
837
844
850
857
862
866
871
873
877
883
888
894
898
895
898
898
902
905
907
903
904
899
901
902
902
901
899
900
900
899
900
900
894
895
897
899
899
898
897
896
898
899
901
899
899
899
902
905
904
906
908
909
912
915
918
919
920
921
925
931
933
934
937
939
945
949
952
958
957
959
965
969
971
973
975
978
983
987
989
993
991
994
999
1005
1005
1004
1004
1003
1009
1012
1012
1016
1017
1017
1021
1023
1022
1022
1020
1019
1020
1020
1016
1017
1016
1020
1023
1024
1024
1022
1020
1016
1014
1012
1011
1008
1006
1002
1005
1005
1003
1004
999
996
993
989
978
972
966
959
956
953
947
946
944
939
941
940
941
936
937
934
937
938
937
936
937
934
936
940
940
939
938
937
940
940
941
941
941
941
939
943
943
942
941
939
941
946
947
945
944
943
946
950
949
947
941
936
938
939
940
947
962
987
1016
1044
1065
1082
1094
1107
1131
1155
1179
1200
1219
1239
1255
1265
1267
1264
1255
1241
1228
1205
1174
1143
1118
1094
1073
1044
1012
975
941
909
883
862
844
832
819
814
816
817
820
821
821
819
825
832
839
848
853
855
859
869
868
871
874
882
885
889
891
896
894
894
897
898
896
896
895
896
898
897
897
897
894
891
889
891
893
890
888
887
887
892
890
888
888
887
890
890
890
892
890
890
894
896
896
899
897
899
901
904
909
909
912
913
918
918
921
925
929
925
931
934
938
941
941
945
950
954
957
956
959
961
967
971
974
975
976
978
982
986
988
988
990
990
993
998
997
997
996
998
999
1003
1004
1004
1005
1008
1008
1011
1014
1013
1008
1009
1010
1012
1012
1005
1004
1001
1002
1005
1008
1010
1010
1008
1010
1011
1011
1007
1002
999
997
1001
999
998
995
993
994
996
995
993
987
983
983
978
971
966
958
953
950
946
945
943
937
937
936
935
936
931
932
930
932
937
936
935
934
933
935
936
937
937
935
936
934
937
939
937
936
936
937
941
939
939
939
941
942
942
943
944
942
943
946
948
947
945
940
937
937
941
944
951
967
992
1023
1049
1072
1087
1095
1104
1127
1150
1169
1190
1209
1225
1236
1240
1237
1233
1224
1213
1196
1175
1148
1124
1103
1082
1060
1034
1000
965
933
905
880
859
846
835
824
823
820
824
825
828
824
826
833
840
849
856
859
860
868
871
876
879
884
887
892
897
896
899
898
901
901
903
902
901
900
899
898
902
900
900
894
892
896
896
894
895
894
893
893
896
895
896
894
893
897
898
899
895
895
894
898
901
904
904
903
905
908
911
914
915
917
918
921
924
929
932
932
936
940
944
949
950
952
954
957
964
967
969
968
971
977
982
983
983
984
986
991
994
997
997
995
998
999
1002
1001
1002
1001
1001
1003
1007
1007
1006
1007
1008
1010
1012
1013
1014
1010
1008
1012
1013
1014
1010
1006
1004
1005
1007
1009
1008
1008
1009
1011
1014
1011
1012
1008
1007
1006
1005
1003
1003
999
996
999
1001
1003
1000
1000
992
992
991
984
975
969
963
961
957
952
948
943
940
941
942
941
940
937
937
938
938
939
937
935
938
938
939
940
937
933
935
938
939
939
940
940
941
942
944
944
943
940
939
940
944
945
944
944
943
946
949
950
947
946
947
948
946
942
940
936
938
940
955
972
993
1014
1035
1055
1069
1077
1095
1120
1144
1172
1192
1208
1221
1226
1229
1226
1226
1215
1194
1164
1140
1122
1107
1082
1052
1023
989
955
927
899
874
860
849
843
841
836
839
839
837
839
839
847
851
856
861
869
876
879
883
882
889
894
900
905
904
903
905
907
908
912
908
906
905
906
909
906
904
901
902
902
905
904
901
900
898
900
901
900
900
898
899
902
904
905
905
905
905
909
913
912
917
914
919
921
925
927
928
929
932
937
942
945
947
945
952
956
962
965
968
968
971
977
982
985
985
985
988
994
996
998
998
999
999
1002
1008
1006
1007
1004
1005
1008
1011
1011
1009
1010
1009
1014
1017
1017
1019
1015
1015
1016
1018
1017
1016
1014
1014
1018
1022
1022
1020
1019
1018
1018
1020
1019
1010
1008
1007
1009
1012
1013
1010
1007
1005
1003
999
994
985
980
972
967
964
958
954
950
948
947
950
949
945
944
943
944
946
945
945
943
943
944
946
947
945
944
945
949
949
949
947
948
946
948
952
951
951
949
949
952
952
951
952
953
952
954
957
956
955
954
948
945
944
943
942
950
966
994
1021
1047
1063
1074
1088
1114
1144
1171
1192
1211
1230
1244
1255
1257
1255
1248
1236
1220
1193
1168
1146
1126
1104
1080
1050
1017
981
946
912
889
872
859
846
839
835
836
839
840
840
838
838
848
857
867
870
873
876
883
889
893
896
898
900
903
909
910
909
907
907
908
911
906
907
905
903
908
908
908
905
904
902
904
903
903
902
901
900
903
904
903
903
899
900
901
907
908
907
907
908
913
917
919
918
919
922
928
930
932
936
938
942
946
952
951
957
958
961
968
971
974
975
976
979
985
987
992
994
995
996
1001
1003
1000
1002
1003
1002
1009
1010
1010
1009
1011
1009
1010
1010
1011
1014
1014
1015
1018
1019
1018
1014
1012
1012
1015
1017
1016
1016
1016
1018
1019
1021
1019
1016
1013
1008
1007
1009
1008
1006
1003
1004
1005
1005
1001
996
986
978
974
969
963
958
952
946
945
947
948
945
943
941
943
943
945
945
942
941
943
945
947
945
944
944
943
946
945
946
943
943
948
950
948
947
948
946
951
952
954
951
951
953
955
958
956
955
949
947
945
945
948
955
973
999
1029
1057
1076
1091
1108
1136
1168
1196
1221
1238
1251
1259
1266
1265
1258
1244
1218
1185
1156
1134
1112
1082
1047
1008
972
941
908
880
862
849
843
836
834
833
833
833
835
837
841
851
857
863
869
878
880
884
890
893
902
906
909
907
908
909
911
914
913
909
907
906
907
911
909
906
905
902
903
904
905
903
900
899
901
904
901
901
898
899
903
907
908
906
902
905
911
914
913
914
916
919
921
926
932
931
936
940
944
950
953
952
956
960
963
968
969
972
976
976
983
986
989
990
989
994
998
1002
1003
1005
1004
1004
1007
1013
1013
1013
1011
1009
1012
1016
1015
1014
1013
1012
1016
1017
1022
1020
1019
1016
1020
1022
1020
1018
1018
1014
1019
1022
1020
1020
1021
1020
1020
1025
1017
1015
1012
1008
1010
1012
1011
1009
1007
1007
1007
1006
1001
993
987
978
975
973
967
961
957
952
954
953
953
949
948
946
948
951
950
949
948
948
951
952
950
952
949
948
951
955
953
952
951
951
953
954
955
955
954
953
957
959
959
958
959
957
960
963
963
961
959
960
959
959
955
951
949
952
966
990
1016
1040
1061
1080
1097
1117
1140
1168
1192
1217
1241
1263
1275
1280
1280
1275
1267
1252
1222
1189
1162
1138
1116
1092
1056
1019
981
946
917
894
871
858
844
837
836
838
840
839
836
839
845
856
864
869
871
878
881
888
892
895
901
902
910
911
912
915
917
915
915
916
914
912
910
911
911
915
915
914
912
907
909
911
910
909
907
906
908
910
910
909
906
905
908
913
912
912
913
910
918
923
922
925
924
925
930
936
937
937
940
941
948
953
955
957
959
963
966
972
974
979
980
981
988
991
993
995
995
999
1004
1005
1005
1008
1010
1011
1015
1018
1019
1018
1017
1017
1022
1021
1019
1021
1020
1020
1023
1025
1024
1024
1024
1024
1027
1028
1023
1024
1022
1020
1021
1023
1022
1021
1018
1020
1022
1026
1026
1024
1021
1019
1020
1020
1017
1015
1013
1011
1012
1016
1014
1013
1009
1007
1005
1004
999
990
984
980
979
977
971
965
961
960
959
960
959
957
955
956
954
959
958
955
956
956
956
957
958
955
955
955
958
960
959
960
959
957
961
964
963
966
962
963
965
967
965
966
964
965
969
969
970
969
970
966
968
967
963
961
963
969
992
1022
1052
1076
1098
1113
1128
1148
1171
1197
1220
1242
1267
1287
1297
1300
1293
1286
1272
1254
1220
1188
1161
1135
1111
1083
1044
1005
966
932
904
881
862
847
837
835
837
840
842
841
842
844
855
866
872
877
881
885
887
893
899
907
908
913
916
918
918
919
918
916
919
920
918
917
914
914
916
915
912
913
910
907
909
911
912
908
909
907
910
912
910
909
908
910
913
917
917
921
919
919
925
928
932
932
933
936
941
945
949
952
955
956
960
967
969
971
973
975
984
987
990
992
994
998
1001
1008
1011
1009
1010
1011
1013
1018
1019
1019
1017
1018
1021
1021
1020
1019
1016
1015
1018
1020
1019
1019
1021
1021
1022
1025
1023
1019
1019
1017
1016
1020
1017
1017
1018
1023
1023
1023
1023
1022
1019
1017
1014
1015
1014
1014
1012
1009
1014
1016
1014
1010
1007
1001
997
995
988
980
978
972
966
970
963
960
957
956
959
959
959
956
955
955
957
961
956
956
955
954
959
961
960
958
958
957
959
962
960
959
960
958
961
964
965
963
960
960
964
968
966
964
967
968
969
970
970
966
962
962
964
967
974
991
1015
1042
1069
1093
1107
1117
1131
1152
1179
1202
1221
1238
1253
1260
1266
1268
1268
1256
1247
1226
1200
1175
1151
1130
1108
1084
1056
1024
990
959
930
905
885
872
860
850
844
846
847
850
852
850
852
859
868
879
884
886
889
893
895
903
908
912
915
915
922
921
921
921
918
918
919
922
921
919
917
915
916
918
917
915
915
914
916
918
917
915
915
915
917
917
916
915
914
914
919
923
922
921
922
924
924
930
932
933
936
938
941
946
949
952
953
954
961
966
969
970
971
976
980
986
987
992
992
997
999
1003
1004
1006
1007
1009
1013
1017
1017
1017
1018
1016
1018
1022
1020
1021
1015
1016
1018
1022
1019
1021
1018
1019
1024
1025
1025
1023
1021
1021
1023
1022
1022
1022
1021
1023
1027
1028
1030
1025
1025
1023
1024
1024
1019
1017
1013
1012
1016
1017
1017
1016
1012
1009
1004
1003
996
987
981
976
975
971
965
963
960
957
957
960
958
956
954
953
957
958
959
958
955
958
961
961
959
957
958
957
958
960
959
959
957
956
961
962
962
963
960
961
963
968
967
966
965
966
968
968
965
960
954
954
955
959
970
989
1014
1042
1064
1080
1089
1107
1133
1161
1187
1212
1227
1239
1247
1251
1252
1252
1243
1222
1195
1167
1147
1133
1113
1085
1056
1024
994
967
939
910
890
874
867
860
855
850
850
851
853
856
855
860
865
874
881
886
890
892
895
899
906
913
918
919
919
920
923
926
927
924
921
921
920
922
923
919
917
917
918
918
919
917
913
911
913
915
918
914
914
913
912
918
916
915
913
915
918
922
922
921
922
925
928
929
933
932
933
936
936
945
947
949
951
951
957
963
965
965
968
968
973
979
985
985
986
985
990
997
1000
1000
1002
1003
1006
1008
1009
1009
1010
1012
1013
1014
1016
1015
1016
1015
1017
1017
1018
1016
1014
1013
1017
1018
1020
1019
1020
1020
1020
1022
1021
1019
1014
1015
1016
1018
1020
1018
1017
1019
1021
1023
1019
1016
1016
1014
1011
1010
1011
1011
1008
1007
1008
1012
1010
1005
1001
995
991
986
984
977
970
964
963
962
958
955
953
951
952
954
953
952
953
952
953
955
955
952
953
953
955
958
956
955
954
954
956
956
955
957
956
957
958
959
959
960
958
960
962
965
964
965
963
964
965
967
968
965
961
960
954
953
954
957
964
983
1011
1035
1058
1073
1083
1100
1126
1153
1179
1198
1216
1235
1249
1259
1264
1259
1257
1244
1230
1203
1175
1155
1134
1113
1090
1064
1032
995
961
930
908
890
876
865
857
850
851
851
853
851
849
851
856
862
872
877
880
884
890
895
898
899
906
910
916
920
923
921
923
921
924
925
924
922
921
918
920
922
923
919
917
916
919
918
918
914
913
914
916
916
915
914
913
913
913
916
914
915
914
917
922
923
925
922
924
926
928
933
934
932
934
938
941
945
946
947
950
954
958
964
967
966
967
972
975
980
983
985
986
987
992
995
1000
1000
1003
1002
1006
1010
1011
1012
1012
1012
1015
1019
1022
1019
1019
1018
1020
1021
1021
1019
1017
1017
1018
1020
1017
1018
1016
1017
1020
1023
1022
1020
1017
1019
1020
1020
1018
1017
1015
1017
1018
1022
1020
1024
1020
1018
1021
1023
1022
1017
1012
1011
1011
1012
1011
1011
1009
1010
1012
1014
1009
1006
998
991
987
982
980
974
966
963
959
958
955
954
953
952
954
954
954
952
951
951
952
955
957
955
955
953
957
960
959
958
954
954
957
960
959
958
955
957
958
962
961
960
958
959
962
964
965
962
962
961
964
966
965
960
952
950
954
961
978
998
1027
1056
1079
1094
1109
1134
1159
1190
1213
1239
1255
1263
1265
1268
1264
1258
1239
1211
1174
1152
1135
1111
1085
1052
1014
980
949
924
901
879
864
854
850
848
847
847
847
848
851
854
858
865
870
876
883
889
893
894
898
903
909
913
915
914
915
917
917
917
920
917
914
915
915
916
914
912
908
910
910
913
912
910
909
909
910
911
909
907
906
908
910
912
911
910
908
910
912
916
918
916
915
919
923
927
928
928
927
931
936
941
942
945
946
949
952
956
961
964
965
968
972
975
980
981
981
985
989
990
994
996
999
1000
1003
1005
1006
1006
1006
1009
1008
1010
1013
1011
1008
1010
1011
1013
1014
1013
1011
1009
1011
1014
1013
1012
1010
1013
1014
1014
1015
1015
1007
1009
1010
1011
1011
1009
1008
1009
1013
1016
1015
1011
1009
1010
1011
1011
1007
1002
1000
1002
1001
1003
1003
1001
996
997
997
997
994
989
983
976
972
969
963
958
951
950
950
949
949
946
945
939
943
946
945
942
943
945
945
947
947
944
942
942
945
946
946
945
942
944
949
949
948
944
946
945
947
949
950
949
946
947
951
953
952
951
950
951
953
957
955
956
952
950
949
948
944
942
941
949
966
991
1019
1041
1057
1073
1089
1105
1131
1156
1179
1204
1227
1248
1262
1269
1271
1267
1264
1253
1233
1201
1169
1143
1123
1103
1073
1040
1002
966
935
909
885
863
847
836
831
828
829
827
830
829
830
836
843
848
855
863
867
874
876
883
884
889
895
902
902
901
900
901
903
904
903
900
898
899
901
903
902
900
897
896
896
899
897
896
893
891
892
893
893
892
891
892
894
894
894
891
891
897
899
900
902
903
902
906
910
914
916
916
917
922
926
932
932
937
936
939
944
947
954
952
953
957
960
966
970
970
972
972
980
984
985
984
985
988
992
994
997
995
994
996
1000
1001
1002
1001
998
999
999
1000
1001
1000
999
998
1000
1001
1002
1001
999
1002
1003
1002
1001
1002
999
996
1001
1001
1002
1000
997
998
1002
1003
1003
1000
997
996
997
996
994
992
991
991
993
994
995
992
987
987
984
983
977
971
963
960
957
954
950
942
939
936
938
939
938
935
931
932
934
937
936
934
932
931
936
936
936
934
935
934
936
939
936
933
933
936
938
940
941
940
939
940
940
942
944
942
941
942
946
945
946
945
942
942
946
947
944
940
931
931
933
935
945
960
984
1010
1035
1056
1070
1084
1104
1130
1156
1181
1205
1223
1239
1256
1262
1267
1267
1260
1248
1230
1203
1173
1148
1125
1099
1074
1044
1012
975
936
903
878
856
843
832
822
819
816
819
822
823
820
821
825
835
846
854
858
859
864
869
876
881
882
884
888
891
894
897
895
895
891
893
891
892
889
888
887
890
889
888
887
883
884
885
888
885
885
881
882
884
881
884
882
879
880
885
885
888
887
887
890
894
898
899
900
899
902
908
910
913
916
915
920
923
929
933
934
936
941
946
950
951
955
955
961
966
969
972
974
976
979
983
985
987
987
986
990
992
992
993
991
990
992
992
992
992
990
986
987
990
991
991
993
991
993
993
992
993
989
986
988
990
994
993
992
990
992
992
994
993
988
981
980
983
982
983
981
982
982
981
979
975
970
958
955
949
947
942
934
929
928
930
932
932
927
926
925
928
930
930
927
927
926
928
932
930
927
927
927
931
930
928
931
929
929
932
934
935
935
932
934
935
938
938
939
938
937
938
942
943
940
935
937
935
933
932
931
934
949
974
998
1027
1052
1072
1087
1107
1133
1161
1190
1211
1235
1254
1267
1271
1270
1260
1249
1228
1199
1163
1132
1103
1078
1049
1017
979
942
909
885
860
839
824
813
807
805
809
812
814
812
811
818
828
838
845
848
852
855
862
866
870
874
877
880
884
886
890
887
887
887
886
889
887
886
882
884
882
885
886
881
878
881
881
882
882
880
875
878
878
879
879
878
878
880
883
884
883
882
883
885
889
893
893
894
894
897
901
906
909
912
911
913
920
926
928
932
933
937
943
948
950
953
953
956
961
967
968
971
970
973
975
980
982
982
982
983
986
990
989
987
986
987
990
989
989
987
985
986
988
989
987
987
987
987
989
990
989
989
985
984
986
987
988
988
988
990
990
991
986
988
984
982
981
985
985
984
980
979
979
983
980
975
965
960
955
951
947
940
936
935
937
938
937
933
929
929
932
936
935
932
930
933
933
935
935
