979
981
984
991
991
994
994
993
999
999
1003
1003
1002
1004
1005
1011
1011
1012
1012
1013
1013
1015
1015
1014
1012
1012
1014
1014
1013
1013
1011
1008
1010
1011
1013
1009
1010
1011
1014
1016
1020
1018
1016
1014
1017
1017
1016
1016
1011
1010
1012
1017
1018
1018
1018
1015
1016
1020
1016
1013
1009
1007
1011
1011
1012
1011
1011
1010
1010
1010
1008
1001
998
989
985
983
981
975
969
963
964
963
962
961
956
954
957
958
959
959
958
959
958
962
962
960
960
959
962
962
961
963
961
963
964
968
963
966
965
966
968
971
971
971
970
970
973
976
974
972
972
970
972
974
974
973
973
972
970
970
967
962
957
956
968
988
1015
1040
1065
1090
1107
1127
1152
1180
1210
1240
1268
1292
1306
1314
1313
1313
1309
1296
1263
1224
1185
1152
1124
1093
1058
1010
967
934
905
883
862
848
840
836
839
841
846
844
844
847
859
867
875
880
885
889
894
899
905
909
910
915
918
923
922
919
921
916
920
921
920
918
916
915
917
919
915
912
910
910
910
912
911
910
909
908
907
909
911
908
907
908
910
910
910
911
910
907
910
913
914
911
910
910
914
917
918
916
919
917
920
926
930
931
931
932
936
940
946
945
945
950
953
958
964
965
964
967
973
976
978
982
983
985
988
993
996
997
997
997
1003
1004
1004
1005
1004
1005
1007
1011
1012
1013
1011
1010
1012
1011
1012
1012
1010
1012
1013
1010
1011
1009
1006
1003
1005
1007
1007
1006
1003
1001
1002
1003
1000
1001
997
996
1000
999
998
999
999
996
1000
1000
1003
1003
1001
1000
1002
1005
1004
1005
1005
1006
1009
1013
1015
1015
1015
1014
1016
1020
1020
1017
1016
1011
1015
1018
1019
1019
1019
1017
1021
1023
1023
1017
1014
1010
1003
999
997
990
985
980
976
972
973
971
966
967
968
967
968
967
965
967
967
970
970
970
966
966
968
971
972
971
969
970
973
976
976
971
975
972
975
973
975
973
973
971
973
975
974
972
974
974
976
979
977
977
976
976
978
977
980
979
976
974
972
974
970
967
966
968
983
1009
1035
1062
1088
1108
1128
1150
1175
1203
1233
1263
1292
1317
1333
1339
1337
1335
1330
1318
1289
1249
1215
1181
1154
1126
1093
1057
1014
974
944
920
895
874
855
843
840
841
841
839
843
843
846
847
853
862
869
875
883
887
890
893
895
899
908
912
915
916
917
917
918
920
920
919
918
916
917
917
916
915
913
914
915
917
916
914
913
911
912
913
912
911
908
908
909
908
908
906
903
901
903
907
907
903
903
903
906
909
910
910
910
911
914
916
917
918
919
922
924
927
932
933
933
938
941
946
948
952
951
955
956
963
965
967
970
972
976
980
982
983
985
985
989
995
996
997
1000
1000
1002
1006
1008
1009
1008
1009
1013
1014
1015
1016
1014
1014
1017
1018
1019
1018
1014
1015
1017
1016
1018
1016
1016
1013
1012
1013
1013
1012
1010
1009
1009
1013
1012
1012
1012
1012
1011
1011
1010
1008
1008
1009
1013
1018
1018
1018
1018
1016
1018
1018
1020
1020
1016
1011
1011
1013
1013
1014
1015
1011
1014
1018
1016
1017
1011
1006
1002
999
994
989
981
975
973
971
969
967
962
962
961
961
963
961
962
962
961
964
964
966
963
960
965
964
966
966
965
964
968
969
968
970
969
968
970
971
973
972
970
968
971
972
973
973
970
966
972
972
973
973
971
971
971
976
977
976
976
974
975
976
975
974
968
963
962
963
968
978
995
1023
1053
1081
1103
1122
1138
1162
1194
1220
1253
1281
1308
1324
1334
1336
1338
1333
1318
1286
1249
1212
1176
1140
1104
1064
1019
977
943
911
886
865
849
841
840
837
839
842
843
845
847
851
856
865
876
881
887
888
891
898
905
910
913
915
917
917
920
921
920
919
915
913
917
918
918
917
913
913
914
914
914
912
911
907
910
911
910
912
909
907
908
909
909
907
903
901
906
907
908
908
907
910
912
913
917
915
917
917
920
926
927
929
930
933
939
944
946
948
948
950
956
962
965
968
967
968
975
979
984
982
985
985
986
991
994
995
997
997
1001
1001
1006
1005
1006
1006
1008
1012
1013
1014
1012
1013
1013
1012
1014
1013
1011
1010
1011
1013
1011
1011
1010
1006
1006
1007
1006
1005
1003
1001
1003
1004
1006
1004
1006
1002
1002
1008
1007
1006
1006
1006
1008
1012
1015
1014
1014
1013
1015
1019
1020
1015
1012
1011
1011
1015
1017
1018
1016
1015
1019
1020
1021
1018
1015
1009
1003
998
991
985
980
974
974
973
973
967
967
966
964
968
969
968
966
967
968
969
970
969
967
967
968
968
972
972
970
971
972
977
976
972
971
970
974
974
976
974
971
972
972
975
976
977
974
971
974
977
977
975
976
975
977
980
980
977
977
972
970
969
967
966
966
980
1000
1025
1055
1078
1105
1119
1140
1165
1194
1226
1253
1283
1310
1329
1340
1341
1340
1337
1329
1311
1277
1238
1204
1170
1139
1106
1069
1024
976
936
907
881
861
845
835
831
834
838
840
842
842
841
852
861
870
875
879
883
886
893
898
904
905
910
914
917
918
919
916
915
916
920
916
915
911
912
911
912
913
911
909
908
910
910
911
908
905
903
904
904
904
902
901
901
902
903
905
901
901
901
901
903
907
908
907
906
912
914
917
917
921
921
927
932
936
937
938
941
945
949
954
957
957
960
965
969
971
975
974
976
981
983
988
989
990
992
996
1001
1003
1002
1001
1002
1006
1009
1012
1011
1011
1009
1010
1010
1014
1011
1010
1009
1010
1013
1007
1007
1004
1002
1003
1003
1001
999
998
995
997
998
1002
1002
1001
997
998
1000
1002
1003
1001
1003
1008
1006
1011
1012
1012
1011
1013
1011
1013
1010
1008
1008
1011
1014
1014
1014
1012
1008
1007
1008
1002
995
986
980
979
976
973
967
962
960
964
962
963
959
958
960
962
962
966
964
961
961
964
965
967
966
965
965
968
969
967
968
968
965
966
969
969
969
968
968
966
971
970
970
967
966
971
972
971
970
972
971
974
976
977
974
971
968
966
964
964
969
980
1004
1037
1070
1099
1123
1137
1155
1183
1211
1237
1266
1289
1312
1328
1333
1334
1326
1316
1299
1268
1228
1191
1159
1126
1095
1061
1022
980
943
915
887
865
852
840
836
831
833
836
842
842
843
845
846
858
869
876
880
884
886
891
899
903
908
911
912
915
917
920
920
918
911
917
918
917
912
914
912
911
911
915
912
911
908
908
910
911
909
906
903
905
905
904
903
901
901
902
902
906
905
902
902
904
906
907
908
908
911
914
918
919
919
923
925
927
933
935
937
939
939
942
946
954
956
958
961
962
969
971
974
974
976
981
984
988
990
994
993
996
1000
1002
1004
1004
1005
1007
1008
1011
1009
1008
1009
1009
1011
1014
1012
1012
1008
1010
1010
1010
1007
1005
1002
1002
1003
1004
999
996
994
997
998
999
1000
1001
999
1001
1005
1004
1004
1003
1002
1003
1004
1006
1005
1007
1008
1011
1016
1019
1018
1017
1013
1017
1016
1015
1015
1013
1013
1013
1016
1016
1014
1011
1006
1006
1000
993
988
982
978
975
972
969
968
966
965
967
965
967
965
965
963
967
967
967
968
969
968
968
970
972
972
968
967
966
969
968
969
967
966
968
969
970
971
970
967
969
971
974
974
969
972
974
974
979
975
973
972
975
980
979
979
977
974
972
968
970
970
973
981
1006
1034
1061
1086
1108
1127
1145
1167
1195
1224
1248
1273
1299
1316
1321
1322
1317
1315
1305
1285
1252
1216
1185
1155
1128
1100
1069
1026
983
951
923
898
877
859
848
842
843
846
848
849
847
850
857
865
874
881
885
888
892
895
902
906
910
914
920
924
926
927
926
925
926
929
926
925
925
924
924
926
924
920
919
918
919
921
920
916
915
912
912
913
912
911
912
910
910
912
914
909
911
909
911
915
913
913
913
913
917
921
920
925
923
925
930
934
940
941
940
941
945
950
956
957
957
958
963
969
973
974
976
979
984
989
992
995
995
996
998
1006
1008
1008
1010
1009
1014
1018
1017
1019
1018
1022
1024
1027
1028
1027
1027
1024
1024
1024
1026
1022
1021
1018
1018
1020
1016
1015
1013
1008
1012
1014
1015
1013
1015
1014
1017
1019
1019
1019
1016
1015
1019
1023
1028
1027
1027
1028
1028
1032
1033
1031
1029
1026
1025
1027
1028
1028
1025
1024
1027
1027
1026
1020
1012
1004
1002
998
995
989
982
979
975
980
980
978
976
974
977
980
982
981
979
978
980
980
980
978
980
977
979
978
980
980
979
979
980
980
983
983
981
981
981
984
985
984
983
982
985
986
989
989
988
987
992
992
993
991
988
981
977
976
976
977
984
999
1033
1063
1091
1114
1131
1150
1180
1213
1247
1278
1310
1329
1341
1347
1346
1342
1333
1305
1269
1233
1199
1164
1128
1092
1050
1005
969
937
910
885
866
855
846
845
846
847
849
853
855
859
867
873
883
891
898
899
899
907
912
922
926
926
927
928
932
934
936
934
932
930
933
932
931
929
927
923
926
927
925
921
923
918
920
920
920
918
915
914
917
915
916
916
913
912
917
917
918
916
915
916
919
921
926
925
924
927
930
935
938
938
940
940
943
949
950
954
955
955
959
967
970
971
976
978
981
984
990
990
992
995
999
1002
1006
1007
1009
1011
1014
1018
1022
1023
1022
1023
1025
1028
1030
1028
1028
1027
1027
1028
1027
1026
1023
1021
1023
1022
1021
1020
1018
1014
1017
1018
1016
1013
1014
1013
1017
1020
1021
1020
1020
1020
1021
1021
1023
1024
1024
1024
1027
1031
1033
1030
1026
1026
1026
1026
1026
1024
1022
1022
1023
1026
1026
1026
1024
1020
1019
1015
1009
1002
995
990
989
986
983
978
976
977
977
977
979
978
976
976
977
980
980
979
976
975
976
978
977
977
975
976
979
979
980
981
980
976
980
980
982
980
980
980
982
985
986
986
987
985
987
990
990
989
988
988
985
983
979
974
971
969
979
1001
1034
1061
1091
1115
1138
1163
1193
1227
1259
1293
1319
1339
1347
1347
1345
1331
1307
1266
1224
1189
1154
1118
1080
1033
987
950
916
887
865
854
847
845
843
845
848
849
854
859
864
872
883
889
896
898
902
906
913
919
925
928
929
930
932
932
934
933
931
929
928
929
929
926
923
920
920
924
922
920
917
914
915
915
914
915
913
911
911
911
914
912
912
911
913
916
917
915
917
917
919
924
925
927
926
925
931
933
936
936
936
938
943
944
948
948
950
953
959
963
966
967
971
973
977
980
984
986
985
990
995
996
1001
1002
1004
1008
1010
1015
1017
1019
1019
1019
1019
1023
1024
1023
1021
1020
1022
1022
1022
1019
1018
1018
1018
1017
1018
1015
1014
1013
1009
1012
1011
1010
1008
1006
1011
1011
1014
1015
1013
1013
1015
1015
1017
1016
1016
1017
1018
1021
1025
1024
1022
1022
1022
1024
1022
1019
1016
1016
1017
1019
1020
1020
1018
1017
1016
1017
1015
1010
1001
994
991
987
983
979
975
971
971
973
974
972
969
970
972
973
973
972
970
968
969
971
971
972
969
965
969
968
971
970
970
969
970
971
971
971
970
970
972
976
977
978
977
977
978
981
979
982
979
979
981
981
980
978
973
967
966
968
969
973
982
1004
1033
1062
1091
1118
1138
1154
1178
1206
1233
1262
1287
1310
1330
1336
1341
1334
1327
1307
1277
1239
1205
1172
1139
1104
1073
1037
993
954
921
894
870
854
841
834
828
829
832
835
836
836
839
844
852
863
871
877
880
879
883
889
899
904
906
910
915
920
922
921
921
921
920
921
921
919
916
912
915
914
913
912
908
907
908
911
912
907
907
905
905
907
905
906
903
900
902
904
905
907
904
906
907
909
910
911
907
908
912
916
917
917
915
917
922
925
924
926
929
927
931
936
943
943
943
947
951
955
958
959
960
964
968
973
976
979
980
981
986
989
991
994
994
993
998
1004
1007
1007
1005
1005
1007
1009
1010
1011
1010
1005
1007
1008
1009
1006
1005
1002
1002
1004
1004
1003
999
997
998
1000
999
996
994
993
993
995
994
994
995
996
1001
1004
1001
999
999
999
999
1004
1005
1006
1005
1005
1008
1010
1012
1012
1009
1008
1009
1006
1006
1005
1005
1002
1007
1008
1008
1010
1006
1003
1002
1002
996
989
981
977
973
972
971
967
963
961
962
963
962
961
958
959
960
961
962
958
957
955
956
958
962
960
959
957
960
961
962
960
958
960
959
961
963
965
964
964
964
968
967
968
967
961
964
968
968
968
970
967
969
967
966
964
959
957
959
963
977
998
1024
1052
1083
1106
1124
1132
1149
1171
1193
1219
1239
1255
1262
1261
1259
1258
1252
1235
1206
1173
1148
1126
1104
1082
1058
1025
988
958
933
908
886
866
854
846
843
845
846
847
847
849
854
859
864
870
876
885
891
892
895
898
904
910
916
916
918
917
919
923
921
923
921
917
914
917
918
915
912
911
914
916
916
913
911
908
910
908
910
909
909
907
908
909
910
908
909
907
910
909
912
912
909
911
912
914
919
919
918
919
921
924
925
926
925
928
930
936
939
941
942
941
948
952
954
957
957
957
962
967
972
972
974
975
980
985
987
989
991
993
997
1001
1003
1004
1004
1003
1006
1010
1012
1012
1012
1007
1011
1011
1014
1011
1010
1010
1009
1009
1010
1008
1006
1004
1004
1005
1006
1002
1000
999
1001
1000
1003
1002
1000
998
998
1003
1005
1008
1007
1009
1008
1010
1009
1008
1006
1008
1009
1010
1012
1013
1013
1011
1016
1019
1020
1019
1017
1014
1012
1013
1014
1012
1011
1012
1011
1012
1017
1017
1014
1012
1009
1008
1001
994
989
987
982
984
980
975
971
969
970
972
971
969
969
965
965
967
971
971
967
966
967
970
968
970
968
968
969
970
970
971
971
970
969
971
973
972
973
971
971
975
978
977
976
974
977
979
979
980
976
977
980
981
983
979
979
975
974
972
970
967
963
967
980
1002
1029
1052
1075
1093
1109
1121
1143
1164
1185
1207
1231
1254
1269
1278
1277
1279
1277
1268
1250
1222
1189
1164
1140
1119
1096
1066
1026
986
955
930
906
885
870
860
856
855
855
856
857
854
855
861
871
878
884
887
893
898
903
905
910
914
917
924
924
928
926
928
930
931
930
931
929
926
925
926
928
926
924
920
921
920
922
919
921
917
917
918
918
918
917
914
914
918
917
919
917
916
919
920
919
921
921
919
920
923
926
924
925
923
925
929
932
934
931
934
936
940
944
942
946
948
951
956
958
963
962
962
968
970
975
977
977
978
983
987
992
995
996
996
999
1004
1007
1008
1011
1009
1010
1016
1017
1017
1016
1015
1016
1019
1022
1019
1017
1014
1015
1017
1018
1015
1014
1013
1014
1014
1014
1013
1013
1009
1009
1010
1009
1008
1008
1008
1011
1016
1016
1020
1017
1016
1016
1017
1018
1016
1016
1015
1017
1021
1023
1023
1022
1019
1020
1020
1024
1023
1020
1015
1015
1016
1018
1017
1017
1016
1015
1018
1014
1015
1011
1005
1004
1000
996
992
989
981
978
977
973
971
969
966
968
968
966
967
965
962
965
964
966
965
965
965
966
966
967
967
968
967
967
968
971
970
968
966
970
970
974
971
970
970
971
976
977
975
974
974
975
975
976
976
975
973
974
976
977
977
975
971
970
964
962
962
961
969
984
1011
1038
1061
1082
1098
1113
1133
1161
1186
1210
1234
1263
1286
1300
1306
1307
1304
1299
1286
1261
1224
1191
1163
1137
1111
1081
1041
997
959
930
902
881
862
851
844
845
846
850
849
849
848
857
867
876
885
891
892
898
903
910
916
918
920
923
925
931
929
928
922
924
922
924
922
921
919
917
918
919
918
915
912
914
914
914
912
911
910
908
909
911
913
910
909
912
914
912
913
912
913
913
914
917
919
918
919
920
924
927
929
930
931
935
940
943
945
945
949
951
956
959
963
964
967
972
977
979
982
985
987
991
997
1001
1001
1003
1005
1006
1013
1013
1014
1011
1013
1013
1015
1019
1019
1017
1013
1015
1017
1017
1019
1015
1014
1014
1013
1014
1010
1010
1007
1008
1011
1012
1010
1008
1006
1008
1013
1016
1017
1015
1013
1010
1011
1014
1014
1015
1016
1015
1018
1021
1019
1019
1015
1016
1018
1018
1015
1012
1008
1011
1011
1014
1015
1014
1011
1013
1010
1008
1003
994
985
983
982
981
978
970
966
965
967
968
965
963
958
960
960
962
962
961
961
959
960
962
962
962
959
961
964
966
963
963
962
964
965
965
965
964
963
964
968
970
966
967
966
970
972
971
971
970
970
969
972
974
973
971
965
964
964
963
958
957
961
976
1001
1028
1056
1082
1102
1121
1139
1163
1194
1222
1248
1276
1301
1316
1324
1326
1322
1318
1299
1273
1230
1190
1158
1123
1094
1058
1013
968
930
901
874
852
838
826
821
821
826
829
830
830
834
842
854
862
870
873
877
884
891
899
902
904
905
907
910
912
910
910
905
904
905
904
903
901
898
898
898
899
897
896
895
894
894
894
893
895
891
892
895
899
894
894
893
895
895
899
901
899
899
901
903
905
906
906
906
909
913
916
919
919
921
923
929
930
938
941
941
944
949
955
956
958
959
965
969
972
977
978
980
983
988
991
991
992
993
997
998
1001
1000
997
996
998
999
1002
1000
997
995
996
995
996
996
994
989
990
990
993
990
988
986
990
995
996
998
996
992
993
995
995
997
994
991
991
994
998
998
999
996
1000
1001
1000
999
996
995
995
996
999
998
996
997
997
994
995
988
981
975
971
969
966
961
957
951
952
952
954
953
949
945
945
948
950
952
949
947
948
948
950
950
950
949
953
954
955
954
952
952
955
955
956
959
956
956
960
961
963
963
960
958
960
962
963
962
963
963
963
964
964
959
953
951
953
961
977
1002
1027
1057
1084
1107
1121
1136
1158
1179
1204
1232
1253
1267
1269
1265
1260
1257
1244
1218
1185
1154
1128
1107
1086
1059
1026
984
952
925
897
875
859
844
836
838
839
838
840
836
839
845
854
863
870
877
880
884
889
892
897
902
905
911
913
914
914
910
910
911
913
911
909
904
906
908
909
906
904
901
902
902
903
904
902
899
898
900
902
903
901
898
900
901
905
903
900
900
903
904
909
908
908
906
909
910
912
913
915
913
916
923
927
930
