969
965
960
960
959
962
959
959
954
956
958
961
961
960
959
957
959
961
960
961
956
957
958
962
961
960
956
957
960
962
963
962
962
964
964
967
969
967
966
967
969
971
971
971
969
972
974
973
967
963
957
956
961
973
995
1023
1050
1074
1098
1115
1136
1163
1191
1218
1243
1266
1281
1284
1282
1274
1261
1233
1195
1162
1137
1109
1080
1044
1002
962
927
899
878
866
853
848
843
846
848
852
851
857
861
872
882
888
889
897
899
904
910
917
919
920
919
924
925
925
925
923
922
919
921
921
919
919
915
914
917
913
915
910
907
908
909
909
909
907
907
908
907
910
911
910
908
908
913
916
918
917
917
920
927
929
933
933
933
937
942
946
950
951
953
956
962
966
969
972
974
976
981
987
987
990
991
995
1000
1004
1006
1008
1009
1010
1014
1015
1016
1016
1014
1016
1020
1021
1021
1018
1017
1015
1017
1017
1015
1013
1010
1010
1011
1014
1010
1010
1004
1003
1006
1007
1007
1004
1007
1007
1010
1013
1011
1007
1005
1006
1008
1009
1010
1008
1008
1009
1014
1018
1018
1015
1014
1013
1015
1013
1013
1011
1010
1009
1012
1013
1012
1012
1007
1005
1003
997
993
986
980
977
973
971
968
962
961
960
962
964
963
962
958
962
963
963
963
962
961
960
964
966
967
965
965
965
965
967
967
966
963
960
964
968
966
966
966
965
966
970
969
969
969
969
972
972
974
974
972
973
975
976
975
970
963
961
962
969
983
1004
1032
1062
1089
1110
1122
1140
1167
1197
1224
1250
1274
1294
1303
1306
1307
1304
1288
1263
1227
1187
1165
1143
1117
1086
1046
1006
971
942
914
887
871
857
849
849
847
847
848
847
852
857
866
873
878
883
889
897
899
902
904
910
914
919
920
917
917
916
917
919
919
919
915
911
916
918
916
914
911
911
912
910
910
906
907
904
907
907
907
905
903
902
907
907
907
906
904
908
910
915
915
916
915
919
924
928
931
931
933
936
941
948
950
951
954
958
964
968
975
974
976
979
985
990
990
994
993
994
998
1004
1007
1006
1006
1009
1013
1015
1016
1016
1014
1014
1018
1020
1019
1018
1015
1015
1017
1016
1017
1013
1012
1011
1011
1014
1009
1007
1005
1002
1005
1010
1009
1007
1007
1006
1007
1012
1009
1007
1005
1006
1006
1008
1006
1007
1009
1010
1015
1018
1018
1015
1013
1012
1015
1012
1012
1010
1009
1008
1011
1013
1013
1015
1012
1011
1011
1006
1000
992
987
981
978
976
971
967
961
960
962
964
961
960
959
956
961
966
964
964
962
962
963
963
964
965
961
963
965
967
966
966
966
966
965
968
967
967
966
963
969
971
970
967
968
966
970
970
972
972
970
973
974
977
974
972
969
967
965
965
962
961
963
973
996
1023
1049
1074
1096
1113
1129
1156
1184
1215
1238
1263
1289
1309
1318
1321
1318
1312
1302
1282
1250
1214
1184
1158
1135
1109
1077
1038
1000
962
935
908
880
860
845
838
839
843
842
842
843
841
850
860
870
876
876
883
889
896
899
904
908
909
914
918
914
915
914
913
915
916
915
912
911
909
911
910
909
908
907
907
907
907
905
904
902
903
903
907
904
903
900
900
904
909
906
906
904
906
907
912
915
911
914
915
920
927
930
928
929
933
937
945
946
951
952
957
960
967
973
972
977
977
985
991
993
994
996
997
1004
1008
1009
1008
1010
1008
1015
1014
1018
1016
1014
1015
1018
1018
1018
1016
1014
1013
1013
1014
1013
1011
1010
1010
1010
1010
1008
1005
1005
1003
1005
1006
1008
1011
1010
1010
1012
1013
1010
1009
1009
1005
1006
1008
1009
1009
1011
1011
1013
1016
1015
1012
1011
1005
1008
1009
1009
1009
1007
1009
1011
1013
1013
1009
1002
998
991
989
985
978
974
969
967
967
966
963
960
958
959
961
960
958
957
958
958
961
959
959
957
958
960
962
962
961
959
958
960
962
963
962
961
960
961
965
965
964
966
965
966
966
966
968
964
962
969
967
970
969
969
967
965
966
965
962
956
955
963
978
1003
1032
1060
1088
1112
1130
1146
1170
1199
1227
1256
1285
1308
1322
1330
1331
1328
1323
1309
1284
1244
1207
1179
1152
1121
1087
1049
1007
962
928
898
870
848
837
833
827
826
826
828
827
832
834
840
847
854
863
871
877
879
882
886
891
898
904
910
910
909
910
913
912
912
911
908
905
904
908
904
903
901
900
899
900
900
898
899
895
899
900
896
895
895
892
894
898
896
895
894
893
898
900
901
902
901
900
904
903
907
909
908
911
917
920
921
922
924
928
931
936
938
941
945
947
952
956
959
961
965
967
973
977
979
980
982
984
988
993
994
996
996
999
1003
1008
1007
1008
1007
1006
1008
1012
1010
1006
1004
1004
1004
1005
1002
1001
1000
998
999
997
994
993
992
989
990
991
995
997
996
997
995
997
998
995
996
994
993
992
994
991
991
992
1000
1005
1003
1002
1000
996
999
999
999
992
994
991
993
996
996
996
995
995
997
999
991
986
981
972
971
970
965
960
953
952
951
952
953
950
949
948
950
951
951
948
948
945
949
950
951
950
947
945
948
949
951
948
948
950
951
953
953
952
952
950
954
957
958
955
955
956
955
962
962
962
961
959
963
964
962
960
954
950
952
956
963
978
1003
1031
1062
1091
1112
1123
1140
1162
1189
1218
1246
1269
1282
1288
1291
1290
1281
1265
1235
1200
1167
1141
1116
1091
1059
1020
982
949
918
888
865
848
837
831
826
823
823
823
827
828
831
836
850
854
862
869
872
873
878
883
891
898
901
901
902
903
902
906
909
907
901
904
905
907
907
905
901
900
901
902
902
899
898
896
897
899
899
898
896
896
896
898
900
899
897
893
898
899
903
902
900
902
907
908
911
912
914
915
920
923
926
926
927
930
935
942
943
942
946
948
953
958
965
961
962
967
972
979
980
983
984
985
989
992
996
997
996
999
1002
1004
1006
1005
1004
1004
1008
1010
1010
1010
1006
1008
1009
1009
1007
1004
1001
999
1001
1003
1003
999
996
996
993
997
997
996
996
996
1000
1001
1002
1001
999
998
997
1001
1002
997
997
996
1000
1005
1008
1007
1009
1007
1008
1011
1010
1009
1007
1003
1004
1004
1005
1002
1000
1001
1006
1008
1005
1004
1000
994
989
986
980
977
973
966
965
964
963
960
958
957
956
958
955
956
956
955
957
959
960
958
958
957
959
961
958
958
959
957
960
959
960
959
956
956
959
962
960
959
959
961
961
965
963
960
961
961
966
967
966
967
965
966
968
968
968
969
968
966
965
962
959
959
962
972
992
1021
1048
1071
1091
1105
1118
1139
1165
1191
1214
1236
1258
1276
1283
1283
1278
1274
1268
1253
1230
1197
1171
1147
1130
1109
1086
1053
1018
985
956
932
904
881
865
853
848
845
842
840
842
842
844
847
851
858
863
870
876
882
886
888
891
898
903
911
913
913
914
914
918
920
919
917
915
912
915
917
917
915
914
912
915
915
914
911
910
908
908
912
909
907
903
902
905
907
906
904
905
902
904
907
908
906
906
906
911
912
913
916
915
916
921
924
928
927
930
932
937
939
943
946
948
951
956
961
964
963
966
968
973
976
982
980
983
983
988
990
994
996
1000
1000
1006
1008
1007
1009
1011
1009
1014
1018
1016
1017
1014
1015
1016
1017
1017
1015
1015
1012
1014
1016
1017
1015
1012
1010
1010
1009
1009
1008
1004
1004
1003
1006
1004
1004
1003
1006
1008
1008
1011
1010
1008
1005
1008
1011
1007
1008
1006
1005
1006
1010
1015
1014
1012
1013
1015
1016
1017
1015
1013
1011
1012
1013
1014
1012
1011
1010
1013
1015
1014
1010
1005
1001
996
992
988
981
976
970
968
969
966
959
959
957
958
961
961
959
959
958
959
962
963
961
961
961
961
964
964
964
960
962
963
964
966
967
964
962
966
967
968
966
965
965
968
969
969
968
968
968
971
970
971
972
971
972
973
974
973
967
962
959
960
964
973
988
1014
1041
1067
1091
1108
1124
1141
1170
1207
1236
1262
1285
1296
1305
1308
1307
1296
1279
1251
1215
1185
1160
1136
1106
1074
1034
995
958
925
896
870
854
846
843
840
841
841
840
844
851
858
866
874
878
885
888
894
896
899
905
908
911
916
914
916
915
917
919
919
917
916
913
912
916
914
911
910
908
911
910
909
909
907
905
905
906
906
905
904
903
905
906
904
902
901
903
905
906
909
911
909
907
914
916
918
918
919
921
926
932
934
937
941
942
949
953
957
959
962
964
971
977
980
984
984
987
992
996
1000
1000
1003
1006
1007
1011
1014
1014
1013
1013
1016
1018
1019
1019
1018
1015
1018
1017
1020
1020
1019
1014
1015
1015
1014
1014
1009
1008
1011
1010
1009
1008
1008
1007
1009
1009
1012
1012
1010
1010
1011
1012
1013
1011
1006
1006
1006
1009
1011
1011
1012
1014
1017
1016
1016
1015
1013
1012
1012
1012
1012
1007
1004
1007
1010
1014
1016
1011
1007
1005
1002
996
990
985
978
976
973
970
968
964
960
960
961
960
959
957
957
956
956
958
960
961
959
957
961
963
964
963
962
960
963
966
965
964
964
962
966
966
967
967
967
967
967
969
969
969
969
968
968
970
972
971
971
971
970
973
969
964
960
958
962
969
986
1010
1039
1070
1100
1120
1138
1164
1196
1229
1260
1287
1310
1320
1325
1323
1318
1309
1288
1254
1218
1186
1159
1131
1103
1065
1021
974
939
910
885
864
849
838
837
833
837
838
838
835
844
855
865
873
877
884
887
893
900
903
904
908
911
914
917
917
915
914
913
914
912
911
910
908
907
908
906
904
904
901
903
903
902
900
896
895
898
899
900
898
898
898
901
904
903
903
902
904
907
910
911
913
915
919
923
927
931
934
936
939
943
950
954
957
956
961
967
973
976
979
982
983
989
996
999
1001
1000
1002
1005
1010
1009
1012
1011
1011
1014
1014
1015
1014
1011
1009
1008
1011
1012
1009
1007
1006
1006
1005
1004
1002
999
1000
1001
1005
1006
1006
1005
1004
1005
1004
1006
1003
999
999
999
1004
1006
1005
1006
1009
1009
1009
1008
1007
1003
1003
1003
1001
1003
1001
998
999
1001
1006
1006
1002
998
990
986
981
976
973
967
962
960
957
958
956
953
952
953
949
951
951
949
948
950
951
952
951
951
950
950
951
956
953
952
951
955
952
954
955
954
954
957
958
960
959
958
955
958
962
963
962
960
958
962
963
965
964
960
957
956
954
953
951
954
965
992
1022
1054
1084
1106
1123
1144
1176
1203
1233
1262
1287
1309
1325
1329
1330
1321
1309
1286
1252
1212
1179
1146
1113
1080
1039
994
951
914
882
856
840
828
818
812
813
820
823
824
829
834
843
855
859
867
870
872
877
886
891
895
898
898
896
898
903
902
899
896
896
897
897
897
893
889
889
891
891
893
889
887
883
884
886
887
886
882
883
884
887
885
885
883
886
888
891
892
895
896
897
900
904
908
906
907
912
917
920
922
926
926
933
939
944
948
952
954
956
961
967
970
971
975
975
980
986
989
990
992
994
995
1000
1002
1002
998
995
1000
1001
998
995
992
992
990
992
993
991
989
985
987
989
988
984
980
982
984
987
987
986
984
984
986
987
987
987
986
981
982
983
984
984
986
986
992
994
992
991
989
986
989
989
988
987
984
983
984
986
991
990
987
981
982
975
970
964
955
951
949
947
944
941
939
940
939
941
940
939
937
935
938
940
939
939
937
935
937
939
940
938
936
938
941
941
944
943
941
939
941
944
945
942
944
944
945
949
950
951
949
948
952
952
955
952
952
951
954
952
948
945
945
945
957
981
1010
1041
1072
1091
1110
1125
1145
1170
1197
1221
1246
1265
1277
1280
1275
1271
1264
1252
1226
1189
1157
1130
1107
1078
1044
1006
961
926
895
867
848
833
820
811
811
813
817
817
816
819
830
840
849
855
858
862
866
874
879
885
887
886
891
895
898
898
897
897
897
898
898
896
894
893
894
895
892
891
888
884
886
891
889
886
885
885
884
886
888
887
885
885
886
892
890
892
892
891
895
898
901
903
905
908
911
915
919
921
924
924
929
934
939
940
942
945
952
960
965
965
968
972
976
978
982
984
986
987
991
995
996
996
997
998
1003
1002
1002
998
998
999
998
1001
999
996
991
990
992
990
990
987
986
983
986
987
990
991
991
991
991
993
992
989
989
990
991
993
996
998
998
1000
1002
1003
1004
1001
1000
999
996
997
995
996
996
994
997
1000
998
995
991
985
979
975
971
967
958
953
950
949
950
948
946
945
946
945
945
945
946
945
947
949
950
948
948
946
950
949
951
951
949
950
951
951
951
951
951
951
953
954
957
954
953
953
956
958
957
957
957
957
961
963
962
962
957
956
955
952
951
948
948
955
974
999
1027
1056
1077
1091
1107
1126
1150
1178
1205
1227
1250
1268
1279
1282
1275
1273
1267
1251
1220
1187
1158
1136
1117
1095
1062
1024
983
946
918
892
870
855
842
836
834
834
837
839
837
837
840
849
857
864
869
871
878
884
887
891
894
898
903
909
910
914
913
910
912
914
913
914
911
909
912
912
914
911
910
909
909
910
908
905
902
904
905
904
903
902
899
900
900
901
902
904
902
903
905
908
911
910
910
912
915
919
924
923
924
926
929
937
941
944
946
947
954
957
961
962
963
967
972
977
980
980
982
985
987
993
996
996
996
999
1003
1008
1007
1010
1007
1009
1009
1012
1015
1014
1009
1009
1010
1013
1012
1010
1007
1006
1006
1005
1007
1004
1001
999
1002
1001
1002
1000
1000
1000
1002
1006
1005
1003
1000
1002
1005
1004
1007
1005
1004
1005
1012
1011
1012
1011
1009
1007
1010
1010
1008
1006
1003
1006
1006
1009
1009
1010
1008
1005
1006
1004
996
987
980
976
973
969
966
959
953
953
955
955
956
955
952
952
954
958
955
957
956
952
955
958
959
958
957
956
958
959
960
958
961
959
960
963
964
960
958
957
962
964
964
962
962
962
962
965
964
964
963
965
965
967
965
964
959
956
955
955
961
973
994
1024
1054
1082
1102
1116
1136
1158
1187
1217
1245
1266
1286
1303
1312
1320
1315
1310
1296
1274
1245
1215
1188
1162
1135
1106
1074
1039
1000
962
927
898
877
862
848
838
834
831
835
835
840
837
838
844
853
861
870
875
877
878
884
892
899
902
905
908
912
914
916
915
914
912
914
915
913
914
913
911
912
915
915
912
909
906
908
909
908
908
905
905
904
906
906
908
904
902
905
905
905
906
904
903
904
907
908
907
908
908
911
914
917
919
918
921
924
930
932
933
934
936
942
947
949
952
954
957
960
965
969
971
974
973
981
986
990
993
996
998
998
1004
1006
1006
1006
1007
1009
1010
1012
1013
1013
1012
1014
1017
1015
1016
1014
1013
1014
1012
1011
1012
1009
1009
1007
1008
1007
1007
1004
1003
1001
1003
1003
1004
1002
1003
1008
1009
1009
1008
1006
1003
1004
1003
1005
1003
1002
1002
1006
1010
1013
1012
1011
1009
1012
1012
1009
1007
1004
1003
1005
1008
1008
1009
1007
1007
1009
1006
1000
993
985
979
973
972
969
963
958
955
955
958
955
955
954
954
955
959
958
958
954
954
956
960
961
960
958
958
959
962
962
960
961
960
962
964
964
964
960
961
964
965
967
967
966
963
966
967
968
968
965
965
968
965
964
958
953
948
956
966
989
1018
1047
1073
1097
1117
1132
1155
1181
1212
1242
1272
1298
1319
1326
1328
1323
1322
1310
1281
1242
1206
1178
1151
1122
1088
1048
1003
967
933
906
879
859
845
836
830
828
826
826
829
831
830
836
845
852
859
866
873
877
880
882
886
893
898
903
904
907
905
905
907
908
907
907
904
905
905
905
903
902
899
902
901
900
899
895
893
893
894
895
891
893
889
891
893
895
892
891
890
892
896
894
894
896
895
898
897
901
901
901
901
905
907
913
917
916
918
923
927
930
931
934
935
942
949
952
956
956
960
964
966
971
974
975
977
984
987
991
993
996
994
998
1001
1004
1005
1006
1005
1006
1009
1008
1008
1005
1006
1007
1008
1007
1006
1004
1001
1004
1004
1005
1003
1000
998
998
999
999
998
990
992
994
997
997
998
1000
997
1001
1000
1000
997
998
994
995
996
998
997
999
999
1001
1003
1003
1002
1000
997
997
998
997
997
995
993
995
998
1000
999
998
995
992
991
986
979
974
967
968
965
963
956
951
950
952
953
951
951
950
949
947
950
951
949
945
946
947
951
951
950
950
949
950
954
956
954
951
954
955
957
958
959
956
955
959
959
960
962
961
957
963
962
966
965
964
962
963
963
959
956
950
951
953
961
980
1008
1034
1063
1089
1112
1128
1149
1176
1209
1237
1268
1294
1313
1326
1332
1336
1334
1327
1307
1281
1245
1206
1175
1146
1115
1078
1037
997
955
921
888
862
843
831
824
822
822
823
827
828
831
834
842
847
858
865
871
874
879
882
884
893
898
902
905
907
905
908
908
908
907
906
900
902
902
901
899
896
894
894
895
896
893
890
887
888
892
891
890
887
887
888
891
889
887
888
887
889
892
895
896
895
897
899
902
906
908
908
911
914
919
921
924
926
928
934
939
944
943
946
949
954
957
961
962
966
972
974
980
983
983
988
989
993
997
999
1000
1000
999
1002
1006
1008
1006
1005
1006
1005
1006
1007
1001
1001
1000
996
1002
998
998
994
993
993
992
993
989
990
986
989
990
992
992
991
992
993
993
995
994
991
990
991
991
990
989
991
991
994
999
1001
999
996
995
995
995
996
993
991
990
992
993
994
993
994
993
996
999
996
992
984
977
971
971
969
963
960
954
951
952
952
951
951
945
947
950
951
948
948
947
949
949
951
949
947
945
948
950
951
950
948
948
949
950
952
953
953
951
955
956
957
958
954
954
956
958
958
960
959
958
961
963
965
965
964
961
962
964
962
958
957
958
966
982
1008
1034
1061
1086
1112
1130
1148
1169
1197
1222
1246
1271
1294
1305
1310
1308
1307
1303
1289
1264
1232
1191
1167
1141
1118
1087
1059
1020
984
949
919
889
865
846
835
829
