1189
1221
1251
1278
1295
1307
1312
1312
1306
1294
1271
1236
1201
1173
1148
1120
1089
1054
1013
973
938
907
879
858
844
837
830
827
827
829
831
833
834
839
845
856
864
872
871
876
876
882
891
895
898
898
900
901
904
906
907
905
900
901
901
903
901
900
900
898
900
900
898
897
894
895
893
897
894
893
889
891
888
891
890
888
889
888
891
895
895
894
893
895
899
901
903
904
905
908
909
915
916
916
918
923
928
934
938
939
943
947
952
956
959
961
962
967
970
974
973
977
977
980
984
987
986
990
988
990
996
997
999
994
993
998
997
1000
1000
998
997
997
997
998
999
996
994
995
994
997
996
994
988
989
993
997
997
996
991
992
994
993
994
994
991
987
989
990
994
995
993
997
1001
1000
1000
995
994
993
994
994
994
992
989
995
996
998
996
996
992
984
978
975
971
967
961
956
954
953
949
946
943
944
945
946
945
945
943
945
945
948
947
946
943
946
948
951
950
949
944
949
950
951
949
948
946
949
951
954
955
955
952
954
954
956
957
955
955
954
957
958
958
957
955
956
956
957
954
949
940
943
946
953
968
990
1016
1045
1072
1094
1112
1132
1158
1191
1222
1248
1278
1301
1313
1318
1323
1325
1316
1299
1270
1235
1204
1176
1146
1114
1079
1043
1002
965
931
901
874
849
838
830
825
821
817
820
826
825
827
830
834
843
855
861
865
866
869
877
884
889
892
895
895
900
903
904
902
904
901
902
903
903
901
900
897
897
896
896
896
893
889
889
892
893
891
886
884
885
885
887
885
886
884
884
883
885
887
884
883
884
887
890
890
890
890
894
894
901
903
903
903
906
913
917
919
923
922
924
930
933
937
936
940
945
947
952
955
957
957
963
964
973
975
975
976
978
985
987
989
987
987
989
993
997
998
996
995
996
997
998
997
997
993
994
996
996
992
989
987
984
985
986
986
985
985
987
990
990
988
987
985
985
984
982
981
980
979
982
987
991
992
990
987
989
990
993
992
989
986
987
987
990
993
987
988
983
978
972
966
958
953
951
948
945
942
939
938
939
938
940
938
937
935
936
936
939
941
940
939
940
944
943
944
942
941
941
945
947
947
946
945
943
946
947
944
942
942
943
946
946
946
944
943
946
949
950
950
949
948
950
952
954
951
945
942
942
946
959
981
1010
1039
1069
1097
1117
1132
1153
1178
1210
1238
1266
1287
1302
1303
1304
1303
1294
1277
1246
1201
1165
1135
1111
1081
1046
1007
965
929
900
871
848
831
822
818
816
815
816
818
819
823
828
836
844
850
859
866
870
874
877
881
886
892
895
895
895
896
897
898
897
894
893
892
891
894
894
895
892
889
889
892
891
890
886
886
885
886
887
887
888
885
885
887
888
890
888
886
888
890
892
893
892
887
891
894
897
897
899
898
901
905
908
909
913
910
915
920
924
926
929
930
934
941
942
949
950
951
956
959
964
968
970
969
973
979
982
982
983
986
988
989
991
992
990
991
989
990
991
990
990
988
987
988
990
990
985
983
982
985
984
981
980
977
977
978
979
982
979
981
981
983
986
987
984
982
983
980
982
983
983
981
987
989
991
991
989
987
988
990
988
988
985
983
982
985
986
986
989
989
987
984
980
977
968
960
957
953
950
948
945
941
940
944
945
945
942
939
940
943
944
944
943
942
942
943
944
944
944
943
942
945
944
946
944
944
945
948
945
949
948
941
945
948
949
950
948
946
949
953
956
956
955
955
954
959
958
956
952
946
948
950
956
970
990
1016
1044
1071
1093
1107
1121
1144
1171
1197
1222
1248
1260
1268
1267
1267
1259
1246
1218
1182
1152
1130
1108
1080
1048
1007
966
936
911
885
863
847
839
837
839
838
837
836
838
845
854
863
871
872
878
883
887
893
897
898
902
908
908
911
910
908
909
912
912
912
911
910
911
913
913
910
906
905
905
907
907
906
904
899
902
903
906
903
901
899
901
904
901
906
905
901
904
906
908
908
909
911
914
916
919
921
922
921
928
934
936
937
941
938
944
950
953
959
958
958
963
968
973
974
975
975
978
983
985
989
988
986
991
994
998
998
997
997
998
1000
1003
1003
1004
1001
999
1004
1005
1004
1002
999
1001
1001
1003
1004
1002
998
999
1000
1000
999
993
992
995
1000
1004
1004
1002
999
999
1001
1002
1002
1000
998
1000
1001
1004
1005
1007
1006
1007
1008
1011
1008
1005
1004
1002
1004
1005
1004
1003
1002
1004
1008
1008
1009
1004
1000
996
991
987
983
977
969
964
962
960
959
956
954
953
955
954
956
957
954
956
958
958
958
958
956
957
957
961
960
957
959
959
960
963
962
961
960
963
965
968
967
966
964
965
968
968
969
966
965
966
967
969
969
970
964
966
969
969
966
960
953
954
958
966
981
1006
1029
1057
1080
1098
1113
1131
1156
1187
1217
1245
1269
1285
1293
1298
1299
1298
1287
1264
1229
1197
1171
1151
1126
1094
1060
1019
982
952
923
899
876
862
858
856
849
851
850
852
854
854
857
862
866
875
884
889
894
897
897
904
911
918
919
919
920
924
927
928
928
925
922
921
924
924
922
917
918
918
917
918
918
916
912
911
913
915
914
912
907
909
910
912
912
910
908
910
912
913
913
912
911
911
917
921
919
919
919
921
925
929
933
933
933
937
942
945
945
947
946
949
954
957
960
962
963
966
972
976
978
981
983
984
988
992
995
994
996
1000
1003
1008
1007
1010
1009
1011
1013
1017
1018
1020
1016
1016
1018
1021
1021
1018
1016
1018
1018
1016
1016
1015
1009
1009
1010
1011
1009
1008
1003
1004
1008
1011
1008
1010
1006
1010
1010
1010
1010
1011
1008
1008
1008
1009
1008
1009
1010
1014
1017
1020
1021
1018
1016
1018
1019
1018
1015
1013
1010
1010
1011
1014
1014
1014
1010
1014
1013
1010
1006
1001
994
987
982
982
980
971
964
963
964
965
962
961
959
958
961
962
963
961
957
962
963
965
965
963
962
964
966
966
965
966
966
965
965
969
967
966
965
965
967
969
968
968
962
965
968
969
968
968
966
966
967
970
969
973
970
974
973
973
970
964
959
958
963
971
985
1007
1038
1065
1089
1108
1122
1145
1170
1205
1234
1262
1287
1306
1307
1313
1312
1303
1288
1254
1219
1188
1162
1140
1111
1077
1032
990
954
926
897
873
858
850
848
847
846
848
847
849
852
861
868
874
880
886
890
893
898
904
905
909
914
918
920
918
918
919
919
921
918
914
914
913
916
917
914
914
911
910
911
911
909
910
906
909
909
912
912
909
908
905
909
910
911
907
904
904
908
910
911
909
909
911
913
917
919
918
918
924
923
927
931
932
933
938
944
946
947
951
950
956
960
965
968
970
971
977
980
984
987
987
988
994
999
1000
1002
1003
999
1004
1008
1008
1008
1009
1008
1008
1010
1013
1011
1011
1006
1008
1010
1010
1008
1008
1005
1006
1007
1007
1005
1001
1000
999
1001
1005
1004
1003
1004
1008
1007
1011
1011
1010
1004
1006
1008
1010
1009
1005
1002
1004
1006
1010
1010
1010
1009
1010
1012
1011
1010
1007
1003
1001
1003
1004
1006
1005
1003
1003
1010
1008
1006
1004
1000
996
992
987
983
979
974
971
970
968
965
963
961
961
961
962
961
960
955
956
959
960
960
958
957
958
958
960
960
959
956
957
960
963
962
961
959
961
963
963
964
963
962
962
962
966
967
969
967
968
969
970
971
973
970
971
973
976
975
975
971
971
969
971
967
961
956
956
961
971
989
1011
1035
1058
1084
1104
1121
1136
1161
1192
1221
1250
1277
1299
1307
1316
1318
1319
1313
1298
1270
1235
1201
1172
1145
1118
1086
1047
1008
967
937
905
879
860
847
843
841
841
839
842
844
846
854
857
866
872
880
886
886
891
895
899
906
911
915
915
915
916
920
922
922
920
920
917
918
919
919
914
912
914
910
912
912
909
906
906
907
909
908
905
903
903
904
905
906
903
902
902
901
905
907
908
906
907
908
913
912
913
913
913
921
924
929
930
931
934
939
944
945
945
947
950
955
960
960
959
962
967
972
976
978
980
980
984
987
994
994
996
995
999
1001
1004
1005
1005
1005
1006
1008
1011
1011
1008
1010
1010
1012
1011
1011
1008
1007
1008
1008
1010
1008
1007
1001
1002
1001
1001
1001
999
998
1001
1003
1005
1005
1002
1000
1001
1002
1002
1001
1000
998
999
1001
1007
1008
1007
1005
1005
1007
1009
1009
1008
1006
1006
1006
1008
1007
1007
1004
1006
1008
1010
1010
1005
1001
997
992
987
981
977
972
969
966
963
960
962
958
955
956
959
958
957
955
954
957
958
958
957
954
956
958
960
959
960
958
960
962
964
965
963
961
962
963
965
964
963
960
959
961
962
962
960
961
962
964
965
964
964
963
963
967
967
967
967
965
963
961
960
957
957
960
970
991
1021
1052
1082
1103
1122
1140
1164
1192
1215
1238
1264
1290
1309
1319
1322
1319
1314
1303
1281
1245
1206
1174
1148
1118
1092
1055
1013
969
933
906
883
862
848
836
832
833
835
837
837
836
837
844
856
865
870
873
881
884
889
892
897
899
904
909
911
912
911
911
910
913
912
913
912
908
907
907
907
906
903
902
901
901
902
901
901
897
897
898
900
902
903
900
900
901
902
904
901
902
904
904
907
908
907
906
909
914
916
918
918
919
920
926
931
933
934
937
942
945
950
954
956
957
961
966
970
972
977
978
981
988
990
993
995
994
999
1003
1004
1004
1004
1002
1001
1004
1004
1003
1002
997
1000
1002
1002
998
995
993
990
992
995
996
992
988
991
994
997
998
993
994
996
997
998
999
994
992
994
996
1002
1003
1005
1004
1004
1004
1007
1005
1000
995
998
999
998
1000
998
998
999
1000
1001
996
988
981
976
972
970
966
960
955
953
955
956
958
954
951
951
953
958
957
954
953
954
953
957
956
955
952
953
956
958
958
956
953
955
956
958
960
958
957
956
959
960
960
958
957
959
959
965
963
962
961
963
965
969
968
968
965
965
963
961
958
959
966
983
1012
1040
1067
1090
1107
1118
1140
1166
1192
1213
1232
1252
1264
1267
1268
1262
1250
1235
1211
1182
1151
1130
1106
1083
1060
1031
994
960
931
909
887
873
860
852
843
843
847
850
850
849
848
856
866
873
880
884
886
889
895
902
906
907
909
912
914
918
918
917
914
915
917
920
919
916
914
915
917
917
918
916
913
912
911
915
915
912
911
908
912
914
912
909
908
908
912
913
915
910
911
912
917
919
921
920
921
923
926
928
930
930
933
933
941
946
949
953
953
958
962
968
970
971
969
974
977
982
985
986
986
990
992
998
1000
998
1000
1003
1007
1011
1009
1008
1008
1007
1011
1010
1011
1007
1006
1006
1008
1009
1008
1006
1002
1003
1004
1007
1006
1004
1002
1004
1005
1008
1008
1008
1002
1005
1007
1007
1004
1002
1002
1004
1009
1013
1014
1014
1012
1009
1013
1013
1010
1008
1006
1010
1013
1015
1013
1015
1013
1012
1012
1008
1003
995
986
982
981
976
973
969
965
966
966
967
966
966
964
963
965
967
968
968
968
966
968
970
971
970
969
967
971
973
974
975
971
974
975
976
977
975
975
975
976
981
980
978
976
979
979
982
980
978
977
977
977
972
969
966
965
976
997
1027
1055
1078
1094
1107
1124
1151
1179
1207
1232
1253
1272
1283
1284
1281
1275
1267
1240
1207
1178
1153
1130
1105
1076
1038
999
963
933
910
894
879
873
865
859
864
865
868
867
866
871
878
890
896
902
902
904
911
918
925
927
930
929
934
936
939
940
937
933
935
933
936
932
933
928
927
930
930
928
926
924
924
926
926
927
925
922
922
924
926
924
923
923
924
926
928
930
929
928
932
935
938
941
939
939
942
944
949
948
950
951
954
959
964
964
967
966
969
972
980
981
983
986
989
992
999
999
1001
1001
1005
1009
1010
1016
1015
1015
1018
1022
1025
1026
1028
1024
1024
1026
1027
1028
1027
1023
1023
1025
1025
1019
1019
1018
1015
1016
1018
1017
1013
1015
1014
1018
1020
1021
1017
1015
1014
1018
1018
1018
1015
1015
1016
1019
1023
1024
1025
1025
1024
1026
1026
1026
1020
1020
1018
1023
1023
1022
1019
1017
1019
1019
1018
1014
1006
1001
995
991
988
984
977
973
971
969
973
973
970
967
967
968
972
972
971
971
971
973
975
974
975
972
975
977
978
979
975
975
973
977
978
977
977
976
975
976
979
976
977
976
976
979
982
982
978
977
980
981
983
984
982
979
978
980
978
975
972
972
979
998
1022
1052
1077
1092
1112
1125
1145
1174
1200
1222
1248
1272
1290
1301
1303
1297
1293
1286
1267
1235
1200
1172
1150
1129
1104
1071
1031
992
962
936
912
894
875
865
862
864
863
867
867
865
867
874
883
891
895
898
902
906
911
916
919
920
924
929
932
934
933
931
929
932
934
931
930
930
929
930
930
930
928
922
925
926
927
926
926
922
925
926
927
925
922
920
921
924
927
927
923
920
921
923
926
927
925
922
926
931
933
935
936
935
936
940
946
948
948
949
952
957
960
963
966
966
969
976
980
982
985
984
987
994
997
998
1001
1003
1005
1006
1012
1014
1014
1014
1015
1018
1020
1023
1019
1019
1022
1023
1025
1024
1020
1021
1020
1021
1022
1022
1019
1014
1016
1016
1019
1017
1016
1012
1012
1014
1017
1018
1019
1019
1021
1019
1022
1021
1020
1018
1019
1016
1019
1020
1019
1021
1022
1024
1025
1023
1021
1019
1020
1020
1020
1020
1016
1015
1015
1017
1021
1021
1019
1018
1015
1012
1012
1005
998
992
990
987
985
980
975
972
972
972
974
973
972
971
970
973
973
972
971
971
969
970
970
973
970
968
970
970
972
972
972
972
973
975
977
977
976
974
974
975
978
978
976
977
978
981
983
984
983
982
982
983
985
981
978
972
967
969
975
990
1013
1037
1067
1091
1113
1130
1150
1179
1208
1239
1263
1292
1304
1312
1313
1311
1308
1294
1264
1229
1195
1171
1149
1117
1084
1042
1000
964
938
911
886
867
858
857
855
856
856
859
858
863
873
882
889
893
898
901
907
913
917
921
923
928
932
932
932
928
930
929
930
933
930
929
928
931
930
928
927
926
924
924
924
925
922
916
917
919
921
921
917
915
915
916
920
919
919
917
917
919
924
924
922
923
925
930
932
934
935
935
939
943
950
950
953
955
957
962
969
971
973
974
975
981
987
985
989
988
992
997
1001
1005
1003
1005
1007
1009
1012
1016
1015
1016
1017
1018
1020
1019
1020
1018
1019
1020
1023
1021
1019
1016
1018
1018
1020
1020
1016
1017
1014
1015
1016
1017
1017
1014
1019
1019
1018
1016
1016
1012
1014
1013
1013
1012
1011
1014
1014
1017
1021
1019
1018
1016
1014
1018
1018
1015
1014
1012
1010
1011
1013
1015
1014
1016
1014
1013
1013
1011
1005
997
992
989
989
985
979
973
971
970
970
968
965
963
964
966
965
967
965
961
961
963
967
966
964
965
964
966
969
968
967
968
967
968
971
970
971
968
968
972
974
974
973
972
972
973
974
975
974
974
971
973
978
977
974
975
973
973
977
973
970
963
963
964
969
978
997
1022
1051
1080
1107
1125
1144
1168
1198
1227
1254
1276
1295
1306
1313
1315
1312
1303
1286
1254
1215
1183
1155
1126
1095
1061
1021
984
951
923
897
872
857
849
847
845
844
844
846
847
850
852
860
867
875
882
890
890
893
898
903
911
916
920
921
920
922
922
926
926
924
922
921
923
923
920
917
916
913
915
916
914
910
907
908
911
910
909
907
904
906
908
909
908
908
905
905
908
910
910
909
909
913
915
919
919
917
919
923
926
929
933
936
937
935
941
948
946
949
950
952
959
964
967
967
968
971
976
980
984
985
984
987
990
995
998
998
998
1000
1003
1006
1008
1007
1007
1004
1007
1010
1009
1006
1003
999
1002
1003
1002
1003
997
997
998
999
999
998
998
1000
999
999
999
996
994
992
992
996
993
989
990
992
998
1002
1003
999
998
1000
1004
1005
1005
1003
997
1000
1003
1004
1005
1002
1001
1003
1004
1001
999
992
984
978
974
972
967
960
956
954
954
957
958
954
952
952
952
956
955
953
951
950
956
954
954
954
953
954
955
955
957
956
954
956
956
960
957
959
957
955
957
960
958
955
953
955
958
960
961
959
957
959
959
961
964
965
963
962
963
965
963
962
957
955
955
956
960
970
989
1019
1043
1070
1091
1104
1115
1132
1159
1184
1204
1224
1240
1254
1262
1261
1257
1252
1238
1221
1198
1171
1147
1125
1106
1084
1064
1037
1004
967
939
913
891
876
860
851
846
842
844
850
853
850
850
856
865
875
883
886
890
891
896
901
905
908
910
913
916
917
920
919
918
918
918
920
919
917
916
913
913
920
915
914
912
911
912
913
912
910
910
907
910
913
912
910
909
909
911
912
914
912
913
913
914
915
916
916
915
917
919
923
925
925
923
929
932
936
940
940
940
942
946
952
956
957
958
961
966
971
973
977
979
982
985
991
992
993
993
996
1000
1004
1004
1005
1004
1006
1007
1008
1009
1008
1005
1005
1008
1008
1010
1008
1008
1006
1008
1007
1007
1005
1004
1000
1001
1004
1004
1004
1004
1006
1005
1008
1010
1007
1005
1007
1005
1006
1008
1004
1002
1004
1005
1011
1013
1011
1012
1012
1012
1013
1012
1008
1010
1008
1006
1009
1009
1006
1005
1007
1010
1012
1013
1007
1001
996
993
990
986
980
975
971
971
970
969
968
968
965
966
966
966
965
964
964
966
966
966
963
965
964
965
968
967
965
965
966
966
970
969
965
968
966
969
973
971
970
968
967
971
973
973
972
970
971
972
977
976
977
977
976
979
980
981
979
977
973
970
971
968
967
969
981
1004
1028
1050
1071
1087
1101
1118
1139
1161
1181
1203
1221
1246
1263
1273
1273
1275
1273
1273
1262
1237
1209
1180
1157
1140
1123
1100
1069
1036
1003
974
953
928
903
885
875
867
864
864
861
861
863
865
867
870
875
881
886
893
903
903
903
908
911
917
923
924
927
928
926
