995
993
990
991
991
992
992
991
988
986
989
989
993
993
996
993
990
989
987
979
974
966
962
961
958
955
950
948
947
947
949
947
946
941
941
944
948
945
945
945
946
945
950
947
946
946
945
948
951
950
949
948
949
952
954
956
954
953
954
955
955
956
954
953
953
955
957
955
957
955
952
957
959
960
957
955
954
958
958
954
951
946
950
956
974
998
1023
1048
1074
1096
1114
1125
1140
1162
1185
1210
1233
1255
1271
1282
1285
1285
1284
1278
1264
1240
1206
1174
1148
1119
1092
1066
1035
997
964
932
907
882
861
850
844
835
831
831
834
839
841
842
843
847
856
863
870
875
877
878
881
888
894
894
897
899
901
904
909
909
909
907
908
911
911
910
907
907
907
907
909
907
903
900
902
903
905
904
904
900
903
905
906
905
904
900
899
901
904
903
901
900
900
900
903
905
901
903
901
906
910
909
910
910
913
917
920
920
923
926
926
929
933
935
936
937
942
945
950
953
956
955
957
964
969
969
972
973
975
979
979
982
986
985
987
990
996
995
995
998
997
998
1002
1001
1001
999
1000
1004
1004
1004
1002
1001
1002
1003
1004
1005
1002
997
998
999
999
999
997
995
995
994
996
996
997
994
994
995
1000
997
998
996
996
998
998
1003
1005
1003
1005
1009
1010
1009
1007
1005
1005
1005
1008
1007
1007
1005
1004
1007
1009
1009
1007
1003
1000
997
991
985
978
974
971
967
964
961
957
958
955
958
959
958
957
955
956
958
959
959
960
958
960
961
965
963
963
959
963
964
967
965
963
963
961
961
962
963
963
962
962
963
964
965
965
965
964
965
969
969
968
964
964
969
971
970
967
963
956
956
959
962
969
989
1016
1044
1071
1091
1108
1122
1146
1176
1202
1229
1253
1275
1289
1299
1301
1298
1290
1274
1241
1204
1174
1147
1122
1089
1054
1017
981
949
924
897
877
866
857
851
848
845
846
849
853
851
851
855
858
869
879
881
885
889
892
897
902
908
912
912
914
915
919
920
918
917
915
917
919
917
914
914
914
917
918
915
915
911
911
911
913
915
910
908
906
908
908
907
907
902
902
904
907
905
905
904
903
905
906
907
907
907
909
912
914
916
916
917
919
923
926
930
930
931
935
938
942
944
944
946
949
955
957
960
961
962
964
969
975
977
977
978
980
986
990
991
990
992
994
998
1001
1002
1004
1002
1004
1005
1008
1007
1008
1009
1007
1010
1011
1011
1010
1006
1005
1009
1010
1006
1005
1000
997
999
999
998
998
994
994
997
998
1001
1001
998
997
1000
1001
998
999
1000
996
999
1002
1002
1003
1006
1007
1009
1012
1011
1010
1008
1006
1006
1006
1006
1000
1000
1002
1004
1005
1004
999
997
991
986
981
976
974
965
962
960
960
956
955
954
952
953
955
955
956
953
954
958
958
959
956
955
958
957
960
956
957
954
955
957
959
959
955
957
956
957
960
962
961
956
958
961
964
963
963
962
963
965
967
967
968
967
963
965
965
963
958
952
951
960
978
1001
1024
1048
1072
1094
1111
1130
1154
1184
1215
1242
1272
1293
1307
1311
1312
1313
1310
1294
1264
1225
1189
1158
1134
1104
1066
1025
980
947
922
894
867
847
837
830
834
831
830
831
831
835
841
848
854
861
865
875
877
883
889
893
895
902
906
909
908
908
907
910
911
912
910
907
908
908
910
909
908
906
903
902
903
900
896
898
896
898
897
895
896
892
889
892
895
893
890
889
891
894
894
895
895
895
896
899
901
905
904
905
908
911
916
916
917
919
919
925
930
930
931
932
933
940
944
947
946
949
951
957
960
964
965
966
969
974
979
982
983
983
985
990
992
996
995
996
998
999
1005
1002
1001
998
999
999
1002
1004
999
997
994
994
994
996
993
989
986
989
992
989
987
987
985
988
993
994
992
992
990
994
993
994
993
993
992
995
998
996
999
998
1001
1003
1004
1002
1000
997
993
994
994
994
993
992
993
996
996
995
993
991
985
981
977
970
965
962
955
955
953
952
947
948
948
948
948
948
947
948
947
948
951
950
948
947
944
946
949
948
948
944
945
947
949
950
950
946
945
950
952
952
951
951
950
951
954
955
953
954
953
955
957
958
958
958
956
957
963
961
959
956
954
951
949
947
945
948
956
980
1008
1034
1061
1087
1104
1123
1152
1179
1208
1237
1263
1293
1313
1321
1321
1319
1313
1305
1283
1248
1211
1178
1148
1119
1088
1051
1012
969
933
907
885
861
842
830
819
817
819
821
822
822
823
824
830
838
843
849
855
863
870
870
874
878
882
888
895
897
897
898
897
901
906
904
902
899
898
899
900
896
896
893
893
892
894
891
889
887
886
886
889
887
886
884
882
883
883
884
883
880
880
880
883
883
882
883
882
886
889
889
888
889
889
893
896
896
898
896
897
902
904
908
910
910
912
916
922
926
926
929
931
935
941
942
946
946
946
951
956
958
961
960
965
970
974
977
976
977
980
981
984
985
984
986
984
985
987
985
985
984
984
985
987
983
981
979
979
979
982
980
977
975
973
973
976
976
976
974
971
976
977
978
979
980
977
979
979
982
979
976
976
977
979
980
980
981
979
983
985
984
987
984
982
982
982
982
981
980
979
979
981
983
985
982
982
978
977
970
962
958
953
952
949
946
944
939
939
942
941
941
938
936
936
936
939
939
937
936
936
936
941
940
938
938
937
940
942
939
939
938
937
942
944
945
944
942
945
945
947
950
947
947
947
948
948
947
947
947
943
948
950
948
947
946
944
943
941
939
940
942
951
969
999
1026
1052
1074
1094
1108
1130
1155
1179
1199
1227
1251
1272
1277
1278
1272
1264
1255
1236
1201
1165
1137
1108
1084
1059
1027
983
943
910
884
863
844
828
821
815
815
816
822
823
822
823
834
844
852
858
862
865
870
876
878
882
885
887
892
895
897
895
894
894
893
895
894
894
889
888
890
892
891
888
886
884
888
889
888
885
885
883
884
886
886
883
883
883
885
886
885
884
885
885
888
890
891
890
889
892
896
900
901
902
903
906
908
914
917
918
920
920
925
929
932
935
937
941
946
952
956
957
957
959
964
969
971
970
970
969
971
973
974
979
978
977
977
979
979
977
977
977
981
981
981
977
977
974
974
976
976
975
974
971
971
971
970
970
970
972
972
975
975
973
970
971
969
972
970
970
970
969
972
978
977
981
981
981
980
982
979
979
975
974
980
980
979
979
980
982
983
982
978
970
960
956
953
948
944
939
936
932
934
936
937
932
931
929
933
935
935
931
935
931
934
934
934
935
936
936
938
941
940
938
938
937
939
943
942
941
938
936
939
942
941
940
940
939
944
942
943
942
942
942
946
944
946
946
944
944
943
938
938
938
940
950
973
1002
1029
1053
1074
1088
1103
1125
1152
1178
1199
1219
1237
1246
1248
1246
1243
1237
1227
1210
1181
1149
1124
1102
1080
1058
1025
986
951
920
896
878
857
840
833
831
833
837
840
839
838
841
849
859
862
869
872
874
880
887
892
896
898
899
905
907
909
909
905
905
904
907
907
907
905
901
904
906
908
904
902
899
903
904
902
901
900
898
900
900
900
896
893
895
897
900
900
900
900
899
905
906
906
907
908
909
913
916
917
920
919
922
931
934
940
942
943
944
950
953
956
957
959
960
966
968
970
974
974
975
979
984
987
988
988
989
992
996
997
997
995
995
996
998
998
1000
996
996
998
997
995
993
991
989
990
990
989
985
986
985
986
986
987
988
988
988
990
991
993
988
990
992
996
1000
1001
1001
998
998
1003
1005
1001
1000
996
994
996
999
1001
999
999
996
994
990
986
976
971
963
962
960
956
951
949
948
951
951
952
951
950
950
953
955
955
953
954
952
955
956
957
956
952
953
952
956
955
956
955
952
955
958
957
956
958
955
958
958
960
960
958
960
963
966
965
964
962
962
965
965
964
959
954
947
949
954
966
985
1007
1032
1059
1082
1097
1115
1137
1164
1194
1223
1247
1269
1280
1286
1288
1289
1283
1270
1243
1208
1175
1149
1127
1099
1070
1032
993
959
930
895
873
859
846
842
839
837
838
839
840
840
849
854
860
867
873
881
884
886
889
896
902
906
909
913
914
913
914
913
916
914
913
910
913
913
913
908
906
904
904
907
906
904
899
896
901
901
900
898
897
895
898
899
899
900
899
897
901
903
904
904
905
906
909
912
916
918
919
921
923
925
928
931
932
934
941
943
948
949
951
955
958
963
966
968
968
971
976
980
986
986
986
988
993
999
1001
1000
1003
1000
1004
1007
1007
1006
1004
1004
1002
1005
1004
1000
999
998
999
999
1000
996
996
990
991
993
993
990
986
985
987
988
992
990
992
992
995
999
1001
998
996
996
999
1003
1003
1003
1002
1002
999
1005
1008
1006
1003
998
998
1001
1004
1002
1000
1001
1003
1005
1002
997
994
986
980
981
977
974
967
962
959
960
958
958
956
953
956
957
954
954
954
953
955
956
955
957
954
955
958
959
959
959
957
958
960
962
962
961
960
959
961
965
963
964
964
962
965
967
969
967
966
964
966
969
968
968
966
967
965
966
963
958
953
950
954
961
978
997
1025
1050
1077
1096
1114
1132
1152
1180
1212
1242
1268
1292
1306
1311
1316
1314
1306
1285
1250
1213
1182
1156
1128
1095
1063
1022
985
954
927
903
878
856
844
837
836
835
834
837
840
841
844
850
858
865
871
880
885
886
892
895
902
908
912
911
912
912
915
918
918
917
913
911
912
911
913
912
908
906
908
907
906
906
906
903
903
904
904
901
898
901
902
903
901
903
901
899
901
904
903
905
902
901
905
907
909
910
907
911
916
920
921
923
925
926
929
936
939
943
944
946
951
957
960
964
966
968
973
976
980
984
984
986
990
993
997
996
995
998
999
1001
1005
1006
1003
1003
1004
1007
1006
1007
1002
1001
1004
1002
1003
999
998
996
999
1001
998
998
996
992
992
996
995
994
993
993
996
997
997
997
995
994
997
1001
1004
1003
1002
1002
1006
1007
1008
1007
1003
1001
1002
1004
1004
1005
1004
1005
1008
1008
1005
1005
1001
993
989
984
979
973
966
960
956
956
958
956
954
952
955
957
955
955
955
954
955
958
959
958
957
956
960
962
963
964
964
960
964
967
968
966
966
963
965
966
964
964
964
962
964
967
968
967
966
967
968
970
971
970
971
967
966
968
966
961
957
954
958
969
984
1007
1035
1060
1084
1107
1126
1141
1165
1192
1223
1253
1281
1304
1319
1331
1335
1332
1328
1317
1294
1261
1225
1192
1163
1134
1102
1067
1029
991
953
925
898
874
856
848
840
835
833
831
837
840
841
838
841
849
858
868
874
877
880
882
888
895
901
901
904
905
908
910
914
913
910
911
913
914
912
912
909
907
908
911
911
909
905
905
907
909
909
907
905
901
902
903
901
900
899
896
897
898
898
896
896
894
895
899
899
899
897
896
898
904
904
909
907
906
911
915
919
921
920
921
927
931
935
936
939
941
944
948
955
956
956
956
962
963
967
969
972
973
978
981
983
986
987
989
994
995
998
998
1001
998
1000
1003
1002
1003
1001
1001
1005
1007
1007
1003
1001
1000
1003
1001
1001
999
995
992
995
994
992
989
986
983
985
988
988
988
987
988
992
993
993
992
992
990
990
994
997
997
996
997
1003
1004
1007
1007
1005
1003
1004
1004
1004
1003
1003
999
1001
1004
1004
1000
1001
1000
998
997
989
986
979
974
971
968
964
957
956
952
956
956
957
955
952
953
956
956
956
955
957
956
958
960
960
958
959
958
959
960
961
959
959
958
960
963
963
960
961
960
962
963
965
961
959
959
962
964
967
967
966
966
967
969
970
970
970
968
971
972
973
970
967
963
963
964
967
977
992
1019
1050
1076
1104
1121
1138
1152
1178
1203
1227
1249
1270
1285
1297
1301
1301
1295
1291
1281
1266
1241
1208
1177
1149
1124
1101
1078
1046
1008
971
942
918
896
875
860
847
838
838
840
840
842
840
839
843
850
859
865
871
875
880
887
890
895
897
899
906
908
911
912
914
913
919
922
921
919
919
916
917
917
918
917
914
912
912
913
913
911
910
909
907
908
909
909
906
905
907
907
907
907
905
904
909
907
908
909
906
906
911
909
912
913
915
914
915
921
924
924
926
927
930
932
936
938
940
941
942
946
949
950
954
956
957
963
964
966
965
966
974
976
981
983
984
983
987
991
994
997
998
999
1000
1006
1006
1008
1007
1007
1010
1014
1016
1014
1011
1010
1011
1011
1011
1010
1007
1004
1007
1006
1006
1004
1001
999
999
996
997
996
995
991
993
993
994
996
993
992
995
999
1000
998
998
996
999
1000
1005
1002
1001
1004
1008
1010
1009
1009
1009
1006
1010
1010
1008
1005
1005
1003
1008
1009
1009
1009
1008
1004
1005
1005
1000
993
987
980
980
977
972
969
967
964
964
964
965
962
960
960
963
965
962
964
960
960
962
963
964
964
962
963
964
966
968
966
967
964
967
969
969
969
968
968
972
974
976
973
972
971
973
975
977
978
977
975
977
978
975
974
972
967
967
966
969
971
985
1009
1035
1066
1091
1109
1119
1131
1152
1175
1197
1216
1230
1247
1260
1266
1264
1262
1258
1247
1231
1207
1178
1153
1130
1107
1086
1058
1022
985
954
930
906
889
877
867
860
858
860
861
862
862
863
863
870
881
888
894
895
898
904
911
912
917
923
923
929
932
936
936
935
934
935
935
935
933
929
927
930
929
930
927
924
925
927
927
928
926
923
922
923
926
924
923
920
921
922
924
925
927
926
926
927
930
927
928
929
929
929
932
933
933
932
933
937
941
944
947
944
947
952
955
959
960
961
963
968
972
975
975
978
981
984
989
992
995
995
995
1002
1005
1009
1012
1012
1011
1016
1019
1018
1020
1017
1015
1019
1020
1021
1019
1019
1017
1018
1019
1020
1018
1015
1014
1016
1017
1019
1015
1013
1010
1010
1014
1014
1013
1007
1007
1011
1011
1011
1010
1011
1011
1011
1014
1017
1014
1012
1009
1014
1016
1017
1019
1019
1017
1025
1025
1025
1025
1023
1023
1024
1026
1023
1021
1020
1018
1022
1023
1026
1026
1024
1021
1020
1018
1012
1003
996
992
988
984
981
978
973
969
970
971
972
970
969
967
970
973
975
973
970
970
974
976
976
975
972
972
974
978
978
980
978
976
980
982
982
980
980
977
982
982
981
980
978
977
980
982
982
981
981
979
982
985
986
982
978
973
969
968
971
978
991
1019
1048
1079
1099
1112
1127
1151
1182
1213
1241
1266
1283
1294
1303
1305
1299
1290
1271
1241
1208
1183
1159
1136
1110
1077
1042
1006
975
946
918
892
879
868
864
859
857
859
862
865
863
867
873
884
892
899
904
905
907
911
918
924
925
926
926
927
930
932
933
931
930
927
930
930
928
925
925
923
925
926
926
923
922
922
922
925
923
922
919
919
921
921
924
919
917
916
916
919
918
918
917
916
919
923
925
925
926
927
931
934
937
939
939
940
946
950
954
956
958
959
964
968
972
972
974
976
977
985
987
989
992
992
995
999
1002
1002
1005
1003
1006
1009
1011
1014
1014
1015
1016
1018
1019
1018
1017
1015
1014
1017
1019
1016
1016
1014
1015
1016
1015
1014
1008
1009
1010
1010
1009
1005
1004
1000
1000
1000
1000
1000
998
998
1002
1005
1004
1003
1004
1003
1005
1006
1009
1008
1010
1010
1013
1018
1016
1017
1017
1016
1017
1019
1016
1013
1013
1012
1013
1016
1017
1017
1015
1013
1011
1012
1006
1001
994
987
984
980
976
971
968
963
966
968
969
965
964
960
963
967
967
965
966
965
968
969
970
971
968
967
969
973
972
970
967
967
967
971
971
968
970
967
969
971
973
972
971
972
973
975
975
974
973
973
976
979
978
979
976
978
979
977
975
970
967
962
965
970
982
1002
1024
1047
1075
1099
1113
1130
1153
1176
1206
1238
1263
1288
1304
1313
1316
1318
1314
1306
1289
1258
1223
1194
1169
1144
1116
1087
1050
1010
974
942
914
889
870
859
853
847
845
843
846
847
847
849
852
858
869
877
884
887
889
890
897
904
909
911
916
916
921
922
925
924
921
920
922
924
925
923
920
916
920
922
922
920
915
913
913
913
914
910
909
906
908
912
911
907
906
905
907
908
910
908
906
905
908
910
910
913
913
911
915
916
922
922
924
924
928
932
934
937
937
938
941
947
951
949
951
955
958
962
966
969
968
970
975
981
982
984
987
988
991
997
999
1001
1001
1002
1006
1010
1013
1013
1014
1014
1016
1018
1017
1018
1016
1013
1017
1018
1017
1015
1013
1010
1010
1010
1011
1008
1003
1002
1004
1004
1003
1002
998
996
997
997
999
999
997
997
999
1001
1003
1002
1003
1003
1002
1004
1006
1007
1009
1009
1013
1015
1016
1013
1011
1012
1013
1013
1012
1010
1008
1007
1010
1011
1012
1010
1012
1010
1013
1012
1012
1009
1005
997
993
988
983
979
974
968
967
967
963
965
962
963
962
962
965
965
963
962
962
963
964
963
961
961
960
964
964
962
962
963
966
967
969
967
966
968
968
969
971
970
969
967
973
975
974
974
972
974
975
976
978
977
975
976
977
976
976
972
967
960
956
959
969
984
1007
1034
1065
1095
1114
1130
1151
1182
1217
1250
1282
1303
1320
1325
1328
1327
1320
1302
1271
1230
1197
1167
1140
1112
1077
1035
990
956
927
899
874
854
844
840
839
839
839
841
842
846
857
866
873
879
883
889
898
900
907
909
914
918
922
923
920
919
921
920
920
918
915
911
912
913
914
911
910
907
908
907
907
906
903
901
903
902
902
902
903
903
903
905
906
905
904
904
906
909
910
909
909
910
911
914
915
914
918
919
923
928
932
935
935
938
943
946
952
954
956
958
961
968
972
974
976
981
986
