975
941
915
893
874
858
849
845
845
849
852
850
849
852
859
869
874
881
883
888
893
897
904
907
910
913
917
920
919
920
920
919
922
921
922
919
918
916
916
919
917
916
912
911
912
914
912
912
910
908
909
910
908
907
906
905
907
911
910
906
908
910
914
917
917
920
917
918
920
923
925
927
928
930
932
937
943
945
946
947
951
952
957
960
962
964
967
972
975
978
979
979
985
991
990
994
993
994
999
1002
1004
1003
1003
1002
1004
1008
1009
1007
1007
1009
1010
1011
1009
1008
1003
1003
1005
1007
1005
1002
999
997
999
1001
1000
996
993
992
996
1000
999
1000
1000
1001
1003
1002
1003
1004
1003
999
1000
1001
1002
1002
1003
1005
1009
1012
1012
1010
1010
1010
1012
1008
1009
1007
1008
1006
1009
1010
1010
1008
1008
1008
1006
1005
1000
993
987
982
979
975
973
967
964
962
965
966
966
962
960
958
960
963
963
961
962
960
962
965
965
964
964
960
963
967
966
966
965
964
966
968
970
967
968
966
966
969
971
970
970
968
969
972
971
972
970
973
974
976
977
973
973
967
969
966
962
962
963
972
994
1023
1045
1065
1080
1091
1106
1130
1155
1178
1200
1221
1242
1255
1260
1260
1256
1249
1241
1219
1192
1166
1144
1124
1106
1082
1053
1020
985
954
930
910
892
878
865
859
857
856
859
860
858
857
864
872
882
889
889
892
897
907
908
913
914
918
921
924
926
925
926
925
926
927
926
925
921
918
922
922
923
919
915
913
914
918
917
914
913
910
913
914
914
914
912
910
910
915
917
915
914
915
917
920
924
924
922
925
927
931
934
935
936
938
943
947
948
953
953
956
961
964
968
970
973
973
978
983
985
988
991
988
995
1000
1000
1004
1000
1000
1006
1007
1009
1011
1008
1009
1013
1016
1014
1013
1008
1009
1011
1013
1011
1007
1006
1005
1004
1005
1004
1004
1001
999
999
1003
1002
1005
1004
1004
1007
1008
1007
1005
1004
1003
1004
1006
1008
1009
1008
1009
1011
1012
1012
1009
1009
1006
1004
1006
1007
1007
1005
1001
1007
1008
1011
1005
1003
997
994
987
984
978
970
969
966
964
962
961
960
958
961
963
962
960
960
958
960
962
962
961
960
957
961
963
964
962
960
959
963
965
964
964
962
963
963
964
966
967
963
962
967
969
969
970
969
966
971
971
972
974
971
971
971
970
969
963
956
954
956
960
971
989
1008
1031
1052
1070
1086
1097
1116
1143
1171
1200
1223
1243
1257
1266
1273
1275
1270
1262
1247
1221
1190
1168
1145
1124
1099
1068
1041
1010
975
942
914
886
873
865
856
850
847
846
850
854
856
853
856
865
874
884
888
891
892
894
901
905
912
913
914
916
915
920
923
921
917
916
916
918
917
915
914
912
913
915
913
912
911
907
909
910
908
906
905
903
904
907
907
904
904
903
904
907
907
906
906
908
910
913
914
916
918
919
922
925
928
931
931
935
940
943
947
949
949
952
955
961
964
965
969
973
975
980
983
987
986
985
993
996
999
998
1001
998
1003
1005
1004
1007
1004
1005
1006
1007
1007
1008
1004
1004
1003
1005
1003
1003
1000
998
997
1000
1000
997
994
991
995
996
998
999
997
998
1000
1001
999
997
996
997
998
999
1002
1003
1005
1005
1008
1011
1008
1007
1006
1004
1004
1005
1003
1002
1003
1002
1004
1005
1006
1005
1000
996
992
989
984
981
975
968
968
967
965
961
960
959
960
960
961
960
958
958
961
964
963
961
960
960
961
963
962
963
961
961
963
964
965
965
963
962
962
965
966
964
963
962
965
968
968
968
963
965
969
971
972
971
967
968
969
967
965
960
956
955
961
974
998
1024
1050
1071
1091
1103
1123
1147
1171
1203
1229
1255
1275
1288
1290
1289
1286
1280
1259
1228
1193
1163
1139
1117
1090
1054
1015
975
944
919
894
871
856
846
843
843
845
845
849
847
851
858
866
873
880
883
887
891
894
897
902
902
907
912
916
917
917
917
916
918
917
916
912
913
913
915
914
913
910
909
909
910
910
908
907
906
906
907
908
907
904
904
904
905
906
905
904
902
904
907
908
909
910
909
911
916
918
919
921
920
926
930
933
936
938
938
943
950
955
955
954
958
964
967
970
972
974
977
980
985
987
988
991
992
994
998
1000
1001
1002
1001
1007
1008
1007
1008
1007
1005
1007
1007
1009
1008
1003
1003
1003
1004
1003
1001
1000
995
996
998
999
997
997
994
999
1003
1002
999
1001
997
999
999
997
996
996
998
1003
1006
1007
1006
1004
1003
1001
1002
1001
1001
1001
999
1002
1005
1006
1004
1001
997
992
987
981
977
974
966
966
963
961
960
960
957
955
956
960
957
957
956
958
959
959
959
956
954
957
960
962
961
960
959
963
963
966
964
964
960
963
967
967
967
965
962
963
965
969
967
968
966
969
970
968
965
959
956
958
969
983
1008
1035
1065
1091
1114
1128
1146
1169
1197
1224
1250
1272
1290
1297
1300
1297
1293
1281
1256
1221
1182
1154
1130
1103
1072
1032
987
952
924
899
873
855
843
838
837
839
839
840
840
845
852
859
865
871
873
880
885
890
894
896
898
905
910
914
913
914
913
913
916
916
913
910
907
910
911
911
907
905
903
905
907
905
904
900
901
902
901
904
900
900
898
898
901
901
902
899
897
901
902
905
905
906
906
908
913
914
913
916
916
922
924
926
930
928
930
935
941
945
946
950
947
952
958
963
965
968
970
973
977
979
980
982
983
985
991
993
993
994
994
997
999
999
1000
1000
996
1000
1001
1000
1000
997
992
992
993
993
990
989
986
988
988
988
986
985
982
985
990
990
989
988
986
988
991
988
985
983
984
987
993
996
997
997
994
998
998
999
998
993
989
992
994
995
996
994
996
995
995
991
984
975
972
967
967
962
960
955
952
954
956
955
951
950
952
952
956
956
954
953
950
951
952
953
952
951
953
953
954
955
955
954
951
954
956
957
959
956
955
957
957
958
958
958
955
959
963
963
962
958
957
957
956
956
957
956
960
975
1001
1031
1055
1077
1097
1112
1128
1153
1179
1203
1225
1245
1256
1257
1255
1246
1233
1214
1185
1153
1127
1102
1080
1058
1026
991
952
920
892
871
855
844
839
835
835
840
841
845
844
850
857
865
874
879
879
883
884
892
899
904
905
904
906
909
914
913
911
909
908
907
911
910
907
906
905
906
907
908
905
903
900
901
903
901
903
900
897
900
903
904
903
902
899
900
904
904
906
902
904
910
911
915
916
915
917
921
926
929
928
930
932
935
939
943
943
944
946
950
958
961
964
967
966
971
975
978
979
979
981
985
991
991
992
993
993
995
998
996
996
996
995
996
998
998
998
996
992
995
996
993
993
990
990
990
991
989
987
986
985
987
990
990
992
989
989
990
993
992
992
991
985
988
989
991
993
992
994
996
1001
1002
1001
998
997
998
999
999
996
995
995
995
995
998
1000
998
998
993
993
987
981
974
969
969
966
963
962
956
955
954
957
956
955
952
954
956
958
956
955
952
954
953
956
957
956
955
954
954
956
957
958
956
956
956
959
960
959
957
957
958
960
960
960
959
959
961
963
963
963
963
965
962
962
966
963
959
954
952
953
957
963
978
1001
1026
1051
1068
1082
1089
1107
1129
1157
1182
1201
1220
1230
1242
1246
1247
1244
1237
1225
1202
1175
1151
1133
1113
1090
1068
1039
1004
970
943
914
893
878
868
858
852
848
850
854
854
853
853
853
862
870
877
881
884
889
891
898
904
906
908
910
914
918
921
918
918
916
920
918
920
917
916
914
916
916
916
914
912
909
910
913
914
910
908
906
906
907
909
907
905
904
904
908
906
905
905
904
905
907
911
909
909
909
913
917
920
920
918
918
923
926
929
932
933
935
938
942
942
945
946
949
952
959
961
962
963
963
968
973
976
975
978
977
983
987
991
993
990
990
994
1000
999
1000
1001
1001
1000
1005
1004
1004
1001
1001
1000
1003
1003
1003
998
998
999
997
1000
997
996
995
994
997
995
993
992
992
996
1001
1001
1000
998
997
997
999
999
996
996
995
998
1001
1001
1002
1003
1005
1007
1008
1006
1005
1001
998
998
1000
1001
1000
999
1000
1002
1004
1004
1003
996
995
992
990
985
978
975
970
968
964
963
958
955
953
954
954
956
953
950
952
953
953
955
955
953
952
954
957
957
956
957
955
958
960
959
956
959
958
959
959
959
958
959
957
958
962
963
962
962
961
961
965
962
963
960
959
961
966
969
966
963
963
964
962
960
957
950
950
954
966
982
1009
1031
1053
1072
1088
1101
1122
1148
1173
1200
1222
1240
1255
1265
1269
1273
1268
1261
1245
1216
1185
1161
1144
1122
1096
1064
1028
997
966
938
912
891
873
862
857
851
847
848
847
851
851
853
858
865
873
880
886
889
893
895
900
906
912
916
917
916
915
918
919
922
919
917
915
916
916
919
917
914
913
912
913
914
913
910
907
909
908
910
910
907
907
909
907
909
908
906
906
909
908
911
910
911
910
913
913
914
919
921
922
925
927
932
933
933
934
938
943
945
949
950
951
956
960
966
964
967
971
974
979
981
983
984
986
990
994
999
997
998
999
1003
1005
1005
1004
1004
1002
1005
1008
1005
1005
1003
1002
1004
1004
1002
1001
1000
995
996
999
996
994
991
991
991
993
993
991
991
991
995
997
997
996
993
992
995
996
996
994
992
995
999
1002
1005
1005
1002
1002
1000
1002
1004
998
996
995
997
999
1000
999
997
999
999
1001
998
993
987
981
977
971
972
968
960
954
957
956
956
956
956
953
952
954
956
954
954
953
955
956
956
957
956
954
955
957
957
957
956
954
955
959
957
958
957
956
956
959
961
958
959
957
959
960
962
961
961
960
961
963
963
962
962
963
964
964
963
961
957
951
950
955
959
973
993
1017
1043
1065
1080
1093
1101
1124
1150
1178
1200
1226
1246
1263
1277
1283
1283
1282
1274
1256
1232
1203
1173
1148
1125
1099
1074
1043
1008
969
938
910
890
870
858
847
841
838
839
841
844
844
845
847
856
867
874
876
879
878
882
891
898
901
902
902
908
911
914
913
912
909
911
911
911
910
907
906
905
908
907
906
904
901
903
903
904
905
901
898
898
901
900
900
899
896
897
898
899
898
900
899
898
901
904
906
904
907
909
913
914
914
916
917
921
925
929
930
931
933
939
942
946
949
952
951
957
960
965
968
970
971
974
978
980
984
982
983
987
991
995
994
996
995
995
999
1002
1001
1001
997
999
997
1000
998
997
995
994
996
996
993
990
986
990
991
992
989
985
987
986
988
994
993
992
988
990
992
991
990
988
986
987
988
994
993
994
993
995
997
996
997
995
993
991
995
997
995
992
993
996
999
999
993
987
980
977
974
971
965
960
954
955
954
953
954
952
948
949
951
951
952
950
950
952
955
955
955
953
953
953
955
955
956
953
951
952
956
957
954
953
954
955
957
959
958
957
956
956
960
960
960
960
958
960
962
961
959
960
956
956
955
953
951
953
960
982
1009
1037
1062
1082
1100
1116
1139
1163
1189
1216
1240
1263
1283
1297
1302
1300
1295
1285
1270
1239
1200
1165
1139
1113
1084
1054
1018
978
940
913
890
870
852
839
832
829
832
831
836
834
832
836
840
848
855
860
866
870
877
881
885
887
889
895
899
903
904
905
906
905
907
907
903
904
902
904
902
905
904
902
896
898
898
898
897
896
893
895
895
896
892
892
889
892
893
894
893
891
891
892
893
894
894
895
895
897
898
902
901
902
903
907
910
912
915
915
918
922
926
929
930
935
935
938
942
946
951
953
953
955
963
965
967
969
971
974
980
983
983
984
983
987
989
993
991
988
989
993
996
996
995
990
990
989
990
991
989
987
985
986
985
985
984
981
981
980
983
985
983
985
981
984
985
986
985
983
979
978
981
980
984
983
985
990
992
993
991
989
988
987
988
990
988
988
987
988
986
992
992
991
988
986
981
976
970
965
960
956
956
953
948
948
947
947
949
948
947
945
944
946
948
948
951
950
946
949
950
949
952
952
950
949
951
951
950
950
948
951
952
952
952
953
951
952
955
957
955
955
954
956
958
960
957
956
958
960
961
960
957
954
951
953
959
973
993
1018
1041
1071
1095
1112
1121
1136
1157
1184
1211
1234
1253
1265
1267
1265
1264
1256
1240
1214
1178
1147
1124
1103
1078
1053
1022
987
955
929
902
880
859
848
843
838
839
835
838
839
842
845
847
853
860
864
875
883
884
884
887
893
898
904
907
906
908
911
910
914
913
910
909
911
912
911
911
910
908
907
908
908
910
907
904
905
904
904
904
902
902
902
903
903
903
901
898
900
901
904
902
902
901
905
907
911
910
910
910
914
915
920
922
923
926
928
929
934
938
939
940
944
951
955
955
958
962
965
967
972
977
977
976
980
986
988
987
991
986
993
998
997
997
997
995
997
998
999
997
1000
997
995
997
997
996
994
990
990
993
993
990
989
986
989
992
995
994
994
992
991
992
996
992
989
985
984
991
995
996
998
998
999
999
1002
1000
1000
995
995
998
999
997
997
997
999
1000
999
993
985
978
975
970
970
963
961
956
955
959
960
958
953
952
954
955
959
959
956
955
957
958
959
959
958
958
959
960
963
962
961
959
963
962
966
962
963
962
964
964
967
966
966
966
965
967
968
968
969
965
965
964
961
958
954
952
963
979
1005
1031
1053
1071
1085
1099
1122
1146
1174
1198
1222
1241
1252
1256
1254
1248
1238
1216
1184
1156
1134
1113
1093
1069
1036
1002
968
937
915
895
883
873
863
857
859
860
861
861
857
859
868
880
887
893
890
891
898
906
914
914
916
916
920
922
925
927
926
922
922
924
926
926
919
920
918
919
922
919
919
912
913
915
917
915
912
910
913
912
913
915
911
910
911
912
916
911
915
911
915
917
919
920
920
919
921
924
928
929
933
933
935
941
943
944
946
947
950
953
960
960
960
961
966
970
974
976
977
974
982
987
989
991
993
994
995
997
1002
1001
1001
1002
1005
1006
1009
1008
1007
1007
1007
1008
1010
1010
1008
1005
1004
1005
1007
1005
1004
999
999
997
1001
1001
1001
1000
1003
1006
1006
1006
1004
1003
1002
1002
1003
1003
1003
1003
1004
1010
1009
1009
1007
1007
1007
1008
1007
1005
1003
1001
1003
1005
1008
1006
1006
1003
1002
1001
994
989
981
975
973
970
970
964
960
962
961
961
962
962
957
959
958
962
964
965
961
962
961
965
965
965
964
962
964
966
969
969
964
964
966
967
969
969
968
965
966
967
972
972
972
970
970
972
974
973
973
970
969
967
961
960
961
961
975
996
1023
1046
1062
1073
1089
1106
1135
1163
1188
1209
1230
1246
1256
1260
1258
1251
1240
1219
1193
1165
1143
1121
1097
1072
1041
1007
972
942
916
898
884
872
865
856
855
860
861
861
859
860
864
877
886
889
892
894
899
905
909
914
915
916
921
924
926
926
926
922
923
924
924
924
923
919
919
919
920
921
919
916
915
917
919
917
914
913
914
914
917
915
914
910
912
913
914
914
913
913
913
916
916
917
919
920
922
925
927
930
930
929
929
934
940
945
943
943
950
955
957
959
960
960
967
972
973
975
977
977
981
984
989
994
993
994
998
1000
1003
1006
1005
1005
1008
1008
1011
1011
1009
1007
1006
1008
1009
1009
1007
1002
1006
1008
1007
1007
1004
1001
1001
1002
1003
1001
998
995
999
1001
1003
1005
1005
1001
1002
1005
1006
1006
1003
998
999
1000
1002
1005
1003
1004
1006
1010
1009
1009
1007
1005
1006
1008
1008
1006
1006
1004
1005
1010
1015
1014
1010
1005
1003
999
996
992
985
981
977
976
974
969
968
966
970
969
971
967
965
966
965
968
968
970
968
968
968
971
971
970
969
965
968
970
969
969
969
968
970
969
972
972
971
968
971
974
975
975
974
973
973
974
977
977
974
973
972
966
966
965
967
981
1006
1035
1063
1080
1092
1106
1134
1166
1197
1223
1244
1259
1271
1276
1273
1268
1255
1230
1197
1170
1151
1127
1102
1069
1032
998
969
937
908
886
870
867
863
863
862
862
864
866
874
881
888
892
897
901
906
909
912
915
922
926
931
931
931
929
929
931
930
930
928
925
925
925
926
924
922
919
920
923
919
921
920
917
914
918
920
917
916
914
912
917
918
919
916
917
917
923
922
923
922
923
926
931
933
934
937
937
942
944
950
954
957
955
959
964
970
972
973
973
978
982
985
986
990
991
992
998
1001
1003
1002
1004
1006
1009
1009
1010
1011
1010
1012
1014
1017
1018
1016
1013
1013
1014
1015
1015
1011
1010
1011
1011
1013
1009
1008
1004
1003
1005
1007
1009
1006
1005
1008
1010
1011
1010
1009
1007
1006
1002
1005
1001
1000
999
1001
1005
1005
1008
1006
1008
1008
1009
1011
1011
1009
1007
1007
1009
1011
1008
1010
1008
1009
1014
1014
1012
1006
996
994
991
986
983
978
972
970
970
972
970
968
964
963
964
968
966
965
965
968
969
970
967
966
965
966
967
969
968
967
964
967
966
967
969
966
966
966
969
969
971
970
968
970
973
973
974
972
972
973
974
976
974
970
964
959
960
960
964
973
991
1021
1047
1073
1091
1106
1122
1149
1181
1207
1236
1258
1276
1291
1299
1300
1297
1287
1268
1239
1210
1182
1153
1121
1089
1052
1014
978
945
915
889
871
861
852
849
845
847
850
850
855
857
861
873
877
888
891
895
901
904
908
916
920
922
921
920
921
924
927
925
922
919
920
921
922
921
919
917
917
916
916
916
914
913
914
915
915
915
913
910
912
910
912
913
912
908
910
911
914
913
914
914
918
921
924
926
925
926
931
934
939
940
941
942
947
950
951
954
957
957
963
966
971
975
