981
983
984
987
990
995
997
995
1002
999
1004
1006
1006
1008
1009
1008
1007
1010
1011
1012
1011
1009
1010
1011
1012
1011
1008
1008
1007
1008
1011
1009
1007
1002
1001
1001
1003
1002
995
996
995
997
1000
996
994
993
994
996
999
1000
1000
998
999
1000
1001
998
996
998
1000
1005
1006
1006
1006
1003
1006
1007
1010
1012
1007
1002
1002
1004
1004
1007
1007
1004
1007
1010
1010
1010
1007
1002
1000
997
992
988
981
973
969
967
966
963
961
959
959
959
962
962
957
955
957
959
961
962
961
959
960
961
961
963
962
960
960
965
966
965
964
962
962
965
969
965
964
963
964
965
970
970
968
966
970
967
969
970
970
966
966
967
964
963
958
955
958
966
981
1005
1032
1056
1083
1104
1121
1142
1169
1200
1226
1258
1283
1301
1310
1308
1310
1304
1292
1269
1231
1195
1167
1146
1121
1091
1056
1015
975
940
913
888
869
853
846
840
841
840
840
839
841
846
851
859
865
869
876
883
890
892
894
898
900
908
914
916
915
913
917
917
919
918
915
912
910
913
912
910
908
907
908
908
910
909
905
903
905
905
906
904
902
900
900
902
903
904
902
899
898
902
905
904
904
904
907
908
910
910
911
910
911
915
919
917
922
922
924
928
932
935
935
937
941
946
950
953
956
955
959
964
969
973
976
978
979
983
985
986
990
989
994
996
1001
1003
1002
1003
1004
1009
1011
1012
1010
1010
1010
1013
1014
1013
1011
1009
1010
1011
1012
1013
1009
1004
1002
1007
1006
1004
1002
1000
1000
1002
1002
1002
998
994
995
998
998
1000
998
996
999
1002
1003
1004
1002
998
999
1002
1005
1009
1007
1006
1004
1005
1009
1010
1010
1007
1009
1010
1009
1006
1006
1002
1005
1007
1011
1010
1008
1008
1006
1006
1005
998
991
983
981
979
976
974
967
963
961
962
963
963
962
957
958
960
962
964
962
957
959
959
962
961
962
956
960
962
964
960
961
960
960
961
966
966
964
963
964
966
968
968
967
965
966
968
972
971
971
970
970
973
977
974
974
971
970
969
966
962
959
956
963
980
1002
1028
1056
1076
1099
1117
1139
1164
1192
1216
1243
1269
1294
1310
1317
1318
1315
1311
1304
1281
1248
1210
1177
1154
1130
1100
1066
1023
982
947
919
893
869
853
843
840
837
837
836
840
840
846
853
862
869
872
879
885
889
894
896
900
907
912
917
918
919
917
917
919
918
915
914
913
912
913
915
913
908
904
907
906
907
906
905
901
900
899
902
902
899
899
899
900
903
902
903
898
902
903
904
907
905
904
908
912
913
916
919
918
920
925
932
933
934
935
937
943
946
949
951
950
956
962
964
969
971
972
976
979
985
986
987
988
989
995
998
1000
1000
1000
1001
1006
1006
1010
1008
1006
1006
1007
1008
1007
1005
1005
1002
1005
1005
1003
1000
995
994
995
997
994
992
989
990
989
989
989
987
985
985
987
990
991
990
990
990
993
993
992
990
991
992
996
1000
1000
1000
1000
1001
1001
1004
1003
1004
1001
996
998
998
1000
999
996
996
1000
1002
1001
999
995
993
988
984
978
975
968
965
963
962
959
954
952
952
952
954
955
954
949
951
954
956
956
952
953
953
954
954
956
955
950
951
955
953
955
953
951
954
954
958
958
956
955
958
958
961
963
961
960
961
961
965
965
965
964
966
965
966
966
963
959
958
960
965
975
994
1021
1049
1078
1103
1119
1127
1144
1170
1196
1223
1246
1268
1286
1296
1303
1303
1294
1284
1261
1233
1197
1164
1135
1105
1077
1043
1009
969
937
908
881
861
847
840
837
832
829
832
834
838
839
840
846
852
864
871
876
877
880
884
891
898
903
905
905
906
908
911
909
909
907
907
907
907
906
906
904
902
902
903
903
900
898
895
901
902
897
897
894
896
896
898
897
893
895
893
897
897
898
899
898
900
903
906
909
909
907
914
916
921
922
923
927
928
934
938
943
943
944
947
953
957
959
959
960
966
970
974
977
977
981
983
987
990
989
994
990
996
998
1002
1003
1002
1000
999
1001
1003
1004
1002
999
1000
999
1001
1000
998
996
995
996
996
994
989
989
986
989
990
986
986
984
979
984
988
990
987
987
990
993
991
994
992
990
992
996
1000
1000
1002
1001
1001
1004
1006
1005
1002
1000
998
999
1001
1001
1001
998
998
1000
1003
999
995
988
981
977
975
972
967
960
958
956
956
955
954
949
948
951
954
954
954
952
954
956
957
955
954
954
957
955
957
957
958
957
957
958
959
958
958
955
958
961
962
963
960
958
959
959
964
964
964
964
965
964
966
967
965
963
960
958
961
961
964
979
1000
1030
1060
1087
1102
1114
1130
1158
1186
1212
1232
1249
1265
1276
1278
1275
1268
1258
1238
1211
1180
1154
1132
1110
1085
1057
1026
988
953
927
902
881
870
857
849
843
842
847
850
850
848
851
857
867
873
879
882
885
887
893
897
902
907
909
912
915
917
919
920
917
917
918
918
917
915
911
914
915
915
915
912
910
909
914
915
912
913
910
910
910
908
911
908
905
906
908
909
909
906
907
908
911
910
911
911
911
913
915
921
922
922
925
928
931
938
937
939
939
943
949
954
958
959
959
962
967
974
975
975
978
981
983
989
992
991
991
993
998
1000
1003
1000
998
1003
1008
1008
1009
1009
1007
1005
1010
1011
1009
1007
1004
1006
1007
1005
1005
1004
1004
1003
1002
1003
1003
998
994
993
995
996
995
992
991
992
992
996
998
997
999
995
999
1002
1001
1000
999
1003
1005
1009
1008
1008
1006
1006
1008
1009
1007
1005
1002
1001
1004
1005
1008
1007
1006
1008
1009
1009
1007
1002
996
991
987
986
978
974
966
964
962
961
961
960
956
957
959
960
962
961
959
961
962
963
962
962
960
960
963
964
965
964
963
963
966
969
967
966
965
964
969
970
969
968
966
965
965
969
972
971
967
968
970
973
973
971
968
969
970
966
962
958
958
961
974
996
1022
1044
1066
1086
1101
1116
1135
1163
1187
1215
1240
1263
1281
1290
1294
1291
1288
1281
1261
1230
1194
1163
1143
1123
1098
1067
1029
992
959
933
906
884
866
856
851
847
850
848
847
850
851
856
862
871
875
883
888
893
897
898
902
907
910
916
920
921
918
920
921
925
923
919
917
919
918
919
919
916
915
913
915
915
915
909
907
909
907
908
907
906
906
906
908
910
911
910
905
907
910
911
911
910
908
912
912
916
919
919
918
920
924
930
934
933
933
936
943
947
953
953
955
959
963
967
970
971
975
979
985
989
991
992
993
997
1001
1003
1005
1008
1006
1009
1014
1014
1014
1013
1012
1012
1014
1016
1014
1013
1011
1009
1011
1013
1011
1008
1006
1005
1005
1008
1008
1004
1002
1000
1003
1003
1002
998
997
998
996
999
1000
1000
998
1001
1004
1006
1003
1004
1002
1006
1007
1012
1011
1010
1011
1010
1011
1015
1015
1009
1004
1004
1006
1011
1013
1011
1010
1010
1011
1011
1007
999
989
988
985
982
979
973
967
965
965
965
963
961
959
961
963
965
963
962
960
960
965
967
965
965
963
963
964
967
967
966
967
966
969
970
969
968
968
967
970
973
974
969
969
970
971
975
975
973
971
971
971
973
968
962
959
961
975
995
1022
1052
1078
1100
1117
1138
1167
1196
1226
1255
1275
1296
1302
1306
1301
1295
1284
1260
1226
1189
1161
1135
1110
1083
1044
998
958
928
901
881
868
855
846
843
846
850
851
850
854
860
871
882
886
889
891
895
901
907
911
914
915
919
922
924
925
923
919
918
920
922
919
916
912
909
913
915
913
909
910
908
910
910
909
905
903
902
905
903
903
903
904
903
907
910
908
908
906
909
910
915
916
914
915
919
921
926
929
929
929
933
934
942
947
946
948
948
955
961
965
967
969
972
976
981
984
987
989
992
996
1000
1002
1003
1002
1005
1005
1011
1013
1012
1011
1008
1012
1014
1011
1010
1010
1008
1008
1011
1008
1007
1004
1005
1005
1005
1003
1001
1000
997
997
997
997
995
991
990
995
997
996
995
997
999
1001
1005
1001
1001
998
999
1002
1004
1008
1008
1003
1006
1007
1011
1008
1005
1000
1000
1003
1006
1007
1005
1006
1005
1006
1006
1001
994
987
981
981
979
972
967
962
962
963
965
962
961
958
957
956
961
962
958
958
959
961
961
962
960
958
958
963
963
964
962
961
961
966
967
967
964
964
964
967
969
970
967
965
965
969
972
970
967
966
962
962
959
959
957
959
971
998
1026
1053
1078
1098
1114
1138
1169
1202
1229
1253
1278
1296
1306
1308
1300
1285
1262
1228
1193
1161
1130
1101
1065
1027
984
945
911
882
860
848
843
838
836
837
837
842
846
851
859
868
874
881
888
890
895
899
906
912
916
917
914
918
916
917
917
918
914
913
910
911
912
910
908
906
904
904
907
905
903
897
898
899
901
900
896
896
898
899
902
900
900
899
901
903
906
908
908
908
911
916
921
921
921
921
925
928
933
936
939
939
943
948
954
957
960
960
963
969
975
979
979
982
982
987
990
995
995
997
997
1003
1006
1006
1002
1005
1003
1008
1012
1010
1008
1003
1004
1004
1005
1003
1001
999
999
999
999
998
996
993
994
993
994
992
989
987
987
989
993
994
991
994
991
995
997
995
995
991
992
997
1000
998
999
998
1000
1001
1005
1004
1004
1000
999
998
1000
998
997
997
997
1001
1003
1001
998
994
989
984
980
973
970
964
958
956
956
956
952
953
951
955
955
955
955
952
953
954
957
955
953
952
951
954
956
956
952
951
953
955
957
957
955
954
957
959
960
961
960
957
958
961
965
966
964
965
964
968
968
968
960
956
951
950
953
957
973
994
1024
1053
1081
1100
1114
1135
1164
1198
1230
1258
1281
1298
1306
1306
1303
1291
1268
1229
1191
1155
1131
1102
1069
1027
983
947
915
886
862
845
836
832
834
833
833
834
834
841
847
855
863
868
874
879
886
888
893
897
901
906
910
911
914
911
912
914
915
913
913
910
908
907
909
908
905
906
902
902
906
903
897
897
896
898
899
899
897
894
895
898
902
901
899
896
897
901
903
902
904
902
902
906
910
914
916
915
918
923
928
930
931
931
935
939
945
945
949
948
953
960
964
965
968
967
970
977
981
984
985
986
991
992
996
997
998
998
997
1001
1003
1002
1000
1002
1002
1004
1006
1005
1000
1001
1001
1001
1000
999
997
995
995
996
993
992
991
987
986
988
988
986
984
981
982
985
987
988
988
988
988
989
990
988
990
987
991
995
996
997
997
998
999
1001
1004
1003
1001
999
995
997
998
1000
996
995
996
999
1000
999
996
991
987
982
980
974
967
961
957
957
954
952
950
949
948
949
951
952
952
948
950
951
955
953
951
951
950
952
953
952
953
948
948
950
952
953
952
952
950
953
955
956
956
955
955
958
960
962
961
957
958
961
964
964
964
960
958
957
956
953
951
958
971
998
1029
1056
1087
1108
1125
1149
1177
1208
1233
1261
1287
1308
1317
1317
1312
1299
1278
1243
1202
1165
1133
1102
1066
1024
981
938
904
875
855
843
835
830
829
829
832
832
837
839
844
855
864
871
878
881
882
886
892
896
905
906
908
908
907
909
911
909
907
906
903
908
909
907
904
900
900
902
902
899
900
899
897
896
897
894
892
891
891
891
893
893
892
888
891
892
896
893
894
893
895
899
904
906
906
908
909
915
920
922
922
926
929
932
939
942
945
947
949
955
958
959
963
964
965
970
974
977
978
981
982
986
990
992
991
992
991
996
998
1000
1000
999
999
999
1002
1003
1000
995
995
996
997
995
995
989
989
992
995
991
989
985
983
981
985
983
981
977
979
980
981
982
983
980
982
986
988
986
983
982
982
985
984
985
986
988
988
992
996
995
996
994
993
995
995
995
992
990
991
992
996
994
994
993
992
992
992
987
980
972
968
968
964
958
955
952
948
949
951
950
946
945
943
946
948
947
945
946
947
949
952
950
950
948
949
952
952
951
951
949
950
951
954
954
950
949
948
952
954
953
952
952
950
953
957
955
953
954
951
957
960
960
960
959
958
961
961
959
957
951
950
953
958
971
990
1013
1043
1072
1094
1108
1122
1139
1167
1197
1223
1245
1263
1278
1283
1283
1283
1275
1263
1237
1199
1166
1142
1116
1091
1062
1029
994
961
931
902
879
860
850
845
838
835
834
835
840
842
843
842
850
857
863
871
879
880
880
885
892
898
900
903
904
905
908
909
910
908
908
905
906
910
909
908
908
904
906
908
903
902
902
899
902
900
900
896
897
896
898
898
898
896
892
894
894
898
897
895
897
896
899
900
899
905
903
904
907
911
914
915
917
919
924
928
930
934
934
935
942
948
949
952
953
954
959
968
968
969
972
975
980
986
984
986
988
987
992
996
996
998
998
998
1001
1005
1005
1004
1003
1004
1004
1004
1004
1003
1002
1001
1000
1004
998
998
998
994
996
997
997
994
990
991
991
994
993
988
986
987
987
988
989
990
989
990
993
996
994
994
992
991
992
998
996
998
998
998
1002
1005
1004
1002
1002
1002
999
1002
999
998
998
1000
1001
1003
1003
1003
1002
999
1002
1000
996
985
980
974
973
974
966
962
957
956
953
958
954
952
951
951
952
953
953
952
953
952
953
956
956
956
954
952
955
959
957
956
955
955
958
961
959
959
958
957
958
961
961
960
959
961
961
962
961
964
961
963
964
966
966
966
965
965
965
967
965
962
958
954
954
959
962
975
993
1019
1045
1070
1088
1102
1116
1136
1166
1193
1218
1241
1258
1276
1289
1293
1294
1292
1286
1274
1253
1222
1186
1158
1131
1105
1079
1047
1009
973
941
911
888
870
856
848
842
840
839
845
845
846
846
851
861
872
877
883
882
887
892
898
900
905
908
908
913
918
916
917
914
913
915
919
916
914
911
910
914
916
911
909
907
906
906
910
909
908
904
903
903
908
906
903
903
902
903
905
904
906
903
904
905
907
908
907
909
910
917
918
919
920
923
926
930
935
938
940
940
943
946
953
957
958
961
963
969
973
975
977
980
982
988
992
995
996
996
998
999
1006
1006
1004
1004
1006
1008
1010
1010
1008
1006
1005
1006
1011
1010
1008
1004
1004
1005
1005
1005
1002
1001
998
1000
1000
999
997
992
992
995
995
995
992
993
991
996
998
999
996
996
995
996
998
996
998
998
998
1002
1003
1005
1004
1005
1003
1006
1008
1003
999
998
998
1002
1004
1005
1002
1003
1001
1004
1003
999
994
985
980
979
976
973
967
960
954
956
958
956
956
954
953
956
958
957
956
952
953
955
957
959
957
956
956
959
960
960
958
958
958
962
964
964
962
960
962
962
964
965
963
964
963
965
967
967
965
965
966
967
967
969
967
965
961
962
961
956
954
955
959
974
998
1025
1049
1071
1090
1108
1129
1154
1182
1209
1235
1265
1288
1299
1304
1305
1299
1297
1286
1258
1220
1187
1157
1136
1115
1085
1050
1009
970
939
915
893
873
854
845
840
840
841
843
843
843
846
852
856
865
872
878
881
887
893
894
899
902
910
915
918
917
914
914
918
920
920
916
915
912
915
915
917
914
910
911
912
911
910
911
906
904
905
907
905
904
904
901
903
904
902
904
903
905
906
907
908
908
907
908
913
914
917
918
917
921
924
929
931
934
936
938
944
947
950
955
957
959
964
970
973
975
976
977
985
988
991
994
995
995
1002
1006
1006
1007
1007
1006
1007
1012
1012
1010
1009
1008
1010
1013
1009
1010
1008
1006
1008
1008
1009
1008
1002
1001
1002
1002
1001
1000
998
997
997
997
996
995
994
993
998
1001
1003
1002
999
996
999
1001
1002
1002
1002
1000
1004
1008
1010
1007
1005
1005
1009
1008
1006
1001
1003
1002
1003
1008
1006
1004
1005
1004
1005
1004
997
989
982
977
973
972
967
963
960
959
962
962
960
956
953
955
957
960
961
960
960
958
961
962
962
960
958
960
961
962
961
964
961
962
964
969
966
968
965
965
968
969
966
964
965
968
969
970
971
970
968
968
967
967
963
960
956
960
978
1003
1032
1065
1089
1106
1126
1155
1185
1214
1242
1269
1293
1309
1315
1312
1306
1294
1270
1234
1197
1165
1136
1108
1076
1037
993
955
924
897
876
861
850
844
842
840
844
849
849
846
851
861
872
880
887
888
892
895
902
911
913
918
916
915
919
921
922
919
917
914
915
917
915
912
910
909
910
909
908
907
904
903
905
904
904
904
902
900
902
903
904
902
900
901
904
906
905
904
906
903
906
913
913
915
917
918
924
924
929
929
930
932
939
943
945
947
951
954
959
964
969
969
973
977
978
984
987
987
991
991
996
1002
1004
1005
1004
1005
1010
1012
1015
1013
1011
1013
1015
1017
1012
1013
1010
1008
1011
1015
1011
1008
1004
1004
1004
1006
1004
1001
998
996
999
998
997
995
993
992
993
995
997
996
998
998
1000
1003
1001
1000
998
998
1001
1004
1004
1004
1002
1005
1005
1007
1008
1004
1003
1000
1001
1004
1004
1006
1002
1002
1006
1006
1007
1004
998
994
989
984
978
975
969
963
962
962
962
962
958
955
957
959
958
958
956
956
957
959
959
958
956
956
956
957
957
956
956
954
957
959
959
959
959
959
964
963
966
964
963
962
967
967
967
968
965
967
969
969
969
969
967
961
963
961
959
953
954
957
975
1003
1031
1054
1080
1096
1113
1134
1160
1189
1217
1247
1275
1297
1311
1317
1314
1309
1303
1287
1257
1218
1187
1156
1131
1105
1075
1039
993
954
927
901
877
855
842
836
835
835
836
837
835
837
844
855
861
867
871
877
881
887
893
896
899
904
906
910
912
912
912
912
915
913
914
910
908
909
909
911
911
906
904
902
903
902
902
901
899
896
898
898
898
895
894
894
896
897
898
897
895
895
897
900
900
903
899
902
905
907
910
910
912
915
918
923
924
930
932
930
937
941
942
945
946
950
956
961
962
963
965
970
974
