974
971
970
969
971
972
969
969
966
968
971
971
970
968
967
969
971
972
968
969
966
965
968
970
970
965
966
966
966
970
968
965
965
967
969
972
969
970
969
974
977
980
979
977
975
979
981
984
985
980
983
985
987
991
988
986
982
982
985
987
983
980
974
979
981
979
978
974
971
972
974
973
971
964
965
967
971
970
968
965
960
961
966
968
965
963
961
961
964
965
963
959
959
961
964
966
962
962
960
958
962
963
965
963
959
962
961
962
963
959
961
961
967
968
968
965
966
964
971
977
980
979
987
995
1009
1026
1042
1056
1068
1077
1081
1080
1068
1051
1044
1047
1067
1090
1120
1153
1179
1202
1220
1222
1209
1180
1154
1131
1110
1086
1051
1010
975
946
929
920
912
903
901
906
917
925
931
937
937
941
942
945
945
942
935
938
944
944
947
942
941
945
949
952
949
945
945
946
949
952
951
951
948
950
952
956
955
954
955
954
958
961
962
961
960
965
970
971
970
972
971
974
978
984
981
984
984
986
993
997
998
998
1000
1002
1010
1014
1013
1016
1016
1018
1022
1023
1024
1024
1026
1029
1035
1034
1037
1039
1038
1040
1045
1047
1046
1038
1033
1034
1033
1028
1022
1016
1010
1006
1002
1000
996
989
983
983
982
984
982
977
974
972
971
973
970
967
963
966
966
969
969
965
964
964
965
963
961
965
963
963
966
964
962
960
958
958
962
962
962
960
959
961
965
966
965
961
958
960
963
964
962
961
956
958
960
961
963
961
955
956
960
961
961
958
958
958
959
959
960
956
953
955
957
957
958
953
953
953
955
954
956
954
952
954
958
955
953
951
951
952
954
955
956
952
949
950
953
955
953
952
950
948
951
954
954
952
950
955
960
963
964
961
958
959
963
962
963
963
962
967
968
969
966
963
960
960
959
961
958
955
954
952
954
954
951
948
945
948
947
949
947
944
941
943
943
944
943
936
935
938
943
944
941
937
937
938
940
938
939
932
932
931
936
941
940
937
933
932
938
938
938
934
933
933
936
941
939
937
933
935
938
942
941
940
938
941
945
951
952
956
964
980
1004
1028
1044
1052
1053
1050
1040
1028
1016
1018
1029
1054
1089
1122
1148
1164
1170
1166
1145
1120
1095
1070
1043
1011
973
938
905
883
867
863
861
864
869
872
883
891
902
902
902
896
891
894
897
897
898
896
895
897
896
899
899
898
895
897
898
900
898
898
896
897
901
902
905
903
899
900
906
909
910
908
906
909
912
918
917
914
916
919
927
931
933
929
932
934
939
944
947
947
943
950
959
967
968
967
969
972
976
976
977
982
986
987
986
990
992
995
991
990
986
986
982
969
963
956
961
957
949
939
934
934
934
931
924
920
915
914
914
914
914
909
903
904
905
909
906
904
903
906
909
907
902
899
898
900
904
905
905
901
899
898
901
902
904
902
899
899
896
898
901
900
897
896
895
903
902
899
896
899
902
904
899
899
899
900
902
905
902
900
899
899
901
904
905
902
897
899
904
905
903
902
901
900
904
907
905
901
899
902
905
907
906
904
904
903
909
911
911
907
906
909
914
919
918
917
915
916
922
925
923
923
921
927
931
933
937
934
932
931
933
932
932
929
927
926
930
930
932
928
923
923
923
929
926
924
921
922
924
923
919
917
914
918
919
924
921
920
916
919
921
921
923
921
917
915
922
922
922
923
924
922
926
928
930
931
933
938
938
935
925
922
920
917
914
909
912
915
918
922
927
935
938
941
946
957
972
988
1006
1023
1035
1043
1046
1041
1029
1011
998
997
1009
1031
1060
1092
1118
1139
1152
1158
1146
1119
1096
1076
1058
1036
1008
976
945
921
904
898
888
881
882
889
893
904
908
907
907
907
911
915
911
908
909
909
912
914
915
913
910
911
912
917
915
912
909
908
914
917
916
915
915
915
919
924
925
923
924
925
931
929
928
930
930
934
937
939
937
937
939
945
948
954
956
956
956
961
967
970
972
970
971
974
978
986
986
987
985
994
999
1003
1003
1005
1007
1010
1012
1016
1014
1009
1003
1002
998
994
988
981
971
966
964
962
958
955
952
948
951
951
945
942
936
936
940
938
935
934
931
933
934
937
936
932
927
930
933
935
933
929
930
930
933
937
934
932
927
928
929
933
933
934
930
931
935
935
936
935
927
930
935
938
936
934
933
934
934
937
936
930
931
930
934
938
938
928
931
934
935
937
936
932
928
931
930
935
931
929
927
928
930
933
931
926
926
925
927
927
929
928
925
924
928
931
931
930
927
930
935
940
940
936
935
933
938
943
947
946
944
946
948
948
946
941
940
937
940
939
937
935
932
933
931
937
933
927
925
926
930
933
927
925
921
923
925
931
928
922
919
921
924
927
924
925
922
920
924
930
929
926
923
926
926
928
927
924
922
922
923
929
928
927
923
928
929
933
941
943
946
957
970
997
1017
1037
1047
1049
1040
1028
1013
1011
1022
1048
1087
1125
1152
1170
1176
1160
1132
1110
1085
1060
1034
1004
971
945
920
902
890
887
888
891
896
900
901
907
913
915
916
911
906
909
912
915
914
914
913
913
914
917
919
917
913
912
916
920
917
915
918
916
920
925
926
922
920
923
926
929
931
928
928
932
933
938
941
936
939
939
945
950
950
948
948
949
956
962
962
962
964
968
972
975
975
978
978
981
983
987
988
991
990
995
1001
1007
1009
1010
1010
1010
1016
1016
1018
1018
1009
1007
1007
1005
1000
993
983
980
977
976
972
967
962
961
960
959
955
951
945
946
949
950
948
946
944
943
947
950
944
942
939
940
940
944
943
939
938
937
938
941
943
941
937
937
940
944
942
938
936
936
941
943
941
942
940
942
942
945
944
943
939
939
942
944
943
937
935
937
938
942
942
940
937
937
936
940
940
940
937
935
939
943
942
940
938
939
942
943
944
943
940
940
942
945
942
940
939
941
944
945
944
943
941
940
942
944
944
945
943
943
942
947
946
947
944
945
948
951
951
950
951
953
957
959
960
953
953
956
962
966
966
964
963
967
969
967
966
962
960
957
962
961
962
956
951
952
957
957
952
953
952
949
951
953
952
946
949
947
948
945
946
942
940
945
947
947
947
946
942
942
943
946
946
943
939
938
942
944
941
939
940
940
940
944
944
941
941
941
943
945
942
942
938
939
943
947
946
945
947
950
955
961
966
975
983
1001
1023
1041
1055
1062
1057
1050
1039
1026
1017
1020
1029
1054
1086
1118
1148
1167
1180
1183
1176
1158
1134
1106
1080
1058
1027
1003
970
937
920
907
900
895
891
888
890
897
907
914
921
921
920
923
923
926
927
925
922
925
928
933
929
928
928
929
932
933
934
930
926
931
934
937
938
932
931
935
936
938
938
938
938
940
943
947
950
945
947
946
949
956
956
955
955
957
961
967
968
968
967
970
973
980
982
982
984
987
993
998
999
999
997
999
1002
1007
1009
1010
1008
1011
1016
1023
1025
1029
1027
1030
1034
1041
1038
1034
1035
1034
1035
1035
1028
1022
1016
1010
1005
1006
1000
993
989
985
984
984
978
973
971
966
970
967
964
965
962
961
962
962
967
962
960
961
959
960
962
956
957
957
958
960
960
954
957
958
956
959
960
957
954
956
959
963
960
958
956
955
955
957
960
958
954
959
960
962
963
959
955
957
959
959
959
957
956
956
958
961
959
958
954
956
957
961
956
956
956
953
955
960
960
954
952
952
954
957
955
954
952
951
953
954
954
952
950
951
952
955
953
952
947
952
952
956
956
953
953
953
953
958
959
957
959
958
958
963
964
960
959
960
965
968
968
969
970
969
970
972
970
966
964
964
964
964
965
963
961
957
960
961
958
955
953
951
952
957
955
951
949
947
946
948
948
945
944
947
949
950
947
944
944
943
946
946
946
945
945
943
943
947
947
946
943
944
948
949
949
946
944
942
946
948
949
945
944
944
946
952
950
950
949
957
966
976
985
993
1004
1019
1035
1049
1050
1048
1032
1019
1003
991
986
995
1012
1035
1070
1105
1130
1147
1153
1150
1140
1121
1096
1069
1045
1024
1000
979
953
929
912
904
895
896
893
893
897
905
914
924
926
927
923
927
926
931
933
928
925
928
930
934
935
933
928
929
930
933
935
933
929
930
931
934
936
933
932
935
939
943
942
940
940
943
947
950
951
949
950
951
954
958
959
959
959
964
966
974
973
975
975
978
985
987
989
993
995
999
1002
1005
1007
1008
1012
1014
1017
1022
1023
1028
1026
1028
1036
1037
1040
1039
1036
1037
1038
1039
1035
1026
1019
1014
1013
1011
1008
998
993
990
989
986
984
977
975
972
974
977
974
969
970
968
969
968
965
962
963
963
965
964
965
962
958
958
963
966
965
964
961
961
962
965
963
962
962
962
965
966
970
964
964
964
964
966
966
962
961
963
965
969
967
963
961
961
963
966
966
964
961
963
962
968
966
963
965
962
963
966
966
962
960
962
963
966
966
963
961
957
961
965
967
964
960
957
962
962
967
967
964
964
963
967
967
967
966
962
969
972
974
976
971
971
972
974
978
978
976
976
981
981
981
977
975
974
977
977
974
972
970
970
970
974
974
967
967
967
969
966
968
963
958
959
962
966
966
961
959
961
965
964
962
960
957
960
963
967
964
962
960
958
962
963
964
960
958
957
959
961
959
959
959
960
962
966
966
966
960
960
964
966
969
966
966
968
973
980
982
986
993
1003
1016
1037
1061
1080
1096
1105
1108
1098
1081
1064
1048
1039
1038
1048
1060
1081
1106
1128
1149
1164
1167
1156
1136
1118
1103
1092
1072
1056
1039
1023
1005
989
972
956
943
938
936
939
941
946
947
951
953
952
953
953
952
952
954
956
955
951
951
949
947
955
955
951
950
949
953
958
957
955
954
954
956
960
960
960
957
957
962
964
965
966
965
964
970
971
974
972
975
975
978
986
985
985
989
990
993
999
1003
1003
1006
1010
1015
1021
1021
1025
1026
1031
1035
1045
1050
1051
1054
1053
1065
1070
1069
1066
1063
1062
1061
1059
1054
1045
1036
1031
1030
1028
1023
1018
1014
1009
1008
1005
1002
1001
998
997
999
1000
996
995
992
993
993
997
997
997
993
994
996
997
997
996
993
993
998
1002
1000
997
996
995
998
999
997
1001
998
997
1001
1005
1005
1002
997
997
1000
1005
1007
1001
1002
999
1005
1009
1006
1005
1002
1000
1004
1005
1007
1003
1000
1001
1004
1006
1005
1005
1000
999
1001
1005
1005
1003
1003
1002
1003
1008
1006
1004
999
1000
1005
1008
1009
1003
999
1001
1010
1014
1011
1011
1009
1010
1014
1017
1017
1014
1015
1018
1022
1022
1024
1023
1019
1018
1018
1021
1018
1016
1014
1013
1016
1017
1017
1012
1011
1005
1010
1014
1011
1011
1008
1007
1008
1009
1004
1003
1002
1003
1006
1010
1006
1007
1002
1004
1004
1007
1004
1005
1003
1002
1006
1007
1005
1005
1003
1002
1005
1004
1006
1005
1003
1006
1009
1007
1011
1007
1006
1005
1007
1012
1011
1010
1008
1012
1016
1018
1024
1025
1030
1037
1050
1063
1078
1087
1098
1105
1114
1116
1104
1092
1078
1069
1080
1094
1110
1131
1152
1176
1194
1211
1209
1195
1176
1158
1145
1131
1110
1086
1056
1034
1014
999
986
976
970
969
975
981
987
991
991
992
998
1000
999
995
994
994
997
998
1000
999
996
995
996
998
998
998
995
999
999
1002
1001
999
999
997
999
1003
1004
1001
1002
1004
1006
1009
1012
1012
1010
1011
1013
1018
1017
1017
1015
1018
1021
1025
1025
1026
1024
1026
1032
1039
1039
1041
1040
1044
1046
1052
1055
1055
1057
1059
1065
1068
1072
1071
1076
1078
1085
1090
1091
1091
1092
1091
1093
1090
1086
1083
1078
1070
1070
1067
1062
1059
1052
1049
1045
1044
1041
1038
1036
1033
1033
1034
1035
1030
1026
1027
1027
1030
1030
1026
1024
1024
1025
1030
1025
1024
1023
1023
1023
1026
1022
1023
1022
1021
1022
1025
1027
1023
1023
1023
1023
1026
1029
1025
1024
1024
1026
1026
1024
1021
1021
1018
1023
1024
1025
1021
1020
1022
1023
1026
1023
1020
1017
1017
1019
1022
1022
1019
1018
1018
1020
1020
1022
1017
1012
1016
1018
1023
1022
1019
1016
1016
1020
1023
1023
1018
1016
1015
1018
1022
1021
1017
1014
1016
1017
1021
1021
1021
1019
1020
1022
1026
1028
1026
1024
1025
1026
1029
1030
1030
1028
1032
1035
1039
1035
1033
1027
1026
1031
1031
1028
1022
1023
1022
1023
1025
1024
1020
1016
1016
1018
1021
1020
1017
1016
1014
1016
1016
1011
1010
1011
1010
1015
1018
1015
1012
1008
1008
1011
1015
1013
1010
1008
1006
1010
1013
1011
1009
1009
1007
1011
1013
1012
1010
1008
1008
1009
1014
1014
1012
1009
1011
1013
1013
1016
1015
1016
1016
1026
1031
1036
1042
1052
1067
1081
1100
1111
1116
1116
1106
1100
1090
1083
1083
1093
1114
1139
1171
1198
1216
1228
1236
1229
1214
1190
1165
1143
1123
1100
1075
1046
1015
993
976
971
964
964
963
969
975
985
991
994
994
990
990
993
996
994
991
992
994
994
996
998
995
993
993
994
996
996
997
995
994
996
1001
1002
997
997
996
999
1003
1005
1004
1003
1003
1007
1013
1013
1011
1012
1011
1016
1018
1022
1019
1019
1018
1024
1030
1031
1029
1030
1032
1037
1041
1046
1044
1046
1048
1052
1058
1055
1057
1060
1063
1065
1073
1080
1078
1077
1082
1084
1087
1085
1084
1077
1075
1073
1069
1065
1059
1052
1049
1045
1045
1042
1036
1029
1026
1026
1031
1026
1024
1019
1017
1017
1021
1020
1018
1015
1013
1015
1016
1015
1014
1010
1007
1012
1012
1012
1012
1009
1009
1015
1016
1014
1011
1009
1010
1014
1016
1013
1010
1010
1009
1012
1014
1011
1012
1009
1007
1009
1013
1012
1008
1006
1007
1006
1011
1011
1008
1006
1004
1007
1012
1009
1007
1005
1003
1006
1008
1004
1002
1001
999
1005
1008
1006
1004
1002
1001
1002
1006
1005
1003
1000
998
1000
1004
1003
1002
999
1000
1002
1004
1005
1001
1000
1005
1008
1011
1012
1010
1007
1012
1015
1017
1020
1018
1014
1016
1017
1019
1015
1015
1013
1011
1012
1015
1014
1009
1007
1006
1004
1007
1006
1002
1002
1001
1003
1003
1004
1001
996
995
997
998
997
998
994
992
995
995
997
994
990
990
994
999
998
992
992
990
994
997
995
994
992
992
992
996
995
991
995
993
997
997
999
997
997
999
1005
1013
1018
1022
1026
1038
1055
1073
1089
1096
1100
1103
1094
1084
1071
1063
1067
1080
1100
1130
1159
1183
1202
1218
1228
1227
1205
1179
1153
1137
1118
1097
1069
1034
1002
982
968
957
948
947
945
949
960
969
976
977
978
975
978
983
982
981
979
975
980
985
986
984
984
983
987
992
991
987
984
982
988
991
990
989
985
987
991
994
993
993
988
991
995
999
1001
1000
997
1001
1005
1008
1011
1006
1006
1008
1015
1019
1021
1020
1020
1023
1025
1028
1032
1034
1031
1036
1041
1047
1049
1045
1047
1049
1054
1059
1061
1063
1063
1064
1073
1076
1079
1078
1074
1071
1073
1071
1070
1064
1054
1050
1048
1046
1040
1036
1028
1023
1022
1024
1021
1015
1011
1010
1010
1012
1012
1006
1003
1002
1003
1007
1006
1005
1000
999
1001
1004
1001
997
995
993
997
1000
998
996
994
994
997
1000
995
994
993
996
998
998
999
999
993
992
993
996
995
993
990
991
994
995
994
989
988
989
991
995
994
988
986
985
990
993
991
991
988
986
986
988
987
986
984
986
987
991
987
986
983
983
984
987
988
984
981
982
983
988
985
985
983
980
983
987
987
988
986
989
989
993
990
992
988
990
993
998
999
998
997
998
996
998
994
995
993
989
991
992
993
989
984
982
984
984
980
979
975
979
978
978
976
972
971
974
977
980
980
977
970
971
974
978
978
973
971
971
973
977
975
974
971
973
972
975
980
977
975
973
972
976
974
973
974
975
978
978
978
978
976
979
985
996
1003
1008
1021
1037
1060
1086
1099
1103
1099
1085
1069
1058
1059
1070
1096
1126
1164
1191
1206
1211
1198
1179
1156
1136
1108
1082
1052
1022
993
971
952
939
930
931
938
944
951
952
953
951
955
957
956
951
951
952
955
957
960
954
952
950
954
959
958
957
955
953
952
957
956
960
957
957
961
963
962
961
960
961
963
969
969
968
967
970
974
976
978
977
977
977
978
984
986
988
990
993
998
1000
1004
1004
1003
1008
1013
1017
1019
1023
1024
1024
1028
1035
1038
1041
1042
1046
1051
1059
1058
1059
1054
1056
1057
1062
1059
1053
1043
1040
1035
1035
1027
1021
1016
1011
1007
1008
1006
1002
999
995
993
994
994
994
992
990
995
995
993
991
989
988
989
991
992
990
988
986
988
990
994
991
988
988
991
993
993
991
988
988
991
994
993
993
991
992
991
995
995
994
990
990
994
996
998
994
992
991
994
997
998
994
995
994
994
997
999
996
995
993
997
997
995
993
994
995
997
999
997
998
997
997
999
1001
1000
999
996
995
1000
1003
1002
1000
998
1001
1004
1008
1008
1007
1007
1006
1011
1012
1015
1013
1012
1014
1017
1021
1020
1020
1021
1022
1023
1025
1022
1021
1019
1019
1021
1021
1021
1019
1019
1019
1019
1019
1020
1016
1014
1013
1017
1019
1017
1013
1011
1009
1011
1014
1015
1011
1009
1010
1014
1014
1012
1012
1009
1009
1011
1015
1010
1012
1010
1011
1012
1015
1016
1013
1010
1013
1013
1017
1018
1015
1015
1015
1017
1019
1020
1018
1017
1017
1017
1024
1023
1019
1021
1023
1025
1029
1032
1039
1041
1049
1061
1075
1094
1107
1122
1134
1138
1142
1132
1123
1111
1108
1115
1125
1142
1162
1182
1206
1228
1246
1249
1238
1216
1198
1187
1177
1161
1139
1118
1092
1066
1043
1020
1005
988
982
986
991
995
999
998
1003
1006
1010
1008
1008
1003
1003
1007
1008
1008
1006
1004
1003
1003
1008
1007
1006
1005
1006
1007
1010
1012
1005
1005
1006
1008
1009
1012
1012
1008
1009
1012
1015
1017
1017
1015
1015
1017
1018
1022
1022
1019
1021
1024
1028
1030
1030
1029
1031
1034
1038
1041
1041
1042
1044
1048
1053
1054
1053
1053
1055
1059
1064
1067
1070
1073
1076
1082
1091
1094
1094
1095
1096
1099
1105
1102
1097
1092
1090
1087
1085
1079
1073
1065
1062
1060
1062
1059
1053
1047
1044
1044
1047
