888
880
874
871
870
881
890
899
903
902
903
900
902
907
905
906
903
903
906
910
909
906
906
905
906
909
910
908
909
910
913
912
915
914
913
914
916
921
923
925
927
925
925
929
932
932
930
930
939
945
949
949
947
949
951
955
958
959
960
963
968
972
972
974
976
978
984
988
988
989
986
989
993
996
993
996
998
1002
1001
1003
1002
999
993
991
990
987
978
972
964
959
953
952
943
942
934
929
928
925
925
922
918
918
917
919
920
916
912
909
912
913
911
909
907
905
906
907
908
905
905
905
906
909
907
905
902
902
905
906
903
904
902
903
906
905
906
902
900
898
899
902
902
900
898
898
901
903
903
899
898
896
899
901
901
899
896
895
892
900
902
896
896
900
898
901
899
896
897
898
901
903
904
901
898
900
898
900
901
897
896
896
894
899
901
902
900
899
899
902
905
905
900
899
905
910
907
907
909
913
914
918
917
915
910
910
910
913
912
912
906
907
906
910
906
906
902
901
902
906
904
901
900
895
897
897
898
894
887
893
897
898
896
892
891
891
890
894
891
892
886
888
888
892
893
893
888
888
891
893
896
894
889
889
890
891
889
890
889
893
895
898
897
897
897
900
902
911
921
928
934
952
972
989
994
990
980
964
943
922
902
893
898
914
932
958
976
992
996
999
986
972
954
934
915
898
894
886
875
862
850
844
847
849
857
862
864
868
874
879
879
883
882
882
884
884
884
882
882
883
884
890
889
886
886
885
888
890
890
889
888
887
892
892
898
898
900
899
902
908
912
908
910
911
915
921
924
923
926
928
934
937
944
944
947
952
960
964
969
968
969
972
975
980
983
986
987
990
994
997
999
1000
1001
1000
1001
1005
1002
995
992
984
981
979
972
965
956
950
944
946
944
940
938
935
934
935
934
928
927
924
924
926
926
922
920
917
920
921
921
921
919
918
918
921
922
919
918
917
920
926
926
925
921
919
921
927
927
928
925
924
925
928
926
930
926
927
929
930
933
933
927
927
929
934
935
934
932
932
934
935
940
937
935
935
935
937
938
934
933
930
930
934
935
936
932
932
934
936
937
938
935
931
930
938
937
937
935
936
939
942
945
944
944
944
942
947
949
949
946
947
952
956
958
957
955
955
953
956
958
955
952
949
952
954
951
952
947
946
947
950
950
949
943
944
946
946
947
941
939
935
940
944
948
948
944
944
943
948
950
948
948
949
947
953
955
952
951
950
954
958
958
956
952
952
954
959
958
958
956
954
954
962
965
962
961
959
963
971
971
975
978
982
991
1001
1016
1029
1038
1048
1058
1071
1069
1065
1053
1038
1024
1014
1017
1021
1032
1050
1071
1091
1106
1115
1116
1104
1087
1074
1062
1049
1033
1019
1009
998
984
967
951
940
933
929
927
930
929
935
944
950
953
959
956
955
954
956
958
956
954
954
958
958
959
959
958
956
956
959
956
955
954
955
957
962
961
964
957
961
962
964
966
963
965
965
966
970
974
972
970
970
976
977
980
979
979
978
984
987
990
991
990
992
998
1001
1002
1004
1004
1005
1007
1014
1017
1018
1016
1019
1022
1028
1029
1033
1031
1035
1036
1045
1051
1050
1049
1050
1049
1050
1048
1043
1040
1033
1031
1029
1029
1023
1016
1012
1011
1009
1006
1000
994
989
990
988
990
985
982
979
979
979
978
977
974
972
974
981
980
978
975
973
976
980
978
977
972
974
975
976
982
981
977
976
976
980
979
978
973
977
979
982
982
980
982
981
983
987
985
981
976
971
974
975
977
973
972
972
976
977
976
975
973
972
974
973
977
976
974
971
975
976
974
972
967
967
966
972
969
968
969
966
971
973
972
971
968
968
971
973
971
971
967
968
972
977
980
980
979
977
980
980
979
978
977
974
978
980
983
980
979
978
980
982
982
980
977
974
975
973
973
968
966
964
966
968
966
965
961
958
962
965
964
960
958
954
955
958
959
960
957
954
957
958
958
956
952
952
957
959
957
953
952
951
954
956
956
953
949
948
948
950
953
953
952
952
953
957
956
957
953
953
957
963
972
975
976
984
996
1013
1033
1054
1071
1080
1086
1085
1080
1069
1055
1056
1064
1075
1096
1116
1135
1155
1171
1177
1177
1154
1129
1111
1099
1089
1074
1055
1033
1011
988
966
951
934
920
916
916
922
926
927
928
927
932
934
933
932
927
928
932
933
935
932
932
931
928
934
939
938
935
933
934
935
938
937
933
931
934
939
942
941
938
939
940
944
950
950
947
945
945
944
949
950
947
949
949
958
958
961
961
961
965
971
974
974
970
974
975
983
985
987
988
990
991
996
998
1002
1004
1006
1008
1016
1018
1021
1021
1022
1020
1024
1022
1016
1010
1008
1007
1007
1001
995
988
982
981
979
976
974
967
963
964
964
962
961
955
954
955
956
956
953
951
946
947
951
950
948
943
942
944
947
948
948
944
941
945
948
948
947
941
944
945
948
948
947
943
941
944
947
948
949
943
942
943
943
946
946
944
941
945
943
947
944
941
940
940
941
942
944
942
940
942
944
942
942
940
937
943
944
944
942
938
939
943
944
946
944
942
938
940
945
944
945
942
942
943
946
945
944
943
940
942
948
949
948
949
949
952
954
958
956
955
955
958
961
963
964
963
959
965
966
965
963
956
958
957
962
958
957
955
951
950
953
953
952
949
948
949
950
951
948
946
945
945
946
947
947
942
941
943
943
943
940
938
937
938
942
943
939
937
938
940
941
941
940
939
937
938
940
941
940
938
935
941
942
944
945
939
940
937
940
942
942
941
946
949
955
962
966
977
987
1007
1030
1047
1059
1062
1061
1055
1048
1036
1032
1031
1040
1052
1074
1097
1117
1133
1146
1153
1147
1131
1106
1087
1071
1057
1043
1024
1001
976
950
930
919
906
894
889
889
889
897
906
908
908
907
910
913
915
913
911
909
910
916
916
916
913
912
915
918
921
918
919
917
918
920
923
924
921
919
924
927
929
929
928
927
930
934
935
937
934
934
936
940
942
942
942
943
945
952
952
953
954
956
960
963
969
969
969
970
976
978
982
984
985
984
989
995
996
998
997
1000
1001
1008
1013
1013
1014
1014
1017
1023
1023
1022
1017
1011
1010
1007
1005
1000
993
990
986
984
983
978
971
969
968
971
966
963
962
960
962
963
965
962
960
960
956
963
964
961
960
953
958
961
962
960
956
956
959
959
960
959
953
955
952
960
961
959
957
954
954
957
961
960
955
956
954
960
959
959
956
955
955
958
958
958
951
953
957
955
957
955
952
954
953
955
953
954
948
949
954
956
958
957
958
952
953
956
958
956
952
950
953
956
958
956
953
954
953
956
956
957
956
953
956
960
964
965
965
965
966
969
968
970
969
967
972
973
978
974
970
965
968
966
968
963
958
951
956
955
957
957
954
951
951
953
953
950
948
943
946
948
952
950
950
941
944
945
946
946
942
940
940
941
943
943
940
939
942
943
945
943
939
938
939
941
944
943
943
942
941
945
944
945
942
942
941
950
953
954
954
959
965
978
993
1008
1023
1038
1049
1062
1065
1060
1046
1033
1029
1031
1036
1050
1062
1084
1111
1139
1158
1166
1166
1152
1132
1113
1100
1085
1066
1050
1034
1016
998
972
951
935
924
915
911
911
912
913
920
925
931
929
928
926
924
929
931
928
928
927
928
930
932
930
926
926
927
928
928
932
930
929
932
934
935
934
933
934
933
939
940
939
937
934
940
943
945
949
945
944
946
952
956
957
956
956
961
966
967
971
973
973
979
982
986
990
989
992
995
999
1006
1005
1007
1005
1009
1013
1016
1020
1016
1018
1022
1027
1027
1026
1023
1019
1018
1017
1013
1011
1002
993
992
989
989
983
977
971
971
969
971
963
960
956
956
958
957
954
957
953
953
954
956
955
954
949
953
952
956
954
951
950
949
953
957
956
954
950
952
957
959
955
953
950
952
956
958
956
953
952
953
956
958
957
956
954
954
955
957
956
953
951
953
955
956
955
955
952
953
957
958
956
955
953
952
956
959
955
952
951
952
956
957
958
953
952
953
955
956
956
952
952
952
956
958
955
952
953
960
963
967
967
967
965
965
967
969
970
967
971
973
976
977
976
971
967
965
964
962
962
960
959
960
960
961
959
955
951
956
952
957
956
953
953
954
955
953
950
946
944
946
949
951
948
942
943
944
947
949
948
947
948
949
952
953
952
947
944
946
946
945
938
933
932
935
938
947
944
941
942
944
948
950
953
953
954
958
968
977
987
999
1015
1036
1052
1065
1067
1059
1045
1027
1016
1014
1020
1032
1061
1091
1123
1146
1155
1152
1134
1111
1096
1080
1062
1044
1028
1008
988
966
943
923
911
906
908
913
914
918
919
925
928
933
931
931
926
929
930
930
928
930
928
931
936
938
936
933
931
932
936
940
936
935
936
935
938
941
946
943
942
943
949
952
953
952
951
951
953
959
961
961
962
965
967
972
970
972
974
974
980
985
990
990
991
990
994
1002
1002
1003
1005
1006
1010
1014
1017
1017
1016
1019
1024
1025
1030
1028
1028
1029
1031
1030
1028
1021
1014
1012
1011
1004
1000
992
986
987
984
981
980
975
971
968
967
966
963
958
958
959
961
963
962
956
954
957
959
959
957
953
952
952
952
958
958
953
951
951
953
955
954
952
950
953
955
956
956
951
953
952
954
958
952
953
950
950
954
956
953
951
946
946
951
952
955
951
948
947
950
953
950
947
945
945
949
949
947
944
944
945
949
950
948
946
942
944
945
947
945
946
942
941
942
942
944
941
939
944
947
948
951
949
949
951
952
955
952
954
952
953
958
959
960
958
956
954
955
959
958
953
951
949
950
951
948
944
942
943
943
947
943
942
938
936
941
938
934
930
931
933
938
940
937
935
932
933
933
936
933
931
932
931
934
936
934
932
928
930
934
938
935
932
929
927
927
934
934
932
932
934
936
937
940
939
943
951
960
977
993
1008
1018
1023
1027
1020
1002
978
960
957
972
995
1020
1040
1062
1078
1084
1077
1051
1023
998
980
965
947
925
902
885
873
871
873
873
877
883
892
907
915
916
916
915
916
917
925
922
920
919
921
923
924
925
924
922
926
929
930
930
929
929
927
931
934
935
931
934
938
943
945
943
943
946
948
952
955
958
958
962
960
966
973
972
971
971
976
983
983
987
990
990
994
1002
1004
1004
1004
1003
1005
1008
1015
1017
1015
1014
1018
1020
1021
1023
1018
1017
1015
1015
1012
1006
1000
997
991
988
987
980
973
964
960
958
957
956
952
947
947
946
947
943
941
937
937
939
943
938
936
931
932
934
937
934
930
930
932
935
938
937
932
927
929
932
935
935
933
930
931
932
936
934
931
925
931
931
936
934
931
929
931
933
935
932
930
928
930
931
934
931
930
926
927
929
929
932
930
926
926
927
932
930
927
924
925
926
928
927
927
925
924
925
926
927
924
918
920
924
928
925
927
926
927
934
935
935
933
931
932
934
938
939
937
936
940
945
946
946
941
937
937
939
941
939
933
931
932
934
935
933
928
923
923
926
927
927
922
918
919
919
923
921
920
921
923
923
923
923
922
917
922
921
925
924
921
918
918
921
925
925
924
922
923
926
928
927
926
923
924
928
934
932
929
926
931
935
938
942
945
949
959
970
984
997
1010
1017
1020
1024
1015
994
970
945
926
932
949
966
985
1005
1025
1038
1045
1032
1009
987
967
954
942
937
925
912
906
900
897
894
898
904
915
927
938
942
946
943
947
949
954
950
953
951
949
949
957
956
955
956
954
958
961
959
960
958
963
965
968
968
965
965
967
972
975
977
976
975
979
985
990
992
995
994
997
1002
1006
1007
1009
1008
1014
1019
1023
1025
1026
1027
1030
1033
1038
1038
1037
1037
1040
1048
1051
1052
1053
1052
1057
1059
1063
1059
1055
1048
1047
1042
1041
1034
1023
1020
1013
1010
1007
1005
999
994
991
992
992
989
986
983
981
984
981
982
980
978
980
979
984
983
979
977
977
980
979
977
974
975
978
977
981
982
978
977
976
978
982
982
981
978
981
984
984
984
982
980
981
984
987
984
982
980
979
982
984
985
981
978
981
980
981
982
977
976
975
977
978
978
973
972
974
974
980
979
974
970
973
975
978
976
973
972
972
975
978
976
973
972
975
978
980
981
980
977
981
983
987
985
985
984
982
988
990
995
993
990
989
990
993
990
986
981
982
986
985
984
979
976
975
979
979
978
975
973
970
970
978
976
973
969
967
967
968
969
964
967
967
968
968
969
965
965
966
969
971
969
968
965
966
963
971
970
966
964
967
968
970
969
966
965
963
969
972
968
967
967
966
970
973
976
975
979
985
996
1005
1017
1029
1039
1049
1061
1064
1065
1055
1038
1024
1016
1023
1034
1048
1068
1096
1121
1139
1148
1141
1120
1099
1082
1067
1049
1032
1010
990
965
947
929
917
910
908
914
925
930
935
939
943
948
951
950
948
946
947
948
950
952
949
947
949
952
953
955
953
951
951
955
956
956
956
954
955
958
962
963
961
958
960
963
971
970
968
968
971
972
978
980
982
979
984
982
988
993
991
994
997
1001
1007
1009
1006
1006
1007
1015
1017
1018
1018
1017
1021
1028
1034
1034
1032
1033
1034
1041
1041
1043
1045
1043
1039
1042
1045
1042
1036
1030
1025
1024
1026
1019
1011
1006
1003
1000
999
996
994
988
986
989
987
986
981
977
975
977
981
979
976
971
974
975
977
975
972
971
972
973
976
975
972
970
972
976
975
975
972
970
973
974
976
975
973
967
967
973
974
972
971
970
968
969
972
972
971
968
969
971
972
971
967
966
966
970
972
971
968
965
967
966
969
970
967
965
965
969
971
970
967
963
964
967
969
967
965
962
963
964
968
966
961
959
960
965
969
968
963
962
963
970
973
972
967
969
970
974
975
976
973
972
972
976
984
982
982
977
977
979
982
981
978
977
973
972
974
974
970
967
967
968
967
967
965
962
962
961
965
963
962
960
959
960
960
959
956
956
957
960
958
957
955
952
952
954
959
958
953
950
949
952
955
952
953
952
952
955
956
956
955
952
951
953
958
955
952
950
951
955
959
955
957
954
955
963
969
974
977
984
995
1010
1023
1032
1037
1037
1032
1023
1013
994
982
980
992
1013
1040
1055
1080
1094
1104
1111
1105
1088
1062
1039
1023
1005
991
971
952
927
907
897
892
887
886
888
900
909
920
925
932
934
938
943
945
944
943
942
944
947
949
950
945
947
947
950
951
953
950
950
949
954
955
958
954
955
955
959
961
962
960
961
958
966
973
972
969
972
974
978
983
984
982
981
986
990
994
995
996
997
999
1003
1007
1009
1009
1011
1013
1018
1021
1021
1023
1023
1023
1028
1033
1036
1035
1036
1037
1041
1043
1044
1044
1039
1041
1041
1043
1039
1033
1028
1023
1020
1016
1013
1006
999
997
996
995
990
982
982
980
979
981
980
976
972
973
973
977
975
972
966
970
971
974
974
971
967
965
971
972
972
969
967
971
972
972
975
972
967
967
971
975
974
972
968
970
972
976
974
972
968
969
970
974
974
969
968
970
972
974
971
970
968
966
970
973
969
967
967
965
968
971
970
968
966
966
968
971
969
965
961
961
965
967
965
964
960
962
965
967
966
965
961
960
964
965
964
964
961
961
964
970
972
971
971
967
972
973
973
973
972
972
977
981
980
982
973
980
980
981
978
976
973
973
975
977
975
970
966
964
969
969
970
965
961
963
963
966
961
962
957
954
955
956
956
957
956
955
957
957
955
952
950
950
952
956
957
954
952
952
952
954
956
954
950
952
954
957
955
953
951
950
952
957
955
953
953
952
955
961
962
958
960
965
973
982
987
997
1008
1022
1034
1044
1045
1041
1029
1013
998
988
989
996
1013
1034
1057
1081
1101
1108
1111
1105
1090
1070
1045
1024
1006
987
971
953
935
914
898
886
883
883
887
891
899
909
921
929
933
938
938
941
943
945
946
943
942
943
948
950
952
947
947
947
951
952
953
952
948
950
950
958
957
955
952
956
955
961
962
960
963
963
968
972
973
973
972
972
974
981
984
981
984
985
989
993
996
996
997
998
1002
1009
1007
1007
1010
1012
1018
1023
1023
1022
1024
1025
1030
1036
1035
1034
1036
1035
1039
1045
1046
1047
1045
1045
1047
1051
1047
1043
1037
1033
1031
1030
1024
1017
1014
1010
1007
1002
999
994
987
985
984
986
984
979
975
974
974
975
976
973
968
967
970
972
970
969
965
967
968
970
970
968
965
966
969
970
969
967
963
965
967
970
969
966
964
965
965
969
972
969
967
966
966
968
969
967
964
967
968
969
971
967
965
967
966
967
967
966
962
964
965
968
967
961
960
961
960
964
961
960
960
960
957
962
962
961
959
955
958
960
960
960
960
958
960
963
961
960
962
961
966
971
968
967
964
968
971
972
975
972
973
976
978
980
977
973
969
968
970
972
969
967
964
963
964
964
962
960
957
958
960
959
958
957
953
952
952
956
954
952
953
952
952
951
953
949
947
947
950
952
950
948
947
945
949
951
951
950
945
944
949
952
950
946
945
947
948
954
954
954
951
953
961
967
975
981
988
1005
1023
1037
1041
1029
1005
980
970
987
1016
1049
1080
1099
1108
1101
1068
1038
1006
986
967
949
924
902
882
