1045
1039
1037
1034
1038
1040
1036
1037
1035
1032
1034
1035
1037
1035
1032
1033
1034
1036
1037
1032
1032
1031
1035
1039
1037
1035
1027
1030
1033
1037
1039
1035
1034
1034
1036
1040
1037
1033
1034
1035
1034
1038
1038
1037
1034
1033
1034
1037
1035
1034
1032
1028
1033
1038
1037
1034
1032
1030
1031
1035
1033
1030
1029
1029
1028
1031
1033
1030
1031
1030
1027
1034
1033
1030
1028
1027
1029
1032
1033
1031
1029
1030
1028
1032
1030
1030
1027
1025
1028
1033
1033
1033
1031
1034
1035
1041
1038
1037
1036
1037
1039
1040
1042
1041
1038
1041
1045
1049
1048
1044
1039
1040
1042
1043
1042
1038
1034
1032
1035
1035
1034
1030
1028
1030
1032
1032
1033
1031
1025
1027
1030
1032
1031
1025
1019
1019
1022
1024
1027
1023
1022
1019
1017
1019
1020
1020
1016
1019
1019
1023
1022
1022
1018
1017
1018
1022
1023
1021
1017
1016
1018
1023
1021
1018
1016
1020
1022
1027
1024
1021
1019
1021
1023
1026
1030
1031
1032
1034
1042
1053
1067
1083
1099
1118
1136
1152
1157
1154
1143
1134
1130
1132
1140
1152
1174
1203
1236
1262
1283
1294
1290
1271
1245
1227
1213
1194
1171
1146
1121
1094
1062
1031
1008
992
983
982
985
986
987
991
994
1000
1002
998
997
996
996
1000
1000
995
997
994
997
1002
1001
996
996
996
997
1002
1002
1001
998
999
1000
1002
1003
1001
999
999
1003
1005
1007
1002
1003
1006
1008
1011
1011
1011
1009
1009
1013
1015
1017
1015
1018
1016
1022
1024
1029
1028
1028
1031
1034
1040
1042
1043
1041
1044
1050
1055
1057
1058
1058
1061
1066
1072
1077
1078
1077
1082
1085
1092
1092
1090
1087
1083
1080
1078
1073
1069
1062
1058
1057
1053
1050
1045
1039
1039
1036
1037
1032
1029
1026
1027
1028
1030
1028
1023
1021
1020
1023
1024
1024
1021
1018
1018
1019
1020
1021
1019
1017
1015
1018
1023
1024
1019
1015
1014
1016
1018
1017
1014
1011
1013
1014
1017
1018
1013
1010
1011
1013
1015
1013
1012
1011
1008
1008
1011
1010
1010
1008
1008
1011
1012
1011
1009
1008
1008
1010
1009
1012
1009
1001
1005
1006
1011
1012
1008
1006
1004
1008
1010
1010
1007
1007
1005
1009
1009
1009
1006
1004
1006
1007
1008
1006
1003
1002
1002
1005
1009
1006
1005
1000
1003
1006
1010
1012
1009
1009
1011
1014
1015
1016
1014
1012
1012
1016
1019
1020
1022
1019
1020
1021
1023
1017
1017
1015
1015
1015
1013
1015
1008
1005
1004
1006
1008
1005
1005
1000
1000
1005
1005
1005
1002
1003
999
996
1000
997
998
995
996
1000
1001
999
998
994
988
993
998
998
997
994
993
995
999
995
995
992
991
993
999
1002
996
992
993
998
1000
1002
1000
996
996
999
1003
1001
998
997
999
1004
1006
1011
1014
1016
1021
1033
1047
1065
1080
1093
1106
1121
1123
1117
1104
1090
1086
1092
1104
1124
1148
1175
1204
1228
1249
1259
1253
1230
1202
1184
1169
1149
1123
1087
1054
1024
1002
981
964
949
946
948
954
955
963
968
974
978
983
984
981
979
979
979
984
984
984
980
980
983
986
987
985
982
983
983
987
988
987
985
984
987
987
990
988
987
989
992
997
998
995
993
996
999
1004
1006
1003
1004
1004
1007
1013
1015
1015
1016
1017
1020
1025
1029
1029
1028
1030
1034
1037
1045
1045
1044
1047
1051
1055
1058
1058
1061
1060
1067
1072
1075
1076
1076
1078
1077
1083
1085
1077
1075
1069
1068
1065
1059
1054
1046
1042
1037
1036
1032
1027
1021
1020
1021
1023
1019
1015
1010
1008
1009
1010
1012
1008
1004
1003
1004
1007
1006
1004
999
997
999
1003
1004
1002
997
997
998
1003
1002
1000
999
998
1000
1002
1001
997
997
995
999
1002
1001
1000
996
997
999
1002
1001
999
994
994
996
997
999
999
998
996
998
999
1000
995
995
993
997
999
1000
995
994
992
995
997
996
995
993
993
994
998
995
994
992
993
994
994
995
991
990
992
992
996
997
994
994
993
997
1000
1003
999
997
999
1001
1003
1002
1003
1002
1004
1007
1013
1012
1012
1007
1004
1005
1008
1006
1005
1000
998
1000
1004
1001
997
993
992
994
997
995
993
989
990
992
993
992
986
983
983
986
987
989
987
985
983
983
985
987
984
979
979
983
986
983
986
982
982
984
985
986
983
980
980
982
984
985
984
979
979
983
984
985
985
981
979
982
985
985
985
983
981
986
996
1001
1000
1005
1010
1027
1045
1060
1072
1080
1086
1085
1080
1068
1054
1045
1048
1066
1090
1120
1151
1172
1194
1206
1214
1205
1180
1156
1128
1108
1089
1062
1027
989
964
947
940
931
925
923
927
932
943
950
956
957
962
963
965
966
967
964
966
970
971
972
969
967
966
970
971
971
970
969
968
968
976
977
976
972
972
976
978
981
980
980
979
981
987
988
990
991
988
993
998
1000
1002
999
1003
1004
1007
1012
1012
1013
1011
1018
1021
1024
1023
1026
1026
1030
1039
1039
1042
1041
1044
1050
1051
1055
1054
1051
1053
1058
1064
1068
1067
1065
1066
1066
1069
1069
1062
1058
1054
1050
1048
1043
1035
1029
1023
1023
1022
1018
1014
1008
1004
1006
1003
1003
1001
995
992
996
995
994
991
991
992
990
993
993
990
987
987
986
988
988
986
985
982
984
989
989
986
985
982
982
988
988
986
980
983
984
987
986
984
981
982
986
988
986
983
984
982
984
988
987
986
981
983
984
985
985
984
981
980
981
983
984
982
979
977
982
984
982
979
978
976
980
982
982
978
977
977
981
984
981
981
976
977
978
982
981
980
977
977
978
981
981
980
977
975
978
981
983
979
979
982
985
986
989
990
986
985
990
995
994
994
995
995
996
993
993
993
988
988
985
985
987
982
980
977
979
982
983
979
971
971
974
974
978
973
969
966
966
969
972
969
967
961
964
968
967
966
962
964
960
967
965
961
957
958
960
961
962
961
960
960
960
962
965
962
959
957
959
962
964
962
959
960
964
968
970
969
971
976
983
997
1005
1020
1035
1047
1060
1065
1058
1041
1025
1008
1009
1020
1042
1066
1094
1123
1147
1168
1175
1165
1144
1116
1090
1068
1041
1009
970
945
922
913
908
900
895
901
909
921
927
931
933
937
941
943
942
939
937
938
939
941
941
943
942
941
943
943
945
944
940
941
944
947
945
943
942
943
945
953
952
954
952
952
954
958
959
960
958
959
968
973
974
972
971
974
980
982
990
989
990
993
997
1003
1001
1007
1007
1009
1016
1023
1025
1026
1024
1028
1034
1035
1040
1038
1040
1042
1045
1046
1045
1040
1037
1034
1033
1030
1025
1016
1012
1007
1005
1002
996
988
982
980
981
982
981
977
971
971
970
971
969
969
962
961
963
967
967
966
961
961
964
966
966
965
961
961
963
961
964
963
958
960
962
963
969
965
961
961
959
965
964
964
961
960
960
961
961
962
959
961
963
962
961
962
959
955
959
962
964
962
959
958
961
960
962
960
959
958
959
961
959
957
954
950
957
960
958
954
953
952
954
955
955
957
954
954
953
957
959
958
954
952
955
960
960
964
961
962
965
964
964
968
965
967
970
976
977
977
971
967
972
973
975
972
966
964
968
969
969
963
958
957
961
962
963
959
954
953
955
954
954
952
948
950
952
955
955
950
947
945
951
952
952
951
947
948
952
952
953
951
949
950
948
954
955
952
952
950
953
956
955
953
951
951
954
953
959
956
959
959
962
969
976
978
987
998
1019
1046
1062
1076
1076
1074
1066
1055
1039
1027
1025
1034
1060
1092
1122
1145
1161
1169
1166
1153
1133
1113
1089
1068
1045
1021
997
970
946
930
922
920
922
924
927
934
935
939
941
939
936
934
941
945
945
943
937
936
938
941
945
942
942
939
943
944
945
944
942
940
942
946
949
948
946
947
949
953
957
954
954
955
958
960
961
963
964
964
971
973
975
981
978
981
988
995
998
1000
1002
1004
1013
1018
1021
1024
1024
1025
1031
1036
1040
1044
1047
1049
1053
1058
1059
1059
1059
1058
1058
1057
1056
1049
1039
1032
1029
1028
1022
1019
1013
1008
1006
1006
1003
1001
997
993
994
995
996
992
991
989
990
990
991
989
984
985
986
991
989
989
985
984
986
990
990
989
987
986
989
990
990
989
988
988
988
991
995
994
992
992
993
994
994
993
992
994
994
997
999
998
993
994
992
996
998
996
991
993
995
998
998
997
992
994
995
999
999
995
992
994
994
995
996
994
991
993
996
993
997
994
993
992
994
994
996
994
993
991
990
992
996
996
996
996
995
1002
1006
1005
1001
1000
1003
1007
1009
1006
1008
1011
1013
1014
1016
1012
1008
1005
1010
1010
1011
1007
1002
1000
1003
1004
1002
1000
995
996
994
998
998
998
995
993
988
991
991
993
990
989
992
992
992
991
987
987
990
992
993
993
991
988
989
993
993
994
991
988
990
994
995
995
990
991
996
996
995
996
995
993
996
1000
1005
1007
1010
1014
1022
1035
1052
1072
1086
1101
1110
1114
1104
1092
1074
1077
1087
1117
1151
1181
1208
1229
1241
1238
1218
1187
1162
1138
1115
1080
1045
1008
981
964
954
957
962
968
973
978
983
987
988
987
982
982
982
984
986
988
983
983
982
987
992
987
983
985
987
992
993
992
988
988
992
994
996
996
995
994
999
1001
1004
1005
1002
1002
1003
1005
1013
1011
1008
1011
1014
1018
1023
1021
1022
1023
1022
1031
1034
1035
1035
1036
1039
1045
1048
1045
1048
1050
1055
1059
1061
1064
1065
1072
1074
1082
1084
1083
1080
1078
1075
1076
1075
1066
1057
1054
1052
1049
1047
1041
1036
1033
1032
1026
1027
1025
1021
1018
1020
1022
1022
1018
1016
1012
1015
1018
1019
1016
1014
1013
1011
1016
1017
1015
1013
1013
1014
1015
1017
1015
1013
1011
1012
1016
1016
1013
1010
1008
1010
1016
1017
1012
1011
1009
1010
1011
1014
1014
1011
1009
1011
1012
1015
1012
1008
1006
1008
1006
1011
1009
1006
1004
1007
1009
1010
1006
1005
1004
1007
1007
1009
1011
1006
1005
1006
1008
1009
1006
1003
1005
1008
1006
1008
1008
1006
1005
1003
1005
1007
1008
1006
1003
1006
1007
1006
1005
1003
1005
1006
1009
1008
1007
1006
1008
1012
1015
1018
1015
1014
1014
1016
1018
1019
1019
1017
1020
1021
1024
1024
1022
1018
1016
1018
1019
1018
1015
1008
1010
1007
1008
1009
1007
1005
1006
1005
1007
1006
1003
999
996
1000
1001
999
996
996
996
998
1001
998
997
994
993
994
996
998
998
993
992
992
995
995
994
990
990
992
993
994
993
992
989
992
992
996
994
993
993
993
997
997
996
995
993
995
997
1001
999
999
1000
1005
1013
1018
1023
1031
1047
1065
1088
1108
1116
1118
1114
1109
1103
1094
1087
1090
1101
1121
1149
1180
1204
1220
1238
1253
1254
1240
1216
1189
1167
1149
1128
1100
1065
1025
997
977
965
954
946
940
943
949
960
968
972
971
971
976
976
978
975
976
973
974
977
978
978
975
973
977
978
981
981
977
975
978
981
980
981
979
979
981
984
986
984
980
982
983
986
989
989
986
986
991
995
997
1000
998
999
1002
1008
1011
1011
1010
1012
1016
1022
1024
1026
1027
1027
1031
1039
1039
1042
1041
1041
1046
1049
1053
1054
1054
1056
1062
1067
1071
1072
1071
1070
1071
1070
1071
1061
1058
1053
1050
1045
1042
1038
1032
1027
1025
1024
1021
1016
1011
1009
1007
1010
1010
1007
1002
999
1000
1002
1004
1002
997
994
996
1000
1000
999
996
992
997
996
996
994
992
990
993
999
1000
995
992
992
992
991
996
995
992
992
987
992
995
995
989
989
990
991
994
994
990
990
990
993
993
992
989
986
989
991
991
988
988
985
988
991
992
988
989
988
989
992
993
990
989
986
987
991
989
988
987
984
982
986
989
988
985
982
984
989
990
986
982
983
984
987
988
987
985
982
985
987
991
991
991
991
993
995
996
997
992
994
995
1000
1002
1004
1002
999
1001
1004
1005
1000
1000
997
995
998
1000
995
993
992
992
992
992
991
988
986
988
990
987
987
982
982
981
986
983
979
980
978
980
985
983
981
977
978
978
979
981
981
978
979
978
979
982
980
977
975
978
977
981
981
979
977
976
977
983
981
979
979
976
981
982
980
978
980
980
983
986
985
983
982
991
997
1001
1006
1010
1023
1035
1053
1067
1075
1072
1071
1065
1061
1050
1044
1045
1053
1074
1099
1130
1154
1176
1190
1204
1212
1207
1185
1157
1134
1112
1091
1066
1035
1003
975
955
944
934
924
919
920
926
935
942
950
956
957
961
966
970
966
966
965
966
971
971
969
967
968
968
973
973
970
969
968
969
971
974
971
972
971
974
977
979
980
978
978
980
984
987
986
985
984
986
991
995
1000
998
996
996
1002
1007
1009
1007
1008
1013
1012
1018
1022
1021
1021
1024
1029
1037
1037
1037
1035
1039
1043
1050
1051
1049
1051
1055
1057
1063
1066
1065
1065
1068
1073
1074
1072
1069
1066
1065
1063
1058
1052
1045
1036
1034
1034
1031
1024
1017
1015
1013
1012
1013
1006
1002
998
998
999
998
998
994
990
992
993
995
995
991
986
990
994
994
993
988
987
989
992
994
992
988
988
991
993
995
991
990
989
990
993
993
992
989
990
989
990
992
991
988
987
989
992
991
987
985
986
986
986
988
988
989
984
986
989
988
987
985
984
983
985
988
988
983
982
983
985
988
986
982
982
984
985
985
987
985
982
980
987
987
985
982
982
983
985
985
986
983
982
984
986
988
987
985
986
991
995
997
995
992
990
992
995
998
998
999
999
1000
1005
1005
1002
999
995
997
999
1000
997
992
989
991
994
993
989
987
986
986
986
989
985
983
981
980
984
987
982
976
972
976
981
984
983
978
974
978
979
979
979
974
974
977
979
978
978
976
975
975
979
980
978
978
975
976
978
981
980
977
976
976
978
979
976
976
973
976
978
983
982
980
979
982
987
989
992
991
996
1003
1012
1022
1035
1043
1055
1066
1075
1072
1069
1055
1040
1032
1035
1046
1063
1085
1112
1145
1173
1190
1200
1197
1181
1157
1134
1112
1091
1064
1033
1003
977
954
940
928
920
916
920
924
930
937
944
951
963
963
966
967
963
967
967
970
971
968
970
970
975
977
976
975
971
975
978
978
976
975
974
977
980
982
981
979
979
981
986
987
989
986
988
992
997
1001
1001
999
998
1002
1007
1011
1010
1009
1010
1012
1017
1016
1024
1022
1020
1025
1033
1036
1039
1041
1038
1044
1047
1052
1055
1052
1051
1056
1063
1067
1070
1067
1069
1073
1075
1078
1073
1074
1071
1069
1066
1065
1057
1051
1040
1035
1035
1033
1028
1022
1012
1014
1014
1011
1007
1003
1001
1000
1003
1003
999
998
992
992
995
998
993
992
986
990
992
992
990
989
985
985
989
993
993
990
987
987
990
991
989
986
986
988
989
991
992
989
987
988
990
990
988
984
983
985
990
989
991
987
984
986
990
989
988
986
981
982
986
986
987
982
979
980
983
984
983
979
981
981
984
986
983
981
980
980
984
984
981
980
979
980
982
984
983
980
978
979
982
985
983
982
981
984
987
989
988
986
987
990
992
995
993
992
990
990
992
990
989
985
985
982
985
986
984
980
976
977
978
976
978
974
973
971
974
975
973
969
965
966
968
968
968
971
968
966
967
967
965
960
961
960
962
964
966
961
960
961
962
964
962
959
956
959
962
964
963
960
957
958
962
965
962
959
958
960
964
965
965
959
956
963
968
971
975
976
980
990
1004
1020
1031
1043
1050
1058
1060
1056
1046
1026
1012
999
1003
1020
1042
1064
1095
1123
1149
1161
1170
1164
1149
1128
1106
1084
1057
1024
990
961
940
927
919
910
904
903
910
919
927
931
937
940
941
941
945
943
939
942
947
948
949
943
943
945
949
948
950
948
947
947
950
952
951
945
947
949
954
957
957
955
953
954
960
966
966
965
966
968
970
972
973
974
973
981
986
988
987
982
989
994
1002
1007
1005
1002
1004
1005
1013
1019
1021
1023
1025
1028
1031
1036
1035
1036
1037
1041
1044
1048
1050
1048
1044
1042
1048
1050
1044
1034
1029
1025
1021
1020
1010
1003
998
994
990
992
986
979
973
972
972
970
969
966
960
961
959
962
957
951
947
949
951
953
953
947
942
942
943
947
946
944
941
940
941
943
942
939
934
934
937
936
940
937
937
937
940
940
938
938
937
934
937
939
935
934
931
932
936
939
939
935
932
934
932
932
930
929
929
931
933
936
935
927
927
926
928
929
929
927
924
925
927
928
928
925
925
923
925
923
923
922
919
923
921
922
922
921
923
925
926
927
926
924
921
922
926
930
933
930
925
928
925
927
924
922
918
918
918
922
920
914
910
908
911
913
909
906
901
900
900
902
900
897
889
887
889
891
886
888
887
891
892
888
887
885
881
880
880
876
876
875
872
874
876
878
875
872
872
877
875
877
874
870
870
872
874
874
868
869
868
869
866
869
871
864
865
870
879
884
888
891
899
914
938
957
974
983
987
982
969
952
938
929
923
927
947
973
1000
1022
1038
1052
1057
1051
1030
1008
988
967
946
927
903
875
852
834
823
816
809
805
803
807
818
826
822
819
819
819
821
822
819
817
815
814
817
819
818
813
808
809
813
818
814
811
808
813
811
812
813
809
811
814
819
819
817
813
814
816
820
823
821
818
821
820
824
829
830
828
827
831
836
840
843
843
844
848
852
856
860
860
863
867
876
879
881
885
888
892
901
907
909
911
910
916
917
920
911
907
900
894
891
891
885
881
875
875
873
873
872
866
862
865
867
869
866
860
858
863
862
871
869
865
864
865
869
873
872
867
870
871
873
878
877
874
875
876
879
881
882
881
879
884
889
892
892
891
891
888
893
899
902
897
896
897
898
905
908
905
902
903
908
910
909
906
905
905
912
917
912
909
903
903
907
908
908
903
903
905
910
918
926
922
919
918
918
914
915
920
927
945
953
956
949
944
941
944
951
954
957
958
952
948
952
959
962
959
960
963
967
968
972
971
970
967
974
979
979
979
978
979
979
978
979
973
971
971
973
973
972
970
967
966
971
971
969
970
964
967
968
968
972
969
967
965
969
966
966
963
962
965
968
974
969
965
959
959
959
964
965
964
961
959
965
966
965
962
959
960
965
968
965
965
960
961
964
969
968
966
966
968
973
975
976
977
983
989
1000
1013
1028
1045
1065
1083
1094
