977
976
972
969
967
965
965
964
961
956
956
958
956
957
952
951
950
950
954
959
957
955
951
951
955
956
953
955
952
955
956
958
959
956
953
956
956
960
960
957
953
957
958
962
959
958
959
958
960
960
957
955
954
957
960
961
963
957
957
959
959
963
961
953
954
955
957
961
959
952
948
947
955
959
958
955
955
956
959
962
957
953
952
954
958
956
958
956
956
959
961
964
961
960
958
960
962
967
966
964
965
969
971
970
972
971
970
969
970
974
971
964
964
967
968
967
965
962
959
960
962
964
961
959
956
959
957
958
956
949
947
945
948
953
957
956
953
955
956
957
955
953
949
953
955
958
956
955
954
954
958
961
960
959
955
955
959
962
960
959
958
960
963
964
961
959
959
958
963
964
965
964
963
963
967
970
967
962
961
966
972
978
983
984
991
1004
1018
1027
1031
1033
1033
1033
1034
1025
1021
1011
993
979
961
945
935
931
945
973
1003
1027
1043
1052
1054
1045
1032
1019
1004
990
976
968
960
956
943
935
925
924
924
925
928
932
939
950
956
960
965
964
960
964
968
971
971
968
968
972
976
975
976
976
974
975
979
983
982
979
983
984
988
989
989
992
990
992
998
1000
1000
997
997
999
1005
1008
1011
1010
1010
1014
1019
1023
1024
1023
1023
1030
1032
1034
1036
1033
1035
1040
1042
1044
1045
1044
1044
1047
1051
1055
1056
1056
1054
1056
1059
1062
1060
1055
1048
1043
1045
1038
1031
1024
1019
1015
1014
1012
1007
1001
993
996
996
995
991
988
984
985
987
986
980
981
979
980
985
986
982
978
977
978
980
984
983
979
977
980
981
982
979
978
977
981
982
984
981
979
976
982
986
987
982
981
982
983
986
988
985
983
984
985
987
991
991
988
988
984
987
985
985
984
984
983
986
985
985
982
981
982
982
986
983
978
977
979
982
981
980
979
976
978
980
985
982
978
976
977
979
982
982
977
975
980
984
985
986
984
984
986
988
988
988
986
985
987
991
993
994
994
993
992
997
999
997
994
992
993
995
994
990
983
982
983
986
987
982
978
977
979
981
981
978
974
977
978
977
979
976
968
970
972
978
976
971
970
969
972
975
977
973
973
972
972
973
976
976
971
969
970
971
974
974
971
969
971
974
975
973
970
969
971
974
975
974
972
969
971
975
978
976
976
978
981
988
994
1001
1005
1014
1028
1037
1044
1042
1038
1026
1012
1002
989
981
983
996
1017
1044
1072
1094
1112
1126
1134
1136
1121
1097
1074
1055
1037
1024
1008
988
968
951
937
929
919
917
916
917
926
936
946
955
958
957
963
970
970
970
967
966
967
971
974
973
971
971
974
976
977
977
974
971
975
979
980
982
975
978
981
985
985
987
983
983
985
990
995
995
989
993
997
1000
1005
1005
1005
1005
1008
1015
1018
1018
1015
1018
1022
1029
1031
1035
1035
1037
1037
1042
1046
1047
1046
1048
1052
1055
1058
1061
1059
1059
1062
1065
1068
1068
1063
1057
1052
1050
1051
1045
1035
1027
1026
1023
1021
1018
1012
1008
1006
1003
1001
1000
995
993
991
991
989
990
984
982
986
989
990
988
984
984
983
985
986
983
984
983
983
984
986
986
984
984
986
986
988
987
986
986
987
987
988
987
982
983
984
988
990
989
987
985
986
988
991
988
986
982
985
988
990
987
985
980
983
983
989
987
985
982
984
984
986
985
983
983
982
986
987
988
982
982
981
983
984
983
981
980
982
984
985
985
983
981
985
989
994
993
989
988
992
995
997
995
992
990
997
1001
1003
1006
998
997
996
998
1001
997
995
989
990
989
991
990
987
982
984
988
989
988
984
980
980
983
985
983
977
972
973
978
981
980
978
974
974
977
978
978
973
970
974
975
975
975
974
970
972
975
977
976
970
971
973
974
977
977
974
972
973
974
979
980
976
973
974
978
981
981
979
982
983
990
995
999
1007
1016
1030
1042
1048
1049
1041
1030
1014
996
983
978
984
999
1026
1054
1085
1107
1124
1136
1137
1122
1104
1076
1052
1031
1011
989
970
948
930
916
914
914
920
924
931
936
950
960
971
969
970
968
971
971
973
975
974
970
973
975
977
979
976
975
978
978
982
982
980
974
977
984
987
985
984
983
983
987
989
991
988
988
988
994
997
996
997
997
1001
1004
1008
1006
1002
1004
1007
1009
1016
1018
1016
1018
1021
1027
1031
1031
1031
1034
1036
1043
1044
1045
1042
1042
1045
1049
1053
1051
1051
1048
1049
1052
1057
1053
1046
1041
1041
1036
1036
1029
1021
1018
1016
1011
1008
1005
1000
991
989
991
987
986
981
976
975
978
977
978
975
973
972
972
972
969
964
964
965
968
968
969
963
963
964
966
965
965
964
960
961
963
967
966
962
960
959
962
967
969
965
961
963
964
966
965
964
961
964
966
965
965
963
958
959
965
965
964
963
958
959
961
963
964
960
957
959
960
962
961
956
956
957
957
956
958
956
956
958
958
960
957
954
954
954
956
958
954
952
949
952
954
954
952
951
950
950
954
957
957
957
954
959
963
965
963
958
957
962
964
964
965
965
964
967
969
972
970
967
964
964
964
964
966
962
962
960
961
964
961
957
953
956
957
957
952
948
944
943
945
947
944
938
939
941
942
946
946
944
941
943
944
947
949
948
947
947
949
949
942
937
940
939
942
945
943
935
935
939
943
945
942
939
939
943
945
948
946
943
937
940
943
944
944
941
941
944
948
952
953
955
959
966
980
995
1009
1022
1032
1041
1043
1039
1026
1002
980
965
961
968
989
1013
1039
1063
1089
1103
1107
1097
1080
1060
1042
1023
1007
988
969
955
941
931
919
906
904
903
913
921
925
925
927
931
936
939
938
934
933
933
936
941
940
939
938
939
941
942
941
937
936
942
945
947
946
944
942
942
946
952
952
951
949
953
955
958
960
959
961
961
966
970
970
970
970
974
981
985
986
986
989
991
996
1001
1001
1005
1007
1010
1015
1021
1024
1023
1027
1030
1036
1039
1040
1041
1042
1046
1047
1053
1054
1052
1048
1054
1056
1056
1049
1044
1043
1039
1037
1036
1031
1024
1017
1014
1013
1012
1008
1007
1001
1000
1002
1002
998
996
992
992
995
995
994
990
992
988
994
995
995
994
989
993
996
997
996
993
992
993
997
998
994
991
990
992
994
1000
1000
997
997
999
998
1002
1003
1000
1001
1000
1002
1005
1005
1001
999
999
1004
1008
1002
1003
999
999
1003
1008
1006
1005
1002
1001
1004
1005
1006
1004
1000
1004
1004
1006
1004
1002
1000
1003
1002
1005
1005
1001
1000
1002
1003
1006
1006
1004
1003
1003
1005
1006
1007
1005
1001
1001
1006
1010
1011
1010
1008
1013
1015
1020
1017
1016
1016
1017
1019
1024
1025
1024
1022
1021
1023
1022
1021
1020
1017
1015
1016
1019
1016
1011
1010
1009
1010
1014
1012
1008
1005
1007
1007
1009
1008
1001
999
996
1000
1004
1007
1005
997
999
1001
1003
1001
1000
999
999
1003
1004
1004
1000
997
1001
1001
1001
1002
1000
997
1000
1001
1002
1002
999
996
1000
1001
1002
1001
1000
1001
1001
1005
1007
1009
1009
1010
1017
1024
1033
1042
1055
1069
1088
1098
1109
1105
1094
1080
1065
1055
1059
1068
1086
1111
1144
1170
1191
1203
1204
1189
1168
1150
1136
1120
1104
1080
1059
1043
1022
1000
980
969
967
966
974
979
981
987
992
997
1002
999
994
993
996
999
1000
998
996
998
998
1001
1002
1003
1001
999
1001
1004
1006
1004
1003
1004
1005
1008
1010
1012
1007
1005
1010
1012
1015
1015
1013
1014
1016
1020
1022
1021
1021
1021
1023
1029
1032
1033
1034
1036
1038
1042
1045
1048
1048
1047
1050
1058
1059
1061
1062
1062
1066
1066
1070
1073
1075
1080
1080
1087
1091
1094
1094
1093
1094
1094
1095
1092
1088
1080
1079
1075
1074
1068
1061
1054
1054
1057
1054
1051
1047
1040
1041
1041
1044
1042
1039
1035
1036
1038
1040
1039
1034
1034
1035
1038
1039
1038
1033
1031
1033
1036
1039
1037
1033
1035
1034
1039
1040
1040
1037
1035
1037
1041
1044
1044
1040
1040
1039
1043
1044
1044
1042
1041
1042
1043
1046
1044
1042
1040
1038
1043
1044
1046
1043
1041
1040
1043
1047
1044
1042
1042
1041
1043
1045
1045
1042
1037
1038
1040
1047
1042
1040
1040
1037
1042
1046
1045
1042
1038
1038
1044
1045
1046
1043
1040
1040
1046
1048
1045
1042
1039
1044
1047
1047
1051
1052
1052
1055
1056
1059
1054
1055
1056
1059
1063
1065
1067
1064
1061
1063
1064
1065
1064
1061
1057
1058
1058
1061
1055
1052
1048
1047
1047
1051
1051
1051
1046
1044
1047
1049
1048
1044
1039
1042
1047
1051
1048
1044
1040
1041
1043
1046
1045
1044
1038
1041
1045
1045
1044
1041
1042
1042
1047
1050
1048
1045
1044
1047
1049
1050
1050
1049
1047
1046
1051
1054
1052
1050
1049
1054
1058
1065
1071
1076
1085
1106
1127
1142
1149
1143
1136
1120
1106
1108
1117
1133
1159
1192
1219
1241
1259
1257
1237
1215
1192
1179
1161
1138
1117
1093
1073
1053
1033
1018
1011
1009
1013
1020
1023
1032
1035
1041
1045
1049
1048
1046
1043
1047
1048
1051
1050
1050
1049
1050
1052
1056
1055
1050
1049
1051
1052
1056
1054
1051
1050
1053
1056
1057
1057
1054
1052
1055
1059
1062
1064
1060
1060
1062
1066
1067
1068
1067
1064
1069
1073
1074
1076
1074
1071
1077
1079
1084
1086
1086
1086
1088
1093
1097
1098
1098
1098
1100
1105
1109
1110
1109
1110
1113
1115
1120
1126
1126
1126
1128
1132
1132
1131
1127
1120
1118
1114
1115
1110
1105
1096
1092
1091
1089
1084
1081
1076
1072
1075
1076
1074
1071
1066
1066
1067
1068
1064
1061
1060
1057
1060
1063
1061
1056
1055
1057
1058
1060
1060
1056
1054
1056
1056
1058
1061
1058
1055
1055
1057
1062
1060
1058
1053
1052
1058
1060
1060
1056
1055
1054
1058
1059
1058
1056
1051
1052
1056
1058
1056
1054
1051
1053
1054
1059
1056
1052
1047
1052
1051
1055
1053
1052
1049
1052
1050
1054
1051
1049
1048
1048
1050
1051
1051
1049
1044
1049
1050
1053
1052
1047
1046
1045
1048
1051
1051
1048
1046
1046
1047
1050
1049
1046
1044
1046
1049
1049
1054
1053
1053
1054
1056
1057
1056
1053
1053
1053
1060
1059
1063
1062
1059
1061
1062
1063
1061
1059
1055
1054
1055
1057
1052
1050
1046
1044
1043
1046
1045
1043
1042
1039
1043
1044
1040
1038
1036
1032
1036
1038
1035
1031
1035
1034
1033
1035
1034
1030
1028
1032
1033
1031
1031
1031
1028
1029
1029
1032
1031
1031
1028
1027
1029
1033
1032
1027
1026
1024
1027
1032
1030
1029
1027
1028
1030
1032
1033
1030
1026
1028
1032
1036
1036
1034
1031
1036
1042
1046
1053
1057
1068
1084
1096
1109
1115
1113
1106
1096
1085
1071
1061
1059
1068
1089
1115
1144
1169
1186
1201
1215
1214
1203
1177
1155
1132
1116
1098
1082
1058
1032
1010
999
987
983
975
973
973
981
991
997
1005
1009
1011
1018
1020
1020
1020
1016
1016
1016
1018
1024
1022
1021
1020
1021
1024
1027
1024
1023
1022
1022
1024
1028
1027
1024
1025
1023
1025
1032
1031
1029
1029
1026
1031
1035
1034
1034
1033
1036
1040
1044
1043
1041
1041
1043
1046
1049
1048
1048
1046
1051
1057
1062
1062
1061
1060
1061
1067
1072
1072
1073
1073
1074
1078
1082
1082
1084
1081
1086
1091
1095
1095
1096
1095
1098
1098
1105
1102
1100
1094
1089
1090
1085
1081
1074
1068
1065
1063
1062
1056
1049
1043
1042
1045
1045
1038
1037
1031
1029
1031
1034
1032
1029
1027
1028
1028
1029
1027
1025
1023
1021
1023
1023
1024
1022
1017
1019
1020
1022
1021
1021
1019
1020
1021
1021
1021
1021
1016
1015
1020
1023
1021
1017
1016
1015
1020
1021
1019
1017
1015
1016
1016
1016
1017
1014
1012
1010
1015
1016
1015
1014
1013
1012
1013
1015
1015
1011
1011
1008
1010
1011
1014
1012
1009
1007
1009
1013
1011
1009
1006
1004
1008
1011
1008
1008
1007
1005
1009
1011
1008
1003
1003
1003
1006
1007
1004
1004
1003
1005
1004
1011
1009
1008
1008
1012
1015
1015
1010
1007
1009
1013
1011
1020
1020
1018
1016
1017
1018
1018
1017
1014
1009
1011
1010
1014
1009
1005
1002
1001
1003
1004
1001
999
996
996
997
1000
1000
997
993
995
994
995
988
990
986
991
993
994
991
985
982
987
988
991
986
984
983
984
986
988
986
981
980
980
984
987
986
982
979
980
984
984
987
981
980
979
983
985
984
983
980
979
985
985
984
983
981
986
992
999
1003
1009
1014
1025
1040
1050
1059
1064
1059
1052
1042
1030
1011
1003
1005
1019
1039
1065
1093
1116
1136
1152
1160
1158
1138
1118
1097
1081
1067
1048
1025
1000
976
952
941
930
919
913
909
914
925
935
943
949
953
956
961
964
964
960
959
958
963
965
967
964
960
960
967
969
967
961
958
961
965
969
970
968
967
967
968
971
971
970
970
971
974
977
978
975
973
976
979
983
983
985
981
985
989
993
995
991
992
994
1000
1002
1004
1006
1006
1009
1013
1018
1020
1018
1016
1019
1022
1028
1031
1029
1030
1031
1034
1038
1037
1036
1034
1036
1039
1039
1038
1033
1028
1026
1027
1023
1020
1011
1006
1001
997
996
990
984
979
975
975
975
970
965
960
960
959
961
958
956
951
953
952
952
952
949
947
944
944
949
947
946
941
941
941
946
944
943
941
939
939
942
944
942
938
938
938
939
941
936
936
936
937
940
939
935
932
933
933
937
937
933
930
930
932
935
931
930
927
927
929
932
927
924
921
926
927
929
924
924
922
921
923
926
925
920
917
913
918
922
920
919
915
916
918
920
918
913
909
915
916
917
915
909
910
913
914
916
914
910
910
912
917
921
921
919
918
918
920
922
922
921
920
923
926
926
928
928
927
926
926
927
927
923
916
917
918
919
915
913
909
910
910
914
909
907
904
903
906
909
906
903
896
895
897
902
902
903
899
897
897
898
895
893
893
895
899
902
899
895
890
895
896
900
899
895
889
894
897
899
900
894
892
892
896
900
899
895
894
892
896
898
901
897
898
899
905
910
913
917
924
935
953
970
985
994
996
996
989
973
949
928
914
913
927
948
972
998
1014
1033
1048
1056
1049
1028
1010
993
979
967
948
930
912
895
879
873
869
861
854
856
864
871
876
880
880
882
887
895
895
892
891
890
896
898
900
896
895
898
902
905
906
907
907
906
909
913
916
912
911
914
920
923
923
920
921
922
928
933
933
934
934
938
942
947
949
950
950
956
958
962
964
966
965
970
976
982
983
984
983
986
989
996
996
996
998
1002
1004
1008
1009
1009
1009
1011
1016
1018
1018
1019
1017
1017
1016
1015
1009
1001
992
986
981
976
970
961
956
954
950
949
948
941
938
936
941
942
935
934
931
932
933
937
938
935
930
932
934
937
936
935
929
931
935
938
936
937
934
934
938
940
940
936
935
935
940
943
944
940
937
939
943
944
942
941
937
938
938
943
942
938
940
939
943
945
947
944
941
941
941
946
944
943
942
938
940
942
943
941
939
938
939
941
943
938
938
934
938
940
939
937
933
933
938
941
937
935
934
932
933
937
935
933
932
930
932
933
935
936
934
934
942
943
943
942
940
938
944
946
946
946
943
948
949
953
949
946
943
941
944
948
946
941
938
935
936
937
936
934
930
930
932
932
931
931
928
929
930
931
928
923
923
925
927
928
925
924
917
918
921
926
924
922
916
918
921
921
921
921
917
918
921
923
925
919
919
920
922
925
923
921
917
919
922
921
924
924
922
924
928
932
932
933
932
943
955
968
978
990
1000
1007
1012
1008
999
983
968
962
966
981
1000
1022
1046
1071
1091
1103
1107
1100
1084
1063
1049
1037
1024
1003
983
960
941
922
904
894
882
878
879
884
890
893
897
902
909
913
910
910
905
907
912
915
913
911
911
909
910
913
914
913
909
909
911
911
916
915
914
912
915
919
918
915
914
913
915
920
919
917
914
914
915
923
924
924
922
925
929
931
936
933
933
934
940
942
944
942
942
944
947
951
954
955
956
956
963
967
968
967
964
966
968
972
970
972
972
974
976
977
977
973
971
968
967
965
960
952
941
940
937
937
932
926
920
915
916
914
911
908
903
903
904
902
902
900
892
895
894
899
897
896
892
894
894
894
892
891
888
888
891
895
896
891
889
889
889
892
895
894
893
894
897
898
896
894
890
889
893
897
893
893
892
894
893
897
895
893
890
890
894
898
899
894
892
892
895
897
895
889
892
892
894
896
894
892
891
892
892
893
893
891
890
890
891
893
894
893
890
890
893
894
894
889
889
887
893
893
892
891
887
889
892
896
896
896
896
899
902
903
900
897
897
897
901
904
904
904
904
908
907
906
907
908
904
904
904
904
903
899
896
896
902
900
900
898
895
898
897
896
893
891
890
889
889
890
889
888
890
889
891
893
892
888
888
887
890
892
892
892
887
887
890
895
891
886
887
888
892
897
896
891
891
889
894
899
896
893
893
895
896
901
900
902
900
904
914
922
928
938
951
966
985
1005
1008
1001
990
971
956
940
932
934
947
970
1001
1026
1048
1057
1054
1046
1036
1018
1000
980
964
946
934
919
903
885
874
867
866
868
871
873
876
879
885
892
892
890
889
888
891
893
895
894
891
893
894
897
897
896
893
894
897
898
899
897
895
895
898
903
901
899
899
902
904
906
910
910
910
910
914
917
920
920
921
920
924
928
932
932
930
932
939
944
944
941
941
943
950
955
959
959
960
960
965
971
974
974
975
979
984
990
990
990
988
990
991
991
986
981
972
967
966
963
959
953
947
944
944
943
939
934
932
928
931
931
931
929
927
927
927
930
928
927
923
921
924
927
925
922
920
920
925
928
927
926
922
924
925
931
927
927
927
926
929
933
931
931
926
928
931
934
935
932
932
931
935
938
937
933
931
933
936
938
937
934
932
931
934
938
936
933
932
929
932
935
935
935
930
930
933
935
936
931
931
930
933
934
934
932
930
929
933
935
933
932
929
930
932
934
934
930
926
927
932
935
936
939
935
935
939
944
942
942
940
940
943
946
950
949
948
944
947
949
946
942
942
939
944
944
942
940
933
933
934
936
939
936
934
931
930
937
936
930
929
926
927
933
932
932
929
929
927
930
927
928
926
925
