1105
1127
1145
1154
1151
1137
1113
1084
1063
1043
1021
995
969
944
924
918
915
912
910
912
925
936
946
950
956
959
966
970
971
972
969
970
972
974
976
974
974
970
976
977
980
979
979
979
980
985
986
984
982
984
983
989
992
988
991
989
995
996
1000
999
1001
1001
1004
1010
1012
1012
1012
1017
1017
1022
1027
1026
1027
1030
1031
1037
1039
1041
1043
1045
1051
1054
1057
1056
1058
1058
1062
1067
1069
1070
1069
1072
1072
1076
1080
1078
1076
1074
1074
1074
1072
1065
1058
1052
1047
1045
1037
1035
1027
1022
1020
1021
1021
1016
1011
1007
1007
1006
1007
1004
999
997
999
1002
1001
1000
997
996
997
998
1001
999
996
996
994
997
1000
999
995
994
996
999
998
996
995
991
996
996
997
994
993
991
994
997
997
998
993
994
992
996
998
992
994
993
994
997
995
996
992
992
993
997
997
997
993
992
992
994
994
993
989
989
992
996
997
995
991
991
992
997
996
996
992
991
992
994
996
994
992
990
991
993
996
992
992
989
991
994
997
998
997
996
999
1002
1003
1003
1002
1001
1005
1010
1011
1009
1011
1007
1008
1008
1008
1008
1002
1000
1001
1002
1001
998
994
992
993
997
995
992
988
986
989
986
990
984
978
984
987
989
988
986
981
981
982
986
983
986
983
980
983
985
987
983
982
981
981
983
985
983
982
980
984
985
987
986
985
984
981
986
985
988
986
987
993
999
1003
1006
1015
1026
1043
1057
1063
1068
1065
1054
1039
1024
1013
1013
1027
1055
1088
1116
1141
1155
1155
1141
1113
1079
1054
1029
998
969
943
926
920
916
915
920
933
945
956
963
968
968
971
973
978
976
975
975
977
982
984
981
981
981
982
986
986
983
985
980
987
992
993
991
992
992
994
995
1000
999
999
998
1002
1009
1011
1012
1013
1013
1017
1020
1025
1027
1026
1029
1033
1039
1044
1044
1043
1044
1050
1054
1057
1059
1055
1059
1063
1069
1071
1071
1071
1070
1074
1080
1081
1082
1074
1078
1074
1076
1074
1067
1060
1056
1052
1048
1045
1038
1030
1027
1024
1022
1017
1015
1012
1008
1003
1008
1006
1000
995
997
998
997
998
994
993
990
990
993
993
992
987
984
989
993
993
992
989
985
985
989
990
989
986
985
986
990
991
989
986
982
985
988
991
989
986
984
986
985
984
984
984
981
982
986
987
984
982
979
982
984
982
981
977
976
979
982
982
980
976
979
979
982
982
979
979
974
973
978
980
978
974
976
975
974
975
974
972
968
970
971
975
973
973
973
975
976
975
974
971
968
970
974
976
977
973
973
975
979
981
979
975
976
975
981
986
984
986
985
986
985
985
983
981
977
978
979
981
978
973
970
972
974
973
970
964
965
967
970
970
963
962
959
961
964
960
961
960
960
961
963
962
959
957
956
955
957
959
957
954
954
956
957
957
953
950
950
954
958
958
955
954
952
953
955
955
956
955
951
954
956
958
957
956
955
957
957
957
961
957
959
963
968
973
978
983
991
1010
1023
1037
1041
1042
1037
1029
1018
1001
981
972
976
999
1028
1052
1073
1087
1097
1105
1106
1091
1067
1045
1023
1004
986
969
949
931
918
911
906
907
904
904
908
914
919
928
933
933
936
938
942
944
944
942
940
942
945
946
945
943
940
942
948
950
949
947
942
945
950
953
950
948
949
950
955
956
958
955
953
957
962
967
964
965
964
963
970
975
975
975
975
980
986
990
990
990
991
992
1000
1004
1005
1007
1009
1013
1014
1018
1021
1021
1023
1029
1032
1036
1038
1037
1038
1038
1042
1043
1042
1045
1041
1040
1042
1038
1034
1029
1026
1019
1020
1015
1006
1001
997
991
988
989
987
980
974
972
973
974
970
967
963
965
964
966
964
960
955
957
960
959
959
957
956
954
957
962
962
958
955
954
957
961
962
959
956
958
960
961
961
957
955
954
959
960
960
959
955
956
961
963
962
960
959
960
966
967
962
961
959
960
963
965
964
960
956
959
965
967
967
961
963
962
963
965
969
967
964
965
968
970
969
963
964
964
968
971
968
967
965
968
969
972
969
967
966
971
973
977
976
971
972
977
983
983
984
983
984
984
988
992
989
992
993
993
996
998
995
991
986
989
992
995
993
988
984
985
986
986
986
981
982
982
984
985
984
979
976
978
979
980
977
974
975
974
981
981
976
975
974
974
977
978
978
976
973
976
979
982
979
977
974
976
975
980
980
977
975
974
976
981
978
977
976
978
978
980
982
977
976
974
981
983
981
978
981
982
985
990
991
995
996
1001
1014
1029
1038
1049
1053
1063
1067
1071
1063
1053
1039
1025
1021
1028
1039
1053
1070
1095
1120
1136
1144
1138
1123
1103
1084
1064
1041
1021
998
974
956
943
932
925
920
922
929
937
943
947
953
960
966
972
971
971
968
968
970
968
967
970
967
970
972
972
971
968
966
970
971
975
975
970
969
970
974
973
976
975
975
979
982
984
984
982
982
983
987
992
992
994
994
997
1000
1003
1001
999
1001
1004
1011
1014
1016
1014
1017
1019
1024
1029
1029
1030
1027
1030
1033
1036
1037
1040
1041
1043
1044
1046
1046
1045
1044
1041
1042
1041
1037
1032
1026
1025
1022
1017
1010
999
993
992
989
986
981
977
971
969
968
969
969
962
958
959
960
961
959
956
952
952
952
954
952
949
947
949
952
951
950
949
947
947
950
950
949
943
939
944
945
947
945
946
945
944
946
947
942
943
941
942
943
946
947
939
938
937
937
941
938
935
932
935
934
933
929
928
925
926
929
924
922
922
920
921
925
925
921
919
917
916
919
922
919
914
912
910
912
913
916
912
911
912
912
913
911
909
909
908
910
913
914
912
910
913
913
915
914
913
912
912
917
922
920
915
912
914
921
925
923
916
911
911
916
918
915
910
909
907
910
910
906
905
902
903
904
907
905
903
899
898
899
899
895
894
895
896
900
905
901
898
894
896
902
901
900
898
897
898
902
905
903
902
900
903
905
906
906
903
903
903
908
912
911
910
907
909
907
912
913
913
912
911
917
920
919
919
921
922
928
932
934
936
939
946
962
975
989
1001
1013
1027
1035
1038
1034
1017
997
981
974
970
981
992
1008
1034
1058
1077
1090
1095
1094
1085
1070
1056
1042
1025
1009
997
986
976
963
950
943
939
939
943
947
951
951
955
963
970
974
977
975
977
981
987
985
984
986
986
990
992
994
991
990
991
994
996
994
995
991
994
999
1001
1003
1002
999
1002
1004
1005
1007
1005
1003
1008
1014
1018
1020
1018
1018
1022
1023
1029
1029
1028
1030
1033
1037
1038
1041
1041
1043
1048
1049
1052
1057
1057
1057
1059
1065
1070
1075
1077
1077
1081
1090
1096
1098
1101
1101
1103
1104
1109
1104
1099
1094
1088
1086
1085
1079
1071
1065
1059
1057
1056
1052
1046
1043
1040
1039
1037
1035
1032
1029
1032
1033
1034
1031
1028
1024
1023
1025
1027
1026
1023
1022
1023
1023
1025
1027
1023
1022
1022
1025
1026
1028
1023
1024
1023
1026
1027
1027
1024
1023
1022
1028
1031
1031
1024
1027
1028
1031
1034
1033
1029
1027
1028
1029
1034
1032
1030
1029
1026
1027
1034
1033
1031
1029
1028
1031
1033
1031
1030
1027
1026
1030
1033
1032
1028
1028
1027
1029
1034
1032
1029
1027
1025
1029
1031
1029
1025
1023
1028
1033
1039
1038
1039
1033
1035
1036
1038
1039
1038
1036
1039
1042
1046
1046
1042
1041
1039
1043
1042
1040
1037
1034
1033
1032
1038
1033
1032
1029
1027
1027
1029
1030
1027
1024
1025
1022
1026
1027
1022
1019
1016
1019
1019
1020
1018
1014
1017
1016
1015
1017
1014
1009
1011
1014
1017
1018
1014
1011
1013
1014
1019
1017
1013
1010
1011
1013
1014
1013
1012
1010
1010
1013
1018
1016
1015
1011
1012
1015
1018
1018
1017
1016
1015
1018
1022
1021
1020
1021
1024
1035
1044
1058
1073
1089
1109
1125
1133
1136
1128
1116
1104
1097
1097
1104
1115
1131
1152
1179
1204
1218
1225
1227
1217
1200
1183
1163
1145
1126
1109
1095
1076
1054
1030
1006
988
981
978
976
976
977
983
993
1002
1002
998
996
996
998
1002
1000
1000
999
1000
1002
1003
1005
999
999
999
1002
1007
1006
1001
1003
1004
1006
1009
1007
1003
1003
1005
1005
1008
1012
1011
1011
1014
1012
1016
1019
1019
1016
1016
1016
1018
1023
1022
1021
1025
1031
1039
1039
1041
1041
1046
1050
1055
1056
1055
1055
1060
1066
1068
1069
1069
1071
1076
1081
1084
1087
1082
1087
1089
1093
1095
1094
1093
1085
1085
1082
1078
1072
1065
1059
1054
1052
1051
1047
1040
1034
1033
1034
1035
1032
1030
1019
1021
1023
1026
1025
1019
1017
1023
1023
1024
1022
1019
1014
1017
1018
1020
1021
1019
1014
1019
1018
1019
1020
1016
1015
1014
1018
1021
1018
1017
1016
1018
1020
1023
1021
1018
1018
1017
1021
1023
1022
1020
1020
1018
1021
1026
1023
1020
1017
1016
1020
1021
1020
1017
1017
1019
1021
1023
1023
1020
1017
1019
1022
1023
1022
1021
1019
1021
1021
1022
1023
1018
1020
1019
1022
1023
1022
1021
1019
1018
1020
1020
1021
1017
1017
1018
1025
1024
1026
1023
1018
1017
1020
1024
1022
1015
1013
1012
1018
1023
1023
1022
1025
1030
1034
1040
1038
1037
1039
1039
1042
1040
1039
1032
1029
1029
1028
1034
1036
1033
1031
1033
1034
1038
1037
1035
1029
1026
1026
1027
1026
1023
1022
1022
1022
1022
1021
1019
1016
1012
1011
1016
1017
1017
1018
1018
1020
1020
1016
1013
1011
1013
1017
1020
1022
1013
1014
1013
1015
1018
1020
1017
1020
1022
1022
1021
1018
1016
1014
1013
1012
1012
1010
1008
1009
1011
1017
1025
1028
1025
1022
1020
1026
1032
1039
1046
1056
1074
1095
1113
1125
1127
1125
1121
1109
1098
1085
1081
1088
1104
1132
1165
1189
1196
1199
1195
1190
1174
1155
1131
1110
1086
1063
1041
1016
993
975
965
962
965
968
973
977
988
998
1004
1006
1005
1005
1007
1012
1007
1003
994
991
993
997
1001
1003
1006
1002
1005
1006
1009
1009
1010
1006
1005
1007
1012
1013
1010
1009
1010
1015
1018
1020
1019
1017
1021
1024
1030
1028
1028
1027
1029
1032
1038
1039
1036
1036
1041
1048
1053
1055
1055
1058
1060
1065
1074
1074
1075
1077
1079
1084
1087
1084
1083
1084
1086
1091
1094
1094
1093
1095
1096
1099
1095
1094
1087
1081
1075
1072
1068
1065
1058
1052
1047
1046
1043
1041
1034
1030
1028
1028
1029
1026
1022
1021
1022
1023
1025
1022
1021
1018
1016
1018
1020
1019
1017
1014
1015
1016
1016
1017
1015
1012
1012
1013
1016
1018
1014
1013
1009
1014
1017
1016
1014
1014
1012
1015
1017
1014
1013
1011
1012
1013
1015
1015
1011
1011
1011
1012
1016
1014
1011
1009
1010
1010
1011
1012
1010
1008
1006
1008
1011
1009
1008
1006
1005
1006
1011
1008
1007
1005
1003
1005
1007
1006
1002
1002
1004
1007
1006
1008
1003
1003
1003
1003
1006
1005
1003
1001
1002
1004
1008
1008
1009
1008
1009
1010
1011
1013
1011
1009
1012
1013
1019
1018
1018
1016
1013
1014
1016
1015
1010
1008
1004
1005
1005
1001
999
995
995
998
999
993
992
991
991
991
991
986
987
983
985
989
990
988
981
977
980
983
986
988
983
981
980
982
983
986
983
981
979
981
982
984
984
983
984
982
984
978
975
972
976
977
979
977
979
979
980
985
988
991
988
994
1001
1014
1031
1041
1047
1056
1061
1062
1055
1039
1016
996
984
997
1019
1045
1071
1090
1104
1113
1114
1097
1070
1039
1016
996
977
958
938
923
913
908
908
908
911
915
925
935
948
954
959
958
961
966
969
971
967
968
968
969
971
975
975
972
974
977
978
977
976
972
974
980
981
985
985
983
982
984
985
984
988
986
989
992
996
998
998
999
1001
1005
1009
1010
1009
1009
1014
1020
1023
1026
1028
1028
1033
1035
1039
1042
1043
1041
1045
1050
1056
1057
1058
1059
1060
1061
1065
1065
1062
1060
1061
1061
1062
1056
1052
1047
1043
1037
1038
1033
1020
1014
1007
1003
1007
1003
997
992
993
994
995
990
989
983
984
984
987
983
984
979
977
978
980
979
977
976
975
978
980
979
979
977
977
979
981
979
976
974
976
977
980
979
976
976
974
978
982
980
977
975
972
979
982
981
978
976
977
978
981
979
976
975
975
975
978
980
978
975
975
980
982
978
973
974
974
976
981
980
978
975
973
976
980
978
974
973
973
976
978
979
973
973
971
975
977
975
973
973
976
977
979
979
978
976
977
981
987
980
980
984
984
985
993
992
990
992
994
996
994
993
988
988
989
992
993
989
989
986
983
985
987
985
983
979
980
980
984
980
978
975
973
978
979
981
979
974
975
977
977
978
979
977
974
979
983
980
981
977
978
981
986
984
983
981
979
980
985
985
983
980
981
982
987
986
985
987
984
990
998
1001
1002
1006
1012
1027
1045
1054
1056
1063
1061
1058
1047
1026
1007
997
1005
1027
1056
1077
1095
1106
1110
1103
1081
1053
1029
1008
988
971
959
948
936
935
935
940
949
957
964
971
978
985
991
991
987
983
987
990
993
994
993
993
994
992
996
1000
996
997
990
996
1002
1001
1001
997
999
1004
1007
1010
1006
1005
1004
1010
1013
1012
1014
1011
1012
1019
1022
1025
1025
1025
1027
1032
1036
1039
1038
1039
1041
1049
1053
1057
1054
1054
1057
1064
1068
1070
1072
1073
1077
1078
1083
1083
1082
1082
1084
1091
1095
1097
1098
1097
1098
1102
1105
1100
1098
1093
1092
1090
1088
1084
1076
1069
1063
1063
1062
1055
1051
1043
1038
1039
1039
1034
1031
1027
1026
1028
1029
1028
1025
1024
1021
1024
1027
1027
1022
1019
1020
1022
1023
1023
1022
1020
1019
1021
1024
1021
1018
1016
1015
1021
1022
1020
1017
1014
1016
1018
1021
1021
1020
1017
1014
1020
1021
1021
1020
1017
1014
1019
1020
1022
1019
1020
1019
1017
1021
1023
1017
1017
1018
1019
1021
1020
1019
1017
1016
1019
1020
1019
1016
1012
1014
1017
1020
1020
1017
1012
1013
1014
1014
1016
1014
1011
1010
1014
1018
1016
1013
1013
1011
1010
1014
1016
1014
1011
1011
1013
1015
1015
1012
1011
1010
1014
1017
1017
1014
1013
1015
1019
1022
1023
1020
1022
1021
1024
1026
1028
1025
1024
1026
1028
1029
1031
1028
1022
1025
1025
1025
1026
1019
1019
1018
1018
1020
1018
1014
1012
1012
1011
1014
1015
1010
1008
1011
1009
1012
1012
1005
1002
1001
1004
1006
1007
1006
1003
999
999
1001
1001
998
998
996
1000
1002
1001
999
998
996
1002
1006
1003
998
998
996
1002
1003
1004
1001
998
1000
1000
1004
1005
1002
1000
1002
1001
1005
1004
1008
1006
1007
1010
1018
1019
1022
1027
1038
1055
1069
1080
1081
1081
1079
1071
1061
1043
1032
1027
1041
1063
1090
1117
1133
1153
1162
1166
1160
1141
1116
1091
1070
1051
1031
1008
985
964
947
937
935
936
934
937
942
954
965
972
978
980
981
988
991
989
989
989
987
992
994
996
992
989
992
996
998
1000
999
996
996
1001
1002
1002
1001
999
1001
1005
1008
1007
1003
1005
1007
1012
1015
1017
1016
1014
1015
1018
1024
1025
1025
1023
1028
1033
1036
1038
1038
1039
1039
1047
1051
1051
1055
1056
1058
1062
1067
1066
1065
1068
1069
1072
1076
1077
1079
1077
1080
1082
1090
1090
1091
1089
1092
1091
1093
1094
1088
1083
1078
1077
1073
1072
1065
1058
1053
1048
1048
1043
1037
1029
1028
1027
1028
1023
1021
1017
1015
1017
1017
1014
1012
1009
1009
1012
1012
1009
1010
1007
1007
1005
1005
1008
1008
1004
1003
1006
1010
1010
1009
1004
1003
1006
1008
1008
1007
1006
1003
1007
1011
1009
1009
1006
1006
1006
1009
1010
1008
1006
1005
1008
1011
1011
1009
1006
1004
1009
1009
1008
1006
1005
1004
1007
1009
1007
1007
1001
1001
1005
1006
1006
1004
1000
1002
1005
1005
1006
1004
1000
999
1002
1004
1003
1003
998
999
1000
1001
1002
1000
998
999
1000
1003
1002
997
992
993
997
997
1000
997
994
994
994
999
998
995
995
997
1000
1003
1006
1004
1001
1000
1003
1006
1009
1007
1007
1008
1009
1012
1011
1003
1003
1002
1005
1006
1004
1000
997
993
995
999
997
989
987
988
989
990
993
992
991
987
989
990
986
982
974
978
981
983
985
981
977
976
977
977
977
976
972
971
975
977
976
976
975
974
975
974
975
975
973
974
976
976
975
973
970
971
974
977
979
975
974
973
972
977
977
976
975
974
977
982
984
985
987
994
1006
1020
1036
1047
1055
1060
1064
1059
1046
1030
1003
991
990
1000
1022
1044
1070
1091
1107
1118
1120
1115
1103
1082
1061
1043
1024
1000
979
964
949
938
926
919
915
911
916
922
930
936
940
944
945
951
953
958
953
952
955
959
959
957
954
956
957
961
961
959
957
960
963
965
963
961
960
960
963
969
971
969
966
964
966
973
975
973
969
969
975
980
980
980
981
980
984
990
989
988
991
992
995
999
1005
1005
1006
1008
1015
1022
1022
1027
1028
1034
1037
1040
1044
1046
1047
1051
1056
1063
1067
1068
1068
1070
1071
1073
1075
1070
1064
1061
1063
1059
1055
1049
1040
1038
1036
1036
1029
1028
1021
1022
1021
1021
1021
1017
1015
1012
1012
1018
1018
1018
1014
1016
1015
1018
1016
1015
1014
1017
1018
1021
1023
1022
1018
1018
1019
1023
1022
1019
1019
1021
1022
1023
1024
1021
1019
1020
1024
1024
1026
1025
1022
1021
1025
1029
1028
1025
1024
1024
1024
1028
1028
1026
1024
1023
1028
1028
1031
1028
1024
1027
1029
1029
1031
1027
1028
1025
1029
1030
1031
1029
1023
1025
1027
1032
1032
1032
1028
1027
1027
1027
1027
1026
1027
1025
1027
1030
1031
1028
1025
1025
1028
1028
1029
1029
1030
1029
1035
1037
1039
1035
1034
1036
1039
1042
1044
1041
1041
1044
1046
1045
1045
1040
1036
1035
1038
1040
1037
1030
1031
1028
1031
1033
1028
1026
1025
1025
1023
1024
1024
1024
1024
1021
1022
1022
1021
1017
1014
1015
1017
1020
1019
1016
1011
1012
1015
1017
1016
1014
1013
1012
1012
1017
1017
1016
1012
1011
1011
1015
1017
1013
1011
1007
1014
1016
1012
1013
1013
1012
1017
1017
1018
1014
1012
1014
1016
1016
1020
1021
1022
1027
1030
1039
1056
1066
1084
1104
1122
1138
1146
1145
1140
1128
1118
1110
1108
1114
1123
1143
1167
1194
1212
1225
1224
1219
1202
1183
1165
1146
1130
1115
1098
1076
1053
1030
1010
994
984
981
980
979
980
985
989
998
1003
1001
997
996
997
999
999
999
998
996
998
1001
1000
997
997
997
999
998
999
999
998
997
1001
1005
1007
1002
1002
1003
1004
1008
1009
1008
1005
1004
1007
1010
1011
1013
1012
1013
1015
1020
1025
1025
1022
1023
1028
1032
1034
1033
1034
1036
1040
1048
1048
1049
1049
1050
1053
1061
1064
1064
1064
1070
1074
1081
1085
1087
1085
1089
1092
1095
1093
1091
1087
1083
1081
1077
1074
1068
1059
1054
1050
1047
1045
1041
1034
1031
1031
1034
1031
1028
1018
1018
1020
1021
1021
1019
1015
1019
1018
1019
1021
1019
1017
1014
1013
1014
1016
1017
1015
1011
1009
1013
1016
1013
1010
1009
1010
1015
1016
