922
918
918
919
919
922
919
917
917
920
922
922
920
917
918
921
924
923
921
919
917
922
925
923
922
918
920
921
925
923
921
920
924
927
931
927
928
927
925
930
932
935
936
936
944
952
961
973
984
993
1006
1019
1024
1028
1022
1015
1011
1009
1012
1019
1033
1048
1069
1095
1118
1129
1132
1125
1117
1099
1083
1065
1047
1028
1006
986
970
947
929
917
905
903
901
903
902
902
907
912
918
918
917
917
918
918
920
920
918
916
914
919
921
920
921
920
920
920
925
927
921
920
921
925
927
928
926
925
925
929
932
931
932
927
930
929
935
938
935
937
937
940
944
946
945
943
943
949
955
958
957
956
960
964
971
974
973
970
973
977
984
986
985
987
990
993
998
1001
1003
1003
1002
1007
1012
1012
1009
1006
1002
1002
1000
995
989
984
981
979
979
976
970
965
964
960
962
960
957
950
950
950
953
951
952
948
947
949
951
951
948
946
947
949
951
952
947
945
946
947
950
953
951
948
947
949
950
949
948
949
949
951
955
954
951
948
949
950
954
953
954
949
952
951
956
955
952
951
950
952
956
954
953
953
951
953
955
957
955
953
951
953
954
956
954
952
952
954
956
957
953
952
953
954
956
956
955
951
953
955
958
960
954
956
953
956
959
958
959
957
956
959
964
963
960
963
961
967
969
969
967
965
964
968
971
972
972
971
971
974
978
974
975
972
971
973
974
970
969
964
964
966
968
967
964
964
962
964
968
963
960
959
959
961
963
964
959
956
955
960
963
958
956
953
950
952
958
956
956
953
953
954
957
957
955
952
952
955
957
957
954
954
953
956
957
960
957
956
956
960
963
960
958
956
956
960
964
965
968
969
970
976
986
992
1002
1009
1025
1040
1055
1063
1061
1055
1048
1042
1039
1039
1040
1052
1070
1097
1122
1147
1163
1166
1168
1165
1154
1130
1110
1089
1071
1052
1033
1009
986
966
951
940
936
929
930
928
932
937
945
948
948
948
951
955
958
958
954
953
956
955
960
960
958
957
955
959
963
961
959
959
960
962
964
965
964
962
960
964
967
969
967
966
968
969
972
974
973
974
975
974
978
981
978
979
980
987
990
990
991
992
993
999
1005
1005
1005
1004
1008
1013
1017
1018
1018
1019
1021
1023
1028
1029
1030
1030
1032
1035
1039
1040
1043
1042
1042
1046
1048
1046
1044
1038
1033
1030
1031
1024
1022
1015
1009
1009
1009
1003
1001
996
994
993
995
992
989
985
984
987
984
986
982
978
979
980
985
983
978
977
979
979
981
981
978
976
974
976
978
979
979
978
975
977
979
979
977
976
975
978
980
980
979
976
976
977
980
981
980
976
975
978
982
982
979
977
975
977
979
978
978
975
973
975
978
980
978
976
975
978
980
979
978
974
974
976
982
980
978
973
972
975
978
979
975
974
973
975
979
978
976
975
973
975
979
982
979
975
975
976
979
982
982
978
980
981
984
985
985
985
985
987
991
993
993
990
990
993
995
995
991
989
988
988
990
988
985
979
979
982
985
984
979
976
976
976
978
977
978
973
969
971
974
976
975
971
969
971
971
972
971
967
966
967
969
971
971
967
967
966
969
969
968
967
964
969
969
971
969
969
967
970
974
976
975
975
975
980
990
998
1004
1012
1025
1039
1048
1055
1053
1047
1037
1031
1030
1029
1037
1050
1069
1090
1114
1130
1137
1136
1131
1120
1105
1083
1063
1041
1020
1001
983
963
942
926
917
915
916
913
913
916
919
926
935
937
939
938
936
941
944
943
943
941
942
943
945
947
942
940
942
944
947
946
946
946
942
947
951
951
948
947
948
952
956
953
951
952
954
954
960
959
960
958
962
965
968
968
971
966
971
974
980
983
982
982
984
989
995
997
997
995
998
1004
1011
1015
1012
1012
1015
1017
1023
1024
1024
1022
1023
1025
1029
1027
1024
1021
1021
1022
1020
1017
1011
1007
1000
998
998
994
988
982
977
977
977
974
968
967
965
965
967
964
961
956
960
960
962
959
957
955
954
957
958
958
954
952
950
953
956
956
954
950
953
953
955
956
952
950
949
954
953
954
954
951
949
951
952
951
951
948
949
953
957
955
951
947
950
952
953
953
951
949
949
952
956
954
951
951
952
955
954
954
952
948
949
949
955
951
951
948
948
949
953
953
953
949
950
951
955
951
952
949
948
950
954
954
952
950
948
952
956
955
954
952
952
955
958
961
959
954
958
959
960
961
961
958
961
963
966
966
964
961
957
960
963
960
959
955
955
957
960
956
956
954
953
954
958
954
953
949
949
949
950
950
946
946
946
946
951
952
949
950
946
949
953
952
949
947
944
946
951
950
949
946
949
948
951
953
952
951
950
953
957
959
955
953
952
955
959
960
957
954
955
959
965
966
967
967
971
980
987
994
999
1007
1015
1025
1036
1040
1037
1031
1021
1015
1010
1001
1001
1004
1014
1034
1057
1070
1079
1083
1084
1082
1073
1060
1045
1031
1017
1009
997
984
968
955
950
945
944
943
941
941
944
951
956
958
957
958
958
959
960
963
959
959
958
961
961
965
961
961
962
966
968
967
966
964
965
967
971
971
970
970
970
973
978
976
975
973
977
980
983
985
986
984
986
990
992
995
994
994
996
1001
1004
1004
1003
1004
1006
1011
1016
1019
1017
1017
1020
1023
1030
1031
1033
1034
1035
1040
1045
1043
1047
1047
1046
1053
1053
1055
1052
1049
1045
1044
1042
1037
1032
1026
1022
1022
1020
1015
1010
1009
1001
1003
1001
1000
997
991
992
995
992
992
990
987
985
987
986
988
987
982
982
983
984
983
983
979
981
982
984
984
980
979
978
982
985
981
982
977
980
983
987
984
982
981
983
984
985
986
983
984
983
985
985
986
985
982
983
985
987
987
985
984
984
985
987
986
983
980
981
982
986
987
984
979
980
979
985
986
983
980
979
981
983
982
979
977
978
978
980
983
979
977
978
978
980
981
979
977
975
977
978
978
976
975
975
980
983
981
982
982
982
985
987
988
982
984
985
989
991
994
991
990
990
993
994
994
988
989
985
986
984
984
984
980
979
981
983
982
980
976
974
975
979
976
975
970
967
971
976
977
974
972
972
973
977
974
970
969
967
972
975
974
973
969
968
970
975
973
971
971
970
973
977
977
974
972
973
977
977
979
977
977
978
980
985
987
989
993
1001
1011
1024
1035
1047
1057
1066
1074
1077
1069
1054
1051
1047
1057
1074
1095
1114
1130
1147
1162
1167
1161
1142
1119
1098
1083
1066
1044
1019
992
974
962
956
949
947
945
948
954
957
961
962
960
960
965
965
964
964
963
964
967
968
966
967
964
964
963
970
968
966
964
964
968
973
971
970
967
965
971
975
977
975
973
973
975
979
981
979
980
982
984
989
991
992
991
987
997
1001
1003
1005
1005
1005
1011
1015
1014
1013
1018
1019
1023
1026
1032
1031
1032
1036
1041
1047
1047
1048
1048
1049
1050
1052
1054
1047
1042
1039
1035
1037
1034
1027
1019
1013
1013
1012
1012
1006
1003
1001
999
1003
1001
997
995
993
994
995
994
992
989
987
990
994
992
990
988
988
990
994
991
989
989
988
991
992
993
991
990
989
993
993
993
995
991
988
994
996
995
993
991
992
991
995
992
993
992
990
992
992
992
993
989
986
989
995
996
990
991
991
992
995
995
993
988
990
993
995
994
991
990
992
992
994
995
991
991
990
991
995
997
993
993
993
994
995
994
993
991
990
991
993
995
988
989
987
989
991
995
992
991
990
996
1000
1002
1001
998
996
1001
1003
1003
1005
1002
1002
1005
1008
1008
1007
1005
1003
1003
1008
1007
1004
1002
1002
1003
1001
1000
999
996
995
995
996
998
993
992
991
994
995
992
990
987
989
990
993
992
989
989
986
987
990
990
987
984
983
985
989
991
989
984
984
989
990
989
988
986
986
989
990
992
991
987
987
989
995
996
993
991
992
996
1000
1003
1009
1009
1015
1024
1038
1053
1066
1077
1086
1091
1090
1082
1070
1063
1063
1075
1100
1126
1152
1171
1188
1200
1200
1186
1166
1139
1115
1096
1074
1046
1019
991
972
962
961
957
956
958
963
971
976
978
979
975
977
978
982
981
977
977
978
979
984
982
982
980
980
984
986
988
984
984
982
987
990
991
990
989
988
993
995
994
997
994
996
1000
1004
1002
1004
1003
1006
1007
1015
1016
1017
1015
1017
1023
1027
1031
1032
1032
1034
1037
1043
1045
1046
1049
1049
1054
1060
1056
1060
1061
1063
1067
1072
1071
1067
1066
1061
1059
1057
1051
1045
1039
1034
1031
1029
1024
1016
1012
1008
1006
1008
1007
1004
1000
999
996
999
1001
997
994
988
990
993
992
989
990
988
989
993
989
988
987
983
988
993
990
988
987
986
985
988
988
985
984
983
986
985
988
984
982
979
982
984
980
979
977
975
979
983
983
980
976
978
978
981
980
976
977
976
977
976
975
973
975
970
975
976
979
976
973
973
975
974
974
972
972
972
973
974
974
971
969
967
970
974
973
972
971
971
974
974
974
972
968
969
973
974
977
978
974
976
977
981
981
982
977
979
982
984
987
986
982
983
980
986
983
982
977
975
977
979
979
975
972
969
969
974
971
969
964
963
967
971
967
964
960
957
964
968
968
968
965
964
965
967
967
966
962
966
968
969
970
965
964
962
963
968
965
968
968
968
971
973
972
972
969
968
969
973
974
973
972
971
974
977
978
978
976
979
982
988
995
995
993
1004
1017
1029
1039
1048
1056
1063
1066
1068
1060
1049
1033
1023
1022
1026
1037
1048
1063
1086
1108
1124
1131
1132
1121
1113
1099
1087
1072
1056
1038
1019
1005
990
980
972
965
961
958
962
963
966
964
972
974
983
983
981
980
981
986
987
988
987
985
984
987
988
989
985
983
986
989
990
988
991
987
988
994
996
999
998
995
998
1000
1002
1003
1002
1002
1002
1004
1011
1012
1011
1011
1012
1016
1020
1022
1022
1021
1022
1024
1029
1030
1031
1032
1036
1037
1042
1044
1045
1044
1045
1049
1054
1056
1058
1057
1057
1063
1066
1068
1071
1072
1073
1078
1080
1082
1077
1078
1077
1079
1077
1072
1070
1060
1056
1056
1051
1047
1043
1037
1034
1033
1033
1031
1025
1021
1019
1017
1019
1020
1015
1011
1009
1010
1013
1012
1009
1005
1006
1005
1008
1009
1006
1003
1004
1006
1007
1008
1005
1003
1003
1004
1007
1009
1005
1004
1005
1003
1006
1006
1006
1003
1004
1005
1010
1009
1009
1005
1004
1007
1007
1010
1006
1005
1002
1005
1009
1009
1006
1002
1003
1006
1010
1008
1002
1002
1002
1004
1006
1004
1003
1003
1003
1003
1004
1006
1002
1000
1000
1000
1005
1005
1004
999
1001
1003
1006
1004
1003
999
998
999
1004
1006
1002
999
1001
1002
1004
1006
1003
998
1001
1005
1004
1010
1008
1006
1008
1011
1013
1013
1012
1010
1009
1014
1015
1018
1019
1016
1015
1018
1020
1017
1015
1009
1010
1012
1014
1013
1010
1005
1002
1005
1007
1007
1008
1003
1000
1002
1005
1000
997
1000
998
997
999
999
998
996
997
999
999
998
996
992
993
997
996
998
996
994
992
995
998
999
997
996
996
996
1000
999
997
997
995
997
999
999
998
998
998
1000
1002
1004
1003
999
997
1003
1008
1011
1010
1013
1020
1028
1040
1050
1062
1072
1088
1095
1104
1105
1100
1090
1085
1082
1080
1091
1101
1120
1142
1167
1189
1202
1205
1202
1195
1180
1161
1144
1127
1105
1082
1060
1035
1019
995
981
970
966
968
967
968
969
971
977
983
986
989
984
985
985
988
990
986
984
986
988
992
990
989
988
987
991
993
993
992
990
990
992
995
996
996
993
993
997
998
998
998
997
996
1002
1004
1007
1006
1004
1001
1008
1011
1013
1012
1010
1012
1013
1018
1021
1022
1017
1021
1027
1028
1032
1031
1034
1037
1040
1045
1048
1049
1045
1050
1055
1055
1060
1061
1062
1065
1070
1074
1074
1075
1074
1075
1078
1079
1078
1072
1067
1062
1060
1060
1055
1053
1041
1040
1039
1041
1033
1027
1023
1023
1024
1024
1023
1018
1015
1013
1016
1017
1014
1011
1010
1007
1010
1010
1009
1009
1008
1007
1008
1011
1010
1004
1002
1004
1006
1009
1010
1007
1004
1004
1007
1008
1009
1006
1000
1003
1006
1007
1010
1006
1003
1002
1004
1006
1006
1004
1001
1001
1005
1006
1007
1001
1002
1001
1005
1004
1003
1003
1000
1000
1003
1004
1005
1003
1001
999
1001
1003
1001
1002
1001
1001
1001
1000
1004
1004
1000
999
1000
1001
1000
999
998
998
997
999
1000
1000
999
998
999
1002
1004
1002
998
1000
1001
1003
1001
1001
995
999
1001
1006
1005
1004
1007
1008
1012
1014
1014
1013
1010
1010
1013
1016
1015
1015
1014
1014
1010
1017
1017
1011
1007
1008
1010
1012
1013
1009
1004
1002
1005
1005
1006
1004
1001
1000
999
1004
998
1001
997
996
998
1002
1003
1004
1000
1001
1002
1002
998
997
991
987
987
991
988
984
983
981
986
990
991
986
984
987
990
994
995
991
993
990
994
993
992
990
988
989
993
1000
1004
1004
1003
1008
1014
1021
1027
1033
1028
1026
1022
1023
1030
1047
1059
1073
1084
1090
1084
1080
1070
1064
1066
1080
1095
1115
1136
1157
1183
1199
1203
1203
1189
1167
1151
1136
1117
1095
1070
1046
1022
1004
991
978
966
956
958
963
963
966
961
968
972
979
981
982
981
979
985
989
988
989
986
985
987
990
990
989
987
987
987
991
990
990
984
984
991
993
995
992
992
992
994
1003
1001
1001
999
1000
1004
1011
1008
1009
1009
1010
1012
1014
1017
1021
1019
1020
1024
1029
1029
1030
1029
1032
1035
1040
1044
1042
1043
1046
1052
1054
1061
1059
1056
1055
1062
1064
1070
1073
1073
1074
1078
1079
1078
1076
1073
1072
1078
1081
1078
1077
1071
1067
1063
1063
1057
1051
1041
1036
1035
1034
1031
1029
1023
1020
1021
1028
1026
1023
1019
1020
1017
1017
1015
1011
1008
1005
1004
1006
1008
1006
1006
1005
1005
1006
1010
1008
1004
1005
1005
1010
1009
1006
1006
1003
1008
1010
1009
1006
1002
1005
1008
1010
1009
1008
1006
1005
1007
1009
1010
1008
1005
1004
1007
1009
1014
1010
1010
1006
1007
1013
1011
1007
1004
1005
1005
1007
1009
1007
1003
1005
1008
1010
1009
1009
1007
1009
1007
1011
1009
1005
999
997
1001
1006
1005
1004
1001
1002
1006
1007
1006
1001
1000
1000
1005
1008
1007
1005
1001
999
1000
1001
1004
1004
1005
1007
1010
1012
1012
1011
1009
1013
1017
1020
1022
1019
1017
1016
1014
1017
1016
1013
1008
1004
1004
1008
1003
1005
1003
1006
1007
1010
1009
1005
999
996
999
998
996
996
995
997
999
1003
1000
1002
997
998
1001
999
1000
998
992
987
986
990
994
995
993
993
996
999
999
998
995
994
998
1001
1002
1001
999
1000
1002
1006
1003
1004
1003
1002
1006
1006
1011
1013
1015
1020
1027
1043
1054
1069
1080
1090
1098
1101
1096
1087
1076
1066
1055
1054
1063
1083
1107
1136
1158
1177
1187
1192
1185
1167
1148
1128
1112
1089
1063
1041
1020
1000
988
972
961
952
951
957
963
964
970
975
984
989
990
991
989
992
989
990
992
993
1000
1003
1004
1000
997
993
992
991
993
994
992
988
980
982
986
993
993
993
991
994
999
1000
1005
1004
1005
1003
1008
1013
1013
1014
1009
1010
1014
1015
1019
1020
1023
1025
1029
1033
1035
1037
1036
1038
1045
1047
1049
1050
1052
1053
1059
1061
1062
1061
1061
1065
1069
1075
1078
1078
1078
1082
1081
1085
1083
1087
1083
1080
1077
1075
1074
1066
1059
1054
1046
1044
1041
1036
1028
1026
1030
1029
1028
1023
1020
1015
1016
1017
1017
1011
1009
1011
1011
1012
1009
1002
992
988
991
998
1003
1003
1002
999
996
994
993
994
993
994
999
1001
1002
1000
995
991
996
999
998
997
993
995
995
1000
999
997
992
991
991
993
993
990
989
989
994
995
999
995
992
991
996
998
999
998
995
992
993
997
998
997
997
995
997
996
998
995
990
990
987
991
995
992
990
989
992
991
993
991
987
986
988
989
992
989
987
987
989
995
994
991
990
989
989
995
992
993
993
992
996
1003
1002
1003
999
1001
1002
1007
1006
1008
1005
1005
1007
1012
1010
1008
1008
1006
1007
1011
1011
1010
1003
1000
1000
1002
1004
1002
996
999
1001
1001
999
997
995
995
995
994
987
984
980
983
983
988
986
982
984
982
984
990
987
986
982
982
985
988
991
985
982
982
986
987
987
990
986
985
990
991
993
992
992
995
998
993
992
983
974
972
981
994
1003
1012
1019
1030
1043
1056
1063
1065
1059
1053
1037
1025
1008
1005
1011
1031
1059
1091
1116
1134
1144
1140
1136
1116
1091
1065
1039
1012
991
972
954
942
932
934
935
942
943
952
953
960
966
970
971
971
970
970
974
974
981
979
978
978
979
980
974
971
969
969
975
982
984
982
979
978
985
987
990
991
988
988
991
994
998
997
995
999
1003
1006
1008
1008
1008
1007
1011
1017
1017
1017
1020
1023
1028
1035
1036
1036
1036
1038
1040
1049
1056
1056
1055
1055
1060
1064
1067
1065
1064
1065
1069
1073
1074
1070
1070
1069
1069
1067
1061
1055
1048
1046
1042
1041
1038
1035
1027
1022
1017
1018
1016
1012
1009
1002
1003
1007
1005
1003
999
998
998
998
999
996
994
993
995
995
995
992
990
990
992
994
997
993
988
991
993
996
1000
995
990
991
990
993
996
994
992
992
995
996
995
992
992
991
992
994
999
996
989
990
992
995
991
993
990
991
991
992
993
993
991
990
989
992
992
990
987
986
989
991
992
988
987
986
990
993
992
995
989
988
990
994
994
989
988
985
986
992
989
991
989
990
992
996
998
999
995
995
995
999
998
1001
999
1001
1001
1007
1005
1007
1001
998
998
1000
1002
999
995
993
993
996
998
992
989
991
992
992
992
987
984
982
984
985
987
983
981
984
985
988
985
983
982
981
982
983
985
982
983
979
981
979
985
983
981
981
982
985
984
986
984
984
984
988
990
987
982
983
986
990
993
990
990
990
999
1008
1013
1018
1024
1036
1056
1072
1082
1086
1082
1074
1060
1046
1032
1024
1026
1044
1066
1095
1117
1133
1136
1135
1127
1113
1096
1077
1057
1040
1023
1009
992
979
968
961
958
958
966
968
969
974
977
982
984
983
981
976
982
986
989
989
986
982
984
988
990
986
987
986
988
992
989
991
988
989
990
995
994
994
993
994
998
1004
1005
1006
1005
1007
1011
1017
1017
