1005
1001
1000
1003
1012
1019
1018
1013
1009
1005
1011
1012
1013
1008
1004
1003
1009
1010
1010
1009
1009
1011
1010
1014
1014
1017
1013
1011
1006
1003
1007
1010
1010
1008
1009
1016
1020
1020
1018
1016
1013
1015
1015
1016
1015
1017
1019
1025
1024
1022
1019
1021
1025
1028
1027
1024
1027
1023
1024
1022
1017
1014
1009
1008
1013
1013
1012
1006
1004
1008
1014
1012
1012
1005
999
995
1000
1003
1005
1001
1000
1000
1005
1002
998
996
995
998
1005
1010
1006
1001
995
993
993
995
998
995
996
997
1005
1008
1006
1001
994
991
995
1002
1006
1003
998
995
999
1000
1004
1002
1002
998
999
1003
1009
1015
1021
1027
1033
1044
1052
1063
1071
1080
1089
1090
1079
1062
1040
1030
1029
1041
1059
1080
1104
1127
1148
1164
1167
1161
1148
1127
1117
1107
1093
1076
1057
1036
1016
999
982
969
958
950
953
956
960
964
973
982
989
992
991
987
977
977
980
986
995
993
989
987
987
990
987
987
986
989
992
994
996
992
991
993
996
998
999
994
993
1001
1006
1010
1008
1003
999
1000
1005
1012
1013
1014
1012
1012
1016
1022
1020
1022
1020
1021
1024
1031
1036
1036
1038
1036
1036
1035
1036
1036
1038
1042
1045
1049
1053
1054
1053
1057
1061
1066
1068
1069
1070
1071
1078
1079
1077
1070
1067
1064
1064
1063
1059
1049
1042
1035
1034
1033
1029
1020
1016
1017
1012
1016
1013
1007
1003
999
998
999
998
998
995
992
995
1000
1001
996
991
992
992
998
995
994
993
997
995
996
992
991
989
990
993
998
997
994
990
992
989
988
983
979
979
985
992
993
990
990
986
987
988
990
989
986
986
984
986
989
984
982
978
982
982
985
984
981
977
982
985
986
984
981
979
977
978
976
974
971
967
970
974
977
976
971
973
973
972
977
976
973
971
974
977
977
977
973
971
972
976
976
978
980
976
978
976
975
973
969
971
973
980
986
984
979
980
981
983
984
979
977
975
975
977
978
978
976
971
967
967
968
963
961
959
957
958
965
962
960
955
955
956
958
959
956
951
951
950
950
951
949
946
948
951
955
954
952
948
945
945
947
948
947
945
945
945
945
947
946
947
946
944
945
945
943
943
943
945
950
951
952
954
963
971
981
993
1000
1008
1017
1021
1024
1012
998
973
955
943
943
957
975
1004
1036
1066
1086
1094
1090
1082
1068
1051
1031
1008
983
961
945
928
919
909
900
894
891
886
887
887
887
894
897
909
912
909
912
911
913
917
920
919
918
914
918
921
925
921
913
911
910
914
919
917
917
916
919
922
925
923
921
922
929
932
932
928
926
925
924
928
934
934
936
935
937
940
944
947
947
947
950
953
957
959
959
960
965
975
979
983
976
972
977
976
982
983
987
988
996
1003
1011
1011
1010
1006
1005
1009
1011
1006
1001
994
991
992
993
989
984
976
970
965
957
957
951
949
946
946
947
945
940
936
934
939
948
951
955
950
948
940
937
937
938
937
931
924
917
916
917
919
922
926
927
931
932
929
930
934
939
938
936
930
933
939
945
947
948
947
943
943
939
933
926
925
931
933
932
933
931
932
934
936
940
935
931
929
926
932
935
933
931
931
936
941
942
943
938
932
927
924
927
932
931
929
930
935
936
935
932
931
933
936
936
936
935
931
935
938
944
943
944
942
944
949
951
953
951
944
950
948
952
951
950
947
948
952
954
951
947
945
946
948
949
950
942
940
940
941
943
942
937
940
938
940
943
943
940
939
939
940
943
943
935
936
932
931
935
933
933
932
937
940
941
940
938
932
934
940
938
935
938
934
938
942
943
943
938
939
940
945
947
946
945
943
947
955
963
965
969
975
987
1003
1016
1028
1035
1039
1037
1034
1026
1011
1000
996
1000
1011
1028
1046
1065
1079
1095
1102
1107
1097
1082
1065
1049
1041
1024
1006
981
958
939
928
921
915
909
907
913
919
923
922
920
919
921
924
930
930
926
928
927
928
931
929
921
922
926
930
933
931
927
927
927
930
932
935
931
926
933
938
941
939
937
935
939
940
945
942
942
945
945
950
954
954
956
953
957
959
969
967
969
969
969
975
982
984
985
986
989
993
996
996
997
996
999
1006
1010
1013
1015
1016
1019
1023
1030
1031
1030
1029
1029
1031
1032
1026
1021
1009
1005
1006
1004
999
994
986
982
982
979
977
971
968
967
967
967
967
961
959
959
961
963
964
958
958
959
962
962
961
960
956
955
958
960
960
957
954
955
956
959
957
957
957
957
960
962
963
960
960
960
965
968
966
962
966
962
961
966
960
955
951
958
961
964
962
957
959
959
960
964
961
959
958
957
961
964
960
957
955
959
958
961
961
956
957
954
955
956
956
952
952
953
954
956
956
950
951
950
952
951
950
951
948
948
955
960
957
958
956
957
961
960
962
962
960
962
965
965
969
963
962
959
962
961
960
956
949
953
952
956
954
951
944
944
947
949
949
947
942
939
940
941
946
942
941
939
940
941
941
937
934
934
939
939
941
940
937
938
942
945
945
939
933
932
936
938
939
935
934
934
935
944
944
941
943
943
948
956
961
964
971
982
999
1014
1023
1030
1035
1038
1033
1026
1013
999
991
998
1017
1042
1062
1084
1097
1107
1116
1116
1103
1078
1058
1043
1034
1022
1004
978
955
935
923
915
906
898
895
894
902
909
913
916
916
920
924
926
926
924
920
924
927
930
931
926
922
925
929
935
938
935
928
922
923
925
925
927
928
934
941
946
946
938
930
929
931
934
933
930
927
928
935
942
945
946
944
947
952
960
959
960
962
966
972
981
982
976
966
964
970
974
980
979
976
978
981
984
982
980
982
989
998
1009
1014
1019
1022
1020
1015
1010
1003
997
997
1001
1006
1004
996
980
973
967
972
976
973
966
958
958
958
958
956
952
948
947
950
950
946
945
941
941
945
948
949
944
941
937
938
939
940
935
931
931
932
935
937
935
935
936
938
942
939
938
936
937
942
944
944
940
938
941
944
950
945
944
940
934
934
936
933
929
928
927
931
932
935
933
931
932
933
936
935
934
931
935
940
944
943
936
925
923
926
932
933
932
927
928
928
930
925
923
923
926
932
934
929
924
923
924
925
928
926
922
919
918
921
923
926
924
925
927
926
927
928
926
927
931
931
934
935
935
930
933
936
938
937
935
936
939
942
947
942
940
935
936
941
941
937
935
931
929
930
931
928
926
924
921
922
926
927
920
920
922
922
921
918
916
915
919
922
922
921
918
916
914
915
919
918
915
911
912
916
919
918
917
913
915
919
920
918
919
913
915
918
918
914
911
912
912
918
920
922
919
917
917
920
925
925
930
931
938
947
957
970
982
995
1006
1018
1025
1021
1006
988
980
977
986
1001
1021
1044
1072
1098
1117
1128
1126
1113
1095
1077
1063
1043
1023
998
975
950
930
912
899
889
881
882
885
886
890
893
899
903
912
914
909
908
907
905
911
912
914
909
907
912
917
917
916
913
916
918
916
916
916
916
914
919
922
921
922
919
918
922
921
927
927
927
927
931
932
930
933
932
933
936
940
941
940
940
942
949
951
952
954
953
958
963
967
969
969
966
973
978
984
984
981
983
984
990
994
993
995
999
1001
1005
1013
1013
1011
1009
1010
1013
1013
1011
1009
1002
1000
998
998
993
985
980
975
973
971
967
963
957
956
955
955
954
948
944
948
950
951
949
945
946
945
949
948
949
946
945
943
946
947
944
942
940
942
947
948
945
945
944
945
945
951
951
951
949
944
950
953
951
949
949
946
948
951
951
945
944
945
947
949
949
947
945
947
949
949
945
944
941
942
946
948
948
944
941
942
945
946
946
944
942
940
944
948
947
944
943
943
947
948
947
947
941
943
946
947
948
946
941
945
947
949
948
946
944
945
948
947
948
945
942
943
946
949
951
951
951
949
952
958
957
955
955
954
958
963
963
962
961
962
964
968
965
962
955
960
962
965
963
958
955
951
953
956
953
953
950
951
953
952
952
950
948
949
951
950
945
942
940
945
947
949
948
944
941
942
943
946
942
939
939
942
943
946
941
940
939
939
942
943
940
938
937
935
938
942
940
939
937
936
942
944
939
940
939
942
944
948
954
956
955
964
976
990
1001
1010
1016
1025
1024
1022
1006
989
972
966
972
988
1012
1037
1065
1092
1114
1127
1129
1115
1094
1072
1056
1040
1020
996
967
942
921
909
902
890
886
885
889
897
903
908
913
920
928
933
933
931
929
931
933
936
938
934
931
933
938
941
942
940
937
939
939
946
946
946
945
943
949
954
952
951
951
952
957
959
960
960
959
958
964
969
971
969
969
971
975
979
980
981
980
984
987
992
994
993
994
998
1004
1010
1010
1011
1012
1014
1019
1021
1025
1025
1025
1026
1031
1034
1035
1037
1034
1035
1037
1044
1041
1040
1035
1037
1039
1037
1035
1027
1020
1014
1010
1011
1007
1001
994
991
990
991
984
978
974
970
969
969
967
966
965
963
965
965
963
960
959
956
957
960
960
958
954
956
958
961
959
959
955
955
956
958
958
953
954
954
957
960
959
957
955
955
960
961
958
957
957
954
958
957
954
955
951
952
955
958
958
955
952
949
953
956
954
952
949
950
952
952
951
950
948
948
951
952
951
947
944
944
946
946
946
944
942
943
946
945
945
942
935
940
944
944
944
940
938
938
941
942
943
939
935
935
937
940
939
937
935
937
937
937
936
939
937
939
941
946
948
944
943
944
945
947
949
947
947
949
953
957
954
949
949
945
946
949
946
947
942
941
942
946
942
937
934
935
933
935
936
932
928
929
934
935
929
927
924
925
930
930
930
927
925
925
925
929
927
923
922
922
924
927
929
923
918
918
920
924
928
927
922
922
925
929
929
926
926
927
925
928
927
926
924
924
931
934
934
934
935
940
949
962
970
982
993
1008
1021
1029
1027
1015
997
978
965
963
974
996
1027
1058
1086
1106
1114
1107
1094
1077
1059
1040
1019
992
965
944
929
917
907
897
892
892
897
906
910
913
912
914
920
924
925
922
919
919
922
926
926
924
924
927
930
931
931
924
925
928
932
932
933
931
932
932
937
940
940
938
936
940
946
949
953
949
950
951
959
964
962
962
963
970
974
979
986
988
989
992
995
1001
1007
1009
1010
1010
1020
1026
1032
1034
1034
1036
1041
1041
1041
1038
1034
1034
1030
1030
1023
1015
1006
1007
1001
1002
998
995
988
986
984
986
982
975
971
970
972
974
972
972
970
971
974
975
971
966
964
962
965
972
972
974
974
976
978
979
973
971
970
971
974
982
984
984
982
979
976
977
973
975
978
980
981
984
984
983
980
984
986
988
988
986
983
984
985
988
990
988
987
987
992
993
993
989
987
984
986
990
991
990
989
992
998
1002
997
994
986
986
985
991
995
993
992
991
995
999
997
996
995
996
993
1000
999
997
995
998
999
1002
1003
1003
1000
1003
1006
1011
1008
1008
1007
1007
1012
1019
1020
1020
1017
1015
1016
1015
1010
1011
1008
1009
1010
1013
1012
1007
1004
1004
1004
1006
1005
1003
998
998
1000
1004
1003
1000
995
994
994
998
1000
997
996
998
997
997
994
993
992
993
995
997
998
993
992
994
996
1000
999
996
994
992
994
1000
997
991
992
992
997
997
997
994
990
994
999
1002
1004
1000
1002
1006
1013
1019
1024
1033
1044
1063
1083
1103
1112
1116
1109
1100
1090
1080
1072
1073
1085
1105
1134
1161
1180
1192
1195
1190
1178
1163
1147
1133
1118
1102
1086
1067
1043
1017
999
986
979
973
969
969
969
973
980
987
987
984
984
984
987
991
989
986
984
983
988
992
991
988
985
987
990
991
990
986
986
986
990
991
992
992
988
989
989
996
994
994
993
996
999
1003
1001
1003
1001
1003
1005
1011
1009
1009
1009
1012
1016
1021
1021
1021
1021
1024
1025
1031
1033
1034
1034
1035
1042
1047
1048
1046
1045
1048
1053
1061
1063
1063
1065
1070
1075
1078
1080
1076
1076
1074
1072
1070
1066
1061
1052
1048
1048
1047
1041
1035
1029
1023
1024
1024
1021
1016
1013
1011
1011
1015
1014
1012
1009
1005
1006
1011
1010
1006
1005
1006
1008
1010
1009
1008
1006
1006
1009
1011
1011
1009
1007
1008
1009
1013
1012
1007
1010
1011
1011
1012
1013
1014
1011
1012
1011
1017
1012
1010
1009
1012
1012
1015
1014
1013
1010
1009
1014
1015
1014
1013
1009
1009
1015
1017
1017
1013
1009
1009
1012
1015
1012
1011
1009
1009
1010
1015
1011
1009
1008
1007
1008
1012
1013
1013
1007
1008
1013
1014
1012
1009
1006
1009
1011
1012
1013
1011
1009
1008
1010
1016
1019
1017
1016
1018
1020
1023
1022
1019
1016
1020
1025
1029
1027
1025
1025
1026
1025
1026
1026
1022
1019
1020
1021
1018
1017
1016
1007
1011
1012
1013
1012
1013
1009
1007
1006
1012
1010
1005
998
1002
1005
1010
1010
1005
1003
1004
1006
1007
1006
1002
1000
1000
1004
1006
1004
1003
1003
1002
1003
1007
1007
1004
1002
1001
1001
1008
1007
1004
1001
1001
1006
1008
1008
1006
1005
1010
1014
1023
1029
1034
1044
1065
1084
1104
1115
1117
1112
1104
1093
1078
1073
1076
1089
1111
1144
1176
1197
1209
1215
1209
1195
1177
1156
1133
1118
1095
1074
1049
1022
1000
984
975
970
969
970
969
972
978
985
993
995
992
990
992
995
998
995
992
992
995
997
999
997
997
997
995
999
1001
1003
1003
998
1000
1005
1009
1007
1008
1008
1007
1010
1012
1015
1010
1010
1009
1013
1021
1023
1021
1018
1022
1026
1032
1032
1033
1031
1034
1039
1041
1046
1047
1047
1048
1053
1058
1061
1060
1060
1064
1069
1075
1077
1077
1076
1081
1083
1089
1090
1090
1089
1092
1098
1104
1102
1101
1093
1088
1086
1080
1075
1068
1065
1059
1057
1059
1052
1050
1045
1043
1043
1043
1040
1040
1035
1033
1030
1030
1030
1030
1027
1022
1026
1031
1030
1029
1025
1029
1027
1029
1026
1024
1025
1026
1031
1035
1033
1030
1025
1026
1031
1031
1028
1027
1026
1030
1032
1034
1034
1031
1029
1027
1029
1028
1025
1024
1023
1024
1028
1033
1033
1031
1030
1030
1034
1035
1031
1028
1021
1023
1026
1031
1031
1031
1027
1026
1028
1030
1031
1029
1023
1023
1027
1031
1030
1025
1022
1020
1022
1026
1025
1025
1024
1024
1026
1026
1025
1023
1024
1023
1024
1025
1025
1026
1027
1030
1035
1037
1038
1037
1034
1036
1036
1037
1038
1037
1035
1037
1039
1042
1042
1041
1037
1037
1038
1040
1039
1036
1032
1031
1031
1033
1031
1026
1026
1024
1023
1031
1028
1024
1021
1020
1021
1021
1021
1019
1016
1018
1020
1023
1020
1018
1016
1016
1021
1022
1021
1017
1014
1013
1017
1021
1020
1020
1019
1019
1020
1021
1018
1016
1014
1016
1021
1025
1024
1021
1014
1018
1019
1021
1021
1021
1021
1024
1029
1037
1038
1044
1046
1049
1060
1073
1081
1087
1089
1089
1086
1076
1058
1039
1034
1044
1069
1099
1128
1155
1176
1187
1193
1191
1174
1150
1129
1113
1099
1077
1054
1027
1008
994
987
982
981
979
978
980
990
995
999
1003
1008
1010
1014
1016
1013
1010
1006
1010
1017
1025
1026
1026
1024
1026
1030
1037
1038
1034
1026
1020
1021
1025
1028
1031
1029
1033
1035
1039
1039
1035
1032
1032
1036
1045
1047
1051
1054
1058
1065
1071
1066
1059
1051
1054
1061
1072
1068
1071
1072
1076
1082
1087
1088
1089
1094
1096
1101
1109
1109
1105
1101
1104
1111
1115
1116
1110
1108
1112
1122
1131
1133
1133
1130
1130
1132
1133
1126
1117
1107
1103
1101
1100
1097
1089
1084
1083
1081
1076
1068
1062
1057
1058
1062
1063
1059
1053
1047
1044
1045
1042
1043
1043
1041
1043
1040
1044
1044
1044
1044
1040
1037
1039
1043
1040
1041
1041
1042
1044
1045
1047
1040
1031
1031
1034
1037
1035
1033
1033
1039
1042
1044
1045
1042
1034
1036
1040
1037
1034
1033
1037
1043
1043
1039
1037
1037
1038
1038
1038
1034
1030
1028
1028
1032
1037
1034
1029
1025
1025
1028
1035
1033
1032
1032
1031
1037
1043
1037
1026
1019
1019
1025
1028
1028
1022
1024
1027
1027
1031
1029
1026
1020
1024
1027
1037
1036
1036
1034
1035
1036
1041
1041
1037
1032
1034
1037
1043
1043
1039
1035
1034
1040
1043
1039
1031
1024
1020
1023
1028
1026
1025
1023
1023
1026
1029
1025
1024
1018
1017
1015
1017
1019
1018
1015
1019
1019
1023
1022
1017
1009
1007
1008
1013
1013
1011
1007
1012
1018
1023
1018
1013
1006
1003
1009
1013
1019
1015
1011
1010
1013
1014
1015
1015
1008
1010
1013
1018
1019
1024
1026
1024
1028
1031
1032
1041
1046
1064
1079
1089
1094
1088
1075
1056
1039
1033
1032
1041
1051
1083
1115
1148
1170
1181
1180
1169
1152
1132
1116
1097
1077
1054
1036
1017
995
977
964
958
958
959
962
969
977
989
1002
1009
1009
1008
1007
1007
1012
1012
1010
1008
1010
1013
1017
1019
1020
1018
1018
1016
1024
1026
1025
1025
1026
1026
1029
1028
1024
1022
1024
1029
1034
1038
1039
1038
1036
1037
1034
1043
1044
1047
1051
1054
1059
1064
1068
1068
1067
1067
1071
1074
1071
1066
1071
1078
1085
1092
1096
1097
1099
1099
1100
1104
1100
1105
1102
1101
1105
1116
1117
1118
1115
1114
1115
1120
1111
1109
1109
1110
1108
1112
1104
1100
1093
1085
1083
1079
1076
1073
1068
1059
1053
1042
1039
1037
1036
1040
1043
1043
1027
1019
1008
1010
1016
1023
1025
1023
1017
1017
1019
1023
1022
1019
1017
1013
1015
1020
1018
1018
1016
1016
1016
1019
1017
1014
1011
1014
1023
1024
1020
1011
1001
1000
1003
1007
1007
1006
1007
1008
1010
1013
1012
1009
1007
1008
1009
1011
1010
1006
1002
1004
1007
1011
1008
1005
1001
1002
1003
1008
1007
1001
1001
1000
1001
1005
1001
1001
996
999
1001
999
998
992
992
993
996
999
994
993
990
991
989
996
995
992
991
986
989
991
991
986
981
986
989
992
993
993
991
992
993
997
994
993
991
993
995
999
1000
997
997
997
1000
1002
999
995
992
990
993
996
993
991
987
981
985
985
985
982
981
977
980
980
979
977
978
974
974
975
973
974
973
972
973
975
973
970
968
967
968
971
970
968
966
961
967
971
972
967
965
964
968
973
968
966
963
963
965
971
967
967
962
967
967
970
971
970
969
973
977
981
982
987
991
999
1013
1030
1044
1058
1067
1073
1078
1078
1061
1039
1013
988
982
990
1007
1030
1053
1078
1099
1118
1127
1124
1109
1093
1076
1064
1050
1027
1005
986
970
959
