1007
1011
1017
1017
1016
1014
1016
1020
1024
1026
1025
1028
1028
1036
1036
1039
1039
1041
1043
1047
1054
1053
1053
1056
1058
1063
1067
1069
1067
1064
1065
1067
1068
1062
1057
1048
1047
1043
1042
1036
1031
1022
1021
1020
1017
1012
1007
1008
1006
1008
1009
1006
1000
999
998
1002
1002
999
999
996
994
997
997
1000
994
995
992
995
999
993
994
993
995
997
999
998
998
996
997
1001
1001
1002
997
997
999
1002
1004
1004
1001
997
998
1002
1002
1002
1000
1000
1002
1003
1003
1005
999
997
998
1000
1002
1001
997
997
992
1001
1001
1002
999
996
995
997
1002
999
996
992
994
998
999
999
996
992
995
998
999
997
995
992
995
995
998
993
994
994
992
998
999
996
996
994
996
1001
1004
1003
1003
1002
1004
1004
1006
1007
1006
1005
1008
1012
1015
1014
1010
1010
1010
1011
1011
1011
1007
1003
1003
1002
1005
1001
1000
997
997
998
998
995
994
988
991
992
995
994
990
986
987
986
993
992
988
985
984
985
985
987
981
981
983
987
987
986
984
981
984
985
989
986
984
984
979
984
988
986
987
984
983
984
989
990
987
984
989
992
993
991
990
987
991
998
1003
1005
1010
1017
1034
1051
1073
1087
1091
1088
1085
1075
1065
1053
1046
1049
1063
1087
1111
1140
1161
1179
1194
1202
1197
1180
1156
1132
1117
1105
1087
1065
1038
1011
989
971
962
951
943
941
945
954
965
971
971
969
974
976
979
979
978
977
977
981
983
982
980
979
979
982
982
980
981
981
983
986
988
986
984
985
986
987
992
987
985
987
990
994
994
992
992
995
996
1000
1006
1005
1006
1003
1007
1011
1014
1016
1011
1014
1017
1021
1026
1027
1026
1027
1030
1036
1042
1043
1043
1043
1046
1050
1055
1059
1057
1058
1061
1065
1071
1073
1072
1070
1069
1067
1067
1064
1057
1051
1044
1043
1040
1034
1028
1021
1018
1020
1018
1016
1011
1006
1006
1009
1010
1007
999
1003
1000
1004
1004
1004
1001
996
998
1001
1004
1002
999
997
996
998
1002
1002
1001
998
999
999
1004
1001
1000
999
998
1002
1002
1002
1001
999
1000
1000
1002
1002
997
996
996
1001
1000
1001
1000
997
995
999
1001
1000
998
996
997
999
1002
997
998
993
993
1000
1000
1001
997
994
993
998
1000
997
996
994
993
996
1000
1000
995
993
993
994
999
996
992
991
990
992
997
995
993
990
991
992
994
995
996
996
998
1000
1004
1002
1001
997
999
1002
1009
1008
1007
1005
1006
1007
1009
1006
1004
999
1001
1000
999
1001
996
993
992
992
994
993
991
987
985
990
992
990
983
981
980
981
981
983
981
977
977
973
980
977
974
973
973
976
976
976
974
971
973
973
975
975
972
969
969
970
974
972
968
971
970
972
972
969
970
967
968
973
975
971
972
968
970
976
978
982
984
992
1004
1022
1039
1052
1055
1055
1051
1039
1021
998
984
978
992
1017
1042
1073
1096
1114
1127
1135
1128
1109
1083
1056
1031
1014
997
976
952
934
921
912
909
905
903
904
910
923
934
939
941
942
944
949
951
949
944
943
945
950
953
952
948
945
948
950
951
949
955
953
954
956
956
954
952
953
954
958
961
961
960
958
961
966
970
971
967
970
969
974
978
980
980
976
980
984
990
992
992
990
995
1003
1008
1006
1008
1009
1012
1017
1021
1022
1023
1022
1025
1026
1031
1031
1033
1033
1035
1039
1043
1038
1031
1024
1021
1022
1019
1013
1004
998
993
992
990
986
977
973
974
975
973
969
967
962
964
964
965
962
961
959
958
961
964
963
960
955
958
961
962
962
960
957
958
961
965
965
963
957
962
964
965
965
965
959
961
963
966
965
963
961
964
966
970
968
965
966
965
966
972
966
970
966
967
968
970
971
967
966
970
972
975
975
972
971
970
972
977
975
973
969
971
973
977
978
974
973
974
976
980
974
975
973
973
974
979
980
981
980
981
985
988
987
986
984
986
990
995
996
996
995
994
994
996
995
990
989
989
991
993
990
987
984
982
982
986
985
984
978
979
981
981
981
978
973
971
972
979
977
977
973
973
974
975
976
974
971
971
973
976
971
972
970
970
973
975
973
970
969
970
972
975
974
973
969
971
972
975
975
971
971
971
973
974
974
973
974
976
980
987
992
995
997
1013
1028
1048
1062
1065
1065
1060
1053
1040
1025
1017
1020
1037
1061
1087
1113
1134
1149
1159
1161
1147
1127
1103
1086
1069
1057
1037
1012
986
963
949
940
934
926
926
928
936
943
953
956
961
958
959
960
963
961
960
958
959
961
963
963
964
960
960
963
967
965
963
961
962
966
970
966
968
967
970
973
974
975
973
971
973
975
979
981
979
979
983
986
989
989
990
991
989
993
1002
1006
1005
1001
1006
1012
1018
1018
1018
1018
1022
1027
1030
1031
1032
1031
1033
1041
1045
1047
1045
1044
1046
1046
1048
1039
1033
1026
1022
1019
1016
1008
1000
993
992
992
992
987
984
976
975
973
976
975
968
964
964
967
968
966
963
961
957
957
963
963
959
958
957
960
961
961
959
955
957
959
965
962
956
957
957
961
964
964
962
959
960
960
963
962
958
956
955
957
960
960
957
954
953
957
959
959
954
952
954
956
958
956
953
953
952
951
953
956
953
951
951
955
959
954
954
952
954
954
958
957
956
955
954
955
960
959
959
956
955
960
964
965
966
963
963
968
972
969
969
968
971
973
978
980
979
976
977
977
980
978
973
971
970
974
977
976
970
968
969
970
973
972
969
964
966
968
968
969
964
961
961
965
966
970
966
963
965
964
964
966
964
961
962
965
968
965
966
963
964
965
969
968
965
964
964
967
971
969
967
965
965
967
970
970
967
965
962
967
972
972
970
968
969
973
975
977
978
983
987
993
1005
1016
1026
1036
1049
1061
1068
1069
1060
1047
1035
1024
1019
1021
1028
1042
1069
1096
1122
1141
1150
1147
1138
1120
1105
1085
1065
1047
1028
1008
991
970
950
936
925
922
928
928
934
937
942
953
957
962
960
956
960
958
963
966
963
962
963
966
969
968
963
960
963
966
972
971
969
966
967
968
972
974
970
969
971
975
977
977
976
976
976
981
985
983
985
984
986
988
992
992
988
988
991
995
998
1002
1003
1001
1002
1009
1011
1013
1010
1013
1011
1018
1023
1025
1026
1025
1025
1029
1036
1036
1038
1038
1045
1049
1055
1058
1057
1056
1056
1059
1061
1055
1048
1040
1038
1037
1033
1030
1018
1015
1013
1010
1009
1006
1000
994
993
992
993
992
988
985
985
983
986
984
981
979
976
980
983
982
979
979
978
980
982
982
980
977
976
978
980
982
979
973
977
981
982
981
980
977
978
981
985
985
982
979
982
983
985
982
981
981
981
985
985
984
984
981
983
984
985
986
980
979
978
981
984
984
978
976
976
978
983
981
979
975
975
979
981
980
977
975
974
977
981
981
979
976
976
978
981
978
978
978
975
977
978
981
979
976
979
981
984
983
982
981
984
988
991
990
988
985
987
990
994
993
993
991
994
995
999
1000
996
991
989
993
992
990
986
984
982
985
984
983
981
977
974
979
980
980
975
974
971
975
976
975
969
970
966
972
975
973
970
965
965
966
970
970
967
964
962
964
967
968
965
964
964
966
970
968
966
965
965
965
969
967
962
962
965
967
969
969
965
965
967
968
970
972
971
971
975
981
987
992
1002
1007
1026
1041
1055
1062
1061
1052
1041
1028
1019
1012
1013
1023
1044
1072
1105
1132
1152
1166
1171
1167
1154
1134
1114
1095
1074
1058
1037
1009
982
954
944
933
927
925
921
924
932
941
952
954
956
955
957
961
962
963
959
959
960
962
962
964
963
960
962
963
967
967
964
964
965
966
969
968
969
967
967
973
976
974
975
970
975
978
982
983
982
981
981
983
991
991
989
986
992
995
1002
1002
1002
999
1004
1009
1014
1015
1014
1018
1021
1024
1031
1031
1030
1030
1031
1037
1042
1043
1042
1043
1047
1052
1055
1055
1054
1054
1055
1057
1058
1053
1052
1046
1042
1042
1041
1034
1027
1019
1016
1014
1012
1010
1002
999
996
997
999
995
994
992
987
987
990
988
985
982
981
984
988
987
982
979
978
982
985
984
981
976
975
981
984
982
980
978
980
981
983
984
982
981
980
982
984
981
979
977
977
981
983
986
983
980
982
982
983
981
979
978
978
981
982
981
979
979
976
980
982
982
980
976
977
980
981
982
980
973
975
976
980
979
978
973
975
977
980
978
977
975
974
978
975
975
974
974
973
974
976
978
975
973
969
973
977
977
973
971
972
976
977
977
975
974
975
980
984
986
985
982
983
984
988
989
989
989
988
992
996
1000
995
995
993
993
998
996
994
991
987
992
993
989
985
981
981
981
984
984
982
980
980
980
983
980
978
975
973
974
979
978
975
973
972
975
974
974
971
969
970
973
975
974
971
967
969
972
974
974
972
970
969
968
972
971
970
970
971
971
976
976
973
971
971
971
977
977
974
975
974
976
982
981
980
978
980
987
992
997
1004
1016
1030
1044
1054
1059
1059
1049
1037
1024
1010
1002
1004
1020
1042
1075
1105
1131
1153
1165
1172
1168
1156
1134
1109
1088
1067
1042
1015
986
959
939
927
921
920
920
920
923
931
943
955
960
964
961
961
966
973
968
971
968
970
973
976
976
974
974
972
977
980
978
977
975
975
980
986
984
983
981
981
986
988
989
985
985
986
991
991
994
993
992
995
1000
1004
1006
1008
1006
1005
1012
1018
1016
1016
1014
1016
1023
1028
1030
1030
1031
1031
1037
1042
1042
1042
1044
1045
1050
1051
1056
1056
1050
1054
1057
1062
1063
1063
1060
1063
1063
1066
1063
1060
1055
1048
1047
1041
1038
1029
1023
1019
1016
1015
1011
1003
995
993
989
992
989
985
977
978
979
981
978
973
969
971
974
972
971
967
966
963
965
970
969
966
963
962
966
964
966
963
961
961
965
965
963
960
960
962
965
968
966
964
961
958
959
958
963
960
959
958
960
964
961
961
957
957
957
959
961
958
955
953
955
958
959
957
956
954
956
954
958
955
952
951
954
956
955
954
949
950
950
954
953
954
952
952
952
952
954
953
948
948
950
953
953
950
945
946
949
954
951
951
948
945
952
953
956
953
951
952
957
959
960
955
954
956
960
965
965
966
961
962
965
962
961
962
960
959
960
959
959
955
951
952
952
955
953
951
950
950
948
948
948
943
939
939
944
947
947
946
945
945
947
949
947
943
940
941
942
944
945
946
945
942
947
948
948
945
944
946
947
950
952
951
948
947
948
955
957
958
959
958
962
966
965
963
962
964
968
973
981
988
1001
1017
1035
1050
1054
1053
1044
1031
1009
999
988
983
992
1012
1038
1069
1090
1108
1118
1124
1118
1109
1093
1075
1055
1036
1020
1001
981
960
946
939
936
936
934
931
933
940
951
960
963
961
952
955
957
961
962
959
960
962
966
971
970
968
968
967
970
974
973
972
969
972
974
977
976
978
977
976
980
983
986
985
983
986
991
995
996
993
993
994
997
1006
1007
1009
1007
1011
1015
1021
1023
1020
1022
1025
1030
1035
1042
1038
1036
1039
1045
1051
1054
1054
1054
1059
1062
1067
1068
1069
1069
1071
1074
1080
1082
1077
1078
1074
1073
1077
1072
1064
1057
1053
1052
1051
1041
1040
1032
1028
1027
1027
1024
1020
1015
1011
1011
1012
1010
1010
1006
1005
1008
1008
1007
1006
1002
999
1000
1005
1000
1001
1000
999
1000
1006
1006
1001
999
999
1004
1008
1005
1003
1000
1002
1004
1008
1011
1006
1005
1005
1006
1010
1011
1009
1006
1006
1007
1009
1013
1011
1006
1008
1010
1013
1014
1010
1011
1009
1015
1018
1016
1012
1007
1009
1005
1008
1007
1005
1002
998
1000
1004
1004
1003
1001
998
1000
1003
1001
1002
1001
1000
1002
1003
1002
999
996
996
1001
1005
1010
1010
1008
1006
1005
1004
1000
996
994
997
1003
1007
1007
1007
1007
1004
1008
1012
1011
1010
1010
1011
1014
1017
1017
1016
1012
1011
1012
1015
1014
1012
1012
1012
1013
1014
1013
1006
1005
1001
1005
1009
1005
1004
1001
999
999
1002
1001
998
996
993
993
995
998
995
995
991
994
996
997
996
992
995
997
997
993
995
991
989
995
996
998
997
995
993
995
997
997
996
995
996
995
1000
998
1000
993
995
996
1001
999
1001
1001
1002
1007
1015
1020
1023
1027
1040
1058
1074
1090
1096
1096
1091
1081
1065
1054
1044
1045
1060
1087
1119
1148
1170
1184
1195
1200
1189
1167
1145
1123
1108
1089
1063
1038
1010
991
978
973
971
967
966
967
970
977
986
991
995
994
994
995
995
994
989
989
989
992
993
995
993
992
994
998
1000
1003
1007
1002
1007
1009
1012
1010
1007
1006
1003
1008
1012
1014
1014
1012
1011
1017
1020
1023
1018
1015
1015
1022
1023
1030
1031
1031
1034
1038
1041
1045
1045
1045
1046
1052
1057
1059
1059
1058
1060
1065
1070
1073
1072
1073
1073
1081
1085
1087
1088
1089
1092
1095
1100
1102
1099
1095
1092
1089
1088
1082
1078
1069
1066
1061
1059
1055
1050
1045
1042
1044
1042
1040
1039
1036
1032
1033
1035
1034
1031
1028
1025
1030
1032
1031
1029
1028
1026
1027
1030
1031
1027
1022
1023
1028
1031
1029
1030
1027
1025
1028
1031
1033
1031
1028
1026
1027
1033
1031
1029
1028
1027
1031
1033
1033
1031
1027
1027
1029
1037
1037
1033
1029
1022
1025
1028
1030
1028
1025
1026
1027
1027
1030
1030
1028
1024
1028
1033
1033
1034
1028
1024
1026
1027
1024
1024
1023
1022
1023
1028
1027
1027
1024
1027
1030
1028
1030
1024
1019
1020
1019
1025
1026
1026
1025
1026
1027
1027
1027
1026
1024
1028
1030
1034
1036
1038
1035
1036
1038
1041
1038
1038
1037
1042
1045
1046
1046
1044
1042
1042
1042
1043
1041
1038
1035
1032
1030
1034
1036
1031
1026
1027
1031
1029
1029
1029
1027
1024
1024
1024
1025
1029
1026
1024
1023
1023
1024
1022
1019
1022
1022
1023
1024
1021
1020
1020
1022
1024
1025
1022
1022
1019
1022
1024
1024
1020
1020
1018
1021
1026
1027
1026
1021
1018
1023
1026
1026
1023
1028
1032
1038
1046
1052
1059
1069
1086
1102
1112
1118
1114
1101
1079
1063
1057
1063
1079
1102
1133
1167
1196
1213
1223
1215
1198
1176
1157
1137
1114
1086
1055
1029
1013
997
986
977
972
977
986
995
1000
1006
1008
1012
1014
1016
1017
1013
1013
1019
1021
1021
1020
1018
1018
1020
1020
1023
1021
1018
1019
1023
1025
1027
1025
1024
1021
1027
1031
1032
1031
1028
1031
1034
1037
1041
1038
1035
1037
1042
1046
1050
1048
1048
1051
1053
1059
1063
1063
1062
1064
1070
1074
1076
1078
1078
1082
1085
1091
1095
1093
1094
1093
1097
1101
1104
1102
1102
1101
1107
1111
1111
1110
1109
1108
1109
1109
1107
1099
1090
1088
1083
1079
1077
1072
1062
1057
1056
1056
1055
1049
1044
1039
1041
1041
1040
1036
1034
1034
1033
1036
1035
1031
1024
1029
1031
1032
1030
1028
1026
1027
1029
1031
1033
1027
1026
1026
1029
1029
1032
1029
1026
1024
1025
1029
1031
1029
1025
1026
1028
1031
1030
1026
1025
1025
1026
1028
1030
1028
1025
1024
1026
1027
1030
1028
1025
1024
1027
1028
1026
1025
1022
1022
1024
1028
1026
1027
1023
1021
1022
1026
1028
1025
1019
1018
1017
1022
1022
1019
1020
1019
1020
1022
1022
1022
1017
1015
1021
1023
1022
1021
1018
1016
1019
1021
1021
1019
1016
1017
1018
1022
1022
1020
1014
1017
1021
1027
1027
1027
1027
1026
1026
1030
1031
1028
1027
1030
1035
1039
1039
1037
1033
1031
1032
1035
1034
1033
1027
1025
1027
1027
1026
1024
1017
1017
1021
1022
1021
1017
1016
1013
1016
1018
1015
1009
1010
1009
1014
1017
1017
1015
1009
1009
1009
1013
1013
1010
1008
1008
1008
1012
1013
1009
1009
1011
1011
1012
1012
1011
1008
1011
1012
1013
1011
1009
1008
1008
1010
1014
1012
1010
1010
1010
1010
1014
1018
1017
1019
1023
1030
1039
1047
1060
1070
1083
1092
1099
1094
1078
1056
1041
1033
1044
1067
1100
1124
1156
1183
1202
1198
1187
1162
1133
1114
1092
1066
1034
1003
981
968
962
958
957
954
959
966
977
983
991
993
997
1000
1003
1005
1001
1002
1002
1004
1008
1008
1008
1007
1006
1009
1012
1014
1012
1009
1009
1011
1014
1014
1014
1012
1014
1016
1020
1023
1021
1019
1022
1023
1029
1031
1034
1031
1034
1036
1043
1046
1043
1045
1046
1053
1059
1061
1063
1063
1064
1069
1074
1078
1081
1080
1082
1087
1092
1095
1093
1095
1095
1099
1104
1103
1106
1103
1103
1105
1105
1103
1097
1091
1085
1081
1078
1075
1070
1062
1057
1053
1055
1050
1044
1043
1037
1037
1037
1035
1032
1028
1029
1028
1030
1028
1029
1024
1025
1025
1028
1026
1025
1022
1021
1022
1026
1025
1022
1021
1020
1022
1025
1026
1023
1022
1020
1021
1023
1025
1024
1023
1022
1023
1026
1023
1021
1018
1020
1023
1023
1026
1023
1020
1021
1021
1025
1023
1023
1021
1021
1020
1022
1024
1022
1020
1018
1021
1024
1023
1023
1020
1021
1022
1022
1024
1023
1019
1017
1019
1021
1021
1021
1018
1015
1017
1020
1022
1020
1015
1016
1015
1021
1020
1021
1017
1016
1018
1019
1020
1018
1013
1014
1014
1020
1020
1019
1015
1014
1016
1022
1021
1020
1020
1022
1026
1030
1028
1026
1024
1025
1028
1030
1036
1035
1032
1031
1036
1039
1037
1033
1031
1027
1031
1033
1029
1028
1025
1022
1023
1027
1023
1020
1019
1018
1019
1021
1023
1021
1017
1016
1016
1016
1014
1011
1007
1009
1011
1013
1017
1015
1009
1010
1010
1014
1012
1010
1010
1008
1010
1012
1012
1009
1006
1007
1009
1013
1013
1013
1010
1009
1007
1011
1013
1009
1007
1008
1010
1014
1013
1010
1009
1009
1012
1018
1018
1015
1017
1018
1024
1032
1036
1044
1050
1059
1075
1088
1093
1090
1083
1072
1057
1043
1034
1035
1046
1065
1098
1127
1154
1174
1188
1193
1188
1171
1151
1128
1101
1078
1054
1033
1005
983
963
952
952
952
953
958
963
969
984
991
997
998
998
998
997
1002
1006
1005
1002
1000
1005
1009
1010
1010
1008
1005
1008
1011
1011
1012
1012
1012
1016
1016
1017
1017
1013
1017
1021
1021
1022
1025
1025
1022
1025
1032
1033
1033
1034
1032
1035
1041
1044
1046
1045
1045
1049
1054
1057
1060
1057
1060
1065
1070
1073
1075
1074
1074
1078
1084
1083
1088
1086
1086
1090
1097
1096
1097
1097
1098
1101
1103
1106
1107
1101
1102
1104
1103
1103
1096
1088
1084
1080
1076
1071
1068
1062
1056
1055
1051
1047
1044
1040
1034
1038
1037
1036
1030
1027
1026
1025
1028
1027
1026
1022
1020
1024
1026
1025
1024
1021
1021
1019
1021
1019
1023
1019
1018
1021
1023
1021
1022
1020
1019
1017
1023
1024
1021
1018
1021
1022
1021
1023
1022
1020
1019
1021
1024
1025
1023
1021
1020
1020
1024
1024
1023
1020
1020
1020
1022
1022
1020
1017
1017
1019
1021
1022
1022
1018
