1014
1012
1011
1014
1014
1015
1015
1009
1010
1013
1016
1013
1012
1006
1010
1011
1011
1014
1012
1009
1004
1011
1014
1013
1008
1011
1008
1010
1011
1012
1008
1005
1005
1008
1010
1010
1008
1006
1005
1007
1008
1008
1007
1006
1005
1005
1006
1009
1007
1004
1003
1007
1008
1010
1011
1007
1010
1013
1016
1018
1018
1017
1020
1021
1025
1029
1025
1024
1023
1022
1022
1022
1019
1014
1014
1016
1018
1017
1013
1011
1010
1010
1011
1012
1011
1010
1011
1009
1010
1013
1011
1007
1005
1005
1005
1007
1007
1003
1002
1006
1005
1008
1005
1002
999
1004
1004
1005
1004
999
996
1000
1004
1002
1002
998
998
999
1002
1003
1001
998
999
999
1003
1004
1001
1000
1000
1002
1005
1006
1007
1004
1002
1006
1012
1013
1014
1014
1023
1030
1043
1055
1068
1080
1093
1105
1113
1113
1103
1086
1072
1070
1077
1090
1104
1131
1157
1179
1195
1202
1195
1176
1154
1136
1120
1102
1083
1060
1035
1013
994
980
966
957
950
953
957
964
970
973
977
983
985
984
986
983
983
983
987
988
988
983
987
986
990
992
991
987
988
988
992
992
994
990
992
990
997
996
997
1000
998
1000
1002
1002
1001
998
999
1004
1008
1007
1008
1009
1015
1017
1022
1024
1026
1027
1025
1030
1036
1039
1038
1041
1042
1048
1053
1057
1058
1057
1056
1061
1065
1066
1067
1069
1072
1074
1078
1085
1084
1083
1082
1087
1091
1092
1090
1087
1086
1083
1085
1079
1075
1067
1060
1059
1055
1051
1048
1042
1037
1035
1037
1033
1032
1027
1026
1024
1025
1026
1021
1018
1018
1019
1020
1020
1018
1015
1014
1014
1016
1014
1015
1012
1012
1015
1016
1018
1015
1013
1013
1016
1018
1017
1016
1014
1011
1014
1018
1017
1016
1011
1012
1014
1017
1016
1015
1012
1015
1014
1015
1014
1013
1010
1009
1008
1012
1016
1011
1012
1009
1012
1014
1013
1011
1008
1008
1011
1014
1014
1012
1010
1009
1010
1011
1010
1010
1006
1008
1009
1010
1013
1009
1008
1008
1007
1011
1010
1011
1008
1002
1010
1007
1011
1010
1008
1007
1010
1012
1014
1014
1013
1013
1016
1021
1023
1022
1016
1018
1020
1021
1027
1025
1023
1024
1027
1030
1031
1027
1023
1022
1021
1021
1021
1020
1017
1010
1010
1013
1014
1012
1007
1007
1009
1010
1009
1007
1006
1004
1001
999
1003
1003
998
999
998
1000
1000
997
997
994
997
998
999
1000
994
992
997
1000
1000
999
995
994
996
996
999
998
995
995
998
999
1001
998
996
997
997
1002
1003
1005
1004
1006
1013
1021
1032
1042
1055
1070
1085
1096
1101
1096
1083
1067
1059
1060
1070
1089
1109
1136
1165
1186
1198
1200
1185
1161
1139
1117
1096
1075
1047
1018
996
976
962
950
940
937
943
950
957
964
968
970
977
980
982
980
977
979
979
983
982
981
978
979
981
986
987
986
984
982
986
990
989
989
988
987
990
992
995
993
992
991
995
997
1001
1002
998
1002
1002
1006
1009
1011
1009
1012
1013
1018
1023
1024
1024
1024
1031
1035
1040
1040
1041
1042
1048
1052
1058
1058
1058
1060
1061
1065
1068
1071
1071
1073
1075
1078
1079
1077
1074
1072
1074
1071
1069
1063
1056
1051
1048
1046
1038
1033
1024
1015
1014
1014
1014
1009
1002
1001
998
1002
1000
1000
995
996
994
993
995
994
992
991
992
994
995
992
990
989
991
993
995
992
988
991
990
993
996
993
991
991
990
995
995
996
991
991
993
996
999
997
992
991
995
995
996
993
992
992
994
996
998
997
994
992
993
995
999
997
993
991
994
996
1000
996
994
994
994
996
997
997
994
995
995
996
998
998
995
992
996
998
997
995
993
994
994
997
1000
994
995
994
993
998
997
996
993
992
997
1002
1005
1002
1001
1001
1003
1006
1008
1010
1008
1010
1010
1014
1015
1014
1012
1005
1008
1012
1010
1008
1001
999
999
1000
1001
998
993
991
994
997
996
996
993
989
990
991
990
988
986
987
989
989
986
985
981
981
981
985
986
983
980
980
979
984
984
984
979
979
980
982
984
984
979
978
980
983
985
984
982
981
981
983
983
983
983
983
989
995
1001
1004
1011
1021
1038
1053
1068
1074
1070
1063
1050
1032
1019
1010
1014
1029
1057
1090
1116
1138
1147
1149
1141
1120
1099
1070
1047
1022
1004
982
957
933
915
907
905
909
912
919
925
934
944
956
962
964
966
962
964
966
964
963
966
965
967
971
975
971
969
968
970
973
976
973
971
970
971
977
977
978
977
975
979
983
987
984
982
984
988
994
994
996
995
998
1002
1008
1012
1011
1011
1011
1017
1023
1025
1026
1023
1029
1033
1039
1044
1043
1042
1044
1050
1052
1055
1053
1054
1055
1055
1062
1062
1060
1061
1061
1063
1065
1060
1055
1050
1043
1041
1035
1030
1024
1019
1011
1010
1005
1003
996
991
986
985
985
984
979
975
972
974
975
974
971
966
965
966
967
971
968
963
962
965
969
969
967
962
963
963
964
964
964
960
961
962
965
963
965
961
960
961
965
963
961
958
957
961
964
963
960
960
958
960
961
962
960
958
957
958
960
961
962
956
954
956
960
960
959
955
955
957
958
958
957
951
954
954
955
958
956
952
951
953
957
957
954
952
951
951
951
953
951
949
947
952
955
954
955
954
952
954
956
959
955
958
957
959
960
959
964
961
964
965
965
965
965
962
958
958
961
958
955
951
951
951
951
952
949
947
941
944
946
947
945
941
937
935
939
941
943
941
937
936
937
938
941
933
931
934
936
939
939
932
930
933
935
937
938
936
935
937
939
940
941
937
936
939
940
941
942
942
944
949
956
963
973
985
1002
1020
1035
1043
1034
1018
992
967
948
945
958
973
994
1016
1037
1047
1048
1038
1019
1003
989
972
956
941
932
924
917
912
907
902
899
902
907
911
919
922
926
934
940
942
944
943
939
943
950
951
955
951
950
952
959
964
963
960
961
963
967
970
972
967
965
971
977
981
979
977
976
982
989
993
994
993
995
999
1006
1012
1014
1014
1016
1020
1025
1032
1030
1032
1034
1039
1046
1048
1050
1051
1055
1060
1067
1071
1072
1070
1070
1076
1078
1084
1083
1083
1085
1086
1094
1096
1091
1093
1093
1092
1092
1091
1084
1080
1072
1069
1066
1062
1059
1051
1046
1044
1043
1039
1033
1028
1025
1023
1025
1022
1019
1017
1017
1016
1019
1016
1014
1012
1012
1012
1014
1016
1012
1012
1010
1013
1016
1017
1013
1010
1009
1012
1017
1019
1017
1010
1009
1014
1017
1018
1018
1015
1016
1012
1017
1020
1020
1017
1017
1018
1020
1022
1019
1018
1016
1018
1022
1023
1021
1019
1017
1016
1019
1021
1021
1021
1018
1020
1020
1022
1020
1018
1014
1016
1021
1021
1017
1015
1013
1015
1015
1019
1016
1011
1008
1011
1010
1014
1015
1010
1010
1011
1015
1015
1011
1009
1008
1006
1010
1012
1010
1007
1005
1004
1008
1012
1010
1007
1008
1010
1013
1015
1015
1013
1013
1016
1016
1018
1018
1018
1017
1021
1025
1028
1027
1022
1019
1021
1020
1022
1019
1018
1012
1014
1014
1014
1011
1008
1002
1004
1004
1010
1005
1003
999
1002
1007
1006
1002
1001
996
995
998
1001
1000
997
993
994
996
994
998
992
992
993
994
993
992
988
991
991
993
993
993
991
993
992
995
998
996
993
993
992
995
997
997
995
994
994
998
1002
1003
1002
1006
1011
1018
1028
1040
1052
1066
1080
1094
1102
1099
1092
1078
1063
1061
1059
1067
1084
1107
1138
1168
1189
1196
1198
1187
1168
1147
1129
1108
1085
1064
1041
1017
994
976
959
950
943
942
947
951
956
959
968
975
980
981
977
975
976
977
980
978
975
975
976
981
982
982
980
979
980
982
983
984
982
982
981
987
988
988
984
987
988
991
994
992
992
992
993
994
999
999
998
1001
1004
1008
1009
1009
1007
1009
1012
1016
1021
1019
1020
1024
1026
1033
1033
1035
1035
1038
1040
1046
1051
1053
1052
1053
1057
1062
1065
1069
1068
1071
1074
1077
1080
1082
1077
1076
1075
1077
1075
1068
1062
1057
1051
1050
1049
1043
1034
1030
1027
1026
1028
1020
1018
1011
1013
1014
1016
1014
1008
1008
1007
1009
1009
1006
1005
1005
1005
1006
1008
1007
1003
1002
1003
1005
1007
1007
1002
1004
1006
1008
1008
1007
1003
1004
1005
1008
1010
1005
1001
1003
1004
1004
1006
1007
1003
1003
1006
1007
1010
1006
1000
998
1000
1003
1006
1005
1003
1000
1002
1003
1005
1003
999
998
998
999
1003
1003
999
999
999
1004
1004
1000
998
998
997
1000
1002
1001
996
994
997
999
1001
999
997
994
995
997
999
997
996
995
993
998
998
997
995
992
994
995
1001
999
998
1002
1005
1007
1007
1007
1003
1001
1002
1007
1007
1009
1010
1009
1008
1008
1010
1008
1003
999
1000
1000
999
1000
997
993
993
992
993
992
989
987
982
987
991
988
985
982
981
981
982
982
980
979
979
979
982
979
978
976
978
980
978
978
976
974
976
976
978
976
973
972
971
976
976
975
969
970
973
976
978
977
975
973
970
975
978
979
978
979
983
988
994
1000
1005
1017
1033
1052
1062
1066
1065
1062
1051
1038
1026
1019
1017
1032
1056
1080
1111
1136
1150
1154
1152
1141
1118
1092
1072
1048
1027
1009
987
961
940
925
917
914
917
918
925
927
938
948
954
955
959
958
960
963
966
964
964
963
964
971
971
972
968
968
971
972
974
976
971
971
972
976
982
980
977
977
978
982
987
988
987
985
986
988
994
994
994
993
994
997
1002
1005
1003
1006
1007
1012
1019
1018
1020
1022
1025
1031
1034
1038
1038
1036
1043
1050
1052
1054
1054
1053
1055
1059
1066
1063
1067
1067
1069
1073
1077
1079
1075
1074
1076
1077
1077
1073
1070
1062
1057
1055
1054
1048
1043
1035
1031
1030
1029
1022
1018
1015
1014
1015
1015
1011
1007
1002
1002
1004
1005
1003
999
1000
999
1002
1004
1003
996
994
994
998
994
998
994
992
993
997
999
994
993
991
988
991
993
994
990
988
989
991
992
992
988
984
987
989
988
987
984
981
984
986
987
985
981
981
980
981
981
981
978
976
977
980
976
979
976
973
973
977
978
976
971
969
973
973
975
975
971
967
968
973
973
969
965
962
964
967
968
968
964
963
965
968
969
967
965
960
960
964
965
963
963
961
965
966
971
969
967
966
965
970
973
974
973
973
973
976
979
978
974
971
972
975
973
971
964
963
965
964
966
962
959
956
956
961
959
960
956
954
953
954
955
953
947
940
943
949
952
950
946
943
943
944
947
946
943
939
940
943
945
944
943
942
941
943
946
942
942
940
941
945
946
945
942
941
941
942
945
943
941
941
942
946
951
951
950
950
956
964
973
985
997
1012
1025
1037
1043
1039
1026
1005
979
957
946
946
955
974
994
1015
1031
1041
1045
1039
1030
1016
1000
982
967
951
941
931
924
911
903
901
900
896
899
900
902
908
913
918
928
929
928
928
930
934
939
937
931
934
933
937
938
935
934
931
934
938
941
941
938
936
936
942
945
945
944
941
944
950
946
953
953
952
955
959
961
961
962
964
965
969
974
973
973
975
980
983
987
988
987
987
994
999
1005
1008
1006
1008
1009
1016
1019
1022
1021
1022
1025
1034
1039
1039
1038
1034
1035
1037
1040
1038
1027
1021
1012
1010
1004
999
995
987
982
979
976
972
966
961
962
962
964
962
957
954
951
952
954
955
954
956
955
961
962
957
954
953
954
961
959
963
959
955
954
958
961
961
962
955
959
962
964
961
960
958
958
962
965
967
965
962
964
966
968
966
963
960
963
966
969
967
965
964
963
961
968
967
964
963
964
965
968
967
963
964
963
964
970
966
966
960
960
964
965
966
965
963
963
966
967
967
964
962
967
971
975
973
974
972
972
977
979
980
979
977
981
989
995
998
993
995
994
997
999
993
990
984
983
987
989
986
981
978
979
982
988
986
985
981
982
984
991
989
986
983
985
988
993
993
989
988
988
992
992
995
994
992
994
994
998
999
1000
1005
1015
1020
1032
1027
1018
1008
998
992
985
977
974
974
981
990
998
998
996
998
998
1004
1010
1012
1010
1011
1015
1025
1035
1046
1056
1074
1093
1112
1126
1132
1127
1110
1092
1073
1062
1056
1067
1078
1092
1111
1130
1143
1149
1145
1127
1107
1087
1068
1046
1033
1020
1014
1002
990
974
967
959
959
962
965
970
975
982
989
996
998
998
1001
1006
1011
1015
1011
1007
1001
996
991
986
979
976
978
980
984
990
995
995
997
996
997
998
993
987
984
984
993
999
1002
1000
999
1003
1007
1010
1012
1009
1009
1008
1015
1019
1021
1019
1020
1021
1024
1031
1032
1031
1032
1035
1039
1044
1044
1045
1045
1049
1052
1056
1061
1062
1064
1066
1072
1078
1081
1081
1080
1081
1091
1090
1089
1085
1079
1078
1073
1075
1069
1062
1054
1052
1050
1050
1044
1035
1032
1032
1028
1031
1029
1025
1020
1017
1021
1023
1023
1018
1014
1014
1018
1020
1018
1015
1013
1013
1014
1015
1016
1010
1005
1006
1009
1007
1009
1004
1002
1005
1009
1015
1010
1011
1006
1007
1010
1014
1013
1013
1010
1009
1011
1016
1016
1011
1009
1009
1013
1013
1011
1010
1009
1010
1010
1013
1014
1007
1011
1013
1017
1018
1014
1005
999
994
997
1000
999
996
994
998
1000
1007
1006
1001
999
1001
998
1000
1002
999
998
998
1000
1003
1002
1000
998
998
1000
1003
1002
1001
999
1000
1002
1003
1006
1008
1006
1007
1008
1011
1009
1007
1001
1005
1011
1017
1018
1016
1012
1012
1010
1010
1011
1006
1004
1004
1005
1007
1004
999
993
994
999
1003
999
993
989
993
995
998
994
986
982
987
990
989
990
987
982
981
986
986
986
985
981
982
985
988
986
984
979
981
983
984
986
983
981
980
984
985
986
984
982
985
987
989
986
984
981
979
984
994
996
998
1006
1017
1036
1055
1072
1081
1085
1085
1081
1069
1056
1039
1030
1039
1060
1084
1109
1131
1144
1154
1156
1146
1124
1099
1077
1061
1047
1032
1012
986
966
950
943
939
930
928
930
937
945
953
956
956
951
955
957
958
959
953
954
956
955
956
954
955
953
956
959
962
960
957
955
952
957
961
960
958
957
954
961
959
964
964
961
963
966
968
968
973
971
972
973
978
979
979
979
979
987
992
994
994
994
997
1007
1013
1014
1011
1015
1015
1019
1026
1033
1034
1035
1038
1042
1044
1048
1049
1044
1047
1047
1044
1040
1034
1027
1022
1017
1013
1009
1003
995
991
990
992
989
986
980
978
978
980
976
974
971
972
975
975
973
970
966
966
971
973
970
967
966
965
968
971
972
963
967
969
970
972
971
968
970
971
971
972
973
969
967
965
966
967
970
964
964
965
966
969
967
968
963
962
965
968
966
962
955
960
961
966
964
962
959
958
959
959
962
961
962
960
960
962
958
954
955
956
957
958
956
954
951
953
957
959
957
958
957
960
966
969
970
969
968
969
967
969
964
962
961
964
966
965
965
962
965
966
968
972
967
966
968
966
968
969
968
965
965
961
964
965
965
962
954
950
955
960
963
961
959
961
962
965
962
960
958
959
963
965
967
965
964
963
964
968
971
966
968
969
972
975
976
972
973
974
977
982
979
981
983
982
986
987
985
985
985
988
996
1005
1008
1013
1018
1030
1048
1063
1072
1082
1082
1081
1077
1067
1049
1031
1016
1021
1039
1060
1078
1095
1106
1120
1130
1132
1120
1100
1079
1065
1055
1038
1024
1007
990
977
972
970
968
960
960
965
970
984
992
996
997
1002
1006
1007
1005
1005
1005
1009
1011
1014
1015
1012
1010
1010
1012
1017
1015
1015
1013
1014
1018
1020
1017
1018
1015
1015
1021
1025
1026
1024
1023
1025
1029
1031
1033
1035
1034
1037
1041
1043
1047
1048
1051
1053
1058
1064
1061
1057
1058
1061
1066
1073
1078
1078
1077
1083
1086
1094
1095
1095
1095
1100
1104
1110
1112
1114
1111
1116
1118
1123
1120
1115
1107
1101
1099
1092
1085
1079
1071
1069
1062
1062
1060
1056
1054
1051
1049
1045
1041
1036
1032
1032
1036
1039
1036
1038
1033
1032
1034
1036
1036
1028
1030
1028
1030
1034
1035
1031
1028
1029
1032
1031
1033
1031
1031
1030
1033
1036
1037
1036
1031
1029
1028
1028
1030
1030
1027
1032
1034
1035
1033
1032
1031
1031
1035
1037
1037
1033
1031
1031
1030
1036
1035
1033
1030
1030
1029
1034
1033
1031
1029
1023
1024
1028
1027
1028
1023
1021
1027
1028
1029
1024
1025
1024
1027
1028
1025
1027
1024
1023
1025
1029
1027
1025
1028
1029
1033
1040
1040
1038
1035
1031
1031
1033
1034
1036
1032
1034
1033
1037
1035
1032
1029
1027
1028
1029
1029
1026
1023
1021
1023
1022
1023
1018
1021
1016
1021
1019
1019
1020
1014
1013
1014
1014
1013
1012
1008
1008
1012
1012
1012
1011
1007
1002
1005
1006
1005
1004
1003
1000
1005
1004
1007
1005
1003
1003
1005
1006
1004
1003
1001
1000
1000
1006
1004
1005
1004
1004
1008
1010
1013
1014
1015
1020
1033
1048
1067
1081
1095
1106
1112
1110
1098
1082
1071
1071
1085
1105
1126
1147
1165
1187
1201
1216
1212
1195
1173
1153
1136
1124
1109
1090
1069
1046
1027
1010
994
977
963
956
957
962
965
968
967
975
982
986
986
982
977
978
977
980
982
978
978
978
981
984
984
982
979
979
982
985
986
989
987
986
985
985
985
979
979
981
984
988
991
988
986
987
988
992
995
992
993
996
1000
1004
1005
1004
1007
1009
1014
1019
1022
1021
1020
1025
1029
1038
1039
1040
1041
1045
1050
1055
1055
1057
1057
1057
1067
1073
1075
1074
1073
1075
1076
1077
1075
1072
1064
1062
1060
1056
1052
1045
1038
1034
1031
1029
1026
1019
1013
1013
1012
1012
1010
1006
1000
1000
1001
1001
1002
998
992
994
992
998
998
992
992
993
994
995
997
992
989
990
992
995
995
992
988
989
992
996
993
992
987
988
994
993
990
988
987
986
988
991
993
993
984
987
989
994
994
992
989
989
989
992
993
989
987
985
988
990
994
991
988
987
984
990
988
987
985
984
986
989
989
987
984
980
984
987
984
984
983
980
983
986
987
983
980
979
982
984
986
984
982
982
984
988
989
987
986
988
992
996
996
992
991
993
995
1000
1001
997
1000
999
1003
1005
1005
1000
995
996
998
1001
998
993
990
988
990
991
988
990
985
983
986
988
988
986
981
983
983
984
985
978
976
977
983
984
983
980
975
974
979
980
977
975
973
974
976
978
979
976
974
972
978
978
979
978
977
974
977
981
981
978
975
975
979
984
982
978
972
977
980
980
982
981
983
985
989
995
1000
1004
1013
1023
1037
1049
1055
1057
1051
1047
1038
1024
1008
998
999
1014
1039
1063
1089
1112
1128
1139
1141
1136
1115
1088
1062
1043
1027
1006
981
957
935
920
914
913
912
912
915
925
936
944
953
959
960
964
968
968
967
967
966
964
967
972
971
972
969
971
975
978
