1017
1017
1017
1017
1017
1017
1017
1017
1017
1017
1020
1016
1011
1008
1004
1006
1008
1003
1005
999
997
999
1001
1003
1000
998
999
1000
1003
1004
1001
999
998
998
1001
1001
1002
999
998
1000
1003
1003
1006
999
997
1000
1004
1002
1001
1000
1001
1002
1006
1007
1005
1000
999
1000
1002
1004
1001
997
997
996
1002
998
997
994
996
997
998
996
997
995
995
997
1000
999
998
995
995
999
999
997
998
995
993
994
997
997
996
992
991
994
995
997
994
995
994
996
999
1000
1000
1000
1001
1001
1006
1010
1009
1006
1006
1009
1011
1009
1010
1002
1005
1004
1007
1008
1005
999
996
999
998
999
994
993
991
995
994
995
989
985
983
986
987
987
984
983
980
983
987
985
979
981
978
980
980
980
978
977
975
977
981
979
978
975
974
976
977
981
978
974
976
978
980
981
979
976
975
978
980
983
985
987
989
997
1006
1017
1030
1046
1060
1068
1068
1061
1041
1017
1005
1005
1019
1041
1065
1092
1120
1143
1158
1160
1142
1115
1091
1070
1052
1031
1006
984
964
946
935
927
922
925
933
939
948
957
958
960
958
962
961
964
962
961
960
966
967
970
969
965
965
967
967
968
969
965
966
969
973
975
978
972
972
974
977
977
977
975
975
980
985
989
988
988
990
993
996
1000
999
1000
1001
1004
1010
1009
1015
1014
1015
1023
1027
1029
1030
1030
1032
1036
1041
1042
1040
1040
1040
1046
1049
1052
1050
1047
1042
1042
1041
1036
1030
1021
1016
1012
1008
1005
1001
994
989
989
991
990
987
983
977
980
981
983
980
975
976
978
978
979
975
969
973
975
976
977
977
975
971
974
975
977
975
972
973
976
979
975
976
974
974
972
977
977
977
976
975
973
976
976
976
975
972
977
980
979
975
972
973
978
978
982
978
974
972
973
975
978
977
976
974
975
976
973
973
973
969
972
975
976
972
970
971
971
974
975
972
967
970
973
977
979
979
976
977
980
981
981
978
975
976
980
986
989
985
988
988
990
990
989
984
982
980
981
981
982
982
978
978
978
980
979
974
970
968
969
970
971
969
966
962
961
963
967
965
966
966
965
968
967
964
964
961
962
961
959
960
959
957
959
964
964
963
962
958
963
963
966
963
961
962
962
964
967
965
965
964
961
968
973
972
973
974
984
995
1004
1014
1027
1040
1053
1066
1070
1064
1051
1040
1020
1009
1005
1009
1016
1033
1055
1081
1100
1116
1124
1124
1121
1109
1091
1073
1056
1041
1029
1016
999
983
966
952
940
937
933
930
930
936
943
950
953
954
953
952
954
960
957
957
952
955
958
959
958
957
957
956
957
958
960
962
956
957
960
963
965
962
959
962
962
966
968
968
967
966
969
971
974
974
974
973
980
984
988
985
986
982
988
993
999
996
999
1000
1003
1007
1009
1009
1009
1010
1015
1016
1018
1022
1021
1025
1030
1036
1036
1037
1036
1037
1043
1049
1047
1050
1050
1046
1048
1047
1045
1041
1033
1030
1026
1026
1023
1019
1009
1006
1003
1001
1001
994
994
989
988
989
988
986
982
981
985
987
988
985
981
978
980
982
982
979
981
978
980
983
986
984
985
984
983
987
985
985
983
982
983
987
990
986
983
985
988
989
990
986
985
981
986
987
986
985
985
985
984
988
990
987
982
984
984
990
991
984
982
982
985
990
988
986
984
981
983
985
987
984
982
982
983
984
985
983
980
981
983
982
987
985
982
981
982
985
986
981
982
981
986
988
991
990
986
988
990
992
995
994
994
995
993
1000
1001
1003
1003
1001
1003
1002
1005
1002
999
998
995
997
998
995
992
991
991
994
993
991
989
985
985
988
987
984
985
982
983
983
980
979
981
976
979
982
980
976
974
975
979
979
980
978
974
974
975
977
981
980
976
975
978
978
981
979
979
976
979
983
980
980
980
978
981
984
986
983
982
983
987
994
996
999
999
1010
1023
1034
1050
1059
1068
1070
1068
1061
1048
1027
1014
1014
1027
1048
1072
1100
1122
1142
1161
1173
1174
1160
1137
1115
1099
1082
1066
1048
1025
1002
984
969
954
940
933
928
929
937
944
950
956
959
963
970
972
973
972
968
973
974
975
976
974
974
976
979
981
977
976
975
977
981
982
980
977
978
979
981
985
987
984
986
986
990
991
991
989
988
991
996
999
998
997
1000
1002
1005
1008
1009
1007
1010
1013
1016
1018
1021
1019
1019
1024
1028
1033
1033
1031
1031
1038
1041
1044
1047
1046
1046
1048
1054
1056
1058
1058
1059
1062
1062
1066
1069
1064
1063
1063
1065
1062
1058
1049
1046
1043
1040
1040
1033
1027
1021
1017
1017
1016
1008
1005
1005
1006
1004
1005
1004
998
998
999
999
999
997
995
993
994
996
998
995
994
995
993
995
1000
995
993
991
994
998
998
996
994
995
995
995
999
996
994
991
993
995
993
994
991
990
992
994
994
993
990
985
988
993
994
992
989
989
991
996
996
995
990
988
990
994
994
993
991
989
989
993
995
993
990
988
992
994
993
991
990
987
988
990
990
989
988
987
992
990
988
988
983
989
992
992
992
991
990
994
1000
1001
1000
996
995
997
1002
1004
1003
1000
1001
1003
1006
1007
1004
1000
998
999
1001
1000
998
994
993
992
994
993
993
989
984
983
988
989
984
982
979
984
986
986
980
975
971
973
978
979
980
975
973
975
976
978
975
971
969
971
974
974
974
970
969
973
973
972
973
969
967
972
969
969
971
968
967
969
972
972
973
971
970
972
974
976
973
971
972
977
982
988
991
994
1001
1012
1027
1042
1051
1053
1054
1053
1047
1034
1014
999
991
1000
1018
1040
1066
1084
1106
1129
1150
1162
1158
1144
1121
1102
1086
1067
1048
1025
1004
984
966
949
932
923
915
913
920
923
930
933
936
942
951
955
956
955
953
953
956
960
959
954
956
957
959
960
960
959
957
958
961
963
963
958
960
962
962
963
965
964
962
963
966
968
970
968
968
969
973
977
974
971
972
977
980
981
984
984
985
987
990
994
995
996
998
998
1004
1008
1009
1008
1011
1016
1018
1021
1021
1021
1024
1029
1031
1031
1032
1031
1033
1035
1040
1044
1043
1041
1040
1038
1039
1039
1033
1027
1019
1018
1016
1014
1007
1002
997
994
992
991
988
982
981
982
982
982
980
974
969
971
972
972
972
966
963
966
967
971
968
965
962
965
968
967
968
963
963
966
966
966
965
964
963
967
970
970
968
963
964
965
968
968
964
965
963
965
965
966
966
963
962
965
964
969
965
963
961
964
966
965
966
961
958
958
966
967
967
966
963
963
967
967
965
966
963
967
963
966
967
962
958
958
960
963
962
958
957
963
967
970
971
968
967
968
968
974
973
970
972
975
977
984
985
982
978
977
978
979
978
973
973
970
972
970
967
968
967
970
969
973
968
962
957
959
961
960
957
954
952
957
960
963
961
956
956
956
958
959
958
951
951
953
956
957
955
954
954
955
958
960
956
958
957
958
962
963
963
959
959
964
968
972
972
974
973
981
997
1011
1029
1041
1055
1074
1086
1090
1085
1075
1061
1048
1043
1038
1040
1050
1071
1096
1125
1150
1165
1175
1175
1165
1156
1142
1127
1110
1092
1076
1061
1038
1016
989
966
951
940
933
927
931
934
939
943
947
950
950
947
946
948
948
946
944
945
944
949
953
949
946
945
947
949
949
951
950
947
947
951
950
953
950
949
953
955
961
959
957
955
956
957
961
963
961
962
965
967
970
971
971
970
973
979
981
983
980
984
986
990
993
995
995
996
998
1006
1010
1014
1009
1010
1015
1019
1025
1028
1030
1032
1037
1042
1048
1050
1047
1045
1046
1049
1047
1045
1038
1034
1032
1029
1026
1021
1013
1006
1006
1005
1004
1000
995
993
994
995
993
996
989
990
990
991
994
991
989
987
991
992
992
991
989
987
988
991
994
991
989
989
989
993
993
992
992
990
994
994
993
994
992
990
994
997
998
995
994
992
993
998
998
997
995
995
995
999
1003
1000
997
994
996
998
999
997
995
991
992
999
999
999
998
995
997
997
1000
999
996
994
996
998
997
998
994
993
992
995
997
995
994
994
993
996
999
997
993
992
995
999
1003
1003
1000
998
998
1002
1004
1004
1002
1004
1005
1008
1014
1011
1010
1008
1009
1009
1008
1008
1004
1003
1005
1007
1006
1001
998
994
996
999
1000
1000
995
994
994
995
997
996
993
989
988
989
990
989
986
983
988
986
990
986
985
984
986
988
987
986
983
980
981
982
985
982
984
980
983
984
987
983
983
984
982
989
988
989
988
984
988
992
995
997
998
1001
1008
1023
1039
1054
1071
1085
1091
1097
1092
1080
1065
1056
1055
1069
1093
1122
1144
1168
1191
1209
1215
1201
1177
1156
1140
1128
1111
1085
1058
1029
997
977
961
951
943
939
944
956
962
966
971
970
970
974
975
972
972
969
972
972
974
973
970
970
972
975
976
976
970
970
972
974
975
975
975
969
971
975
976
976
973
974
976
978
980
982
979
980
977
985
989
989
988
988
992
995
998
999
1001
1001
1005
1008
1012
1011
1011
1012
1017
1020
1026
1028
1027
1029
1031
1037
1041
1045
1048
1047
1054
1061
1062
1062
1059
1056
1056
1055
1051
1047
1040
1034
1032
1031
1031
1025
1018
1015
1008
1012
1013
1010
1005
1002
1003
1005
1006
1002
999
995
994
996
998
997
998
996
994
996
999
998
996
993
996
998
1002
999
996
992
996
997
1001
998
994
993
994
997
998
996
995
992
995
997
997
996
991
991
991
993
996
996
990
988
990
992
994
990
989
989
989
990
993
990
988
987
988
988
992
990
989
984
986
990
992
989
988
986
985
988
989
990
986
983
984
990
993
988
987
986
987
990
992
991
987
989
989
996
999
998
996
994
996
1000
1000
1002
1001
1002
1002
1008
1010
1007
1003
998
1001
1002
1004
999
994
993
995
995
996
994
991
989
989
989
991
991
988
986
985
985
986
981
979
980
983
986
986
983
979
974
976
982
980
979
976
976
977
980
982
980
980
976
974
980
982
980
979
978
977
980
982
980
979
974
978
982
985
982
985
987
991
999
1004
1012
1023
1038
1056
1067
1074
1074
1062
1047
1038
1036
1044
1059
1084
1110
1141
1170
1190
1197
1191
1167
1148
1129
1110
1087
1060
1029
998
975
957
940
928
922
924
934
946
953
956
956
964
964
968
965
962
958
965
963
966
966
966
963
967
969
973
971
968
967
969
970
973
972
970
969
970
973
977
975
972
975
976
981
984
981
982
981
982
987
991
990
989
990
991
996
1003
1001
1002
1002
1007
1014
1018
1017
1017
1021
1023
1027
1031
1033
1029
1029
1037
1042
1046
1045
1047
1047
1051
1056
1059
1059
1055
1050
1045
1045
1046
1041
1032
1026
1021
1020
1019
1015
1008
1003
1000
1001
1000
997
991
992
990
993
995
995
988
987
989
990
993
989
986
983
988
990
992
990
985
982
984
987
989
986
981
983
983
987
987
987
982
978
982
984
986
984
983
981
980
982
983
982
982
978
979
983
984
983
981
979
981
982
983
982
978
978
980
980
984
981
978
977
978
977
980
979
976
974
975
978
979
976
974
976
976
978
979
977
971
970
972
975
976
977
972
974
972
977
978
976
975
973
973
979
982
982
981
980
982
984
986
984
983
980
985
989
990
990
983
984
987
987
989
986
983
980
978
979
983
978
974
970
973
973
974
971
969
962
962
968
966
967
961
959
959
964
967
964
960
957
960
962
962
959
958
956
956
960
961
958
956
954
955
957
959
961
956
957
956
958
961
960
960
956
961
961
961
961
961
960
962
966
972
971
972
978
991
1010
1026
1043
1054
1058
1061
1057
1042
1020
1006
1004
1016
1041
1075
1106
1129
1148
1164
1172
1164
1142
1118
1095
1072
1050
1029
1003
977
952
934
925
916
911
912
917
925
935
940
946
942
942
941
945
947
946
941
942
940
941
946
947
945
944
948
950
953
953
951
947
950
951
955
954
953
954
955
959
961
963
961
959
963
968
969
970
971
966
972
981
983
986
984
986
990
993
998
1001
1002
1004
1006
1010
1017
1015
1017
1017
1021
1026
1035
1034
1038
1038
1041
1042
1046
1044
1037
1026
1026
1023
1020
1014
1006
997
993
990
991
990
985
979
979
980
977
977
974
973
974
976
978
975
971
972
972
975
977
976
973
970
971
976
977
977
972
972
973
975
977
977
975
972
974
976
978
977
972
969
969
976
976
976
974
971
974
978
980
979
976
974
974
976
980
977
975
973
974
976
978
978
974
973
973
978
980
980
977
977
974
978
982
976
976
975
974
978
980
979
977
974
976
979
980
979
976
974
976
977
983
983
983
982
985
986
988
988
987
985
987
993
998
996
996
997
996
1000
1000
998
994
991
994
992
992
992
989
986
989
989
990
989
986
982
980
981
987
985
983
978
979
979
982
979
975
976
977
981
983
982
979
974
976
978
978
977
976
972
975
976
980
979
977
973
975
976
980
980
976
975
975
977
982
979
976
976
975
978
984
981
979
976
981
986
989
993
994
997
1004
1015
1027
1040
1049
1059
1072
1078
1080
1069
1055
1038
1029
1034
1045
1061
1079
1102
1132
1156
1173
1182
1176
1162
1144
1131
1115
1098
1079
1059
1038
1017
998
976
959
942
937
937
938
942
944
947
954
965
972
971
969
969
969
969
971
970
971
968
970
971
975
975
970
970
971
972
976
974
975
974
975
976
981
978
975
974
977
982
985
985
980
982
982
987
990
988
990
990
990
992
996
998
998
999
1000
1003
1008
1008
1009
1009
1013
1018
1022
1021
1021
1023
1026
1028
1033
1035
1033
1034
1037
1041
1046
1049
1049
1050
1053
1058
1060
1066
1065
1064
1062
1064
1066
1059
1052
1047
1043
1042
1041
1035
1027
1022
1019
1020
1019
1014
1008
1006
1004
1006
1007
1005
1001
996
998
999
1004
1001
998
996
995
995
1001
1001
998
993
995
996
999
999
996
995
996
996
1000
1000
996
997
998
1001
1003
999
998
996
997
999
1003
1001
997
997
994
999
1002
1000
997
993
993
998
1000
999
994
992
993
996
998
996
995
990
991
994
999
997
994
992
993
996
999
994
991
988
990
993
994
994
991
988
992
993
994
992
991
990
989
990
993
995
990
986
987
992
993
992
992
993
996
999
1003
1002
997
994
996
1001
1004
1006
1004
1004
1006
1009
1011
1012
1006
1002
1003
1005
1007
1004
1001
1001
997
998
1001
996
992
992
990
995
996
995
991
986
987
992
993
990
981
980
983
983
988
987
984
982
981
984
983
980
980
979
979
983
984
984
979
977
978
982
983
982
977
980
979
983
985
983
981
980
980
983
986
982
981
980
982
984
985
984
985
988
993
1001
1006
1011
1018
1026
1042
1058
1068
1077
1079
1071
1063
1051
1040
1037
1040
1051
1073
1101
1128
1153
1172
1187
1194
1191
1178
1153
1136
1120
1101
1086
1071
1048
1021
998
974
958
946
938
930
927
931
943
950
955
963
964
965
967
968
969
967
966
967
970
972
972
972
967
968
971
974
974
972
971
972
975
976
978
974
974
975
977
979
978
975
977
979
982
985
984
983
983
981
985
992
992
989
989
989
994
997
995
997
997
1002
1005
1005
1007
1005
1006
1010
1018
1023
1022
1023
1023
1024
1031
1035
1035
1035
1034
1038
1045
1045
1048
1050
1049
1053
1057
1061
1061
1059
1056
1053
1054
1051
1046
1040
1031
1029
1026
1027
1022
1016
1011
1005
1005
1008
1003
1001
997
994
996
996
995
993
990
990
994
993
990
987
987
987
990
992
991
989
987
987
989
991
989
985
985
982
987
988
986
986
985
983
987
989
988
986
981
984
986
988
987
987
984
984
988
989
987
986
982
984
986
989
986
985
982
984
986
988
986
980
977
982
983
985
983
983
980
982
984
985
984
983
980
981
984
985
983
982
981
978
984
983
982
980
976
980
981
985
984
980
982
981
983
986
985
986
984
988
990
995
993
993
992
993
999
1000
1001
998
996
998
999
1000
1001
994
990
992
994
994
992
988
985
984
986
986
986
984
980
980
982
985
984
979
975
974
977
978
979
975
972
974
974
976
974
970
969
967
970
974
973
970
968
965
970
971
970
967
966
968
970
973
972
968
966
965
968
971
972
969
967
967
970
975
975
974
976
980
986
995
1001
1007
1018
1030
1044
1055
1062
1062
1053
1041
1030
1019
1016
1017
1032
1058
1091
1118
1143
1157
1165
1162
1149
1131
1108
1082
1060
1041
1017
996
973
951
933
922
915
911
909
908
913
923
934
942
947
947
948
947
950
952
952
951
949
948
953
955
951
951
949
949
956
957
955
952
949
952
956
960
958
956
954
955
958
960
961
960
958
960
965
968
966
966
966
964
968
971
972
973
973
973
977
982
984
984
983
987
991
994
996
993
997
1001
1006
1012
1011
1011
1008
1009
1015
1023
1023
1024
1024
1027
1031
1035
1039
1037
1037
1036
1040
1042
1038
1035
1030
1026
1026
1019
1019
1009
1003
1000
997
996
991
984
977
978
979
979
974
970
965
965
966
970
969
965
964
963
962
965
963
961
957
960
961
965
965
959
958
959
964
966
964
959
958
960
964
964
964
960
958
958
960
963
962
960
960
958
959
960
961
958
959
957
961
966
963
962
959
960
962
963
966
963
961
960
962
964
963
960
956
958
960
961
958
958
957
955
961
962
961
958
957
958
958
962
961
957
957
957
959
959
960
959
954
959
963
966
966
964
963
965
968
973
970
968
969
972
975
976
974
976
978
977
978
980
979
976
973
969
973
974
972
968
962
965
967
966
966
963
959
957
961
964
955
957
954
953
957
961
961
958
957
955
959
958
957
956
955
957
956
960
958
957
955
954
960
962
961
958
957
958
961
963
963
965
962
966
971
979
985
990
1002
1018
1033
1049
1056
1061
1055
1045
1030
1017
1004
1007
1020
1041
1066
1094
1113
1128
1138
1147
1140
1131
1109
1088
1072
1049
1034
1023
1000
978
959
943
930
927
920
919
923
931
940
946
951
