985
980
978
980
980
986
988
984
981
978
977
979
980
979
979
973
977
980
981
980
977
977
979
982
980
982
978
976
980
980
982
982
980
980
980
983
986
982
983
984
982
988
992
993
997
1002
1017
1034
1048
1064
1075
1079
1081
1076
1067
1052
1033
1032
1040
1060
1084
1112
1138
1156
1175
1186
1185
1164
1137
1116
1099
1083
1061
1035
1006
981
962
950
943
937
935
938
948
957
963
967
966
968
970
973
975
972
970
971
973
976
978
979
977
975
978
980
982
982
977
978
979
982
983
982
981
980
982
987
989
989
986
988
990
993
993
996
996
997
1000
1004
1008
1009
1008
1008
1011
1015
1020
1021
1020
1021
1026
1031
1033
1036
1036
1038
1042
1045
1047
1047
1048
1050
1053
1058
1061
1060
1061
1059
1066
1067
1069
1068
1068
1062
1061
1062
1057
1052
1043
1040
1038
1034
1033
1030
1022
1018
1018
1017
1015
1010
1003
1004
1003
1004
1003
1002
996
996
996
999
998
996
993
990
990
993
995
993
991
988
987
989
992
990
992
989
989
993
997
995
990
991
992
995
996
991
990
987
990
992
993
990
987
988
989
989
992
991
989
988
989
991
993
992
988
989
988
989
993
990
983
985
986
987
991
987
985
985
987
988
989
988
984
983
984
988
989
988
983
985
986
989
989
991
987
984
986
990
988
990
988
986
990
994
997
997
996
993
995
1001
1003
1005
1002
1002
1003
1006
1006
1002
999
996
998
998
998
996
991
987
991
994
992
989
987
986
986
988
990
988
983
979
980
983
987
986
981
977
978
984
985
984
980
980
981
983
984
984
981
982
981
984
988
987
982
984
984
986
989
988
984
983
985
991
992
988
989
991
994
1002
1007
1013
1017
1023
1040
1057
1069
1072
1071
1064
1053
1040
1026
1020
1024
1040
1068
1100
1130
1150
1162
1173
1170
1159
1134
1111
1089
1067
1046
1024
996
972
953
943
937
939
943
947
951
957
965
976
984
984
981
982
986
987
990
990
985
983
987
987
993
995
991
990
992
995
995
995
991
992
994
998
1002
999
999
1000
1002
1004
1004
1004
1006
1004
1006
1013
1018
1017
1018
1016
1020
1024
1027
1028
1025
1029
1033
1034
1040
1041
1038
1042
1045
1051
1055
1057
1057
1058
1060
1064
1068
1068
1070
1067
1073
1077
1081
1082
1078
1080
1081
1087
1086
1083
1081
1075
1072
1073
1069
1061
1054
1048
1045
1043
1040
1036
1029
1027
1025
1023
1020
1022
1017
1011
1010
1013
1014
1013
1009
1006
1008
1011
1012
1009
1007
1004
1006
1007
1006
1006
1001
1001
1002
1004
1005
1003
1000
999
998
1000
1006
1002
997
999
1000
1004
1005
1004
1000
998
1000
1003
1005
1004
1000
997
1001
1001
1005
1001
998
996
999
1001
1003
1002
998
996
996
1000
1004
1002
998
999
1000
1002
1001
998
997
997
996
1000
1004
999
997
996
998
999
1002
1001
997
994
998
999
1001
997
996
992
995
997
998
994
994
992
995
999
1002
999
996
997
997
1002
1003
1002
1002
1002
1005
1005
1006
1008
1006
1008
1006
1012
1015
1013
1011
1012
1014
1013
1012
1009
1006
1005
1005
1003
1005
1002
998
994
996
998
999
996
992
989
992
995
995
991
990
986
985
987
989
988
987
987
982
983
984
983
980
981
983
983
984
985
983
981
980
983
985
984
981
979
980
985
985
984
979
979
980
983
984
982
983
981
984
988
988
987
982
986
990
998
1003
1006
1014
1023
1038
1053
1065
1068
1061
1057
1048
1035
1020
1010
1006
1017
1038
1066
1092
1117
1135
1150
1156
1157
1145
1122
1099
1081
1064
1048
1026
1000
972
950
933
928
925
922
921
925
931
945
952
961
961
962
966
969
972
974
970
971
971
974
975
975
973
972
974
976
980
982
978
978
979
981
984
983
978
979
981
984
991
991
987
988
990
992
998
996
994
998
1002
1007
1009
1009
1008
1008
1011
1018
1021
1024
1022
1023
1025
1032
1037
1038
1038
1036
1046
1047
1050
1054
1052
1051
1054
1058
1061
1063
1061
1061
1064
1069
1070
1070
1070
1066
1067
1068
1069
1064
1059
1053
1047
1047
1042
1034
1028
1021
1017
1016
1013
1008
1004
1003
999
1002
1000
997
992
991
991
992
991
990
985
984
986
987
989
987
985
984
984
986
987
988
984
981
984
985
985
985
982
982
982
982
983
985
978
977
981
982
984
981
979
976
978
978
982
979
981
976
980
982
984
980
980
977
977
980
982
977
978
977
978
981
982
979
975
976
976
978
981
979
978
975
974
977
979
978
974
974
974
976
978
978
973
972
972
977
979
975
976
973
972
974
977
978
972
971
972
975
975
977
977
977
979
985
985
987
983
982
985
989
990
992
989
989
990
994
991
989
987
985
985
986
986
982
980
976
974
977
979
977
972
971
971
973
972
971
969
966
967
968
969
967
960
963
962
966
965
963
958
959
962
962
966
963
960
960
960
965
963
962
963
958
957
963
966
965
957
955
959
963
962
963
961
958
959
962
967
965
962
963
966
972
975
982
983
987
1004
1017
1033
1039
1041
1038
1030
1017
1002
981
973
977
995
1023
1051
1076
1097
1107
1119
1121
1109
1088
1061
1039
1020
1003
986
962
938
916
905
900
897
896
895
901
907
921
927
936
938
941
944
948
951
948
946
945
949
954
957
955
955
952
955
958
959
958
955
953
954
955
961
963
962
959
963
965
969
970
969
967
970
976
977
978
976
975
981
986
989
989
989
988
993
1000
1004
1005
1003
1003
1008
1014
1017
1018
1020
1019
1023
1027
1028
1030
1029
1029
1035
1039
1043
1043
1041
1040
1043
1044
1047
1046
1045
1043
1039
1044
1042
1037
1032
1023
1023
1019
1016
1010
1002
996
990
989
983
980
974
972
967
967
966
965
962
959
960
960
960
961
955
952
954
955
956
955
950
949
945
950
953
953
950
945
947
949
950
951
948
950
948
950
950
948
947
944
944
947
948
947
947
944
948
948
951
950
946
945
949
949
944
946
943
946
947
947
949
946
945
942
945
948
950
945
946
945
945
948
949
947
946
942
940
944
949
947
942
940
942
946
945
941
940
940
940
942
944
945
942
941
943
945
945
940
939
940
940
942
945
945
943
945
948
950
952
954
949
951
949
955
958
959
958
956
961
960
960
957
955
950
951
952
953
949
949
947
947
948
949
946
946
942
941
943
947
943
942
938
938
938
937
936
935
935
936
940
940
940
933
931
931
935
936
934
934
931
931
933
934
933
932
933
931
933
937
932
930
929
930
936
938
936
933
932
936
937
940
936
935
935
936
942
948
952
954
959
965
982
998
1012
1020
1028
1031
1030
1024
1004
975
951
937
944
963
983
1006
1029
1051
1066
1073
1073
1060
1039
1021
1007
994
975
957
941
927
917
908
903
896
893
898
906
911
914
916
919
923
927
932
930
927
926
925
930
935
932
932
929
931
934
935
936
930
931
931
938
939
939
936
933
933
941
943
943
945
945
948
952
956
956
954
957
959
963
968
967
969
968
975
979
985
986
987
989
994
997
1004
1007
1008
1010
1016
1022
1027
1029
1031
1032
1036
1042
1044
1045
1043
1042
1043
1043
1041
1037
1029
1022
1018
1015
1016
1005
1000
995
991
994
990
986
983
978
977
975
979
975
974
972
971
975
973
969
967
965
965
970
970
971
965
964
966
969
970
967
966
963
966
969
970
967
966
966
966
968
968
971
969
969
970
972
973
974
972
971
974
977
978
974
971
973
971
973
978
978
974
970
974
976
979
974
975
975
975
978
978
978
977
974
973
978
978
978
974
971
973
973
975
975
972
968
972
973
973
973
972
969
972
974
976
974
972
969
970
973
971
971
971
966
970
973
974
970
971
971
975
979
982
978
975
975
978
981
985
985
981
983
984
986
984
983
978
976
978
978
978
978
974
972
972
972
972
969
969
969
966
970
971
968
968
963
962
966
966
966
966
962
963
962
967
961
960
958
960
962
965
964
958
957
958
962
966
964
961
960
962
963
964
965
961
960
963
965
966
966
964
961
967
966
970
972
971
970
978
985
994
1004
1015
1026
1041
1049
1056
1055
1045
1030
1011
999
997
1005
1020
1045
1071
1096
1119
1131
1139
1135
1121
1100
1080
1058
1039
1016
998
977
961
941
927
918
913
916
921
925
929
936
943
951
957
957
955
953
954
958
958
958
956
951
958
960
962
963
961
958
960
964
966
966
964
962
963
966
972
970
969
967
968
970
973
977
976
977
979
983
985
987
986
984
990
993
995
998
997
1000
1003
1007
1008
1013
1013
1014
1016
1022
1029
1030
1029
1027
1031
1034
1038
1038
1039
1037
1040
1046
1051
1054
1053
1053
1052
1058
1056
1053
1045
1040
1038
1036
1033
1027
1021
1012
1009
1009
1003
1001
995
989
989
990
990
988
984
979
982
980
982
979
981
976
972
976
979
977
973
974
973
976
978
975
974
970
970
977
975
979
976
975
975
979
981
976
975
974
979
979
981
979
975
973
977
979
982
982
979
976
977
978
979
979
977
976
976
978
980
979
977
974
976
978
980
978
975
975
974
976
977
975
973
972
973
972
976
974
972
970
972
974
975
973
969
966
971
974
974
972
970
969
970
972
976
975
970
969
971
976
980
976
980
979
980
983
983
984
982
981
983
986
990
989
989
986
984
986
987
983
980
981
977
982
983
981
977
971
969
975
976
975
970
970
969
971
971
972
966
960
959
966
968
965
961
958
958
960
964
965
960
958
959
960
963
962
960
957
960
960
962
963
960
958
957
960
964
962
959
956
959
963
963
964
962
960
963
967
975
979
982
989
1002
1017
1030
1040
1043
1043
1034
1023
1005
983
973
983
1006
1037
1068
1096
1108
1117
1119
1104
1081
1060
1031
1008
987
967
947
928
910
898
896
897
902
903
911
915
920
932
941
943
945
943
945
947
949
948
950
946
947
951
953
953
950
946
949
953
955
954
953
955
956
957
962
960
960
957
959
961
967
967
964
961
964
971
976
978
977
975
977
983
988
990
990
994
996
1001
1004
1004
1006
1007
1013
1021
1023
1022
1023
1021
1027
1031
1036
1034
1032
1032
1037
1041
1045
1043
1041
1033
1036
1034
1033
1027
1018
1009
1006
1003
1002
994
987
984
980
978
977
974
969
965
964
966
969
965
962
959
958
961
962
961
957
956
958
955
956
954
955
954
956
957
957
956
952
957
954
956
959
958
958
955
954
958
958
961
954
954
954
957
960
959
957
956
955
956
957
955
956
954
957
959
962
958
952
951
952
957
957
955
955
949
948
951
955
955
955
950
953
954
956
953
953
951
951
952
953
952
951
949
950
953
956
958
958
955
960
961
964
959
956
960
962
965
966
965
963
964
966
968
965
964
962
960
961
960
963
962
958
957
954
957
960
958
953
950
947
949
951
948
947
944
941
940
943
945
946
943
944
944
945
944
945
942
939
942
945
944
941
938
938
941
945
942
939
938
940
942
947
947
943
942
941
944
946
947
947
942
942
944
949
950
949
949
952
955
959
967
973
983
1001
1021
1037
1047
1051
1051
1043
1031
1013
991
973
968
974
994
1021
1049
1071
1086
1093
1091
1082
1062
1041
1024
1013
999
986
969
950
935
923
916
916
915
914
913
919
927
935
938
935
932
935
937
937
940
936
934
937
939
940
939
937
937
939
936
939
940
941
939
941
942
943
941
940
942
943
947
951
952
949
947
949
952
955
957
960
959
959
965
970
971
970
973
974
982
986
988
990
990
993
999
1006
1009
1008
1010
1012
1016
1023
1026
1026
1029
1033
1035
1038
1040
1037
1034
1036
1036
1035
1029
1023
1017
1011
1010
1008
1004
998
990
987
988
984
984
976
974
971
972
975
973
971
970
968
969
969
968
968
967
966
968
968
969
968
965
967
970
974
971
969
962
966
970
973
973
968
970
969
972
975
975
973
972
974
975
975
976
976
973
974
977
980
979
975
976
977
978
980
979
980
977
975
977
982
980
976
972
974
980
981
979
974
974
975
979
981
979
976
974
977
978
979
979
975
972
975
977
981
979
979
977
978
982
985
987
985
982
984
987
989
989
991
990
993
992
999
997
993
989
990
991
993
990
984
984
984
984
984
982
980
978
977
976
979
977
977
973
970
974
978
978
974
974
974
973
976
976
972
968
968
972
975
976
974
970
971
975
975
974
971
971
971
974
977
974
974
973
975
979
980
980
977
975
976
983
989
994
997
1003
1012
1025
1039
1055
1062
1063
1066
1065
1061
1048
1026
1018
1018
1027
1044
1064
1085
1107
1127
1145
1153
1143
1125
1102
1083
1069
1057
1040
1020
1000
980
963
953
944
935
934
935
943
953
957
961
962
966
972
974
970
973
970
971
975
979
978
977
976
978
982
984
980
981
979
978
984
988
987
985
984
985
987
990
988
989
988
990
995
998
996
994
995
996
1000
1005
1006
1006
1006
1009
1012
1016
1015
1016
1016
1020
1021
1025
1027
1025
1026
1029
1032
1038
1039
1041
1042
1042
1043
1049
1052
1051
1054
1059
1061
1070
1072
1072
1070
1071
1074
1072
1067
1063
1055
1051
1048
1043
1041
1033
1027
1022
1023
1023
1020
1016
1012
1010
1012
1011
1010
1004
1003
1003
1004
1007
1004
1000
998
1000
1003
1005
1003
1001
997
999
998
1000
999
1001
998
1002
999
1005
1004
1002
1000
1000
1004
1006
1006
1003
1002
1004
1008
1008
1005
1005
1002
1002
1006
1009
1009
1001
999
1000
1004
1008
1006
1002
1001
1001
1001
1005
1004
1003
1000
1001
1003
1003
1002
1000
998
998
1000
1000
1003
999
998
998
1002
1001
1002
999
995
996
999
1001
1002
997
993
997
997
1003
1001
997
996
999
1002
1005
1008
1006
1007
1007
1010
1012
1011
1009
1008
1010
1016
1019
1019
1015
1015
1015
1012
1016
1013
1009
1009
1007
1008
1007
1008
1003
1002
999
999
1003
1003
995
995
991
994
998
997
992
991
989
987
990
991
988
985
986
988
987
988
982
983
983
987
989
985
981
980
981
981
980
984
981
980
981
982
983
981
980
975
977
980
982
984
976
976
975
980
984
984
982
981
982
985
991
997
998
1002
1011
1026
1041
1057
1067
1075
1084
1089
1085
1073
1056
1041
1034
1042
1055
1071
1096
1120
1149
1170
1189
1197
1188
1170
1147
1125
1111
1094
1077
1057
1034
1012
990
972
953
941
936
935
939
943
945
951
954
960
967
967
968
962
963
967
970
967
967
966
964
967
972
970
970
965
969
971
974
974
972
973
974
974
977
978
975
974
976
977
981
979
977
978
979
981
982
982
984
986
982
990
994
990
989
991
995
996
1000
1004
1003
1005
1004
1010
1016
1018
1016
1017
1020
1024
1032
1033
1031
1032
1031
1035
1040
1038
1040
1043
1043
1050
1057
1056
1057
1055
1052
1057
1058
1055
1050
1043
1041
1038
1034
1030
1023
1016
1014
1011
1010
1006
997
997
993
994
994
993
988
983
982
985
984
984
979
977
978
979
983
979
979
975
976
979
982
978
976
973
973
974
976
979
975
973
974
977
979
980
976
972
976
976
978
977
974
975
975
980
980
979
976
974
975
979
981
978
972
974
974
976
978
979
975
975
973
974
977
977
972
972
974
973
978
976
971
971
974
975
977
976
972
972
973
976
980
979
976
972
974
977
977
977
975
970
972
975
976
976
973
973
970
970
977
979
977
975
978
982
983
988
983
982
983
986
989
990
991
989
990
995
998
997
993
986
988
989
991
992
986
984
984
984
986
982
978
975
974
977
978
978
971
972
972
973
975
974
971
969
966
967
972
974
972
969
965
968
969
971
969
963
963
967
969
967
965
965
965
968
968
968
965
958
961
964
968
970
965
964
967
969
972
973
969
965
966
969
970
971
971
972
968
971
978
982
981
985
993
1007
1022
1036
1046
1053
1060
1061
1060
1051
1036
1020
1013
1018
1030
1050
1073
1097
1127
1151
1169
1178
1174
1157
1135
1116
1102
1084
1064
1039
1012
988
969
949
931
917
913
914
923
930
935
938
946
950
955
958
954
953
953
955
957
960
959
955
958
960
961
961
962
961
959
962
964
964
962
960
960
964
968
969
965
962
964
965
970
974
969
971
973
978
981
982
978
979
983
985
990
988
989
987
989
996
1000
1003
1003
1002
1007
1012
1016
1018
1019
1018
1021
1026
1029
1028
1032
1031
1034
1039
1041
1043
1044
1045
1045
1050
1054
1054
1052
1049
1048
1048
1045
1042
1036
1023
1023
1019
1020
1011
1006
1001
999
993
997
992
987
981
983
984
982
983
980
976
977
977
976
973
969
967
968
972
973
973
972
967
968
969
969
970
965
963
965
967
971
969
962
961
962
964
969
966
965
964
964
968
968
964
964
962
963
967
971
968
968
961
963
968
971
970
966
962
963
962
964
967
962
961
965
968
968
965
966
963
963
965
967
965
961
960
960
964
964
965
962
962
959
963
965
965
962
960
961
962
964
963
959
956
957
961
962
964
958
960
960
963
967
968
967
965
965
968
972
973
974
971
973
977
981
980
977
976
975
977
979
975
973
972
968
968
970
968
962
959
958
960
961
961
958
956
956
956
958
955
954
950
948
948
952
954
952
947
946
949
951
949
947
942
942
943
944
945
942
941
945
946
949
948
945
941
944
945
945
944
943
940
941
942
944
943
941
940
938
940
945
946
942
940
944
949
953
960
965
974
992
1011
1025
1032
1035
1027
1017
999
981
968
967
975
1002
1032
1063
1085
1104
1107
1107
1091
1070
1043
1016
991
969
946
921
899
879
869
865
870
876
884
891
897
902
909
917
913
914
908
907
913
915
916
915
915
915
918
918
916
917
914
918
918
922
921
919
917
917
920
925
927
928
926
927
928
934
935
936
935
939
942
943
948
948
946
951
955
961
963
969
968
970
978
986
989
989
990
995
1001
1006
1006
1005
1007
1008
1011
1016
1014
1007
1006
1003
1001
999
992
987
983
977
971
969
964
957
952
945
946
948
946
940
934
934
934
938
937
936
931
927
927
933
932
927
926
923
925
