957
961
961
960
960
961
964
968
968
970
969
973
973
975
975
974
969
965
970
972
974
974
972
972
978
983
984
980
970
964
963
963
963
958
955
951
953
950
948
945
945
945
946
945
944
943
944
941
943
945
943
942
939
939
941
944
944
944
941
944
945
944
946
944
939
934
927
921
918
915
909
904
912
938
970
1002
1039
1091
1149
1194
1218
1217
1176
1096
1004
943
917
916
927
936
940
941
938
938
937
936
938
939
938
936
936
933
937
938
936
937
936
935
936
936
940
937
937
936
937
939
941
939
935
936
937
940
938
939
936
936
936
937
937
938
935
934
938
939
940
938
937
936
938
940
940
937
935
938
937
940
942
938
939
935
941
942
942
940
938
939
940
942
942
940
937
937
939
941
939
936
934
933
936
938
936
936
934
934
938
940
940
938
938
936
941
943
943
944
944
947
951
953
955
956
955
954
957
961
960
962
959
959
961
963
962
961
959
960
963
963
963
962
962
962
962
964
964
964
964
962
962
965
964
961
960
959
961
961
961
960
958
956
957
960
960
958
957
956
957
958
959
956
955
954
955
957
958
955
955
954
955
957
957
956
953
953
955
956
955
955
953
957
958
961
965
965
964
967
969
973
975
974
975
974
974
980
979
978
981
978
980
981
980
979
976
976
976
977
979
976
978
979
981
985
989
986
977
970
968
968
965
961
956
953
953
954
954
955
954
951
955
955
952
953
949
950
948
951
950
948
945
947
948
950
950
949
948
947
948
948
945
937
928
926
919
915
916
925
946
971
1004
1040
1093
1147
1187
1207
1205
1168
1092
1007
946
916
917
931
942
944
941
939
941
942
944
944
939
940
940
942
942
940
938
938
939
943
941
940
939
939
942
942
945
943
940
942
943
946
944
944
941
939
945
946
944
943
941
942
942
943
941
943
941
939
942
942
943
942
942
943
943
944
945
946
943
943
944
945
946
947
945
944
947
948
947
946
947
945
944
946
947
945
943
943
946
947
946
946
944
943
944
946
946
947
943
943
944
947
947
947
945
945
949
950
952
952
953
953
956
960
961
958
960
961
964
966
967
963
962
961
964
967
969
965
966
966
968
967
968
965
962
962
963
967
966
966
967
964
967
966
964
965
965
962
964
966
966
964
962
961
962
964
963
964
963
961
964
962
960
957
959
956
960
959
959
958
957
956
960
960
960
959
955
955
961
960
961
960
958
955
959
960
962
961
960
960
964
967
968
969
967
967
970
974
977
977
974
977
980
984
983
984
986
983
986
987
985
979
978
979
981
985
985
986
985
981
986
987
988
991
991
988
980
976
971
970
965
963
962
963
960
958
956
956
958
960
959
958
954
953
955
957
957
957
954
954
956
957
958
957
956
953
955
955
951
944
937
931
930
928
921
918
925
946
977
1009
1053
1109
1160
1194
1204
1182
1120
1041
973
931
918
924
936
943
946
945
945
945
948
947
945
946
947
949
947
949
947
947
949
948
946
946
945
946
947
950
950
947
945
942
944
945
946
945
943
943
944
945
947
945
944
943
943
946
948
947
944
944
946
947
944
946
944
946
945
947
946
943
944
941
945
946
947
945
944
944
945
946
947
944
945
944
943
945
945
944
944
945
947
945
944
944
940
939
939
941
942
943
941
941
942
944
944
942
942
940
943
945
948
950
951
950
953
958
959
961
958
956
958
961
963
963
960
962
963
966
962
965
962
962
964
964
966
965
963
961
964
964
963
963
963
965
966
964
965
965
963
962
965
965
963
960
958
958
959
960
957
957
957
956
958
961
960
957
956
953
956
957
957
957
954
952
956
954
953
953
953
953
955
958
958
957
956
952
953
955
955
954
956
954
958
963
964
961
961
961
964
967
970
971
970
969
971
972
973
976
978
980
980
979
977
975
974
975
976
979
982
983
982
975
970
967
965
961
957
952
952
951
953
951
952
955
954
953
951
947
945
943
945
947
948
948
946
945
947
946
945
945
943
946
947
945
944
941
933
926
924
922
914
906
907
921
950
981
1016
1060
1112
1163
1200
1212
1190
1128
1040
962
920
911
917
928
933
935
936
934
938
939
935
934
934
933
934
935
932
933
934
935
934
932
931
933
933
935
936
937
935
936
937
939
936
934
931
930
934
935
935
932
931
932
934
935
933
932
927
925
930
934
934
936
932
929
928
927
926
927
928
930
933
933
933
932
927
925
928
931
932
931
928
927
928
927
926
924
920
920
922
925
923
923
921
919
921
922
920
921
918
915
919
921
922
920
922
923
928
932
934
938
940
939
943
949
951
953
950
952
955
956
955
958
956
955
958
960
961
960
959
956
959
960
963
963
958
958
961
959
960
961
959
954
957
961
961
961
957
957
954
959
958
958
957
954
956
958
958
957
957
953
955
957
954
954
953
949
952
954
954
953
950
950
950
953
953
951
952
950
950
954
955
955
953
954
958
958
959
962
960
961
965
968
967
967
968
968
969
973
974
975
974
972
975
976
977
980
979
979
981
981
981
979
977
978
976
981
985
989
987
979
972
969
968
963
961
955
954
954
954
954
952
950
953
955
952
952
952
950
952
952
952
951
948
950
951
951
951
949
945
934
930
928
922
915
914
931
965
1003
1046
1103
1163
1211
1238
1228
1168
1076
984
924
905
913
921
933
939
942
942
943
943
942
938
941
944
945
942
943
942
942
941
945
945
942
940
940
941
943
944
942
942
941
942
944
944
944
944
942
945
943
943
944
944
944
945
947
948
949
945
945
944
946
944
943
944
940
945
944
946
945
944
941
944
946
946
945
943
942
944
946
945
943
941
941
940
942
941
941
939
938
941
941
941
939
937
940
942
945
944
947
944
946
947
952
954
955
955
954
959
962
963
962
962
964
967
969
968
966
965
965
967
970
971
968
966
967
970
971
973
969
970
966
969
970
973
969
967
967
968
969
969
968
966
963
966
966
964
965
963
960
963
964
964
964
964
962
964
963
963
964
962
962
963
964
965
963
962
958
960
964
965
962
959
956
960
962
961
962
961
960
960
963
964
965
967
966
969
976
975
978
975
976
979
981
982
985
985
985
987
988
986
983
980
980
984
986
987
992
992
992
986
980
977
975
969
966
963
962
962
958
959
957
959
959
959
958
956
954
955
957
955
959
955
953
955
957
957
956
958
959
959
959
958
954
946
936
932
926
920
915
924
953
987
1023
1072
1133
1183
1214
1215
1175
1093
998
937
917
928
945
953
949
949
948
949
951
950
951
947
946
947
948
950
950
947
947
950
949
950
950
947
947
950
951
950
950
949
946
950
951
951
950
950
948
950
949
952
950
947
950
951
951
951
950
949
948
950
952
952
952
949
948
948
950
948
950
947
947
948
949
949
949
948
946
947
952
952
950
948
946
949
948
949
949
947
943
947
948
945
947
946
946
946
948
950
949
949
948
955
956
959
959
958
961
964
968
968
966
965
966
967
971
971
969
968
969
971
974
973
973
971
968
970
972
973
972
972
970
970
974
973
970
970
968
970
968
967
967
966
966
967
970
968
968
966
965
968
967
970
967
966
963
966
968
968
967
964
963
964
964
964
963
960
960
960
962
962
960
960
959
959
960
960
960
957
959
961
962
962
961
961
959
963
962
961
960
957
958
961
964
963
965
968
967
970
972
974
974
974
972
979
983
985
985
982
985
987
988
986
982
979
976
982
987
988
986
986
987
990
989
982
972
972
968
968
968
965
961
960
955
955
959
958
958
955
955
953
954
953
954
953
952
952
954
954
951
951
949
950
952
953
951
946
940
932
930
926
915
909
912
936
961
985
1014
1051
1102
1157
1196
1214
1217
1191
1127
1047
975
928
915
917
931
942
945
944
942
943
944
946
946
945
943
941
939
942
943
944
943
941
940
937
941
942
941
941
942
942
943
945
943
940
937
939
939
941
941
941
941
939
945
942
941
940
937
940
943
943
942
941
940
940
942
944
944
940
939
942
943
943
944
942
935
939
943
941
942
943
939
942
941
941
941
939
937
940
940
936
937
935
935
935
941
939
937
936
935
935
938
939
938
936
936
938
944
948
949
949
948
951
952
954
954
953
954
957
958
959
957
956
957
960
963
965
960
962
960
963
961
961
960
958
960
963
961
961
961
959
958
958
958
960
958
956
957
955
958
958
958
956
952
954
954
955
954
955
951
954
956
957
957
953
951
951
949
950
949
950
946
949
951
952
953
949
948
948
948
949
949
949
948
952
954
952
951
952
951
951
952
951
949
948
948
948
951
951
949
947
949
948
952
955
956
957
959
963
968
969
966
965
966
970
976
977
974
972
971
971
976
977
972
972
973
974
976
975
972
972
975
979
974
966
962
960
959
959
958
957
955
950
946
947
948
948
950
947
944
946
946
947
943
942
945
947
947
948
948
947
944
945
942
945
943
942
941
942
944
943
937
929
923
922
923
916
909
911
932
961
992
1028
1073
1124
1172
1202
1217
1195
1128
1043
968
927
916
919
925
935
934
934
934
934
935
936
931
931
932
934
937
936
933
935
938
938
938
936
935
935
936
939
938
936
931
930
934
934
938
936
931
930
933
934
933
935
933
935
938
939
940
938
937
936
938
937
935
934
934
936
938
938
938
935
933
936
936
935
935
932
931
934
936
936
937
932
930
930
932
931
928
927
928
930
929
929
927
926
924
924
925
926
925
924
919
922
923
924
923
924
923
925
928
935
934
934
937
943
946
947
949
949
950
954
958
960
960
958
960
960
962
963
964
963
962
964
964
966
966
963
966
965
968
967
967
966
966
966
969
970
968
965
964
968
968
969
968
966
963
963
966
965
963
962
961
964
965
963
963
962
961
961
964
964
961
962
961
960
959
964
961
960
958
961
963
964
962
960
962
963
966
963
964
962
964
966
966
964
966
963
962
966
966
968
965
965
963
968
971
974
974
976
972
977
978
981
982
981
981
983
986
987
990
986
987
990
992
993
991
990
987
988
993
992
991
990
991
997
1002
1000
996
986
979
980
981
979
975
972
970
968
966
964
964
965
963
966
965
967
965
964
965
965
967
967
967
965
963
963
965
966
966
965
962
966
966
966
963
961
957
953
946
940
938
932
926
924
931
951
976
1003
1034
1084
1143
1198
1232
1243
1221
1163
1079
998
946
931
938
952
958
958
955
955
954
956
957
957
957
955
954
956
959
958
958
958
957
957
960
959
959
959
954
959
962
960
959
958
957
956
959
960
959
957
956
957
959
959
958
955
956
958
962
961
960
959
960
960
962
961
960
959
958
959
958
961
960
960
957
960
960
963
960
960
960
962
965
965
964
961
960
961
962
963
959
960
957
957
959
959
958
956
953
955
957
956
956
956
954
958
960
959
963
960
960
964
968
969
970
973
972
977
978
981
982
984
981
983
985
985
986
985
983
985
985
985
984
984
981
987
987
987
986
984
985
987
987
985
984
984
984
984
986
986
984
983
980
981
982
982
981
979
978
981
982
981
979
979
978
980
981
979
978
978
976
977
980
980
978
977
976
979
981
979
977
976
975
975
976
975
975
975
973
975
975
978
975
973
973
977
979
980
980
980
981
984
989
991
991
991
991
992
994
996
994
995
993
996
999
1001
1002
1001
997
998
999
998
998
1000
1000
1002
1004
1004
1008
1008
997
992
991
991
984
983
979
976
976
976
974
971
970
972
972
971
970
972
968
972
975
972
971
968
966
967
971
971
970
969
966
969
970
968
960
952
945
941
939
932
926
934
954
987
1020
1058
1108
1161
1207
1234
1238
1212
1151
1076
1004
953
935
932
939
949
956
963
963
961
961
960
959
960
962
961
961
959
957
958
962
961
962
963
959
962
964
961
963
957
956
960
961
961
960
957
957
957
959
960
960
960
958
961
961
962
962
960
960
962
962
965
963
962
960
962
963
962
962
959
959
961
962
963
962
959
961
963
963
964
964
963
962
963
966
966
963
962
960
962
964
966
963
963
958
962
962
962
961
960
960
960
964
964
965
962
962
964
966
968
967
967
966
966
973
973
975
974
973
977
982
982
982
982
981
984
984
983
983
986
982
983
984
985
985
982
981
984
985
983
983
979
978
980
983
981
979
980
980
980
980
982
979
978
978
979
980
979
980
980
979
978
980
981
979
977
974
976
977
976
975
973
972
973
973
973
971
973
972
975
976
977
977
974
973
975
976
976
975
971
970
975
973
975
974
973
971
972
974
972
972
970
970
973
977
978
979
979
979
981
987
987
989
988
989
992
994
996
995
995
996
999
999
999
998
993
991
993
994
996
994
994
1000
1002
1002
995
988
985
982
982
980
979
975
969
966
966
969
970
969
965
963
963
965
962
961
964
962
964
964
966
966
962
958
959
961
960
960
956
949
943
939
934
926
919
920
937
961
989
1020
1063
1121
1177
1207
1224
1219
1178
1100
1018
955
925
919
925
935
946
952
952
948
949
946
950
950
952
948
948
947
948
947
950
950
949
947
948
948
950
947
945
944
945
948
950
948
945
946
948
948
948
949
946
944
946
949
948
947
944
944
946
945
945
942
943
943
945
946
948
946
945
940
944
947
946
945
943
944
949
950
947
946
945
943
942
943
943
941
940
940
942
941
939
942
938
938
939
942
940
939
935
934
937
939
941
944
943
942
944
947
950
952
950
950
952
955
958
958
958
956
960
964
965
965
965
964
967
967
968
967
965
964
964
967
969
966
963
966
964
966
965
964
965
961
962
964
963
960
959
959
962
963
962
963
962
960
963
961
959
957
957
956
958
958
961
960
958
957
960
960
958
953
953
951
954
957
956
955
952
952
956
955
956
954
953
952
958
955
957
957
957
957
958
959
960
959
956
954
957
958
958
960
957
957
961
962
964
967
968
966
970
973
972
969
967
967
974
975
981
981
979
978
979
983
981
979
977
977
979
979
980
980
981
980
977
973
967
965
963
959
958
954
953
950
948
948
954
954
955
954
950
948
948
949
949
949
949
947
946
950
951
950
948
946
949
951
945
938
930
924
919
913
910
919
941
969
1001
1042
1098
1155
1196
1222
1222
1184
1105
1013
947
921
913
922
930
936
940
939
939
940
943
942
937
936
938
940
940
938
934
936
936
940
940
939
938
936
938
938
937
937
935
935
937
939
938
937
937
936
938
939
939
937
936
935
936
937
936
938
935
936
936
937
938
939
936
937
938
940
941
940
941
939
938
940
939
938
938
937
939
940
938
936
935
935
935
936
934
935
931
928
932
933
932
931
929
927
927
931
929
930
930
926
930
933
936
935
935
936
941
942
945
947
944
947
950
955
955
959
959
961
964
965
965
968
967
969
973
971
972
970
970
970
972
972
971
970
968
968
970
971
972
970
970
969
969
972
972
969
969
967
969
971
970
967
968
965
966
967
966
966
963
962
963
965
965
965
961
959
960
962
961
963
960
962
962
964
963
962
962
960
963
961
962
961
960
957
958
959
960
959
958
957
959
961
963
964
962
962
966
965
966
964
966
968
971
973
977
977
976
976
981
984
983
984
984
986
988
990
991
990
985
984
985
989
990
990
988
987
992
998
996
991
983
977
979
977
975
973
969
967
966
965
965
960
959
960
960
963
961
960
960
959
959
959
960
957
958
957
959
961
960
961
958
957
958
957
949
941
933
927
921
919
922
934
960
994
1036
1085
1151
1205
1234
1232
1187
1104
1010
943
922
930
946
955
956
953
949
950
953
953
952
950
950
948
951
952
954
955
952
952
951
952
953
949
949
949
951
952
952
953
950
947
950
952
952
951
951
949
952
952
951
952
950
950
949
952
951
953
951
951
949
953
953
951
951
949
953
952
953
953
952
950
954
954
955
953
950
950
954
954
954
955
953
951
951
955
955
954
951
950
952
953
952
951
951
951
953
953
957
957
956
957
960
961
965
966
966
966
970
970
971
970
970
971
971
973
975
975
972
972
975
977
979
974
975
974
975
977
978
977
971
970
971
976
975
974
974
972
974
977
976
975
972
969
972
973
971
971
970
967
966
970
971
969
968
968
967
969
970
968
966
964
966
968
969
966
966
964
965
969
969
964
964
964
962
964
965
964
964
961
964
966
964
966
963
963
962
965
965
966
964
963
967
967
968
967
968
969
973
977
977
975
979
979
983
985
987
987
987
987
991
994
995
995
993
991
991
990
989
991
992
989
991
995
997
995
986
978
977
977
972
971
967
964
964
963
962
963
960
963
963
965
966
964
960
960
961
963
965
964
959
959
960
961
960
961
956
955
956
960
959
955
950
942
937
935
934
923
920
930
954
982
1011
1052
1108
1162
1199
1213
1189
1128
1042
967
928
925
936
948
953
952
