915
927
934
936
935
938
938
936
935
936
937
939
940
938
934
935
933
936
937
935
936
935
934
935
935
936
935
934
932
935
939
939
937
936
934
938
939
939
936
934
934
938
938
939
938
933
937
937
939
939
937
936
934
936
938
937
937
933
932
935
938
939
936
933
934
934
936
937
937
936
936
937
937
935
932
933
932
933
935
936
934
934
931
934
932
933
930
928
927
929
933
934
936
933
933
934
935
937
937
937
935
939
943
946
947
947
949
951
955
955
955
954
953
956
957
957
957
957
957
958
960
960
956
955
951
954
957
956
954
954
951
953
955
955
955
955
955
958
957
956
954
952
951
951
955
953
952
950
949
949
949
948
946
946
944
948
950
948
947
946
945
946
946
943
942
943
942
946
947
950
947
946
944
947
946
947
946
944
943
947
948
948
948
946
945
947
949
949
950
946
942
946
947
946
943
941
944
946
950
950
950
949
946
948
951
950
952
950
950
956
957
958
958
956
958
959
962
962
963
963
964
965
971
971
971
969
969
969
972
972
970
967
966
967
969
972
970
971
967
965
961
961
956
953
947
944
947
946
945
943
940
939
942
943
944
944
942
943
945
946
943
941
941
940
938
941
940
937
938
939
937
932
925
920
914
907
901
908
923
946
973
1008
1054
1107
1155
1183
1188
1168
1114
1034
966
925
909
908
911
919
927
926
927
930
931
931
930
929
927
930
931
931
930
927
925
925
927
928
930
927
927
929
934
933
930
929
924
927
928
927
929
928
927
932
932
934
933
929
930
932
932
930
931
930
927
930
929
930
926
927
926
929
929
930
927
926
924
927
932
933
930
930
927
928
929
927
926
925
926
925
925
925
925
922
922
926
926
926
924
921
917
921
922
922
918
916
914
916
917
915
916
914
917
916
919
923
924
924
924
930
935
938
940
941
941
943
947
948
948
948
949
952
952
955
954
955
951
954
956
956
955
952
953
956
956
956
956
954
955
957
960
959
960
957
957
958
960
960
958
956
953
955
957
956
954
953
951
953
953
954
953
951
951
952
953
954
955
951
949
954
956
954
952
950
950
953
955
956
954
953
952
954
959
957
957
954
953
953
954
955
955
955
953
958
956
956
959
957
955
958
959
958
957
954
953
955
959
958
952
954
953
956
957
958
959
957
956
960
963
964
965
962
963
965
968
969
969
969
967
970
973
973
973
974
974
978
978
980
978
975
971
975
978
979
977
975
978
984
985
982
973
966
961
963
961
959
956
950
950
954
956
955
953
952
949
951
951
952
951
949
946
949
949
948
949
948
947
948
949
949
941
934
926
922
920
911
906
910
927
949
969
984
999
1016
1037
1072
1111
1155
1191
1207
1204
1162
1094
1011
947
920
921
933
941
943
942
940
939
941
943
940
941
940
936
939
938
938
939
938
936
936
938
940
937
936
937
940
942
941
941
940
940
942
941
941
940
937
937
935
940
940
937
935
938
939
939
939
936
936
935
937
936
940
937
937
935
940
940
941
939
937
937
939
939
941
938
937
935
938
938
937
937
935
934
935
937
935
935
932
931
932
935
933
932
931
930
932
932
934
934
935
933
934
936
937
938
936
935
936
936
937
937
936
935
941
945
949
950
948
951
953
957
958
958
959
958
960
963
964
964
964
962
965
966
967
967
962
963
962
965
964
964
962
960
962
965
963
963
962
960
961
962
963
961
959
957
959
962
961
961
959
958
960
961
962
960
958
954
956
956
958
956
956
955
956
956
956
953
953
953
955
958
957
957
955
953
956
956
957
955
953
952
952
955
954
956
953
953
954
958
954
955
954
954
956
959
960
959
960
960
964
967
968
967
967
968
970
973
973
974
974
976
977
981
981
980
976
973
974
975
978
977
975
975
979
985
987
981
976
968
968
967
966
963
960
957
956
954
953
952
951
951
950
951
951
950
948
945
947
949
948
947
945
944
947
951
952
950
947
946
948
944
937
929
924
919
913
904
910
925
950
978
1013
1055
1110
1161
1194
1207
1198
1156
1083
999
941
919
925
936
944
945
943
942
942
943
943
940
938
938
937
941
942
941
936
935
935
938
939
940
938
934
936
940
937
937
936
935
937
939
939
941
941
939
940
940
943
941
941
940
940
942
941
938
939
937
941
941
942
940
940
939
939
941
944
944
942
941
942
942
942
942
939
939
941
937
939
939
939
936
938
942
940
938
937
935
938
938
937
938
938
936
937
939
939
939
938
935
939
938
942
940
940
938
940
943
943
942
942
943
947
948
949
951
950
951
957
959
961
960
960
958
961
966
966
966
963
963
967
969
966
966
967
965
964
966
967
966
963
964
963
966
965
963
962
961
962
965
965
965
963
964
963
962
964
964
963
962
962
964
963
964
960
959
959
960
963
961
959
957
959
961
960
957
954
955
957
958
960
958
957
956
958
961
960
962
961
957
960
961
961
962
959
959
957
957
959
959
957
955
956
960
959
959
957
954
957
960
958
959
959
956
959
963
966
969
966
968
970
972
975
973
974
975
977
983
984
982
983
983
982
984
981
980
981
980
982
983
984
986
989
986
980
976
974
972
968
964
961
961
958
958
957
956
959
958
962
962
961
960
960
961
960
959
955
954
956
957
957
957
954
954
955
958
957
954
952
949
943
937
930
922
911
908
918
942
970
1001
1036
1081
1138
1183
1210
1211
1177
1105
1024
960
931
927
934
942
947
948
949
947
948
947
946
946
947
946
944
944
946
948
947
947
945
945
947
949
950
949
946
946
948
952
950
948
946
942
944
947
947
949
945
945
947
948
952
951
950
950
951
952
952
949
947
947
949
950
952
952
950
949
950
951
951
950
949
948
947
949
949
948
948
946
948
947
950
947
948
945
946
949
947
947
947
944
948
948
946
947
943
942
941
941
943
941
942
941
943
945
945
943
942
941
946
950
955
954
957
956
958
961
960
964
963
962
965
967
970
969
966
966
967
970
969
967
967
964
967
966
968
969
968
966
963
968
968
968
967
966
969
969
971
970
967
965
966
965
967
967
966
963
964
964
964
962
960
960
961
961
962
960
958
959
960
961
962
960
960
961
963
963
963
959
956
953
954
955
957
956
957
956
959
959
956
954
954
952
957
960
960
960
956
958
960
960
960
961
959
956
956
959
960
959
956
958
958
960
957
955
955
955
956
961
961
959
960
962
963
963
964
964
967
966
970
973
975
973
972
969
973
976
976
977
975
977
980
984
984
979
975
975
977
980
978
978
978
977
984
986
982
973
965
963
963
958
959
956
954
952
953
957
952
953
949
947
950
955
956
956
952
949
950
950
951
948
948
946
948
947
945
939
932
926
923
916
915
926
947
976
1010
1053
1110
1158
1192
1203
1185
1134
1058
995
954
930
919
915
913
912
914
920
929
933
937
935
934
936
939
941
941
939
936
936
942
940
941
941
940
939
941
944
941
940
940
937
937
937
938
937
937
935
940
935
937
940
935
936
938
940
942
939
939
937
940
939
939
940
938
936
939
939
939
937
936
935
938
942
942
942
941
938
940
944
943
940
936
934
937
934
938
934
931
927
928
929
930
928
929
924
924
926
924
924
921
918
920
923
925
927
928
928
931
933
940
940
943
944
950
952
955
955
957
957
960
962
963
962
960
959
963
967
968
967
965
965
967
967
966
967
965
963
965
967
965
968
964
964
964
965
966
963
963
962
963
966
966
965
962
961
962
964
966
965
963
961
964
967
965
963
961
958
959
963
962
962
961
961
962
963
963
964
963
963
963
966
965
967
965
964
962
965
965
966
965
961
964
965
966
964
962
961
963
963
964
965
963
963
965
966
967
967
966
964
967
967
968
965
963
965
966
972
974
971
970
970
973
978
979
978
976
978
982
986
989
987
985
985
990
989
989
986
982
983
983
986
987
985
986
987
990
987
983
976
973
969
967
964
964
963
960
959
960
964
964
962
961
958
957
959
958
958
958
954
956
957
957
958
955
953
949
946
939
932
928
919
918
930
956
989
1023
1069
1131
1186
1217
1222
1182
1102
1013
949
926
930
939
945
950
951
950
949
949
947
949
949
949
949
946
947
946
948
949
949
947
945
947
947
946
947
945
946
946
949
947
945
943
942
944
947
948
946
947
944
948
949
950
946
945
945
945
949
949
948
946
944
946
947
947
946
943
944
945
946
947
947
946
946
948
950
949
947
947
944
947
946
947
947
945
944
943
944
944
943
938
937
940
942
943
940
942
940
942
946
944
946
945
946
947
953
954
956
959
960
965
967
968
968
967
964
969
970
975
974
973
975
975
975
977
976
973
972
973
976
975
975
971
973
974
976
972
973
971
970
972
975
975
975
973
972
972
973
975
971
969
969
969
972
972
970
968
966
969
967
969
967
966
964
964
965
967
967
966
964
964
966
966
964
963
960
965
964
966
966
964
963
964
963
964
965
960
961
963
965
966
967
967
966
968
970
974
975
975
973
976
980
981
979
978
978
982
987
988
988
987
986
987
988
987
987
985
985
989
991
990
994
997
992
985
979
979
978
971
967
967
965
966
964
960
958
963
963
963
963
959
959
961
962
962
960
957
957
958
957
961
956
957
956
956
957
954
951
944
935
933
935
933
925
914
914
933
967
1001
1040
1090
1147
1197
1224
1217
1165
1079
986
933
926
940
952
953
947
947
951
953
951
949
946
947
946
948
947
945
943
943
944
946
946
946
944
945
946
947
948
946
947
948
950
951
949
949
947
949
950
950
949
949
946
948
948
950
950
947
945
947
948
949
948
947
947
950
951
952
954
950
951
953
953
953
953
951
948
950
949
951
949
949
945
948
949
949
949
946
945
946
947
948
947
945
945
947
948
950
948
951
948
952
955
956
958
959
958
961
965
967
968
966
966
968
973
974
974
974
973
974
977
979
976
975
973
973
974
974
975
973
971
973
974
974
973
973
969
971
973
972
971
968
968
973
974
976
974
973
971
970
971
973
972
970
969
972
971
970
969
966
966
966
968
970
967
966
962
961
963
962
962
963
962
961
965
965
965
964
962
965
963
964
964
964
962
963
965
966
965
963
964
962
967
968
967
967
965
967
971
973
973
973
973
976
979
979
981
979
977
980
982
986
988
987
988
989
990
990
990
985
981
985
990
991
988
988
991
997
998
1002
997
988
981
979
978
980
975
974
969
969
967
967
965
965
962
963
964
966
963
960
960
960
960
962
961
959
957
957
962
961
959
958
957
955
952
945
938
935
924
917
918
937
965
993
1031
1081
1139
1188
1217
1218
1183
1114
1032
967
932
932
943
953
956
954
952
954
953
952
954
955
952
951
948
951
953
954
952
951
949
950
952
952
951
950
948
950
953
953
951
951
949
950
952
954
952
951
949
950
953
955
955
953
952
953
957
956
954
955
953
955
957
956
954
953
949
951
951
953
953
950
950
950
952
955
954
952
951
950
952
954
951
948
948
948
949
949
949
947
946
949
949
951
948
949
947
950
949
953
952
951
950
949
952
953
953
954
954
957
960
964
965
965
966
971
971
975
974
972
971
974
974
977
974
974
971
971
976
977
974
973
971
973
975
976
976
975
970
974
976
978
975
972
971
972
974
978
976
973
968
970
974
975
973
972
972
971
971
970
969
969
964
968
969
970
969
968
968
965
966
967
966
966
962
964
966
967
968
968
966
968
968
968
967
963
958
961
964
965
963
963
962
961
961
964
964
962
959
960
962
963
964
962
964
961
967
965
965
966
961
962
964
964
966
966
963
963
963
964
964
962
961
965
969
973
973
973
972
973
977
978
981
976
976
978
981
981
982
980
978
984
985
986
986
984
980
982
985
986
986
985
986
989
988
982
977
973
969
965
962
963
961
960
956
957
959
961
960
959
955
954
957
957
956
958
958
959
958
962
963
959
956
958
959
959
959
957
954
953
954
954
948
938
931
929
922
916
921
934
956
987
1017
1057
1104
1148
1181
1200
1197
1155
1089
1022
972
943
935
937
944
945
945
946
949
951
950
950
948
948
947
948
945
943
947
948
949
950
949
948
944
948
949
952
953
952
950
950
951
950
949
947
945
946
946
949
949
946
945
947
946
947
945
947
947
948
949
948
948
948
946
947
952
953
953
950
947
948
951
951
949
947
944
947
947
949
948
949
944
946
945
947
948
944
940
945
947
949
948
943
938
940
942
941
942
938
932
933
936
937
939
938
935
932
934
936
938
940
942
946
947
951
955
955
957
960
966
966
967
963
961
963
968
971
973
972
970
972
973
975
971
970
968
969
968
971
972
972
970
970
970
973
973
971
970
971
969
970
968
969
968
970
971
972
967
966
963
966
967
966
969
965
964
962
968
968
969
964
961
962
962
964
963
963
961
961
965
965
963
960
958
959
962
963
961
960
958
959
962
963
964
963
961
964
964
966
965
964
963
964
964
965
966
964
960
962
965
966
966
965
961
962
964
962
964
961
961
962
964
964
965
964
966
966
969
970
974
972
968
971
975
981
979
978
977
980
983
986
987
986
984
987
988
987
986
983
983
986
989
991
988
988
988
991
989
984
980
977
973
971
969
969
966
963
960
962
963
963
965
962
961
962
964
965
963
960
959
960
961
961
959
959
956
957
959
962
959
957
954
952
947
942
937
930
924
917
915
922
937
955
976
1002
1028
1064
1110
1152
1184
1210
1220
1206
1156
1078
1002
954
934
933
938
943
947
949
951
948
950
949
948
948
948
949
949
949
947
948
949
950
949
947
947
947
951
951
948
947
945
947
948
950
949
943
942
943
947
947
947
945
942
945
945
948
947
947
945
947
949
950
949
948
945
947
947
948
947
947
945
947
946
949
947
945
944
944
947
949
948
946
945
946
946
948
948
947
947
945
945
948
944
943
939
939
940
941
941
938
938
936
936
939
938
937
935
937
937
940
941
943
944
948
952
954
957
959
959
962
963
969
968
965
965
969
970
973
973
971
968
970
971
975
974
972
969
973
973
974
976
973
971
971
972
973
974
976
973
973
975
973
973
972
970
970
969
973
975
972
967
971
969
969
969
967
965
966
966
966
966
965
963
966
965
967
967
967
965
965
967
964
964
965
961
962
965
964
963
962
961
961
960
964
963
961
959
961
964
964
964
962
962
964
966
969
969
969
969
970
973
977
977
975
974
976
979
983
983
985
984
986
986
986
982
981
982
983
984
986
990
993
991
987
984
979
974
972
972
971
971
968
966
963
958
956
959
960
960
960
956
957
958
959
958
955
955
952
956
956
956
953
949
952
953
955
953
949
946
938
932
929
921
911
907
920
941
969
992
1015
1041
1083
1134
1184
1221
1235
1218
1164
1078
994
943
929
935
944
951
950
947
945
944
945
947
949
946
945
942
942
944
945
943
944
941
942
945
944
944
942
940
942
943
943
942
941
939
941
943
943
944
941
941
942
942
946
946
944
943
943
944
947
947
943
939
942
943
945
944
941
939
940
942
946
944
942
939
943
943
945
945
941
941
941
943
944
947
944
942
944
946
945
944
944
941
942
942
944
944
942
939
941
940
941
941
940
940
939
943
944
943
942
941
945
949
951
954
955
954
957
960
964
964
964
963
964
966
967
966
966
966
966
968
969
969
967
967
968
971
970
970
967
967
966
969
972
969
967
965
966
966
970
967
965
962
962
962
964
964
963
960
962
963
966
964
960
959
960
961
962
961
960
956
958
961
961
959
960
957
958
960
962
960
959
957
958
959
960
961
958
956
956
959
961
959
957
956
956
958
960
960
957
957
956
957
960
959
958
958
960
963
963
963
965
969
967
973
974
975
975
974
975
977
978
982
979
979
981
984
985
985
982
980
981
981
985
984
983
984
988
993
991
981
975
970
969
968
964
957
956
953
953
957
959
958
954
954
955
956
957
957
956
951
952
953
955
953
954
950
953
951
951
952
953
949
951
948
944
936
927
920
915
908
917
941
971
1004
1044
1096
1151
1192
1213
1208
1170
1101
1020
954
927
928
938
947
948
948
945
942
943
946
945
945
944
943
942
944
945
945
944
941
942
944
944
945
944
943
942
942
944
946
944
941
943
942
945
945
942
941
941
943
945
946
944
942
942
943
946
946
942
943
942
945
947
945
944
941
944
945
947
945
944
943
941
943
944
944
943
940
942
943
946
944
942
939
941
943
943
939
938
937
937
939
941
942
941
939
939
944
942
942
938
940
941
947
948
950
947
947
948
952
953
956
956
955
956
961
964
964
965
962
966
967
969
968
966
966
968
971
970
970
969
967
967
966
966
967
964
963
964
966
967
965
965
964
965
966
966
966
965
963
962
