989
984
981
981
983
987
984
982
982
980
982
984
982
981
981
980
982
982
982
981
979
977
980
982
984
980
978
977
980
982
982
978
977
978
979
983
982
981
981
978
982
986
989
991
994
998
1003
1003
1004
1002
999
1003
1006
1007
1007
1008
1005
1006
1008
1006
1006
1005
1004
1003
1007
1008
1011
1012
1012
1007
1001
998
998
995
991
987
986
984
978
978
976
977
978
977
975
975
975
975
975
976
976
975
972
973
974
974
973
972
972
970
972
975
977
976
969
961
955
952
949
938
931
938
963
992
1023
1064
1120
1173
1208
1216
1186
1122
1040
973
939
935
948
959
960
961
963
968
966
966
964
960
960
957
959
960
960
961
962
962
958
956
954
955
961
962
964
964
962
962
960
962
958
956
954
957
961
963
962
960
959
958
961
958
957
954
950
952
952
955
956
958
956
951
953
956
955
955
953
952
954
959
960
959
959
958
961
960
962
960
960
957
954
954
953
952
950
949
954
956
954
953
953
952
951
945
945
945
944
947
949
954
956
955
952
951
952
954
954
955
954
956
961
963
968
969
965
965
968
968
972
973
974
976
981
982
981
980
980
976
976
980
980
977
978
977
980
982
981
979
977
975
977
977
977
976
975
975
975
975
976
976
973
972
974
977
979
980
975
972
973
976
974
975
975
975
974
974
970
970
969
973
974
974
972
970
966
965
965
969
969
967
966
963
964
963
967
967
967
969
973
972
975
977
974
974
977
978
980
981
980
978
981
983
986
987
986
986
989
990
990
992
989
988
992
993
991
990
990
986
993
1001
1002
991
978
974
978
979
980
977
974
968
969
969
966
966
962
962
965
966
964
962
959
960
960
963
964
965
964
960
961
964
969
970
968
963
961
961
958
952
943
936
934
932
927
925
938
965
998
1030
1065
1105
1154
1192
1225
1236
1223
1174
1096
1018
956
933
929
934
942
947
950
949
948
949
947
947
947
949
953
955
951
950
950
953
953
951
950
947
948
950
950
947
946
946
947
950
948
944
941
943
946
949
949
948
945
944
945
946
946
946
944
945
945
946
947
945
947
947
947
948
947
948
947
945
948
947
948
948
948
946
948
949
949
947
946
946
945
946
948
944
945
944
943
945
943
942
942
939
939
940
941
939
936
935
938
939
939
938
936
937
940
942
942
941
944
944
947
950
952
956
957
959
960
964
967
968
968
971
972
974
974
975
974
973
977
977
978
976
974
974
976
978
979
976
976
973
975
979
978
979
975
972
973
978
978
976
976
975
976
979
977
975
975
973
974
973
976
972
973
970
973
974
975
973
968
968
970
973
973
972
970
970
969
973
972
970
967
966
967
969
970
969
968
970
972
974
973
973
972
974
977
982
982
982
982
985
990
991
994
991
994
993
995
994
992
991
988
989
993
992
994
997
1000
998
991
988
981
981
978
974
974
974
972
967
968
966
966
971
971
972
969
968
968
967
969
966
965
962
963
964
965
963
958
960
962
962
963
961
960
960
960
958
951
943
937
930
925
932
954
986
1023
1060
1109
1164
1211
1241
1248
1224
1164
1076
992
939
927
935
950
957
957
955
955
952
955
955
954
951
950
949
951
954
953
950
950
950
949
952
951
950
948
948
951
952
953
954
952
952
951
952
952
954
952
951
953
952
950
951
950
949
951
952
952
952
949
950
951
950
951
950
949
949
948
948
949
948
948
950
951
951
953
952
951
951
950
953
953
949
950
949
949
950
950
950
948
948
950
947
950
951
951
950
949
953
955
954
953
952
954
954
952
954
952
953
955
957
959
958
960
960
964
967
969
969
968
969
973
977
975
977
975
977
981
982
983
982
983
981
979
980
981
979
978
978
980
979
983
978
980
975
977
978
980
978
975
976
975
980
979
977
978
975
977
977
980
977
976
975
976
978
976
973
972
972
971
976
974
973
972
970
970
974
972
970
969
967
970
971
973
972
974
974
979
981
983
982
981
984
987
988
991
990
988
990
994
996
994
993
993
990
990
992
993
990
989
992
1000
1004
1002
995
987
983
982
982
981
977
973
970
969
970
969
968
968
967
968
970
969
967
965
963
965
965
966
965
964
962
965
969
967
967
965
967
966
966
963
954
945
941
936
930
931
943
968
1001
1042
1089
1147
1195
1219
1220
1180
1108
1019
955
929
934
951
961
963
958
956
956
962
960
963
960
957
955
954
958
960
957
955
954
957
958
960
960
959
958
960
961
962
961
959
958
960
961
960
959
955
956
956
960
960
956
958
959
957
958
959
958
957
956
958
959
959
959
958
959
961
962
964
962
961
959
961
962
961
960
958
958
958
964
960
960
958
958
959
959
960
958
957
957
958
961
961
959
960
959
961
963
964
962
960
959
961
961
962
963
961
965
965
968
970
969
968
969
973
976
975
976
975
975
978
980
980
979
979
981
981
982
983
981
981
979
981
983
983
982
980
978
981
982
982
980
977
980
979
982
980
976
979
978
979
980
980
978
976
976
975
976
976
973
967
972
974
976
976
973
970
969
973
973
974
975
972
969
969
969
971
972
970
970
973
977
976
975
976
974
977
978
978
978
981
981
984
987
987
988
988
987
990
992
996
995
991
991
989
990
992
994
995
992
993
996
998
999
995
986
983
984
981
977
970
967
967
965
966
963
962
962
962
964
962
961
960
961
965
967
965
964
964
960
962
965
963
965
960
957
957
959
959
953
946
935
930
926
917
916
928
950
981
1016
1064
1117
1162
1192
1200
1175
1112
1030
963
927
921
930
942
945
944
938
938
943
945
950
947
946
948
950
950
944
945
944
944
947
946
947
948
945
947
947
947
944
941
937
939
942
942
944
939
936
938
942
943
943
941
938
940
942
943
943
942
939
941
943
940
940
938
938
944
946
944
945
942
943
942
943
943
943
941
939
941
942
944
943
941
937
937
939
940
939
939
939
939
937
935
933
931
931
933
938
938
937
938
938
942
941
939
937
937
935
938
939
937
940
943
944
949
952
953
956
956
958
961
964
961
961
960
962
964
967
968
965
963
963
963
964
969
968
964
964
963
964
967
967
968
965
967
968
968
970
967
965
966
965
962
961
962
963
964
964
964
963
963
960
960
960
962
959
958
956
958
961
961
958
956
952
955
960
959
959
956
954
954
953
958
958
956
952
955
960
961
963
962
960
963
967
972
974
975
975
977
977
977
978
980
982
983
981
980
979
981
980
980
981
984
988
987
983
978
974
974
971
965
960
957
955
954
953
952
953
955
958
958
957
955
952
953
956
955
951
949
948
951
954
955
952
950
950
951
952
952
947
943
935
933
930
923
917
918
937
969
1010
1051
1106
1161
1204
1227
1220
1161
1069
983
931
920
926
939
945
944
941
942
945
945
943
942
941
943
945
946
946
944
945
947
948
948
945
946
944
942
946
946
944
942
941
944
943
943
943
942
942
942
943
944
943
942
941
944
944
945
944
942
941
941
943
942
944
941
941
940
943
942
941
941
941
942
947
946
944
942
939
941
942
941
938
935
937
935
936
936
934
933
931
932
933
934
935
932
931
933
936
937
936
937
937
940
946
947
949
952
955
959
960
961
964
963
967
969
972
971
972
971
971
974
976
977
976
973
973
975
978
978
975
974
973
976
975
976
976
973
972
974
975
973
972
970
971
973
973
972
971
969
970
972
974
974
973
971
969
970
971
971
969
967
964
965
967
969
967
965
966
967
970
969
970
968
966
970
975
975
975
977
976
979
982
984
982
981
983
989
991
992
992
991
988
992
991
988
987
986
989
989
992
995
998
1002
1005
1007
1003
995
990
983
979
982
979
975
971
967
965
965
968
968
967
964
965
966
967
968
967
965
964
966
965
965
964
962
960
963
966
964
963
960
955
947
942
937
929
920
920
937
966
1002
1035
1078
1134
1193
1231
1240
1214
1146
1052
973
934
930
944
950
954
955
954
957
955
953
952
952
951
954
953
952
951
953
957
957
957
955
954
956
960
958
954
953
952
954
954
955
954
952
951
953
953
955
953
953
952
952
955
958
955
956
951
955
955
957
955
952
952
954
955
955
953
952
953
954
955
955
954
951
953
956
955
955
956
954
952
956
957
957
955
955
952
954
956
957
957
955
953
954
957
957
956
955
953
954
956
957
961
961
961
963
963
966
969
969
966
969
974
974
974
973
973
975
978
978
978
975
974
978
981
981
981
979
978
980
982
980
980
976
979
979
980
980
977
976
975
977
979
978
978
976
975
977
976
977
976
973
972
974
976
976
973
973
973
973
974
974
972
971
968
970
973
972
971
969
969
971
973
973
972
969
970
970
973
973
975
975
975
979
981
984
983
983
985
984
990
994
996
995
996
997
1001
999
994
993
991
994
997
997
995
996
1000
1005
1007
1002
993
986
984
983
982
979
977
973
970
971
969
968
969
967
967
969
968
968
965
964
963
965
966
966
965
960
962
964
962
965
964
961
957
954
948
943
937
929
923
930
952
980
1011
1049
1099
1152
1191
1207
1187
1128
1047
972
934
925
931
943
948
954
958
954
953
951
949
952
953
955
954
952
950
954
956
957
955
952
951
953
953
952
952
952
949
952
953
953
953
953
952
954
951
954
953
951
952
953
958
954
953
950
948
949
954
954
955
954
951
955
952
954
951
948
949
951
953
956
957
957
955
953
954
956
953
954
951
954
954
955
953
953
950
955
958
957
954
952
951
953
953
954
952
951
949
950
953
955
954
954
952
952
954
957
956
957
956
960
961
964
964
964
965
966
966
968
968
969
969
969
970
972
970
968
968
969
970
972
974
973
972
973
975
972
969
963
966
967
969
969
968
967
966
968
968
966
964
961
959
961
963
964
964
963
963
964
965
963
961
957
953
955
958
959
958
956
954
953
956
956
956
953
953
953
954
955
952
953
955
960
963
963
965
963
964
969
970
971
973
972
970
973
974
973
975
974
974
975
977
977
979
973
973
974
979
979
978
977
978
981
980
972
964
961
959
956
954
952
949
948
944
945
947
949
947
945
945
946
946
946
946
942
939
943
943
942
941
940
939
942
942
940
932
928
924
921
913
905
904
916
940
969
1000
1036
1082
1131
1168
1194
1199
1162
1084
998
933
906
907
918
924
928
929
929
933
931
929
926
926
929
933
933
934
931
932
935
938
935
933
932
930
931
932
929
927
927
923
926
931
932
932
928
927
931
932
929
928
927
927
929
932
930
929
923
922
924
928
925
927
924
928
930
928
930
930
927
929
929
932
929
928
924
925
925
927
926
925
923
924
925
926
925
924
921
919
923
926
925
921
919
915
917
919
918
918
919
917
921
924
929
932
933
935
937
940
941
943
946
947
950
953
956
955
956
956
958
960
959
956
953
953
956
956
960
957
956
958
957
958
958
957
954
954
955
956
960
959
958
956
959
960
960
959
957
956
957
957
956
955
953
952
954
957
957
955
954
952
953
955
956
954
953
951
955
956
955
955
950
950
952
952
952
951
951
951
952
955
956
955
954
957
960
963
965
965
966
967
972
975
975
975
975
975
977
983
983
983
981
981
981
981
979
979
977
977
980
982
980
983
984
986
986
979
975
972
970
965
963
962
961
957
956
956
955
958
960
956
952
952
954
956
957
955
955
953
957
959
960
956
955
954
952
947
941
933
930
921
917
926
946
975
1006
1044
1098
1158
1201
1224
1221
1179
1108
1031
967
928
915
913
916
921
932
942
948
947
947
948
948
948
946
945
948
946
949
947
944
942
944
946
946
947
947
945
946
948
950
950
947
948
949
949
949
948
947
946
945
948
947
947
946
944
948
949
948
947
948
945
948
948
949
950
948
947
951
951
950
951
949
949
951
954
953
951
948
947
948
947
952
948
948
946
946
946
949
947
946
944
945
946
948
948
947
945
947
949
950
948
947
948
951
954
954
954
954
957
962
965
966
967
968
967
969
971
974
974
972
973
974
975
979
978
978
975
979
982
984
983
980
980
981
984
983
981
978
979
979
982
984
981
978
979
980
980
982
979
977
974
978
980
981
981
979
979
980
981
981
980
978
976
979
979
978
977
975
974
977
978
977
976
975
974
974
976
976
972
974
973
975
977
979
977
980
980
984
987
987
987
986
985
989
992
993
994
994
993
997
999
1001
1000
997
996
997
995
999
998
998
998
1000
1005
1008
1010
1008
998
996
990
991
986
981
980
976
977
975
973
973
971
973
974
973
972
971
970
969
973
970
972
971
970
973
973
975
974
971
969
969
975
973
971
968
969
966
964
957
951
946
940
933
929
933
953
978
1008
1044
1092
1147
1198
1222
1223
1191
1128
1044
977
939
929
942
955
963
964
961
961
962
965
965
962
960
960
961
962
963
963
962
962
964
965
967
966
965
963
963
964
965
963
963
961
961
964
963
963
963
960
963
966
964
966
961
962
963
963
966
964
965
963
965
963
965
965
962
962
967
965
965
962
962
961
963
964
964
964
962
961
963
964
964
964
963
964
965
966
968
966
964
962
962
965
967
963
960
960
962
965
963
964
962
962
962
963
965
964
966
966
969
972
972
972
971
972
973
978
979
977
976
977
977
983
984
984
982
982
984
985
986
986
985
983
987
988
989
990
986
984
985
986
984
984
984
982
983
984
984
986
982
980
983
979
981
981
980
980
981
983
983
982
979
978
979
981
982
981
977
976
973
978
976
975
976
973
977
978
975
972
971
971
970
972
972
972
970
971
974
975
975
974
971
971
973
974
976
973
971
970
972
976
978
980
976
978
983
984
983
986
985
985
987
991
993
994
994
995
996
998
999
999
998
996
995
992
992
992
992
991
992
996
997
999
999
994
990
984
985
984
980
975
974
974
974
968
964
964
962
963
963
962
960
962
963
964
964
962
960
959
961
961
962
959
957
958
960
960
956
952
945
939
936
933
925
909
901
906
914
922
932
945
961
975
997
1026
1068
1117
1161
1186
1200
1183
1131
1054
984
937
923
926
939
947
948
947
950
952
952
952
951
946
949
954
950
947
945
943
947
947
949
946
944
945
946
946
948
947
947
948
949
951
951
951
947
945
946
949
949
946
943
941
942
945
946
947
944
941
944
948
942
945
945
944
945
945
948
945
944
941
946
945
945
942
941
941
944
947
947
944
944
942
943
946
947
944
941
936
940
941
944
940
937
931
935
937
939
940
938
936
937
940
940
940
937
938
941
946
950
947
949
947
949
953
954
956
958
957
962
964
964
964
961
963
964
966
967
968
967
965
969
968
971
969
968
965
966
966
966
964
965
965
966
965
965
962
961
959
963
967
964
962
963
963
963
966
963
962
962
958
959
957
959
957
956
956
957
957
955
956
956
957
958
960
961
961
956
954
954
955
956
959
956
953
952
953
955
950
950
952
956
962
959
958
953
955
959
964
966
967
965
965
970
970
973
974
975
973
979
982
984
982
980
978
977
978
982
980
977
975
977
978
978
982
982
978
972
971
971
970
965
964
961
963
960
959
957
953
954
953
953
950
951
948
950
949
951
950
948
947
949
948
948
949
947
946
947
948
947
941
934
927
921
916
914
921
944
974
1008
1044
1095
1148
1193
1222
1230
1205
1148
1071
1005
962
932
918
913
917
922
931
937
938
940
938
939
938
939
941
940
940
938
936
937
938
939
939
937
933
938
939
939
940
939
937
935
938
941
941
939
938
941
944
943
940
938
939
939
941
941
938
938
936
940
940
941
941
940
939
940
940
940
942
938
938
938
940
941
940
940
938
941
940
943
942
937
938
937
939
939
937
936
936
935
935
936
935
933
928
931
931
934
934
930
932
931
932
934
933
932
931
936
939
940
941
946
946
950
954
955
959
959
960
963
967
967
967
968
967
970
972
974
974
972
970
973
973
974
974
972
971
972
975
974
975
971
971
972
972
975
974
970
969
972
974
974
972
972
969
970
973
972
972
969
969
969
970
971
971
967
964
965
967
968
967
965
962
965
966
965
966
964
964
967
966
969
967
965
964
964
965
967
965
961
961
964
965
967
965
965
964
964
971
974
973
975
975
979
982
984
984
985
983
984
990
992
990
990
989
986
988
989
989
992
989
993
997
1001
1002
993
983
978
980
979
974
970
964
964
963
966
965
963
962
967
967
966
966
965
964
964
965
966
961
960
958
961
963
961
960
962
960
959
958
953
944
936
928
922
922
936
964
1000
1039
1091
1156
1213
1244
1241
1191
1107
1012
946
923
928
943
954
954
952
950
951
947
951
949
949
948
948
947
952
952
951
952
948
948
951
950
950
950
948
946
946
948
949
948
948
947
949
951
949
948
947
946
947
949
952
952
949
946
949
951
948
949
949
947
948
949
951
949
946
947
946
952
951
952
949
949
949
952
