958
960
962
961
960
958
961
961
960
962
959
959
961
963
962
962
961
958
960
963
963
959
959
959
962
962
961
962
960
959
960
961
963
964
961
961
962
963
967
965
962
963
963
966
964
965
962
960
958
959
960
960
960
958
957
958
959
960
957
955
955
959
960
960
961
958
961
963
967
966
966
969
969
970
974
975
974
976
977
981
980
982
980
979
979
984
985
985
984
982
982
982
987
984
982
982
983
984
983
984
983
981
981
984
982
981
981
977
978
979
981
981
979
977
977
978
981
981
980
976
978
979
980
982
978
977
977
976
980
980
980
975
975
977
979
978
976
971
973
974
977
974
974
972
974
975
978
978
975
973
971
975
976
977
976
975
973
976
977
975
974
973
973
974
974
975
975
974
975
977
980
980
981
981
982
986
988
988
990
989
991
994
996
998
997
997
997
1002
1003
1004
999
997
993
996
998
1001
997
995
998
999
1006
1009
1007
1001
995
990
991
988
987
979
979
979
979
977
974
970
971
974
973
973
971
970
968
968
972
968
967
965
967
969
968
968
967
966
967
967
969
970
967
962
960
959
953
947
941
937
928
924
931
948
970
989
1020
1061
1116
1162
1188
1194
1175
1133
1069
1006
958
936
936
944
954
959
958
954
955
958
960
961
959
957
956
959
959
961
960
958
958
959
961
959
956
955
956
957
958
958
956
953
955
954
959
958
957
957
957
957
959
959
957
954
957
958
960
959
960
953
955
960
962
961
958
956
956
959
961
960
959
956
956
959
960
961
960
956
958
960
961
961
960
959
958
961
962
961
960
958
959
957
957
958
955
957
955
959
959
958
958
956
956
955
958
958
957
955
955
958
960
961
960
960
960
964
968
970
969
969
971
971
973
973
974
973
975
978
977
976
976
973
973
976
979
979
978
974
974
977
977
978
974
975
976
977
979
976
975
976
975
974
975
974
972
970
969
972
972
971
972
972
971
972
973
972
971
972
972
974
973
973
971
970
970
972
972
971
970
967
965
967
968
967
966
966
965
967
971
967
966
964
964
965
968
967
966
966
965
967
969
970
969
969
966
967
968
967
967
966
965
965
968
968
966
966
968
971
976
977
973
975
977
978
982
984
983
982
984
986
988
990
989
987
987
988
989
986
987
988
986
987
990
992
993
990
985
979
978
974
972
969
965
963
964
962
957
958
958
958
961
960
956
951
954
954
954
954
956
954
954
954
958
958
957
954
953
957
957
954
950
942
935
933
934
933
927
916
907
905
915
932
953
978
1016
1066
1120
1164
1183
1184
1149
1090
1028
972
940
928
929
939
945
947
945
944
948
948
948
948
946
941
942
944
947
945
947
947
947
948
951
950
948
944
945
945
947
947
944
944
943
944
945
945
941
941
939
942
943
944
942
940
943
944
946
946
944
942
944
943
946
945
944
941
941
945
949
946
947
943
943
943
946
945
943
944
945
945
947
946
943
942
940
941
944
942
941
937
936
938
938
938
938
938
936
938
938
938
936
934
935
939
943
943
944
946
945
949
953
955
956
956
958
961
963
967
968
965
966
968
970
970
968
966
965
965
968
966
964
963
967
968
971
967
967
966
964
966
967
967
966
963
963
963
966
966
963
962
964
964
967
966
964
963
962
961
962
962
958
959
957
960
960
959
960
956
955
958
962
961
959
957
956
959
962
960
960
958
958
959
959
959
959
959
957
961
962
962
959
960
959
960
963
962
959
958
957
961
966
965
964
964
966
969
970
972
973
972
970
975
977
979
979
980
980
983
987
986
985
985
982
983
984
988
986
983
985
990
992
988
979
974
971
968
967
964
963
959
959
959
962
962
960
957
957
958
960
959
957
956
957
958
960
959
958
957
955
957
956
952
943
933
931
928
921
919
929
950
980
1016
1062
1117
1168
1202
1207
1179
1113
1027
962
931
925
932
944
951
953
954
949
951
952
952
951
951
953
953
955
955
953
952
954
952
955
956
955
953
952
954
954
954
952
952
952
954
958
954
956
952
953
956
958
956
955
953
953
957
959
958
955
955
955
954
959
956
954
953
953
955
955
956
954
954
953
956
959
958
954
955
957
958
957
957
958
954
954
958
956
954
954
951
951
952
953
952
950
950
949
951
952
952
949
950
949
949
954
953
953
955
956
959
962
963
966
964
967
972
977
976
976
973
975
979
978
978
980
977
977
980
980
980
980
978
977
980
981
980
979
977
979
979
982
980
980
979
977
979
981
979
979
978
977
980
981
981
977
974
977
977
980
976
978
976
975
977
979
979
978
974
971
972
975
974
974
972
972
973
974
976
973
973
973
975
977
975
975
975
975
975
977
975
976
975
972
977
978
977
977
976
973
977
981
982
983
982
983
987
991
991
990
990
991
993
996
997
999
997
999
1001
1002
1000
995
995
994
998
1001
1001
1004
1008
1004
998
995
991
988
987
986
982
981
978
978
974
971
971
972
972
972
968
970
970
970
971
968
966
966
967
971
967
969
966
965
968
972
969
967
967
960
958
948
944
935
926
923
936
960
988
1019
1062
1117
1169
1200
1203
1171
1104
1021
966
942
943
950
956
961
962
964
962
960
961
957
960
963
962
962
960
959
963
963
962
961
961
960
964
962
962
962
961
960
963
965
963
963
959
961
961
962
963
961
961
962
964
966
963
961
961
962
964
965
966
964
961
962
964
965
964
962
960
960
965
965
964
964
962
962
966
968
967
965
963
963
964
968
967
965
964
964
966
967
964
965
960
961
962
962
963
962
961
960
962
963
963
961
962
962
966
968
969
969
969
968
974
974
977
976
976
977
981
983
983
982
981
981
983
984
983
983
981
981
981
983
982
982
981
981
981
985
983
982
981
980
983
986
983
982
979
978
980
981
982
979
979
977
978
979
978
980
977
976
977
979
979
975
975
975
975
978
977
973
972
971
974
975
975
973
972
974
973
976
976
972
971
972
975
976
977
974
972
971
973
976
975
973
972
971
974
974
974
974
971
972
974
978
978
975
976
978
982
986
986
987
987
986
985
989
992
993
991
995
997
999
997
993
990
990
993
996
996
994
998
1000
1000
994
986
982
978
975
973
972
972
969
968
964
964
968
967
967
967
963
966
966
967
965
963
960
963
966
963
963
960
960
963
961
963
959
955
949
942
938
935
924
913
915
933
956
984
1020
1067
1125
1167
1192
1188
1149
1078
1001
947
922
919
926
931
939
948
948
948
946
944
947
948
950
947
947
943
941
945
948
950
952
947
946
948
950
950
950
947
949
948
949
947
946
943
944
945
949
949
947
948
947
950
949
947
947
946
943
945
946
949
946
945
944
946
947
947
944
943
942
946
946
947
947
946
943
947
948
947
946
944
944
946
948
947
943
943
944
945
944
944
942
937
938
938
941
941
941
942
940
941
941
942
938
938
939
944
948
948
951
949
949
951
955
957
956
956
960
959
962
961
959
957
958
961
966
965
965
959
960
962
964
964
964
960
959
960
963
964
962
963
961
963
961
960
960
959
958
959
962
961
957
956
953
955
961
960
956
957
955
958
959
957
954
952
952
952
954
957
956
953
951
954
955
955
954
950
952
954
954
953
954
952
952
953
952
953
951
950
952
955
953
953
951
952
948
952
952
953
952
950
951
952
954
956
955
954
953
953
954
954
953
953
955
960
964
962
960
960
959
962
967
970
968
970
970
972
978
978
976
975
971
971
975
978
974
974
971
974
978
978
979
981
979
976
971
968
963
958
954
953
951
949
947
947
944
946
947
947
943
942
942
947
947
948
943
942
941
942
945
945
943
942
941
940
940
935
926
921
916
912
906
905
915
936
964
997
1038
1092
1143
1180
1195
1182
1136
1066
1002
956
931
916
911
910
916
922
929
932
935
934
934
931
932
935
935
937
934
932
934
935
936
934
934
930
930
932
935
933
930
931
930
932
934
934
932
930
930
931
931
934
932
930
930
931
934
932
932
932
930
931
937
933
931
929
929
931
932
932
931
931
930
931
933
932
933
931
931
932
935
935
931
930
931
930
934
932
931
928
927
929
930
928
927
924
923
925
926
926
925
924
924
926
927
928
925
923
924
925
926
927
927
927
928
934
936
938
939
940
943
945
950
949
950
949
950
954
955
958
957
956
958
958
961
960
961
959
958
961
961
961
960
959
958
960
960
963
960
959
957
961
963
961
961
960
961
963
966
965
964
962
961
964
963
963
961
960
958
959
961
962
960
958
958
958
964
960
961
960
959
961
962
962
963
960
959
958
961
962
960
959
957
960
961
960
958
957
958
960
962
963
963
960
961
962
965
965
964
963
962
964
965
966
964
963
964
967
968
971
970
971
970
975
975
978
975
976
976
978
982
984
984
983
984
987
990
990
989
988
987
988
988
988
985
984
984
987
989
990
990
992
991
986
981
976
974
970
967
967
965
964
960
958
961
962
963
961
959
960
958
959
961
958
958
957
956
957
960
956
957
957
955
957
959
956
949
940
933
933
928
922
917
926
944
972
1000
1037
1083
1135
1173
1199
1216
1227
1232
1216
1161
1082
1004
950
930
931
943
954
956
954
954
951
951
956
954
954
951
949
948
950
951
951
950
949
944
947
951
951
952
949
948
949
951
949
951
949
949
950
955
953
951
949
949
952
954
955
951
951
948
950
950
951
951
950
949
949
951
952
952
951
948
950
953
953
952
951
951
954
956
954
952
949
951
953
951
952
950
948
948
950
950
953
950
946
947
949
952
950
949
947
947
949
949
951
952
951
951
954
956
956
957
957
957
959
963
964
965
965
965
970
970
973
972
971
971
973
976
975
975
973
974
977
978
976
975
973
973
976
979
979
975
975
975
977
977
978
976
974
973
974
975
976
972
970
969
971
974
974
972
970
971
972
972
974
972
972
971
972
973
972
970
968
967
969
969
968
968
968
967
968
969
970
971
968
968
969
971
970
968
967
967
967
971
970
971
966
966
968
970
969
969
966
965
966
967
967
967
965
965
968
969
972
971
973
974
977
978
979
979
981
981
984
985
986
987
987
987
989
991
994
995
994
992
992
990
989
988
986
988
991
992
991
991
997
998
1000
991
983
980
977
977
975
973
970
966
965
964
965
967
965
964
962
960
963
962
963
960
960
955
960
961
962
960
958
957
961
963
959
956
952
944
938
937
938
934
927
915
910
912
922
940
957
983
1010
1043
1087
1140
1180
1205
1209
1183
1117
1030
963
928
924
936
947
948
949
947
947
951
951
950
948
946
949
950
950
945
944
946
945
947
947
946
944
943
945
948
948
946
944
945
947
949
948
946
945
945
947
949
949
947
946
944
945
947
949
946
944
946
946
949
949
948
947
947
948
949
950
948
946
947
949
952
951
949
949
947
949
947
947
944
945
944
944
947
946
947
944
943
946
947
946
944
944
944
946
949
947
948
947
946
947
948
950
948
947
950
952
957
959
959
959
961
963
965
968
968
969
967
973
973
973
973
972
971
973
976
974
974
970
969
972
974
972
971
970
970
969
971
971
970
968
969
968
970
970
969
967
968
969
970
968
966
965
964
966
968
967
965
963
960
961
964
964
962
961
958
961
962
963
959
961
960
961
962
961
960
959
956
960
962
963
959
956
956
959
962
960
960
960
961
960
960
962
962
960
959
963
963
965
961
962
961
961
963
965
962
958
959
961
963
963
964
965
966
972
973
973
975
974
977
976
978
982
981
983
981
985
989
988
987
985
983
983
985
986
985
985
985
988
991
993
986
977
973
972
973
969
965
962
959
957
959
961
961
960
957
959
960
961
957
955
956
957
960
960
958
958
954
953
953
957
952
952
952
952
955
954
948
940
931
929
926
916
909
916
938
966
997
1035
1085
1137
1174
1190
1183
1132
1056
985
937
922
927
937
941
942
942
945
946
947
944
944
943
942
945
943
945
943
943
944
943
945
943
942
942
945
946
947
946
946
942
944
943
944
941
943
942
945
946
947
944
943
939
944
948
944
943
940
939
942
944
945
944
943
943
944
947
947
944
944
942
948
950
948
946
944
944
945
947
946
944
941
944
946
947
947
947
945
943
945
946
948
946
944
942
942
945
942
942
939
940
940
944
943
943
941
941
943
945
947
946
945
945
950
952
954
954
955
955
959
960
960
960
960
961
962
966
966
967
964
963
961
965
966
965
963
963
965
967
965
965
962
961
965
966
967
965
964
962
962
964
963
963
962
962
961
962
962
962
961
959
961
964
963
960
959
959
960
961
959
959
955
956
958
958
956
956
955
955
957
958
957
956
954
952
956
957
957
955
954
953
955
956
956
956
956
953
952
952
954
955
955
954
954
957
958
958
954
956
959
958
957
957
955
956
956
959
958
955
954
955
956
958
956
957
954
954
957
960
963
964
963
963
967
969
970
967
967
967
969
972
973
976
976
972
975
977
979
979
978
975
977
977
978
978
976
977
980
983
984
979
969
965
963
963
960
953
951
951
950
952
952
953
950
951
949
951
951
950
947
946
947
950
949
949
947
944
947
948
945
947
944
943
942
937
929
925
921
913
903
898
900
910
926
948
973
1004
1045
1096
1145
1179
1198
1184
1135
1059
991
941
922
918
925
931
933
930
936
938
939
939
939
937
937
940
939
938
938
935
936
939
937
936
934
933
934
936
937
939
936
933
936
939
940
939
938
936
938
938
937
936
936
934
934
935
938
937
937
935
936
938
939
935
936
936
934
936
938
939
937
935
939
940
939
939
937
935
938
940
938
936
934
935
937
937
936
934
933
932
929
930
931
931
930
929
929
932
931
929
928
926
928
930
930
930
932
932
936
938
941
944
944
945
950
954
956
960
958
958
959
964
964
965
965
962
964
966
967
966
965
963
967
967
966
964
961
965
967
966
967
966
964
963
964
965
965
965
962
963
964
965
965
966
964
963
962
965
965
963
960
958
961
964
963
961
960
959
960
962
960
961
957
955
961
960
962
961
960
959
961
961
962
961
960
958
961
961
964
960
959
957
959
963
962
961
959
959
962
963
963
962
960
958
963
963
963
964
962
961
964
965
965
964
963
966
968
971
971
973
973
974
977
977
980
980
982
982
986
987
987
985
981
981
982
987
985
986
986
988
991
986
976
973
970
967
965
965
964
961
957
957
960
961
961
958
959
956
957
960
959
959
954
953
956
956
959
957
955
953
953
957
959
958
952
950
946
940
932
928
918
911
910
926
953
984
1019
1067
1128
1182
1210
1209
1167
1086
1002
943
925
928
938
942
947
949
949
947
948
946
947
949
948
947
944
944
946
946
945
946
944
941
945
946
948
945
945
944
946
947
947
950
945
943
947
947
949
950
948
945
948
950
950
946
946
946
947
948
948
946
946
945
947
948
949
946
946
945
945
947
949
947
945
946
948
948
948
947
945
943
944
947
947
946
945
944
944
947
945
944
943
941
943
945
943
940
943
942
941
943
945
945
943
944
950
954
955
956
959
960
961
965
966
967
965
966
969
969
970
973
971
970
973
975
974
975
974
971
973
974
972
972
971
970
971
974
971
971
971
968
970
972
971
973
970
968
970
969
970
971
968
964
965
967
968
968
966
965
966
968
966
964
964
963
965
966
967
965
964
963
963
965
966
964
961
960
960
964
964
963
962
961
962
964
963
963
962
961
962
962
964
963
964
962
964
965
965
966
962
964
969
971
973
974
974
975
978
982
983
981
981
982
986
987
990
989
990
985
985
987
987
988
987
987
989
995
994
988
980
975
976
974
970
964
962
959
961
963
965
964
961
961
962
963
963
963
960
959
959
963
960
959
955
955
956
959
960
958
959
955
956
952
945
936
928
919
913
920
941
970
1000
1038
1093
1152
1195
1216
1207
1154
1069
990
939
924
932
942
950
951
952
951
947
948
950
950
952
951
947
948
949
950
950
949
947
944
947
947
949
946
947
943
947
948
950
950
949
948
949
950
951
947
947
948
950
951
952
950
949
945
947
949
950
948
947
944
947
949
950
947
945
946
948
949
949
948
948
948
950
952
953
953
951
949
949
950
953
948
950
949
949
951
950
948
947
946
947
944
948
946
946
945
948
949
949
950
952
950
952
956
959
958
960
960
964
967
970
970
972
969
972
972
978
973
974
973
973
976
977
977
974
974
975
977
978
975
976
974
974
976
977
976
972
970
972
974
976
978
973
970
971
974
975
972
971
970
972
973
972
970
970
970
970
971
972
972
969
968
971
972
972
970
970
967
966
968
969
968
967
966
968
970
970
970
967
967
967
972
971
970
967
967
968
971
972
970
969
965
966
967
965
970
966
965
967
970
970
969
969
967
970
975
975
978
978
