942
943
943
944
948
954
955
954
955
957
961
962
964
964
964
966
965
969
970
967
967
968
970
972
970
969
968
969
971
969
971
969
969
967
970
970
971
967
967
966
967
969
967
967
967
968
970
972
971
970
969
969
972
971
971
969
967
967
968
969
968
968
965
962
964
968
967
965
965
964
968
970
969
967
964
965
966
969
965
965
962
964
966
969
968
965
966
965
967
970
970
966
967
966
965
969
966
966
965
967
968
972
976
975
975
977
980
982
983
985
982
984
985
990
990
990
988
992
994
995
994
990
988
986
989
992
993
992
992
998
1000
997
990
983
980
980
977
975
972
968
967
964
965
969
968
969
964
963
966
965
964
964
962
961
964
967
966
963
963
964
966
969
967
964
964
963
966
967
962
952
943
936
936
933
924
923
938
963
990
1027
1073
1127
1171
1202
1211
1190
1130
1046
974
932
925
937
949
953
953
953
951
957
954
953
951
952
954
956
954
954
953
954
957
958
959
959
956
957
959
960
959
958
957
956
955
955
957
956
955
954
956
958
956
957
955
953
956
958
960
955
954
955
955
958
961
958
956
955
958
960
959
958
956
957
958
958
959
960
956
954
958
961
960
960
957
958
962
963
963
959
961
960
962
962
963
964
961
961
963
966
964
961
961
960
958
962
959
956
957
958
960
962
961
960
959
960
966
968
969
968
970
970
970
975
976
977
975
975
977
981
978
979
977
978
979
981
978
978
979
979
979
983
982
982
979
979
983
982
983
982
979
979
980
981
979
978
977
979
978
980
979
978
976
977
978
980
978
976
975
974
976
978
977
977
976
974
979
979
976
976
974
973
975
975
974
974
971
971
971
975
972
969
969
968
970
971
971
971
970
971
971
974
973
972
971
969
971
973
974
972
975
975
977
982
985
983
983
984
986
987
985
985
988
991
996
997
997
998
999
998
999
997
995
992
992
992
994
996
997
999
1000
998
989
985
984
983
978
975
975
974
972
970
968
968
967
972
973
970
965
967
967
969
967
965
961
962
964
966
966
962
959
960
960
963
962
959
957
952
948
941
940
936
925
916
918
932
947
964
978
989
1016
1055
1107
1157
1186
1192
1175
1124
1039
970
931
922
933
947
954
950
950
950
953
956
955
953
954
954
957
957
957
955
955
954
954
957
956
955
951
951
954
956
955
952
952
953
954
955
955
954
954
955
958
959
961
959
957
955
957
959
958
955
956
954
956
956
955
954
952
953
953
956
954
956
954
953
959
960
961
960
958
956
959
961
962
958
957
956
956
957
956
956
956
954
955
956
957
954
955
954
957
959
960
957
956
958
960
963
964
963
963
963
966
969
970
971
971
970
975
978
977
976
975
974
976
977
977
975
972
974
975
978
979
978
976
974
973
975
973
973
973
973
977
977
976
973
972
971
973
974
973
972
970
971
972
974
972
970
971
969
970
971
971
970
969
968
972
971
968
968
966
964
967
967
967
963
962
961
966
967
966
965
966
963
966
969
970
967
967
968
970
969
969
966
963
961
963
963
965
965
969
968
970
972
973
972
973
973
977
979
980
977
981
982
988
993
994
993
992
990
989
986
985
985
986
985
988
989
991
992
991
985
981
978
976
972
966
964
967
964
962
961
962
961
963
961
962
959
956
954
957
959
958
956
956
955
954
958
957
956
953
953
954
955
955
955
952
948
944
940
934
927
916
913
928
951
978
1008
1047
1100
1150
1181
1187
1161
1100
1023
958
929
923
929
939
945
946
947
945
948
946
947
950
950
948
947
947
947
948
952
950
947
947
945
948
954
953
951
948
948
951
954
954
952
948
946
946
947
945
943
944
944
946
948
949
947
945
946
944
950
949
946
947
946
948
950
948
947
947
948
949
950
950
948
950
949
950
951
953
951
951
951
951
951
950
947
946
944
943
946
945
944
946
944
945
946
947
946
947
944
946
948
948
949
950
950
956
960
960
958
960
959
963
967
969
969
966
967
967
969
969
967
969
971
971
974
974
972
967
967
971
971
973
976
973
972
973
972
970
965
965
965
969
969
970
967
966
965
968
971
971
970
966
965
968
968
968
967
968
967
970
971
969
968
966
964
965
966
961
962
960
961
964
965
963
961
963
964
969
971
971
968
964
962
966
965
965
964
963
962
964
964
964
962
963
961
965
970
970
972
971
974
978
981
981
979
980
980
986
987
989
987
986
984
986
986
986
985
987
987
987
986
988
990
989
987
983
981
980
977
973
969
963
964
960
957
955
955
961
963
962
959
961
961
957
959
957
957
953
956
958
963
962
957
954
950
953
951
945
938
931
924
917
920
935
961
986
1024
1078
1134
1183
1214
1226
1223
1193
1141
1073
1010
963
931
916
919
925
936
941
943
947
943
945
944
943
942
948
949
949
946
944
945
946
948
948
947
944
943
945
947
947
946
945
943
946
949
948
947
945
944
946
946
947
945
946
945
946
949
948
949
947
947
950
952
952
950
948
947
951
952
950
951
951
949
951
952
952
951
948
947
949
949
949
948
948
946
950
951
951
948
945
946
947
945
947
944
941
941
941
942
942
940
940
939
941
944
945
947
947
951
953
957
961
962
965
965
969
972
973
971
971
972
974
976
976
975
976
974
975
978
976
977
976
975
977
977
978
975
973
974
977
979
979
978
978
977
978
978
978
975
973
973
974
977
975
973
971
972
973
976
975
973
971
971
974
976
976
975
969
970
970
973
973
972
971
968
971
974
973
970
970
969
972
975
974
972
972
969
973
974
973
973
971
968
971
971
973
972
971
970
972
977
977
980
978
980
983
987
988
988
988
988
992
997
996
994
996
997
997
999
997
994
991
990
993
996
996
995
996
1001
1005
1001
994
985
983
983
983
983
979
972
971
970
968
968
971
967
965
966
968
967
965
964
962
962
962
965
962
963
961
962
964
967
966
962
961
959
952
948
942
938
930
921
926
945
971
999
1030
1080
1137
1182
1207
1206
1172
1098
1014
951
925
926
936
948
954
955
954
952
953
954
955
957
956
954
952
951
953
953
952
952
950
949
949
953
953
952
951
953
955
959
956
956
955
953
956
956
955
954
952
951
954
957
955
955
953
951
954
957
957
954
954
954
955
956
957
956
955
955
958
959
960
957
957
956
959
961
961
959
957
955
957
961
961
957
958
957
958
961
960
960
958
957
957
960
960
959
956
958
958
960
961
960
959
958
959
960
959
958
960
958
962
964
967
966
967
968
972
976
976
978
978
977
980
982
982
980
979
976
979
982
981
976
977
978
977
979
979
977
977
975
977
977
979
977
977
974
979
979
981
979
975
977
976
979
978
977
975
975
973
976
975
970
971
971
973
974
971
968
968
969
971
974
973
972
971
971
972
974
974
971
970
970
971
974
971
970
969
967
970
970
969
970
969
966
970
972
975
975
979
980
983
985
986
986
985
986
986
989
992
992
991
992
995
998
998
995
996
992
994
992
994
992
995
993
996
999
1002
1003
997
990
987
985
984
980
975
971
970
970
969
969
969
969
967
967
967
964
964
963
966
968
967
967
967
966
967
970
968
966
962
962
957
951
944
939
932
923
922
929
944
963
977
997
1027
1070
1118
1157
1182
1201
1209
1199
1152
1070
987
934
926
940
955
961
955
954
956
959
958
957
956
952
957
957
957
956
954
954
956
958
958
954
957
954
956
957
954
953
953
957
954
957
955
954
953
954
957
958
959
958
957
956
958
960
959
958
956
951
954
958
956
955
953
954
955
956
959
956
955
954
957
960
959
955
955
955
957
959
959
959
958
955
957
963
960
958
957
957
958
960
961
958
956
956
957
959
959
957
955
954
958
960
959
961
961
963
963
966
968
967
969
969
972
970
972
973
971
973
973
973
972
972
972
972
974
973
975
975
972
972
972
972
975
971
969
969
970
972
974
972
970
969
971
969
968
968
965
966
967
970
971
968
967
965
966
967
967
964
964
963
962
962
965
962
962
960
960
962
961
961
960
959
961
964
965
966
964
963
963
963
960
959
958
958
962
964
964
960
960
961
963
964
960
959
957
957
960
961
962
963
963
964
967
968
968
970
973
973
979
980
981
976
977
977
979
982
983
985
983
980
979
979
978
979
977
978
981
988
989
988
981
973
972
972
967
963
959
957
956
954
954
953
953
953
956
959
957
954
951
950
952
955
956
952
954
952
951
952
951
949
948
946
950
952
949
941
934
929
927
922
915
915
928
949
977
1011
1055
1109
1156
1186
1192
1166
1100
1018
950
915
908
914
927
937
938
937
939
944
944
945
941
940
941
943
939
937
937
939
939
942
942
941
938
937
942
944
948
945
946
947
949
950
951
945
942
939
939
942
939
935
934
934
937
940
940
940
940
937
940
941
941
940
942
940
941
940
940
938
937
937
936
936
939
936
935
933
937
939
939
938
939
939
939
941
939
937
934
933
935
936
937
935
930
929
931
932
930
928
928
928
927
927
928
928
930
935
939
942
943
942
942
945
949
956
958
960
960
958
960
960
963
964
962
964
968
971
970
968
965
965
965
965
968
969
966
963
962
963
963
966
964
964
965
969
967
967
965
963
968
971
969
964
962
961
961
964
963
963
957
958
961
967
968
966
961
959
960
961
959
959
958
959
958
958
959
960
958
959
960
961
961
958
955
956
958
958
958
956
955
954
955
959
963
963
966
966
968
971
968
964
961
961
962
961
962
964
963
963
963
968
968
968
971
973
976
981
976
976
973
975
977
980
983
979
981
983
985
985
983
984
985
986
988
988
990
989
984
977
976
977
970
966
961
958
960
962
961
960
960
960
962
963
961
959
955
954
957
962
963
960
954
956
959
959
961
958
958
957
960
962
962
957
948
943
939
938
934
927
918
925
944
973
1006
1039
1080
1130
1181
1217
1235
1224
1170
1084
1002
951
930
929
934
941
947
951
947
948
946
946
948
948
950
950
948
949
950
953
953
952
952
951
951
952
951
950
949
949
949
949
953
951
951
949
952
954
953
954
951
950
951
952
953
952
949
949
953
954
954
952
951
952
953
955
954
951
949
948
950
952
953
952
951
948
949
952
952
952
948
950
951
952
951
951
950
949
948
950
949
943
941
942
943
944
941
941
941
941
943
944
942
940
938
939
944
946
948
946
947
949
955
958
959
963
963
963
969
972
973
975
974
979
980
982
984
983
983
984
988
989
984
982
981
985
985
987
986
985
983
982
984
985
984
982
983
981
982
985
984
981
981
979
982
985
984
983
981
980
982
982
982
981
978
976
979
980
979
977
974
973
976
976
977
975
973
972
974
976
975
976
975
974
976
977
977
977
971
976
975
977
975
974
974
972
974
978
980
978
979
980
983
985
987
987
987
987
991
992
992
995
995
997
999
1001
1001
1002
1000
1001
1002
1003
1004
1001
998
995
998
1002
1001
1001
1000
1002
1007
1011
1006
997
990
987
988
989
986
982
978
977
977
979
978
977
975
974
976
976
975
974
972
973
974
975
973
973
972
970
973
976
975
974
973
970
970
966
958
951
946
938
937
946
970
1000
1034
1071
1119
1177
1225
1258
1274
1286
1283
1254
1198
1122
1043
978
945
938
945
951
959
962
966
963
963
963
959
958
960
961
957
956
954
953
954
954
954
952
950
951
955
956
957
958
954
955
957
958
958
957
958
954
955
957
956
956
954
953
956
956
955
953
951
949
953
954
954
954
954
952
955
957
957
956
953
955
957
959
958
957
954
955
956
956
955
954
950
949
951
953
953
951
948
947
949
950
951
948
948
947
950
952
955
951
949
951
952
955
955
956
953
955
959
965
967
967
966
966
973
974
974
975
975
975
975
978
979
981
979
977
979
980
979
980
979
976
978
980
980
979
977
978
978
981
980
978
976
975
976
977
977
976
976
975
975
977
974
975
972
970
972
973
973
972
972
968
969
971
970
968
967
966
968
972
969
969
968
967
971
972
970
971
967
966
968
970
969
968
967
967
969
972
970
974
974
974
978
982
984
985
983
984
987
992
992
992
990
990
993
996
998
998
997
993
996
997
994
991
990
992
994
996
995
994
996
998
994
990
984
980
979
975
974
974
973
969
968
969
970
969
968
966
963
963
962
963
964
965
961
961
960
964
962
961
958
959
961
964
962
961
954
949
942
940
934
928
915
921
935
953
972
992
1007
1027
1060
1106
1155
1198
1221
1236
1236
1214
1151
1070
995
945
932
941
951
956
956
953
955
957
955
955
951
950
953
952
952
950
949
949
949
950
952
949
948
949
949
953
952
952
949
951
954
956
954
955
951
949
952
954
952
952
951
951
953
955
953
951
952
953
954
953
952
952
951
952
951
951
952
953
951
952
955
956
954
953
951
950
954
955
955
953
950
951
954
954
954
953
953
952
954
955
955
953
953
952
955
958
957
956
953
952
954
958
959
957
957
959
964
965
969
968
968
969
973
974
975
975
974
975
975
977
977
976
977
976
976
978
979
977
976
975
977
978
979
977
975
975
975
977
978
977
973
974
976
978
979
976
972
970
971
972
973
973
970
970
973
975
971
969
966
969
968
970
970
968
966
966
969
970
970
968
966
966
966
966
966
967
966
965
966
968
967
965
963
963
965
967
966
964
965
963
968
968
967
966
965
967
971
975
976
974
973
975
978
981
981
979
978
979
982
986
993
991
991
990
992
990
987
984
983
987
990
992
993
995
996
999
999
990
987
980
976
974
976
977
976
971
965
963
964
963
964
960
960
956
959
961
960
962
960
960
962
963
962
962
956
955
955
960
960
955
953
949
950
947
941
933
923
915
914
928
951
973
1003
1043
1096
1147
1185
1197
1176
1123
1047
981
940
920
919
930
941
944
942
941
940
942
947
948
947
946
944
943
949
949
947
945
942
941
941
941
942
944
943
943
946
947
947
946
944
942
944
944
944
945
943
943
944
947
947
943
943
940
944
944
944
943
939
941
946
948
949
950
946
943
943
944
944
945
945
943
946
946
945
944
944
942
943
942
942
941
941
942
944
946
945
942
938
937
942
946
946
942
938
935
935
936
939
938
937
933
936
937
939
938
936
940
942
944
945
948
950
948
954
960
962
966
966
967
969
973
974
970
968
968
971
973
973
970
969
968
970
973
974
971
965
964
965
966
969
971
970
969
968
970
974
973
972
971
974
971
971
968
969
965
968
970
969
964
959
957
962
966
967
965
963
962
961
959
961
958
960
958
964
965
964
963
962
961
963
962
961
962
961
962
967
968
966
963
963
960
961
965
966
971
970
969
970
974
976
978
977
980
983
982
987
986
982
985
989
991
991
989
986
984
985
989
991
989
988
986
987
990
993
990
983
977
975
972
967
963
961
959
962
961
961
964
961
960
961
964
962
962
960
959
958
962
962
959
958
959
962
962
958
953
945
939
939
932
927
927
945
970
999
1027
1055
1088
1134
1178
1211
1234
1247
1244
1208
1132
1044
976
942
933
936
941
951
954
953
952
950
949
953
955
955
953
953
951
949
949
952
951
947
946
949
950
949
951
947
946
948
950
950
949
948
947
948
952
954
950
947
949
951
954
952
951
950
950
952
952
951
947
946
948
950
950
948
948
946
944
945
947
947
947
945
944
946
949
950
948
947
945
944
945
944
942
939
939
940
939
939
936
938
935
935
940
937
938
937
938
943
945
947
950
953
952
960
963
965
967
966
968
971
975
977
979
979
977
980
982
983
983
981
983
983
985
984
984
982
982
983
986
985
982
981
981
982
985
980
981
980
980
979
982
984
982
979
978
980
981
981
979
977
974
979
979
978
975
977
977
976
977
978
977
976
977
978
979
980
977
975
974
977
978
978
976
976
975
976
978
977
977
973
975
979
981
984
983
981
982
986
988
990
991
989
993
996
999
1001
999
998
999
1002
1003
1002
996
995
996
999
1001
1001
1002
1006
1006
1004
997
992
991
987
983
980
980
977
975
971
971
974
975
976
972
971
970
969
972
973
971
971
970
971
974
975
973
974
974
973
973
973
969
960
951
949
947
940
934
938
962
997
1036
1083
1142
1193
1226
1228
1186
1101
1004
945
934
946
963
970
968
964
962
965
967
966
963
961
960
960
963
964
962
961
960
961
962
963
961
960
958
961
962
964
962
959
958
959
963
964
962
959
959
962
964
965
964
962
961
963
966
964
964
961
961
963
963
964
963
961
962
963
963
964
962
963
963
966
965
968
967
965
967
967
966
966
966
964
963
965
963
962
965
962
962
965
966
968
966
963
963
965
968
970
972
971
973
976
979
980
982
980
979
984
988
987
987
985
983
987
988
988
986
985
983
985
989
989
988
986
985
986
989
989
987
987
987
988
991
989
988
988
986
986
987
