964
965
966
964
960
963
963
963
962
957
957
957
958
960
959
957
956
956
959
957
958
957
954
956
957
957
956
956
954
958
957
958
959
954
953
954
953
954
955
955
955
954
956
954
954
952
950
953
956
957
957
955
954
956
957
957
956
953
952
955
955
956
959
957
958
962
965
969
966
964
964
966
967
966
968
967
966
969
974
976
977
978
976
976
975
976
976
977
977
977
978
982
983
979
967
964
963
962
959
954
950
950
948
953
953
951
950
950
949
951
950
949
945
946
947
949
952
948
945
948
950
951
950
942
935
928
924
920
911
908
920
946
978
1015
1062
1116
1160
1194
1215
1215
1191
1144
1081
1017
966
936
921
919
923
931
939
937
935
933
935
937
939
940
937
936
932
932
934
937
937
938
935
938
936
936
936
937
935
935
937
937
937
935
932
932
937
935
936
933
934
933
932
935
936
934
932
933
934
936
936
935
932
932
936
937
937
934
933
930
932
930
933
933
933
931
933
934
935
934
933
933
934
933
935
932
929
930
931
928
925
923
920
921
923
925
924
921
919
919
920
924
924
925
923
924
926
930
930
934
936
939
942
946
948
949
949
950
952
956
954
952
951
952
954
952
955
956
950
951
954
955
959
957
957
958
960
959
958
955
954
954
954
954
953
955
953
955
957
957
955
954
948
948
951
950
951
949
947
950
951
951
951
949
944
948
948
950
952
949
945
946
947
949
945
944
943
945
949
948
947
949
945
949
949
949
948
948
947
948
947
952
951
950
948
948
948
949
948
946
944
944
949
949
951
951
946
950
952
952
952
950
948
948
951
953
953
954
955
955
960
963
964
960
960
963
966
969
970
968
968
969
973
974
973
973
969
970
974
973
969
969
968
971
973
973
974
974
974
971
968
969
964
959
954
950
953
950
952
950
947
950
950
950
949
948
947
948
950
949
950
948
946
948
949
951
951
949
944
941
934
929
925
915
909
916
936
967
998
1034
1083
1137
1181
1203
1197
1148
1069
987
938
921
921
931
937
941
942
941
943
940
936
938
939
939
937
939
937
938
939
941
941
938
935
937
938
942
942
940
938
938
938
942
940
938
936
935
940
940
939
938
937
937
940
941
941
939
935
938
940
941
939
940
937
940
940
942
940
938
938
936
940
943
942
940
937
941
939
941
939
935
937
938
938
939
938
935
932
932
933
934
935
933
931
931
932
932
931
929
928
927
929
930
928
926
924
926
930
934
935
936
935
941
944
947
948
951
951
952
958
960
962
958
958
960
962
965
966
964
964
964
966
964
966
963
961
962
965
965
965
967
963
963
964
965
965
964
960
962
964
965
966
963
960
960
963
964
962
959
958
959
960
962
959
959
957
959
958
960
961
959
957
957
959
961
960
959
956
957
957
958
957
956
952
954
956
957
957
956
954
955
959
959
957
959
957
960
961
965
968
968
966
968
969
973
972
973
974
974
977
979
979
977
976
978
979
977
975
976
976
978
979
981
989
990
986
977
971
970
970
966
962
958
958
956
954
951
949
951
951
954
954
953
953
950
952
954
952
950
949
948
951
950
952
949
948
945
947
949
949
940
933
926
924
919
912
910
925
955
991
1027
1067
1119
1174
1212
1228
1205
1133
1037
954
918
921
936
944
943
939
937
940
939
938
937
936
935
939
940
936
937
936
935
937
938
938
934
932
934
937
939
937
934
931
935
937
938
938
935
932
933
936
940
939
936
935
938
936
936
938
937
934
934
936
936
936
933
933
931
933
931
934
934
933
934
936
936
935
934
930
934
934
935
937
933
934
934
935
935
935
934
929
929
931
931
933
930
929
931
931
932
934
934
932
934
936
939
942
941
942
945
948
951
952
951
951
952
954
956
955
953
952
953
955
957
958
956
954
956
958
956
958
956
955
954
957
958
959
957
954
955
957
956
954
951
952
951
951
953
954
950
951
951
952
954
954
952
950
949
950
952
953
952
948
948
950
952
950
948
945
947
948
949
946
945
944
944
945
948
946
945
945
945
946
947
947
945
944
943
946
948
947
946
944
945
945
948
948
946
943
945
947
948
948
947
948
949
953
957
958
957
959
961
959
964
965
964
962
966
968
968
971
971
969
969
970
970
966
964
961
966
965
969
971
974
971
966
961
960
957
954
948
948
947
945
945
943
942
944
945
943
943
942
939
940
942
944
941
939
938
938
939
940
940
942
940
938
940
942
939
936
929
919
915
913
907
897
906
929
962
993
1030
1077
1127
1171
1198
1199
1158
1082
992
932
909
915
925
932
933
931
934
934
935
934
931
929
932
931
932
931
928
928
931
931
931
929
927
929
932
934
935
933
930
929
932
931
931
931
929
931
932
933
932
931
929
928
929
933
932
929
928
929
930
933
933
932
929
930
932
932
930
929
928
928
931
931
931
931
930
929
930
932
933
931
931
930
931
932
930
928
925
928
928
931
931
926
923
924
927
927
928
924
923
923
926
929
929
929
930
931
936
937
938
935
933
936
941
947
946
946
947
948
950
952
954
952
951
952
954
957
957
955
951
955
955
957
959
955
954
954
958
957
954
953
951
951
955
956
955
954
952
953
955
955
954
951
953
951
953
955
952
953
951
951
953
950
951
950
945
946
949
951
951
951
946
947
949
951
949
948
944
944
947
949
949
944
944
945
948
950
951
951
949
948
947
946
946
947
944
945
946
949
948
945
945
947
950
949
949
948
948
949
949
952
954
955
954
958
961
962
961
960
957
958
961
964
967
969
967
971
971
970
968
967
964
967
970
975
975
971
968
973
974
976
970
961
958
955
954
951
947
943
940
943
945
945
944
943
944
943
944
943
943
942
941
941
943
944
944
939
938
937
941
942
942
941
938
935
930
928
922
914
910
899
895
900
914
929
945
962
985
1011
1042
1081
1119
1155
1182
1198
1186
1138
1064
991
939
919
915
919
924
930
929
930
931
931
928
928
928
931
932
931
929
931
930
930
931
932
928
929
929
929
932
928
924
926
927
931
932
927
927
929
931
933
930
928
926
926
922
924
928
929
926
930
929
933
936
934
928
926
926
927
929
926
926
924
930
929
931
930
927
926
928
927
925
926
925
925
926
931
930
927
924
925
927
929
924
923
922
921
923
918
918
915
914
912
916
920
921
919
918
918
919
922
925
927
925
930
931
934
933
932
932
935
937
943
946
946
946
949
952
955
951
950
948
950
953
955
955
954
953
952
954
954
954
954
955
956
952
954
952
948
948
950
957
956
958
955
953
951
953
953
954
954
949
947
951
954
954
949
949
948
947
949
950
951
951
951
952
953
950
947
943
945
943
948
948
942
941
947
950
952
949
948
945
944
949
950
947
945
943
943
944
947
950
951
950
951
951
952
951
948
948
950
951
953
951
947
945
945
951
955
956
955
952
955
955
957
962
958
958
961
963
969
967
967
965
965
969
973
973
976
974
972
972
972
970
971
971
972
969
972
974
977
973
969
966
963
962
957
953
951
952
952
948
948
947
948
950
953
950
949
947
947
947
950
948
946
943
943
944
949
949
946
946
946
945
948
946
942
933
927
926
921
916
911
915
932
956
980
1001
1022
1047
1080
1123
1164
1188
1211
1226
1225
1197
1138
1056
984
941
925
926
934
942
942
941
939
942
943
944
941
942
941
942
943
944
943
940
941
941
941
939
940
939
940
942
943
944
942
941
940
941
943
943
940
938
942
941
945
942
942
938
940
941
944
943
941
939
939
942
941
941
941
939
941
941
945
944
944
940
939
941
942
942
939
940
939
940
943
942
939
938
939
940
941
941
938
938
936
938
937
937
936
934
932
933
936
935
934
932
930
930
931
932
932
930
931
933
936
937
936
939
941
947
950
952
954
955
956
957
960
959
962
961
962
963
967
966
965
961
965
968
969
969
968
966
967
967
970
969
967
965
964
968
969
967
965
966
965
968
969
968
967
965
966
969
970
969
967
967
967
967
970
969
967
968
967
969
969
968
968
964
964
964
965
965
965
963
962
964
966
964
963
963
960
963
966
965
963
962
962
964
965
965
965
966
964
964
964
963
964
964
965
969
972
972
971
971
975
976
983
982
981
981
984
985
988
989
989
988
988
992
990
983
984
983
985
986
988
988
991
993
992
988
983
979
976
972
968
967
965
964
961
961
962
963
966
963
963
963
962
962
963
962
957
958
956
959
961
961
959
958
958
960
962
961
961
955
957
957
952
944
937
934
927
922
922
935
958
982
1017
1059
1112
1164
1202
1215
1192
1132
1053
976
932
926
937
949
955
954
953
951
952
955
955
955
954
952
952
954
954
952
953
951
951
953
954
954
952
954
952
953
956
956
954
954
953
954
957
956
956
954
953
952
958
958
955
951
950
954
956
954
954
953
952
954
955
954
954
951
952
954
956
955
954
952
952
955
957
956
956
954
953
955
958
958
953
954
952
953
956
954
953
950
951
952
955
955
952
950
950
954
955
954
953
950
951
953
957
956
957
956
956
958
964
964
965
962
963
966
970
970
970
969
969
973
974
973
973
969
971
972
975
973
973
971
973
973
974
976
976
971
972
973
975
973
973
973
972
973
972
971
970
969
968
971
971
971
970
971
968
970
973
970
971
970
970
969
973
971
970
968
967
970
971
969
967
965
964
967
969
970
967
965
963
966
969
967
967
965
964
966
967
967
968
966
965
967
971
969
970
967
968
972
975
975
974
973
975
981
983
986
983
982
984
987
991
993
992
994
991
994
993
991
990
989
990
992
994
997
997
988
980
980
979
976
972
967
964
963
964
965
965
967
965
967
971
969
967
965
965
964
964
963
963
960
959
960
963
961
959
958
958
960
963
956
950
942
935
929
925
925
942
967
999
1036
1089
1144
1182
1192
1167
1108
1030
957
921
922
936
947
954
952
952
951
952
954
955
954
953
952
948
951
951
951
950
948
949
952
953
952
950
946
948
947
950
950
952
948
948
951
951
951
949
947
948
948
950
947
948
947
948
950
952
952
950
950
948
951
953
950
949
946
947
947
948
949
949
946
948
951
952
950
949
947
946
947
947
947
947
946
946
947
950
947
944
943
941
944
945
944
944
943
943
944
948
947
946
944
942
944
949
946
949
949
952
955
960
960
960
959
960
962
964
964
966
961
960
964
967
967
966
965
962
961
962
963
963
962
960
962
964
963
963
961
962
963
964
964
961
960
958
959
962
961
957
956
956
960
963
961
958
955
954
953
956
957
954
953
952
955
957
956
957
955
953
951
953
953
955
954
954
954
956
956
954
951
951
951
954
953
952
953
958
961
964
964
962
962
962
965
969
970
971
971
973
975
976
975
975
973
975
975
976
976
975
975
974
976
977
979
979
982
980
979
974
973
966
964
958
955
950
949
948
948
946
951
952
953
953
949
944
944
946
950
948
945
945
947
949
948
947
943
941
936
930
926
920
910
907
919
945
975
1008
1054
1114
1169
1210
1224
1204
1150
1069
995
947
927
913
913
920
933
938
938
939
935
934
937
935
935
933
933
937
939
942
943
939
937
935
938
937
937
936
934
932
933
934
937
936
931
932
937
934
933
934
932
931
932
937
936
934
931
930
929
930
933
935
933
935
937
936
936
936
933
929
932
933
934
931
930
930
930
932
930
930
928
926
931
930
930
928
927
925
925
926
926
923
923
925
922
925
923
921
920
920
923
925
927
927
925
929
934
938
944
943
943
942
949
954
955
957
957
959
961
962
963
962
960
961
965
965
967
966
960
960
960
962
962
963
962
960
962
964
964
960
961
960
961
964
966
963
962
960
963
965
966
965
961
961
961
963
962
960
960
958
960
962
960
955
956
957
960
959
961
958
956
957
957
961
962
960
958
956
957
960
959
960
959
958
959
963
962
962
962
964
967
969
969
970
969
972
974
978
978
977
978
979
985
987
986
986
984
982
981
982
984
983
983
981
984
993
993
989
982
975
973
974
972
966
962
960
960
961
961
960
960
956
960
962
961
958
955
958
959
960
961
959
957
955
956
958
959
957
957
955
957
953
949
939
934
931
923
922
923
945
973
1007
1048
1097
1156
1201
1225
1219
1173
1089
996
935
920
931
947
955
952
949
948
948
950
951
951
946
946
946
948
950
947
946
946
947
949
948
948
946
947
945
948
951
950
950
948
948
947
951
948
947
944
945
949
950
950
949
947
949
948
952
951
950
950
947
948
951
954
951
948
947
949
953
953
951
948
946
945
951
952
950
947
948
947
950
949
947
945
944
949
951
949
949
948
944
949
950
950
949
948
947
949
951
951
951
948
948
954
959
959
961
960
961
966
969
970
968
970
972
973
976
976
974
973
972
976
975
975
974
973
974
974
974
976
975
974
972
974
975
975
974
973
969
976
978
976
976
973
972
976
974
973
971
968
969
971
973
971
969
965
967
970
971
970
970
969
967
971
971
973
971
969
967
970
971
970
970
970
969
975
977
979
979
979
982
985
986
988
990
987
989
992
997
996
994
994
993
995
992
993
990
989
985
988
992
993
991
991
992
995
1002
1003
995
985
982
980
983
980
974
971
968
969
968
969
970
966
966
966
966
963
963
964
962
964
965
965
965
963
962
963
965
965
962
962
959
956
949
944
939
930
922
922
935
958
980
998
1020
1051
1098
1151
1188
1213
1215
1185
1122
1038
968
934
931
945
958
961
960
957
957
958
961
960
957
953
954
956
958
957
958
956
956
955
960
960
956
957
955
956
960
958
958
955
954
954
958
957
955
953
953
953
954
957
956
955
956
955
956
956
956
956
957
956
958
957
957
953
954
957
960
958
956
955
956
958
959
960
958
956
956
959
958
957
958
955
954
956
957
959
957
954
956
956
958
957
957
954
953
957
959
957
954
954
953
957
958
960
961
960
961
964
970
968
969
967
967
971
972
974
974
972
971
974
977
975
974
971
971
971
973
971
971
970
970
970
973
971
970
970
969
971
972
972
970
971
968
969
973
970
968
966
965
968
969
968
967
966
965
968
969
970
967
968
966
965
968
965
966
965
964
964
966
967
963
958
962
964
965
965
965
963
961
964
964
966
965
967
969
970
975
976
976
976
976
977
980
980
980
981
982
985
988
989
987
985
982
982
986
986
987
987
986
991
996
999
997
993
985
981
979
977
974
968
964
962
964
960
959
957
957
959
963
961
959
956
956
958
961
959
956
955
954
953
954
953
954
953
951
953
956
953
945
937
931
930
926
919
920
935
959
988
1019
1065
1118
1159
1187
1195
1167
1102
1021
955
920
917
931
943
947
945
946
945
950
950
950
950
946
951
951
949
947
945
943
942
945
945
944
945
944
946
947
944
943
939
940
942
942
944
943
943
941
944
946
944
943
943
943
945
944
944
942
942
941
943
946
945
942
940
942
942
940
942
941
939
939
939
941
940
941
939
941
942
942
943
943
942
942
942
945
944
942
941
942
942
945
943
942
941
940
939
941
941
943
939
936
937
940
939
939
938
937
939
937
937
938
939
942
945
948
948
948
946
949
953
955
955
956
956
956
957
959
959
957
956
952
955
958
959
960
957
956
956
958
959
958
956
954
955
955
957
953
952
953
953
957
957
956
949
947
949
952
952
951
949
949
951
954
953
951
949
947
949
951
950
949
947
946
947
950
947
947
944
945
947
948
946
942
941
942
944
945
944
945
945
946
950
956
956
954
952
954
954
956
957
959
955
957
962
965
966
966
967
965
968
969
967
964
966
965
968
968
970
970
972
975
973
963
958
954
952
949
945
944
943
937
934
936
940
940
941
943
943
941
939
942
941
937
938
937
940
940
941
938
935
936
937
941
936
934
933
923
919
917
914
907
898
903
921
948
971
1002
1040
1092
1148
1190
1218
1227
1218
1176
1121
1067
1014
971
942
916
905
901
904
916
921
925
925
927
928
929
929
926
927
929
929
927
925
923
924
929
930
926
926
928
928
930
928
925
923
924
927
930
930
929
926
924
924
925
924
925
924
923
926
926
927
925
926
925
927
926
927
927
926
924
927
929
927
926
925
925
928
929
927
924
923
923
926
925
925
921
921
923
923
925
923
920
917
915
915
915
918
915
916
914
913
914
916
914
911
908
910
910
911
912
911
913
916
920
923
925
928
927
932
936
938
938
935
938
945
947
951
949
949
949
951
952
953
952
950
949
950
951
953
951
950
951
954
955
955
953
952
948
953
958
957
956
953
951
952
954
954
952
950
950
953
954
954
951
951
951
952
954
954
949
947
945
948
949
948
947
946
944
946
948
946
945
944
944
947
949
948
946
945
945
947
948
947
947
945
944
948
951
952
952
954
953
