967
974
971
973
970
965
970
971
972
971
970
968
969
970
969
967
967
967
969
971
972
970
970
968
970
972
972
972
970
968
968
969
970
971
970
969
969
970
972
971
969
968
971
971
973
972
972
971
972
973
978
978
977
977
980
982
985
982
983
981
984
990
993
993
995
994
994
997
996
992
990
989
991
993
993
994
994
996
997
992
984
981
977
977
975
972
969
966
961
960
964
967
968
966
964
962
963
964
964
963
962
961
961
964
963
962
962
961
962
962
964
962
958
958
951
948
942
936
931
921
918
929
949
975
1005
1049
1107
1159
1187
1195
1164
1097
1019
960
931
926
934
943
949
950
951
952
952
949
950
949
951
952
954
951
955
954
954
953
951
950
951
952
955
955
952
950
955
952
957
953
954
950
954
953
951
952
952
951
952
954
955
953
952
949
950
952
953
953
952
950
950
952
951
952
951
948
950
953
955
955
954
952
953
953
955
953
953
952
951
951
953
953
951
948
949
949
951
949
947
945
949
950
949
951
948
945
946
948
947
945
946
945
947
950
953
953
955
955
960
964
968
968
968
967
967
971
972
970
967
967
971
974
976
973
973
971
972
976
977
974
973
972
973
973
972
972
971
969
971
970
968
971
969
968
969
970
971
971
970
971
970
972
971
970
969
968
969
971
968
968
965
964
964
965
964
964
965
964
966
965
965
966
966
964
965
963
962
962
962
959
962
963
965
965
964
961
961
963
967
964
962
959
961
961
964
962
961
960
961
961
964
963
963
960
961
963
966
969
967
963
964
965
970
969
968
965
968
973
975
975
976
980
980
985
986
985
985
983
988
990
990
989
985
987
989
986
984
985
987
987
985
980
980
976
972
967
965
966
965
964
961
960
960
964
967
969
965
962
961
960
960
960
959
956
956
958
959
961
960
960
961
961
960
956
955
949
942
938
936
927
921
919
933
963
995
1031
1078
1136
1189
1214
1211
1158
1078
1001
948
930
932
937
947
947
949
951
952
951
951
948
947
950
953
952
949
947
948
950
953
954
953
947
949
951
950
950
949
946
946
949
952
951
949
945
948
949
950
949
948
947
948
947
949
949
949
946
948
950
950
950
951
945
947
949
949
949
949
946
950
952
951
951
949
947
947
949
948
947
945
946
946
949
949
946
947
946
945
947
945
947
943
942
942
944
944
942
939
938
938
940
938
940
940
941
942
947
951
952
954
955
958
963
966
968
966
968
971
976
976
974
974
974
975
976
976
977
978
975
975
978
979
979
976
977
978
977
979
978
977
977
978
980
980
981
976
976
975
978
977
974
978
976
977
978
980
978
976
973
974
975
978
979
975
971
974
975
975
976
973
972
975
972
975
977
974
973
973
975
977
977
975
973
973
975
978
978
974
972
973
976
976
974
970
969
973
975
976
975
975
973
973
977
978
977
975
972
975
979
980
980
981
980
985
985
986
984
986
987
989
992
994
997
995
994
997
1000
1002
998
995
993
993
998
1001
998
996
999
1001
1005
1005
999
988
986
983
980
978
978
973
968
970
971
974
973
971
968
970
970
971
970
966
965
968
968
969
968
967
963
963
963
957
951
944
938
936
933
921
915
914
918
930
944
961
981
1007
1038
1085
1145
1195
1219
1216
1172
1090
1006
952
937
941
953
959
961
960
961
959
957
958
961
961
960
960
958
960
961
961
963
959
958
957
963
959
958
958
956
958
959
959
960
959
959
960
961
962
961
961
959
962
963
963
964
962
961
963
965
967
964
964
960
961
962
962
963
963
961
962
963
965
966
963
962
962
965
967
967
965
962
962
965
965
965
962
961
961
962
962
961
961
960
960
961
963
962
960
960
959
963
966
965
964
965
969
972
977
976
977
976
977
980
982
981
979
980
980
983
982
982
982
982
983
985
985
987
984
982
982
984
986
985
985
983
982
986
988
986
982
980
981
982
984
980
977
977
979
980
981
979
978
974
976
978
980
980
977
976
978
978
981
979
979
974
973
976
976
976
974
970
972
973
972
976
973
973
973
975
977
976
973
972
973
976
976
975
975
973
974
976
977
975
973
972
975
975
975
975
973
973
975
980
983
984
983
982
986
990
989
992
991
987
991
995
996
997
997
996
996
997
998
995
995
992
994
997
998
999
1003
1002
997
987
987
984
985
981
978
979
980
976
973
971
969
970
970
969
968
966
967
968
969
968
967
967
964
967
967
967
964
960
963
964
964
962
961
958
957
950
945
937
934
925
919
921
934
956
981
1006
1050
1107
1160
1190
1199
1174
1120
1045
982
940
927
931
944
953
957
957
956
953
956
956
957
955
955
952
956
955
956
956
955
953
954
957
959
958
956
956
957
956
956
955
954
954
955
956
959
958
955
955
954
956
956
957
956
952
952
954
957
955
955
953
952
953
957
955
955
952
955
955
955
954
955
953
956
957
960
958
955
953
955
955
958
957
956
953
955
955
955
956
953
952
951
953
953
953
950
950
953
954
953
953
953
951
953
957
958
956
954
955
955
956
957
959
959
960
963
964
965
967
966
967
968
971
971
972
974
973
972
976
978
974
973
973
976
976
977
977
975
972
975
975
975
974
973
970
972
973
974
972
970
967
968
968
971
972
968
969
970
972
973
973
970
966
968
969
969
970
968
968
970
970
966
970
966
963
965
965
969
966
966
963
964
964
965
965
963
961
962
964
966
965
962
958
964
965
966
964
964
962
963
965
967
966
964
961
959
964
966
965
963
960
963
963
964
963
962
963
964
966
969
971
969
970
970
972
977
976
974
974
976
980
982
981
978
978
980
981
983
983
985
984
987
989
992
989
985
983
984
988
986
985
985
988
989
991
986
980
974
970
970
967
966
963
961
959
961
961
963
962
961
959
956
960
959
958
958
957
959
960
961
959
959
957
957
959
959
956
955
951
954
955
954
951
942
932
928
927
924
914
912
923
944
971
998
1034
1082
1135
1174
1197
1196
1161
1092
1017
960
930
922
927
936
941
941
943
945
948
947
945
947
948
948
950
946
944
946
949
947
948
946
943
945
948
950
950
948
944
947
947
949
948
944
942
941
945
946
945
943
942
944
945
949
949
945
942
944
946
945
947
945
943
945
946
946
946
945
943
944
946
948
945
945
945
945
944
946
946
944
942
944
946
949
947
945
943
945
945
947
943
944
940
940
942
941
941
938
936
936
936
940
938
938
938
937
940
943
941
943
942
946
948
948
951
952
954
953
955
958
959
959
960
961
968
966
966
964
961
965
966
968
969
969
966
966
967
968
967
966
964
965
967
967
963
962
958
961
965
965
965
965
962
964
966
968
965
963
961
963
962
962
962
964
958
959
961
962
963
959
958
957
960
960
958
958
958
958
960
960
959
959
953
956
958
958
958
957
954
955
957
959
960
956
957
958
956
957
956
957
955
959
959
958
956
955
955
956
958
960
958
958
954
957
957
958
957
959
958
962
965
969
967
969
967
970
968
973
973
969
971
975
978
978
982
979
977
978
979
984
980
978
975
978
979
979
980
977
978
981
985
985
978
972
968
966
965
963
958
956
952
951
953
953
954
953
953
952
954
955
955
953
949
951
953
956
955
955
951
952
950
950
951
949
948
949
949
950
943
934
927
923
922
917
911
914
932
962
992
1030
1076
1130
1171
1202
1213
1190
1129
1050
977
938
922
927
933
940
939
940
942
945
944
943
941
942
941
944
944
941
941
941
943
942
944
942
942
943
944
947
947
943
942
942
944
944
943
941
941
943
944
946
944
943
941
940
943
945
944
945
942
943
945
945
947
944
939
942
945
945
947
944
944
943
943
945
946
946
943
945
947
948
947
945
943
944
946
948
949
942
944
943
944
943
942
942
937
940
941
941
938
938
935
939
939
942
942
941
940
942
946
950
952
952
955
958
965
965
966
966
967
967
971
972
971
970
970
969
972
974
974
971
972
972
975
977
975
974
973
974
975
976
975
974
974
975
977
977
976
973
972
973
972
974
975
973
971
972
974
975
973
971
970
972
971
973
973
972
970
970
973
973
971
970
968
968
970
971
969
969
965
965
969
970
968
967
967
969
968
970
970
971
970
968
971
969
969
968
967
966
969
970
969
968
964
968
971
973
975
974
974
976
980
984
985
985
983
986
989
992
993
993
993
992
994
997
994
992
989
991
994
994
993
993
997
998
997
992
986
982
979
978
979
978
977
975
972
970
969
971
970
968
967
967
968
966
967
964
964
962
962
963
962
962
960
959
963
963
964
964
959
961
959
953
946
939
933
928
922
919
932
948
967
990
1014
1049
1100
1146
1186
1212
1210
1172
1101
1018
958
931
930
942
952
955
951
954
955
955
959
957
954
954
957
958
956
957
954
953
956
958
956
956
952
955
953
957
955
956
952
954
956
959
958
955
955
956
957
959
959
957
957
954
957
958
957
955
953
954
956
956
958
955
954
952
956
959
956
955
957
958
960
962
960
959
958
960
960
961
960
959
958
958
958
959
959
958
956
957
959
960
959
959
955
957
958
961
958
957
956
958
961
962
964
960
959
960
962
966
966
965
966
967
969
972
973
971
970
973
974
977
979
978
974
977
977
981
981
978
977
979
979
981
981
978
976
977
979
980
978
977
975
974
976
978
977
974
974
975
977
977
977
973
972
973
975
976
976
972
970
972
972
973
973
970
967
967
967
971
969
969
967
970
966
970
969
968
966
967
968
970
971
968
969
968
970
972
971
970
969
970
970
970
970
969
969
969
971
971
969
967
968
968
970
971
971
969
970
972
976
979
978
978
977
982
985
986
985
985
986
989
992
995
995
994
994
994
995
995
992
992
990
992
993
997
998
1001
997
992
986
982
982
979
974
973
970
970
967
965
964
966
964
966
965
963
960
963
962
963
963
962
958
960
960
963
962
962
960
960
962
960
955
946
937
935
935
927
919
910
912
923
942
963
984
1011
1050
1108
1160
1194
1200
1182
1129
1053
984
943
926
930
940
950
952
954
954
955
952
954
955
957
956
954
952
953
953
955
955
953
949
953
954
956
955
955
953
955
955
956
955
956
952
954
955
954
953
952
951
953
954
956
955
952
952
952
953
956
954
953
953
955
956
958
959
957
955
958
957
957
955
955
952
952
956
957
957
956
957
958
960
961
960
957
955
956
959
959
957
955
953
955
955
958
957
956
951
955
955
957
954
955
952
955
956
957
958
959
954
960
963
964
965
969
968
973
975
975
977
976
973
970
976
976
976
972
973
973
972
977
973
975
974
973
973
976
973
971
970
973
971
974
974
972
971
972
974
972
974
972
970
969
971
972
973
970
968
966
966
965
968
965
966
965
966
967
965
964
962
963
965
965
964
963
960
960
963
963
962
963
960
962
963
965
964
962
961
963
963
963
964
960
960
961
964
966
966
964
963
963
964
964
967
964
964
966
970
974
976
974
972
976
977
980
979
979
979
983
984
988
988
986
982
983
980
984
985
984
985
986
990
992
992
988
981
975
970
971
968
963
958
957
958
959
961
958
957
959
955
956
957
957
955
956
957
960
958
956
955
953
955
956
957
955
953
954
955
956
944
938
931
927
919
911
917
934
958
989
1029
1078
1134
1177
1197
1194
1154
1084
1003
950
922
920
930
937
944
943
942
942
945
948
947
943
943
942
944
946
946
945
941
941
945
948
949
947
944
946
947
948
949
946
945
944
946
947
948
943
942
941
943
947
946
942
942
942
944
947
946
944
942
943
945
944
945
944
942
944
944
946
945
944
938
941
943
945
944
940
942
943
945
944
942
941
939
939
940
940
938
939
936
936
937
942
939
936
934
936
935
934
934
934
931
932
934
938
937
937
938
940
945
949
952
952
953
954
958
962
964
962
961
962
964
966
968
967
966
966
968
970
970
968
967
969
970
971
970
969
967
965
968
969
968
967
965
965
968
967
969
968
965
965
969
970
969
968
965
965
966
967
965
963
961
962
965
966
965
962
959
958
962
964
963
961
959
962
962
963
965
962
960
961
963
965
964
962
957
962
964
965
962
963
960
964
964
964
965
965
965
967
965
966
965
965
964
963
966
969
971
971
970
973
978
978
977
979
978
977
983
985
985
983
985
988
988
990
988
983
985
986
987
988
990
993
994
992
987
982
977
974
969
967
967
967
965
963
963
963
964
966
967
966
963
962
964
965
968
961
958
958
960
962
963
962
959
959
960
960
958
956
952
950
942
937
933
926
915
920
940
971
1000
1036
1085
1146
1190
1208
1198
1152
1072
993
942
929
935
944
950
951
952
954
951
951
952
951
952
956
954
953
950
952
952
955
954
953
950
951
954
956
958
956
952
953
953
956
956
956
951
954
953
953
955
954
952
954
954
958
956
955
954
955
958
957
956
954
953
952
955
956
957
955
955
955
955
957
956
954
953
954
956
959
957
957
958
958
959
960
961
960
957
957
958
960
959
957
957
957
958
960
958
954
951
955
956
959
957
954
955
958
960
962
966
963
964
967
969
974
973
972
974
974
977
976
977
976
976
976
978
980
979
980
978
977
980
984
983
981
981
977
980
983
981
980
980
980
980
983
981
980
980
980
982
981
981
977
976
976
978
980
979
977
974
977
977
981
978
979
975
976
978
979
979
976
974
974
974
975
977
975
972
974
973
974
972
973
970
970
972
973
973
974
971
970
973
978
975
973
972
972
974
976
976
975
974
974
976
979
976
977
976
978
979
982
984
983
982
986
989
991
992
992
990
994
995
1000
1000
998
1000
1000
1000
1003
1000
999
998
998
1000
999
997
998
996
1002
1005
1003
994
989
984
984
983
978
975
973
971
970
971
973
974
971
969
968
970
969
967
965
963
964
967
970
969
968
966
967
969
970
965
959
949
943
942
937
930
923
932
956
985
1014
1056
1107
1156
1195
1221
1228
1213
1177
1122
1059
1000
957
933
925
932
946
957
960
958
956
957
959
960
961
960
958
956
958
962
961
961
957
956
956
956
957
958
957
955
957
958
960
960
957
958
960
961
961
963
960
959
957
959
959
956
956
954
957
957
961
960
956
957
959
961
960
960
959
958
958
960
961
961
959
959
959
961
962
960
962
959
960
960
962
960
959
955
957
961
961
959
958
956
955
957
960
959
961
958
957
959
960
962
962
960
962
965
968
970
969
969
969
973
978
976
977
974
978
978
979
981
980
977
980
980
983
983
980
976
979
978
981
979
979
980
979
982
983
982
980
977
979
980
979
979
979
974
977
976
981
979
976
973
977
977
978
977
973
970
972
974
975
972
971
969
971
972
973
971
972
970
969
970
969
969
969
966
968
969
970
972
971
968
967
970
969
971
971
968
967
970
972
970
970
968
969
971
970
972
968
969
972
972
972
974
971
968
967
969
974
971
972
972
974
977
980
980
982
980
983
986
986
987
986
987
991
993
999
998
999
994
993
993
994
994
996
994
993
996
1000
1002
999
990
985
986
983
979
974
971
971
970
972
968
969
966
968
968
970
968
966
965
966
967
967
967
965
963
964
964
966
964
963
960
959
961
963
957
947
935
937
933
924
926
935
956
984
1014
1058
1113
1162
1191
1202
1181
1125
1051
986
946
930
931
943
953
955
950
950
955
956
953
953
954
954
957
958
957
957
955
953
956
957
958
955
953
953
954
954
952
951
951
950
952
956
954
955
950
951
953
958
956
956
955
953
955
957
957
954
950
952
953
954
954
951
948
951
952
952
955
953
948
950
953
954
956
956
952
953
955
956
956
955
951
952
951
955
954
953
949
951
950
952
947
944
944
943
944
947
945
943
941
945
945
949
949
950
949
952
957
959
962
962
962
965
966
969
970
969
967
969
973
977
977
976
974
977
980
981
980
979
975
978
979
981
981
980
977
977
978
980
978
978
978
977
978
978
977
975
972
973
976
978
977
975
973
976
976
977
976
976
972
974
976
977
973
972
971
970
971
975
975
971
970
972
972
975
974
973
969
970
973
975
973
971
971
971
973
976
976
974
972
972
975
974
976
974
972
973
975
974
976
975
972
971
972
973
976
973
971
972
976
978
978
980
980
984
987
988
989
989
988
990
990
995
997
997
997
999
1000
1002
1003
999
996
995
995
999
1000
1001
998
1000
1005
1008
1008
1002
993
988
989
987
985
981
978
975
976
976
974
973
972
972
973
976
972
973
970
970
973
975
975
970
971
971
971
972
974
973
971
969
972
968
962
953
946
944
939
932
930
938
958
985
1010
1041
1085
1130
1168
1194
1212
1228
1235
1218
1171
1101
1029
976
945
937
945
955
961
964
962
962
960
961
963
963
963
964
961
961
961
964
963
962
959
960
962
965
963
961
959
961
962
961
960
959
958
