966
967
967
970
978
980
981
980
995
999
1001
993
990
989
992
990
984
980
979
979
979
979
977
976
973
963
961
961
958
955
954
955
955
955
954
955
953
950
946
948
947
947
951
949
952
950
951
947
948
943
937
932
931
934
948
980
1027
1086
1154
1228
1281
1289
1244
1174
1108
1055
1023
1015
1012
1004
996
986
976
958
949
944
942
937
934
933
932
933
933
932
929
926
928
929
930
928
927
924
925
930
930
930
927
928
929
929
929
929
930
929
927
928
930
931
930
927
930
930
931
931
933
929
930
931
934
931
932
930
932
935
937
936
939
936
939
938
941
939
938
936
938
941
943
945
944
943
948
951
954
956
954
956
958
964
968
970
971
970
975
977
979
980
982
984
986
989
992
996
994
992
995
997
998
999
998
998
998
998
999
997
996
991
992
991
990
987
983
980
980
980
980
979
975
972
972
975
974
971
972
969
974
974
974
972
971
971
973
975
976
973
972
971
973
973
975
975
975
972
972
974
978
975
974
972
974
974
976
979
977
975
975
979
982
979
979
978
976
980
982
979
980
978
980
980
983
980
982
982
981
981
984
985
982
982
982
982
981
985
982
981
983
984
985
985
982
980
983
983
983
984
984
982
981
984
982
982
982
979
982
984
983
986
985
982
982
982
981
983
980
981
982
982
984
986
987
985
987
987
991
990
988
986
992
998
1002
1006
1010
1011
1017
1022
1020
1020
1016
1014
1010
1014
1012
1008
1002
996
1001
1003
1004
1000
994
988
984
986
986
984
984
981
981
982
982
983
980
978
977
978
979
978
977
978
979
980
981
979
976
971
969
968
966
966
981
1014
1058
1109
1167
1232
1268
1258
1210
1157
1113
1073
1048
1038
1031
1024
1021
1016
1009
1000
992
985
980
974
968
966
971
971
970
966
966
963
964
965
964
963
961
958
959
964
965
964
963
959
959
961
965
965
962
960
962
961
963
964
961
960
962
965
964
961
960
959
959
962
965
963
963
959
962
963
967
962
961
960
962
966
968
968
966
966
966
971
972
975
976
972
975
978
981
983
982
979
981
982
986
988
987
991
995
996
999
1002
1002
1001
1003
1006
1009
1011
1011
1010
1011
1014
1017
1017
1015
1014
1015
1017
1017
1018
1014
1012
1011
1012
1014
1012
1009
1004
999
1002
1003
1001
998
989
990
989
987
985
982
979
980
981
981
980
975
974
972
973
976
974
972
969
970
970
970
970
970
969
966
970
973
972
967
964
967
968
970
970
971
968
966
968
969
970
971
968
968
967
970
971
969
967
968
971
972
970
969
968
968
970
972
970
964
964
966
968
969
968
967
964
966
967
970
968
967
964
962
963
964
963
960
961
962
965
964
963
961
959
960
961
964
965
963
962
962
963
964
964
962
963
962
966
967
964
962
961
960
962
964
962
962
961
963
966
968
968
966
962
967
971
971
973
972
971
970
973
975
977
976
977
983
991
998
1004
1007
998
996
997
1002
1001
996
991
988
989
992
990
987
985
981
982
979
975
969
966
965
967
969
965
965
962
963
961
963
964
964
959
956
959
958
959
958
957
955
957
960
958
954
951
947
943
944
946
958
982
1019
1063
1117
1182
1233
1252
1227
1178
1128
1080
1034
1015
1012
1003
998
995
992
982
974
970
966
960
954
947
945
946
947
945
943
942
941
941
946
945
943
940
938
940
944
940
940
938
938
940
942
941
940
940
941
943
944
943
943
940
940
944
944
944
941
941
941
943
945
945
943
942
941
940
944
945
942
943
942
942
946
946
947
945
946
948
952
950
950
947
949
952
954
955
954
956
955
959
962
961
962
963
963
969
970
971
973
973
975
977
978
978
981
980
982
984
990
990
989
988
989
992
995
994
994
992
989
990
990
989
987
986
985
983
985
981
978
975
974
972
975
972
970
966
966
966
967
964
962
958
957
958
960
958
956
957
956
957
961
956
956
955
953
956
958
955
956
956
956
957
960
958
957
956
955
958
961
961
961
960
960
961
962
961
961
961
960
962
963
963
964
960
957
960
964
963
962
963
962
965
965
963
963
960
960
962
963
961
962
959
959
960
961
962
959
959
960
962
961
960
960
960
958
959
961
958
959
955
957
958
960
959
958
959
956
958
958
958
957
956
958
960
963
964
963
959
958
962
963
961
961
958
959
962
964
962
960
964
961
964
965
967
969
969
970
971
973
974
975
979
986
995
999
998
993
990
991
994
992
991
984
981
979
978
980
982
983
977
974
972
966
965
963
960
958
960
961
960
956
956
957
955
957
954
956
953
952
954
956
953
953
952
952
951
949
945
940
940
945
968
1005
1045
1091
1148
1206
1245
1245
1203
1147
1093
1042
1007
1004
1006
998
988
985
981
978
968
960
953
946
946
946
944
943
940
939
939
941
938
936
935
934
937
938
939
938
935
935
935
938
939
936
935
935
935
939
938
937
937
936
940
941
942
942
939
939
938
940
939
939
937
936
938
940
941
941
938
937
938
943
943
942
940
942
943
946
946
944
943
944
946
950
952
948
948
947
951
955
959
957
955
956
959
964
965
963
964
967
970
975
975
973
975
975
977
978
980
977
980
978
981
984
985
984
982
980
982
984
983
982
977
976
976
975
975
970
966
964
965
964
961
958
956
954
956
957
955
953
950
948
949
951
953
950
947
945
947
948
949
945
947
943
947
948
947
949
946
946
945
950
948
948
946
946
946
949
950
949
947
947
947
948
948
948
950
950
951
952
951
950
950
950
954
955
951
950
945
947
951
953
951
951
951
952
952
952
950
951
949
948
948
948
950
949
950
951
952
953
950
948
947
947
949
952
952
952
949
950
950
952
953
951
952
951
952
953
951
952
950
947
950
952
949
950
950
948
951
952
954
953
951
951
955
957
958
955
956
954
960
963
964
960
960
963
967
973
976
979
985
990
991
991
987
984
981
981
981
981
981
975
970
970
971
970
965
961
959
956
956
955
952
950
947
947
948
950
950
946
945
943
946
948
948
947
945
946
947
948
944
938
936
934
940
954
988
1033
1086
1152
1212
1229
1192
1126
1065
1015
994
997
995
986
978
975
965
960
951
943
941
937
939
939
938
937
935
933
935
935
935
933
930
933
934
937
935
932
933
932
933
935
937
932
934
934
934
934
937
933
933
935
935
937
935
934
930
929
937
937
938
938
936
934
939
941
940
938
936
933
938
940
939
942
941
942
945
948
946
949
945
946
952
954
955
955
957
958
959
964
965
965
967
968
971
974
976
976
975
975
981
982
982
984
983
980
984
986
990
987
987
986
987
988
987
984
983
978
979
978
974
974
970
971
968
969
966
965
963
961
963
966
964
961
960
960
961
962
963
963
960
958
959
962
963
961
960
958
960
964
965
965
964
964
964
966
965
967
963
964
967
968
970
968
968
969
969
972
971
970
970
968
972
974
970
970
968
967
969
971
971
969
967
969
971
973
973
968
972
968
970
972
973
968
966
964
970
972
972
970
968
968
971
973
972
970
968
967
969
971
973
969
971
967
969
967
968
970
967
967
970
969
969
971
970
970
970
971
970
967
968
967
969
970
972
970
972
969
972
974
974
977
976
976
974
975
976
977
979
984
989
999
1006
1009
1005
1001
999
1003
1000
997
992
988
989
991
990
990
987
981
980
978
979
974
970
967
969
971
970
970
969
969
973
974
972
966
964
962
967
970
973
970
966
963
961
964
959
954
952
970
998
1038
1086
1144
1201
1233
1219
1167
1105
1053
1022
1020
1022
1018
1009
1002
995
986
979
974
967
961
958
958
959
958
958
956
953
952
953
953
954
952
952
951
950
951
954
952
952
950
952
954
955
953
952
951
953
954
953
954
951
949
953
953
953
953
949
950
950
952
951
950
950
946
950
952
954
952
951
952
953
957
957
955
957
956
959
961
962
962
959
960
964
967
970
970
968
971
973
975
978
978
978
979
984
987
986
988
986
990
994
992
992
993
996
991
996
998
999
999
997
995
996
995
992
989
986
985
984
984
982
980
978
976
976
978
978
975
972
973
974
976
974
974
971
969
971
973
973
972
970
967
970
972
971
970
970
968
970
972
973
972
973
971
973
976
977
976
975
975
975
978
975
975
973
975
976
977
977
977
977
974
978
976
979
979
976
975
978
978
977
977
979
978
981
982
978
979
978
976
978
977
977
978
979
978
978
977
978
977
974
977
978
981
982
978
975
975
976
976
977
974
974
976
976
978
976
976
974
974
977
977
977
974
975
974
977
976
977
974
975
974
977
974
975
974
974
973
977
978
978
978
981
981
981
985
984
986
983
981
985
989
995
1000
1005
1011
1011
1010
1011
1009
1006
1002
1004
1004
1003
996
993
993
993
993
990
982
979
976
977
978
978
977
973
971
973
975
976
975
970
971
973
974
969
967
966
967
971
972
969
963
957
954
963
989
1023
1066
1126
1191
1230
1216
1156
1097
1055
1027
1020
1025
1016
1008
1002
996
988
980
972
962
955
953
954
954
953
949
948
947
949
948
947
944
946
944
948
950
950
949
944
945
946
950
950
950
946
946
946
948
948
949
948
945
947
950
949
948
945
944
948
953
951
950
946
945
948
950
950
950
951
949
950
955
958
954
956
954
955
959
958
958
961
961
963
966
969
970
969
968
972
975
976
977
978
978
981
985
988
989
987
988
991
994
993
994
993
992
992
997
997
995
995
994
995
993
991
992
990
987
986
985
983
980
977
975
974
977
976
973
973
972
971
972
972
971
967
965
968
975
968
968
967
966
967
971
970
967
965
966
971
969
970
971
969
968
970
971
973
971
968
966
972
975
975
976
976
975
976
976
975
975
975
971
975
976
978
977
976
976
976
977
977
976
977
978
980
980
981
978
976
975
979
978
978
975
973
974
976
979
979
978
976
976
977
978
976
978
979
975
973
975
977
975
976
975
976
977
976
975
974
973
977
980
979
979
978
976
976
977
978
978
974
973
977
979
975
974
976
975
976
978
979
979
978
978
981
984
986
989
992
999
1004
1011
1014
1008
1003
1001
1003
1004
1006
1004
998
994
996
996
996
996
994
992
990
987
986
984
980
980
981
982
983
981
980
977
978
981
985
982
980
977
979
982
984
981
978
972
970
967
969
981
1007
1046
1095
1154
1215
1247
1233
1182
1134
1096
1063
1044
1029
1018
1011
1013
1014
1006
998
993
989
984
980
977
974
971
972
972
974
974
973
972
973
975
972
974
972
970
971
973
974
971
969
966
970
973
971
970
969
967
968
970
973
974
975
972
974
974
973
971
971
970
972
974
974
974
971
973
977
980
979
978
975
975
980
983
983
982
978
981
979
984
986
987
984
987
990
993
994
994
992
992
994
996
1004
1007
1006
1009
1010
1010
1013
1015
1017
1015
1018
1020
1022
1023
1023
1025
1024
1025
1022
1023
1022
1026
1029
1027
1028
1022
1018
1015
1016
1018
1016
1016
1012
1009
1007
1003
1004
1001
1002
1002
1001
1000
999
1000
995
994
993
991
995
999
999
997
995
997
999
996
992
991
996
1000
1004
1001
998
998
997
996
997
998
997
998
1001
1007
1007
1001
1000
1004
1008
1007
1004
1004
1005
1008
1010
1010
1009
1002
1003
1006
1009
1010
1009
1006
1005
1002
1006
1009
1008
1009
1013
1012
1013
1012
1011
1010
1005
1003
1004
1006
1007
1005
1007
1010
1012
1015
1016
1015
1008
1005
1007
1007
1010
1009
1006
1003
1006
1010
1015
1016
1016
1013
1009
1005
1005
1008
1011
1013
1016
1014
1012
1010
1007
1005
1007
1012
1017
1016
1013
1011
1011
1009
1007
1008
1009
1014
1019
1018
1016
1012
1010
1009
1011
1014
1014
1014
1009
1007
1011
1012
1014
1018
1020
1016
1018
1019
1020
1023
1020
1021
1026
1032
1035
1042
1045
1046
1045
1043
1042
1039
1037
1036
1034
1032
1030
1027
1030
1030
1032
1031
1028
1023
1019
1016
1020
1023
1021
1016
1011
1011
1011
1012
1011
1007
1006
1003
1003
1009
1011
1008
1009
1006
1004
1007
1006
1007
1004
1000
996
993
991
990
998
1025
1064
1109
1163
1222
1262
1262
1219
1168
1123
1084
1067
1063
1059
1049
1039
1036
1031
1022
1016
1013
1009
1003
995
990
987
991
994
991
990
989
986
986
989
990
989
988
988
986
986
985
986
987
991
992
989
988
982
981
982
984
985
987
985
987
987
989
991
988
988
985
986
984
986
988
988
986
988
988
985
986
986
986
989
990
988
989
990
991
992
992
990
988
993
991
998
1002
1001
1001
1002
1003
1003
1003
1004
1003
1003
1007
1011
1017
1015
1011
1013
1015
1019
1021
1023
1024
1025
1027
1029
1030
1030
1025
1024
1027
1031
1036
1036
1035
1030
1028
1029
1031
1027
1023
1021
1022
1020
1022
1021
1016
1014
1010
1009
1012
1010
1009
1008
1006
1008
1008
1005
1001
999
995
998
1001
1002
999
1000
998
1002
1002
1003
1002
999
998
1002
1001
1006
1004
1001
999
997
998
996
1000
1000
999
1001
1001
1000
1000
999
998
1002
1000
1001
1000
999
999
1002
1002
1001
1000
996
997
1001
1001
1004
1001
996
993
997
1001
1004
997
997
992
996
1000
999
997
998
1000
1000
1001
999
996
997
993
996
992
992
988
990
994
998
1001
1000
998
991
992
996
997
999
999
996
993
991
989
990
990
987
990
995
998
997
997
996
993
993
995
996
996
995
989
989
989
990
991
993
995
995
996
994
992
991
991
997
1000
1002
1001
999
996
996
996
996
997
998
1002
1008
1016
1021
1020
1020
1017
1019
1022
1023
1022
1016
1012
1011
1011
1009
1004
1001
1001
1007
1005
1004
997
992
991
993
993
991
986
985
983
986
985
988
990
988
983
980
976
973
977
978
982
985
983
980
977
975
971
972
969
967
963
967
989
1027
1063
1108
1165
1219
1241
1222
1169
1114
1074
1042
1031
1027
1022
1016
1012
1004
998
990
987
982
974
967
966
970
973
971
968
963
959
959
962
962
963
963
960
961
963
968
966
963
960
963
963
960
956
954
954
958
960
965
963
960
957
961
961
962
962
962
960
960
961
960
957
953
957
964
966
964
962
960
962
965
967
970
969
966
966
965
967
966
969
970
969
973
976
978
977
976
974
976
977
975
979
979
982
988
995
998
996
995
994
996
999
1003
1001
1000
999
999
1002
1004
1004
1004
1005
1008
1006
1001
997
997
999
1001
1005
1002
997
990
987
987
987
992
991
989
981
978
977
976
973
970
970
974
979
980
978
975
972
973
973
973
974
973
973
975
974
973
970
967
967
971
972
973
972
969
969
968
968
970
971
974
977
978
978
969
969
969
970
972
971
971
973
971
967
968
970
968
970
975
973
971
971
970
972
969
965
966
966
967
968
971
972
974
972
968
966
963
962
968
970
974
972
967
959
958
960
963
963
962
961
965
964
966
967
968
966
965
964
966
961
961
958
959
962
963
965
961
960
962
965
965
964
962
960
961
963
962
961
957
956
958
960
963
963
962
960
962
961
958
953
956
962
971
977
979
980
980
980
983
988
988
985
981
982
985
987
984
980
974
974
976
973
972
968
965
961
959
957
956
954
953
952
950
949
946
945
942
944
944
943
941
937
938
937
938
940
939
937
935
937
935
930
922
919
924
941
973
1014
1059
1109
1162
1200
1212
1182
1129
1075
1033
999
982
969
956
941
938
939
939
934
930
926
923
921
921
920
925
923
920
916
914
912
914
915
914
913
916
917
917
911
906
905
907
910
916
915
913
909
908
908
911
913
913
910
912
917
919
917
915
912
914
911
910
913
910
909
911
914
917
914
910
910
913
914
918
922
918
916
914
916
921
923
925
922
921
921
925
925
927
926
929
931
935
941
940
940
941
943
945
943
943
943
947
953
957
956
955
953
954
960
960
955
953
954
959
963
962
960
959
957
956
958
954
951
949
950
949
946
945
940
936
932
933
932
933
930
928
927
926
922
921
919
919
918
921
922
923
921
914
910
914
914
916
916
918
916
917
917
916
917
917
918
917
914
910
914
914
914
915
917
918
917
917
916
917
916
917
918
915
916
917
919
921
922
920
914
915
916
914
914
916
914
917
917
917
916
917
917
916
916
915
915
915
913
915
913
911
910
910
909
910
912
914
915
915
913
912
916
913
910
909
905
910
911
912
911
910
911
911
912
910
907
907
905
908
911
912
910
908
908
911
912
911
909
907
906
909
908
911
908
909
907
910
916
919
918
914
910
911
915
918
920
918
917
921
927
936
940
942
940
939
940
941
937
936
934
933
932
933
929
926
924
922
922
919
912
906
903
906
909
905
902
899
898
900
904
906
906
900
898
897
899
899
899
898
895
895
898
901
899
889
881
881
884
898
927
969
1017
1078
1146
1198
1215
1179
1109
1040
986
953
933
918
903
899
903
902
900
894
886
888
886
886
886
884
882
882
882
882
883
882
878
881
881
883
884
884
881
883
885
886
883
880
878
882
884
885
887
885
882
884
885
887
886
886
884
884
885
884
885
886
886
888
890
892
891
888
885
888
889
892
891
891
891
893
896
899
897
895
895
896
898
901
903
903
902
904
906
910
912
912
915
915
918
922
921
923
922
924
929
932
936
936
935
937
939
940
940
940
940
941
944
947
947
945
946
946
946
947
946
944
940
940
938
934
929
929
927
927
925
923
922
920
915
915
917
919
916
911
909
909
905
904
