906
907
907
909
910
908
910
907
905
906
907
908
911
906
905
903
905
906
907
907
906
906
906
909
910
912
911
910
911
912
915
909
908
908
908
913
912
910
909
912
913
913
910
907
908
909
915
914
913
911
907
909
910
912
913
913
911
912
915
916
913
912
909
909
910
911
911
910
909
910
911
912
913
910
908
910
911
910
912
909
907
909
912
914
915
912
911
910
911
912
912
913
911
912
914
915
913
911
910
912
915
917
919
918
916
919
917
921
917
918
920
927
934
939
946
947
947
945
945
944
943
941
940
939
939
936
934
932
926
923
921
918
914
911
908
907
910
910
911
909
907
906
909
906
903
901
899
902
903
903
904
903
902
902
899
896
893
893
896
916
954
1003
1057
1117
1179
1212
1198
1137
1066
1003
962
946
936
923
916
912
909
906
905
901
894
890
890
892
891
893
892
891
889
889
890
893
890
890
889
888
890
889
890
889
887
889
893
894
892
888
884
886
889
893
892
894
892
892
891
895
895
894
891
891
893
898
898
896
894
895
897
898
899
900
898
899
901
903
903
902
903
908
911
911
910
911
913
914
917
918
920
920
921
923
927
931
933
934
933
935
938
943
945
946
944
949
952
955
956
955
954
957
958
960
960
958
956
954
955
954
952
950
946
946
945
944
940
937
934
931
929
931
929
922
921
923
925
927
921
920
918
920
921
921
919
918
915
917
921
920
920
919
918
919
922
921
921
917
916
916
918
921
920
918
918
917
921
923
923
922
919
922
922
923
923
921
922
922
925
926
927
925
923
923
923
928
928
927
923
924
926
925
925
924
922
924
926
928
928
927
922
925
929
930
927
924
925
926
927
930
930
928
928
929
931
933
931
928
925
929
931
932
932
930
928
929
930
932
928
925
925
926
928
929
928
928
927
930
934
933
931
924
924
927
933
934
932
928
926
930
935
938
938
937
934
933
939
947
951
961
964
962
959
956
959
962
959
956
953
955
953
950
950
948
946
945
938
931
930
929
932
929
929
928
928
926
924
923
920
924
922
924
925
926
925
925
923
922
923
921
918
915
914
921
941
975
1017
1074
1139
1200
1222
1197
1132
1069
1022
990
978
974
967
963
960
959
949
941
932
924
919
918
916
920
919
920
915
916
915
917
917
919
915
916
914
914
911
910
913
917
918
918
918
913
910
913
915
916
917
915
916
917
917
919
915
911
913
914
915
920
920
919
917
919
922
923
923
922
922
922
923
927
929
930
929
930
930
933
935
937
932
933
935
938
942
946
947
949
952
953
955
955
953
953
953
961
966
967
965
966
966
967
968
974
976
980
982
980
980
978
975
970
973
974
971
970
966
962
959
961
954
950
950
955
958
959
955
951
947
943
940
943
949
952
952
950
949
948
947
943
939
938
939
942
943
941
939
940
940
946
948
944
939
936
935
940
945
947
945
945
945
946
942
940
936
938
942
941
941
938
933
932
935
936
937
938
943
944
943
941
940
941
942
941
939
939
940
934
934
940
948
950
948
943
939
939
941
940
937
939
940
942
944
942
943
939
936
935
937
938
938
936
930
933
937
941
943
940
933
933
939
945
945
940
936
939
941
942
943
944
942
939
937
941
942
943
938
940
943
944
945
944
940
938
943
943
940
938
939
949
963
974
974
970
968
966
966
963
962
960
956
961
967
967
962
955
949
942
941
944
947
950
953
955
949
947
948
945
938
931
933
943
951
955
951
948
948
948
947
945
940
934
928
923
922
923
943
991
1054
1131
1220
1298
1338
1335
1284
1208
1117
1048
1018
1015
1009
1001
996
987
974
969
965
958
950
949
947
954
960
960
954
951
950
949
948
948
950
952
949
951
949
950
949
946
946
950
954
956
955
952
948
950
951
953
953
953
952
955
953
956
955
955
957
964
965
967
966
963
960
962
963
970
977
979
978
978
979
982
983
986
987
989
986
993
996
999
999
1003
1003
1008
1012
1014
1015
1019
1026
1031
1035
1040
1040
1042
1045
1053
1059
1060
1060
1063
1069
1072
1076
1078
1078
1083
1087
1091
1096
1097
1097
1099
1101
1105
1098
1089
1084
1083
1086
1088
1087
1082
1076
1072
1072
1072
1070
1068
1068
1067
1067
1072
1072
1068
1066
1065
1066
1071
1070
1072
1072
1075
1075
1076
1073
1074
1074
1077
1078
1077
1078
1077
1076
1079
1081
1084
1084
1086
1088
1090
1094
1098
1101
1101
1100
1102
1102
1107
1106
1106
1105
1108
1113
1114
1113
1118
1120
1122
1127
1129
1132
1132
1133
1133
1131
1131
1132
1134
1135
1141
1146
1150
1149
1147
1143
1144
1147
1150
1153
1153
1151
1154
1161
1166
1165
1164
1159
1159
1163
1164
1164
1164
1165
1168
1171
1173
1172
1173
1174
1176
1180
1181
1176
1173
1173
1176
1180
1182
1186
1186
1186
1188
1189
1191
1192
1189
1187
1187
1195
1201
1201
1201
1199
1199
1200
1204
1205
1205
1205
1211
1215
1222
1227
1223
1214
1217
1223
1227
1229
1228
1223
1223
1225
1229
1230
1226
1225
1225
1226
1225
1223
1217
1212
1207
1212
1216
1216
1217
1214
1216
1221
1219
1217
1212
1210
1210
1216
1221
1220
1218
1216
1216
1217
1216
1208
1197
1191
1190
1204
1238
1289
1342
1390
1423
1434
1435
1428
1413
1370
1306
1272
1267
1265
1253
1242
1244
1246
1249
1242
1236
1229
1228
1229
1230
1227
1225
1224
1225
1228
1232
1229
1227
1225
1230
1229
1227
1225
1225
1225
1229
1229
1230
1225
1225
1226
1229
1230
1233
1233
1230
1229
1228
1229
1231
1231
1229
1228
1231
1233
1235
1234
1230
1228
1230
1232
1236
1238
1239
1236
1233
1234
1236
1238
1237
1236
1237
1243
1242
1241
1237
1232
1234
1243
1250
1253
1254
1252
1252
1250
1254
1253
1256
1260
1264
1271
1273
1273
1269
1269
1275
1279
1281
1278
1279
1280
1282
1286
1294
1295
1293
1289
1289
1293
1297
1297
1295
1287
1286
1288
1290
1289
1283
1277
1272
1272
1274
1273
1266
1258
1256
1257
1256
1252
1251
1249
1248
1248
1246
1245
1243
1240
1236
1238
1240
1238
1238
1235
1236
1240
1238
1236
1233
1232
1234
1234
1234
1234
1233
1233
1234
1231
1231
1229
1230
1227
1230
1232
1234
1234
1232
1231
1233
1232
1234
1232
1228
1228
1228
1231
1233
1236
1235
1231
1231
1232
1231
1229
1228
1227
1228
1227
1232
1231
1230
1228
1228
1231
1230
1233
1231
1226
1222
1222
1223
1223
1221
1219
1220
1224
1226
1225
1222
1218
1216
1220
1217
1219
1215
1212
1211
1215
1216
1215
1213
1208
1207
1211
1210
1212
1211
1209
1212
1211
1211
1209
1207
1208
1209
1210
1211
1210
1209
1206
1209
1209
1211
1212
1207
1207
1207
1208
1209
1208
1208
1205
1206
1207
1211
1217
1223
1223
1219
1216
1217
1215
1213
1213
1210
1209
1208
1207
1205
1201
1202
1199
1204
1201
1198
1196
1193
1193
1192
1188
1184
1183
1185
1184
1187
1183
1180
1176
1177
1182
1182
1180
1179
1177
1175
1175
1177
1174
1171
1164
1156
1148
1147
1149
1157
1180
1214
1248
1278
1294
1301
1301
1301
1300
1294
1270
1236
1217
1208
1200
1192
1191
1188
1179
1170
1168
1166
1160
1153
1152
1150
1152
1155
1153
1151
1146
1146
1145
1147
1146
1144
1142
1141
1141
1143
1140
1141
1140
1140
1143
1141
1140
1138
1135
1133
1136
1137
1137
1135
1131
1133
1133
1137
1138
1134
1131
1130
1130
1135
1131
1129
1126
1128
1130
1132
1128
1128
1128
1130
1131
1131
1129
1129
1125
1126
1132
1134
1135
1135
1132
1133
1134
1136
1138
1138
1135
1137
1140
1144
1144
1143
1142
1144
1145
1150
1153
1152
1153
1155
1158
1158
1162
1163
1161
1159
1164
1168
1169
1166
1165
1167
1167
1172
1171
1170
1167
1164
1163
1163
1158
1155
1153
1151
1150
1148
1144
1140
1135
1132
1132
1129
1127
1126
1125
1126
1125
1125
1122
1119
1116
1116
1117
1119
1118
1114
1113
1112
1111
1113
1110
1111
1109
1108
1108
1106
1103
1104
1101
1099
1104
1109
1109
1104
1101
1101
1100
1102
1100
1097
1094
1097
1098
1102
1103
1098
1097
1095
1093
1097
1096
1095
1093
1096
1098
1099
1097
1092
1090
1091
1092
1094
1094
1093
1092
1094
1096
1094
1093
1091
1088
1086
1088
1089
1088
1085
1086
1083
1085
1086
1086
1085
1084
1084
1087
1086
1083
1079
1076
1075
1078
1080
1079
1079
1076
1074
1075
1077
1075
1074
1072
1071
1071
1073
1071
1067
1066
1067
1070
1073
1071
1069
1065
1067
1069
1071
1070
1067
1065
1067
1069
1069
1067
1065
1065
1066
1067
1070
1072
1075
1078
1082
1082
1085
1076
1076
1079
1075
1078
1078
1080
1078
1074
1071
1069
1069
1070
1068
1064
1063
1062
1063
1062
1057
1052
1051
1052
1053
1049
1048
1048
1048
1045
1048
1048
1047
1044
1043
1046
1046
1043
1041
1040
1042
1042
1034
1026
1012
1005
1010
1024
1056
1096
1139
1173
1192
1201
1202
1197
1190
1163
1122
1097
1092
1087
1076
1067
1061
1054
1048
1042
1035
1029
1024
1022
1026
1025
1021
1017
1018
1020
1018
1018
1018
1017
1015
1019
1019
1018
1015
1011
1009
1012
1014
1011
1010
1009
1010
1012
1011
1012
1009
1009
1012
1014
1011
1009
1009
1006
1005
1006
1010
1011
1010
1006
1004
1010
1014
1009
1008
1007
1004
1007
1011
1010
1011
1011
1008
1010
1012
1013
1012
1014
1015
1016
1016
1014
1013
1016
1016
1019
1026
1025
1027
1025
1026
1029
1030
1030
1032
1036
1045
1049
1053
1051
1052
1050
1052
1053
1058
1060
1057
1058
1061
1063
1065
1061
1058
1053
1052
1054
1054
1049
1045
1035
1032
1032
1031
1027
1026
1019
1017
1018
1021
1019
1018
1014
1010
1006
1005
1004
1002
1001
1000
1003
1007
1007
1004
1002
1000
1000
998
995
994
995
994
996
996
995
992
993
992
992
993
992
992
990
990
988
990
988
983
984
986
988
989
989
986
985
981
981
985
988
989
987
984
990
990
988
985
983
989
989
992
988
984
980
979
982
985
985
981
979
978
982
983
982
977
975
978
980
984
981
978
974
972
977
980
978
974
973
975
979
979
977
976
974
975
976
981
980
979
975
974
974
976
974
973
972
973
976
977
975
974
972
973
978
978
975
977
977
982
989
993
994
988
985
985
987
985
983
982
982
974
971
971
973
974
971
972
970
968
965
962
961
960
960
960
957
955
953
954
953
957
956
953
949
942
944
946
947
947
948
947
944
938
928
921
921
931
964
1008
1059
1108
1142
1155
1157
1157
1148
1124
1068
1018
1003
1000
989
976
969
965
960
953
947
938
932
933
935
936
935
932
931
930
930
931
932
932
929
926
926
928
926
923
924
924
925
926
927
924
922
924
927
930
925
922
919
918
920
922
923
919
917
916
919
923
925
926
922
922
924
927
924
920
918
921
926
926
924
923
924
923
927
930
932
932
931
932
937
939
936
940
941
942
945
951
956
958
958
958
964
964
968
975
980
983
986
985
982
985
988
988
989
994
999
998
993
983
982
981
979
976
975
968
963
958
952
952
946
942
941
943
942
941
933
929
929
931
929
929
929
931
930
930
928
925
925
924
924
923
918
916
923
925
928
930
930
926
922
916
916
919
919
922
921
921
925
923
919
915
917
917
920
924
926
924
923
918
921
922
921
921
921
922
924
927
929
927
924
918
915
920
921
921
921
918
921
923
922
923
919
919
920
924
926
924
916
914
915
918
917
912
915
914
919
921
917
912
909
911
916
917
912
910
910
912
914
912
911
912
913
910
913
911
914
916
916
913
911
910
909
913
916
920
924
929
935
936
930
925
925
928
930
931
932
931
930
927
926
924
920
918
919
918
915
912
909
907
902
902
905
908
905
899
900
905
907
904
900
898
901
902
905
902
894
892
894
889
878
871
869
879
911
959
1017
1079
1128
1149
1153
1150
1139
1102
1040
987
971
970
956
943
935
926
915
906
901
894
891
890
889
889
883
882
882
879
881
882
880
877
876
873
876
876
876
878
880
878
874
874
874
871
869
867
868
876
878
878
875
874
873
874
871
869
870
870
870
873
874
872
870
867
870
875
874
870
871
874
876
878
879
876
876
879
881
880
878
878
877
881
884
889
893
892
891
891
893
898
899
900
904
906
905
910
917
919
921
921
924
928
930
934
933
934
937
944
948
947
940
942
941
941
938
935
930
926
923
922
923
919
906
900
896
896
896
892
890
891
890
889
887
884
882
883
883
885
885
882
878
874
878
881
883
882
880
879
876
879
877
878
878
879
880
880
874
871
869
872
875
875
874
869
870
870
872
875
876
876
872
870
871
875
878
877
873
871
873
875
873
874
876
878
877
877
877
879
875
870
873
878
880
880
879
875
876
876
878
876
873
872
876
879
877
876
874
875
881
880
874
872
874
875
875
873
871
872
870
867
868
870
875
876
873
869
868
869
871
877
874
866
866
869
871
871
870
873
873
875
876
876
872
870
873
876
874
874
878
877
882
890
894
894
889
889
894
892
890
889
885
884
887
889
888
886
883
880
880
880
876
874
870
866
864
863
865
865
865
863
864
865
864
861
857
860
864
866
865
862
859
860
857
856
853
843
838
837
848
870
912
966
1028
1095
1144
1164
1161
1143
1106
1042
980
952
944
934
919
906
896
886
876
867
860
853
852
850
851
850
849
846
845
843
842
841
833
832
837
840
844
838
834
832
835
836
836
837
835
833
831
831
830
831
831
827
831
833
831
831
828
827
828
829
830
831
827
828
829
830
829
827
825
827
828
831
832
832
831
827
832
834
837
836
836
836
835
836
839
840
839
841
843
848
849
850
849
851
854
859
863
864
865
869
874
876
878
878
880
883
889
892
895
897
897
897
898
904
905
905
901
899
897
899
895
890
887
883
879
877
872
867
861
859
858
856
854
849
843
842
842
846
844
843
841
839
842
840
837
835
835
831
837
840
838
833
832
829
830
831
831
829
828
828
828
830
831
829
827
821
821
825
826
829
828
824
824
824
823
825
822
821
824
829
831
829
825
822
827
831
830
829
827
826
829
831
831
828
825
825
829
830
829
829
828
822
823
827
828
829
828
827
825
827
826
828
829
828
828
828
829
828
827
827
827
826
827
824
823
824
826
828
831
829
826
823
825
826
826
825
821
820
824
829
831
827
824
825
830
833
828
827
825
824
829
832
836
836
835
832
833
837
841
842
846
851
859
861
860
858
854
850
850
855
853
854
852
850
856
856
851
844
839
838
840
844
843
839
833
828
830
834
835
833
828
829
836
840
838
836
834
833
834
838
838
837
827
819
810
806
810
824
859
918
993
1075
1148
1190
1197
1180
1140
1067
972
910
899
897
892
885
885
874
859
846
843
842
840
837
834
835
841
843
841
838
839
835
840
841
838
835
832
836
839
837
839
839
841
839
839
844
849
845
842
840
843
845
844
840
840
838
841
843
845
846
846
845
844
844
846
850
849
848
845
850
852
853
851
848
854
861
861
860
861
866
868
867
867
868
868
869
873
876
876
876
877
879
883
886
891
893
893
894
899
902
906
907
909
913
915
917
916
918
917
918
924
926
926
927
927
924
924
925
923
921
917
916
916
913
911
906
904
903
903
903
901
900
898
898
898
897
897
899
897
893
893
893
898
895
893
891
895
898
901
897
897
894
897
901
901
899
897
895
899
901
898
898
897
895
899
902
903
900
897
899
900
900
904
903
902
898
896
897
899
901
898
896
899
902
901
900
898
899
900
902
904
901
899
900
901
903
904
904
903
899
900
900
904
902
900
898
901
902
902
899
897
896
898
899
897
896
896
898
899
897
899
897
896
894
896
899
899
896
895
896
896
898
898
893
893
892
896
896
896
895
893
894
894
898
896
895
890
890
892
893
893
892
889
889
890
891
892
892
892
895
904
911
918
918
917
912
911
910
912
912
911
909
910
908
906
903
903
899
897
897
897
895
891
889
886
886
886
883
880
880
881
884
884
883
879
879
879
879
879
877
877
876
877
877
873
866
863
861
864
876
906
944
987
1044
1112
1159
1161
1119
1058
1007
965
941
932
926
917
909
906
902
892
881
870
864
861
860
858
854
855
852
853
850
848
851
848
848
849
848
850
851
851
850
851
850
852
851
849
847
850
851
851
850
850
849
847
850
849
847
849
847
849
849
849
851
847
847
849
849
850
850
847
846
848
851
854
853
850
848
851
853
855
854
853
853
857
860
860
860
862
858
860
863
867
867
864
864
869
871
874
877
876
877
880
883
887
887
888
887
890
892
896
893
892
892
895
897
900
898
895
892
895
894
892
890
884
878
880
879
878
875
872
869
871
872
870
867
863
860
860
864
864
860
861
856
858
859
860
859
855
856
857
858
856
854
851
849
851
854
854
857
857
852
858
856
854
852
851
852
856
856
858
856
853
851
852
855
853
852
850
851
852
852
852
851
849
846
849
850
852
846
847
843
846
849
850
848
845
844
846
845
845
845
843
843
843
843
844
844
841
838
842
844
841
840
839
838
840
840
840
841
841
837
838
839
843
842
839
839
838
844
841
837
838
836
838
841
841
842
838
835
835
839
839
838
838
834
835
837
839
841
839
837
838
840
838
838
839
837
839
841
844
844
844
845
851
858
864
871
873
869
866
866
867
865
863
859
859
859
858
855
852
848
848
847
844
840
839
837
835
834
832
832
828
826
826
829
829
828
828
829
829
829
826
826
827
826
828
829
826
826
823
819
816
816
820
833
866
907
957
1015
1077
1125
1123
1071
1006
950
910
883
871
862
850
846
847
841
831
819
815
810
810
809
809
808
808
807
806
805
804
802
802
805
809
807
804
802
803
804
806
805
803
798
799
801
804
805
805
803
801
802
801
803
802
804
806
807
806
805
804
804
805
804
806
806
806
807
805
808
807
810
807
806
810
811
811
812
812
811
814
816
819
818
813
813
816
820
824
827
823
823
828
832
