943
937
934
938
943
944
950
953
952
951
950
948
946
944
946
947
945
945
943
941
938
943
949
954
950
942
938
942
946
949
955
959
958
955
951
952
952
960
962
965
969
974
977
971
967
975
983
982
972
961
962
965
966
961
958
953
953
955
951
939
931
933
940
943
939
931
923
927
934
935
933
932
930
926
921
916
914
922
932
934
927
917
914
910
910
918
945
995
1055
1126
1200
1250
1244
1192
1123
1052
996
967
956
947
934
929
929
933
936
933
923
914
911
909
903
902
902
909
912
908
904
904
903
908
907
905
899
897
896
898
906
911
908
904
898
897
902
905
903
905
909
908
899
892
899
907
907
907
904
904
902
909
911
908
906
903
904
905
907
906
901
902
906
909
910
912
914
918
915
911
909
911
915
923
923
921
920
922
925
929
931
939
940
936
936
943
947
947
949
953
958
960
960
960
962
958
956
958
961
970
974
973
965
960
956
957
959
956
951
943
942
945
948
947
945
943
938
939
935
929
921
918
919
919
917
925
926
923
914
906
909
915
918
921
915
911
920
923
920
913
907
910
914
917
913
907
901
905
916
923
930
924
906
901
909
919
921
918
914
915
921
919
918
917
915
918
922
927
926
927
927
924
920
917
919
920
917
919
921
918
915
914
910
915
921
921
920
916
911
920
929
932
927
915
906
908
917
922
920
918
917
919
918
917
914
912
911
917
917
917
918
922
923
926
927
920
916
917
924
929
931
926
921
918
916
914
917
926
932
935
934
933
934
936
935
940
946
951
960
971
972
963
956
956
956
958
953
950
949
945
940
942
949
953
950
939
932
923
917
924
929
929
927
925
921
922
920
917
913
915
920
922
926
923
917
914
914
913
910
903
898
903
925
964
1016
1081
1154
1228
1274
1273
1217
1130
1061
1015
989
971
950
937
937
935
927
919
916
921
924
924
922
916
910
906
905
912
913
912
910
912
914
915
911
905
902
904
910
915
915
915
916
920
922
923
924
920
916
914
913
917
920
920
917
917
921
917
914
909
901
910
927
932
928
923
919
922
922
920
926
931
921
915
927
953
963
944
927
934
956
965
955
948
938
933
944
955
958
963
962
956
951
955
964
970
981
994
994
981
972
976
993
1001
1004
1006
1001
993
981
969
975
999
1011
1003
993
994
998
989
970
955
956
964
961
960
956
947
931
936
962
984
981
955
935
934
946
954
955
952
950
947
939
934
930
927
915
914
936
971
978
960
954
950
940
937
940
940
934
925
930
942
950
945
944
954
965
970
962
947
938
936
937
944
952
957
954
945
938
940
952
957
954
942
929
932
947
961
960
951
944
943
946
952
958
955
941
945
964
967
950
935
932
952
964
961
939
917
925
962
995
989
959
933
921
935
963
983
974
956
949
939
926
923
947
978
991
981
965
948
937
940
944
944
947
959
971
980
987
999
1005
998
976
957
961
980
996
1000
992
978
968
962
961
961
955
945
946
961
972
966
950
940
941
935
928
940
967
975
962
944
937
942
946
951
954
949
942
941
946
951
949
934
917
911
913
926
961
1011
1074
1149
1233
1299
1315
1270
1189
1110
1047
1026
1027
1005
955
933
959
986
982
962
946
937
928
917
921
934
938
930
923
932
948
956
954
939
925
919
937
950
949
935
923
918
924
925
909
904
913
938
951
950
933
922
922
923
931
936
934
923
928
951
966
948
920
914
928
946
947
931
928
948
957
947
934
934
931
932
933
944
950
946
937
931
949
971
981
974
969
973
977
968
956
957
967
982
991
988
979
976
979
984
983
992
1001
1003
1001
1000
993
994
1009
1019
1016
1015
1017
1009
1001
985
968
970
993
1014
1017
1000
983
962
955
957
970
974
967
965
970
973
968
958
950
946
938
935
942
959
965
969
969
962
957
948
940
934
935
936
936
945
952
959
956
949
951
962
966
965
959
959
963
962
956
951
949
950
952
958
962
958
948
945
955
967
966
962
957
950
948
951
960
966
960
954
955
953
950
948
950
956
964
962
955
957
965
969
967
958
954
957
966
964
957
954
953
962
968
966
957
953
955
952
950
948
949
954
961
961
963
969
963
947
944
958
970
970
969
965
963
962
957
953
953
964
979
994
994
987
989
989
983
977
981
982
980
983
984
980
968
961
968
986
989
981
971
964
963
965
956
946
943
952
961
957
949
949
949
955
960
960
957
952
945
938
941
948
952
954
952
942
935
941
947
946
937
928
939
966
1009
1062
1123
1194
1263
1310
1308
1259
1188
1119
1071
1050
1032
999
970
967
977
977
967
957
951
946
952
960
962
952
945
944
951
955
954
951
948
948
944
946
945
944
945
948
948
944
945
950
956
958
954
945
933
929
936
945
953
955
957
955
959
952
937
929
941
962
966
961
959
956
953
948
946
946
938
938
954
973
973
960
960
966
968
967
958
948
945
953
965
968
961
961
968
973
973
976
978
979
981
977
976
982
991
995
999
999
993
993
1003
1006
1005
1012
1024
1023
1011
1005
1008
1020
1032
1035
1028
1023
1024
1023
1022
1018
1011
1001
997
1004
1011
1003
983
978
988
990
986
980
974
969
966
967
974
971
963
961
969
977
970
956
953
961
965
963
959
960
963
972
964
950
951
957
960
961
962
960
953
953
963
968
966
964
958
960
966
973
976
975
969
961
957
963
969
963
956
967
986
988
975
967
960
959
968
976
978
976
971
960
954
966
980
982
975
966
963
968
974
976
970
958
949
949
962
982
996
993
978
966
970
979
982
983
974
962
956
964
976
987
987
970
962
968
984
993
989
980
987
992
991
979
970
976
993
1002
1014
1018
1021
1015
1007
1001
995
995
1008
1011
1009
997
991
999
1011
1010
1004
996
984
976
967
967
975
983
979
977
976
977
987
991
980
967
962
966
978
996
998
978
953
954
987
1014
1008
987
969
960
962
972
989
1010
1047
1102
1171
1247
1312
1342
1325
1263
1189
1121
1067
1051
1050
1034
1003
987
981
974
971
973
975
965
950
947
947
947
947
951
954
956
954
950
946
943
948
958
957
951
950
957
956
949
933
924
926
939
947
958
956
949
949
947
943
941
934
934
940
957
970
971
953
943
944
951
950
949
947
951
955
958
962
969
964
957
950
949
951
955
958
956
952
953
961
974
977
973
971
975
975
976
972
969
974
978
978
976
982
987
989
987
979
979
996
1006
1014
1024
1027
1020
1006
998
1009
1022
1024
1025
1025
1025
1029
1039
1037
1027
1019
1020
1029
1031
1026
1017
1015
1012
1008
1009
1003
999
992
987
981
981
981
979
977
979
979
973
970
972
976
976
968
963
962
964
960
958
964
968
972
972
965
955
957
961
964
964
965
961
958
962
978
985
982
974
975
978
971
963
953
955
965
983
988
980
969
963
971
978
978
976
973
979
984
979
966
959
966
984
1001
994
978
975
980
982
983
985
981
976
976
977
985
988
988
990
984
983
982
978
969
965
971
981
986
980
972
967
967
966
968
968
970
977
988
998
998
994
991
993
986
980
988
995
993
987
990
1001
1019
1027
1020
1015
1010
1000
989
984
984
981
984
989
999
994
979
971
971
975
977
976
972
973
973
967
963
962
966
971
968
966
966
966
968
964
959
959
961
966
966
960
954
948
948
951
957
974
1012
1070
1135
1206
1273
1321
1326
1280
1202
1124
1061
1018
1007
997
987
979
976
974
969
958
951
951
956
957
948
946
947
952
949
943
944
944
944
941
938
939
939
941
945
951
948
944
937
931
931
939
942
941
940
941
942
941
941
938
931
923
930
949
963
961
952
948
946
944
944
939
943
947
953
959
962
957
948
940
943
957
960
957
954
955
959
961
962
961
958
959
965
975
980
982
979
975
975
976
976
983
995
1006
1011
1009
1004
1003
1010
1014
1016
1021
1018
1015
1012
1016
1025
1028
1026
1022
1020
1021
1027
1025
1021
1013
1011
1010
1006
1000
997
992
991
985
982
984
987
985
980
974
973
974
972
969
971
974
976
970
968
968
970
974
977
976
973
971
970
971
973
970
967
968
971
970
968
969
969
970
967
966
967
967
968
972
973
975
974
974
974
974
973
971
971
972
973
975
975
974
974
974
973
972
974
973
975
977
976
971
970
967
970
973
974
975
976
976
976
978
975
974
972
972
972
975
981
976
971
972
972
972
971
971
975
978
974
977
974
974
975
978
980
978
981
982
983
981
983
989
995
1000
1002
1007
1014
1015
1013
1009
1006
1007
1005
1010
1008
1005
996
990
993
997
997
995
990
985
980
977
978
977
974
974
972
975
973
973
971
970
970
969
969
966
964
964
968
970
970
969
965
965
963
959
960
966
976
1008
1052
1107
1170
1239
1298
1323
1296
1229
1157
1087
1032
1011
1014
1009
997
991
985
982
979
975
966
957
952
952
956
961
957
952
951
949
947
950
952
951
951
947
943
948
951
948
947
946
944
948
948
947
945
943
943
945
948
950
948
945
947
947
947
946
946
946
948
948
949
950
949
949
949
948
949
949
950
952
949
951
951
953
953
953
956
956
958
957
955
955
960
961
963
963
964
965
969
971
973
972
971
975
977
984
986
986
984
985
992
997
998
1000
998
1001
1006
1009
1011
1009
1010
1011
1015
1017
1016
1015
1011
1009
1009
1009
1009
1003
1001
996
991
994
989
984
981
977
978
976
975
973
971
968
970
969
970
970
968
967
965
969
969
966
962
963
962
964
965
962
961
962
962
964
964
961
961
962
963
968
967
966
961
962
967
969
970
967
964
963
964
968
967
966
963
963
969
969
967
968
966
966
967
969
966
967
965
965
967
967
969
968
967
964
967
966
967
964
963
963
963
967
966
966
964
964
965
965
967
966
964
967
967
968
966
964
962
959
961
963
964
967
964
963
965
968
971
973
971
969
973
974
979
982
987
988
996
1003
1005
1000
995
993
995
998
996
993
987
985
985
985
984
982
977
973
972
974
970
966
962
959
960
961
958
959
954
952
954
956
953
952
951
950
951
952
950
949
951
952
955
955
949
945
944
949
961
989
1037
1093
1155
1224
1283
1295
1249
1174
1100
1035
994
985
983
972
968
966
963
962
953
942
938
935
933
934
934
934
932
930
928
928
926
925
927
928
930
930
927
927
927
925
928
927
927
927
926
926
927
932
930
928
927
927
929
929
927
927
925
922
927
930
931
934
931
930
930
931
931
928
928
924
931
934
940
939
934
930
934
940
944
944
942
939
945
950
955
953
950
950
957
964
968
970
968
970
970
975
975
978
983
985
988
988
990
994
994
995
995
993
989
992
995
992
992
991
987
982
979
977
975
974
971
964
967
962
959
959
960
957
955
951
955
958
957
955
957
955
954
952
951
951
952
955
954
953
951
949
950
951
955
957
956
955
952
949
953
958
961
959
953
953
957
960
960
957
951
951
955
955
954
957
957
958
959
958
960
958
955
954
958
960
962
959
956
954
960
964
963
959
960
958
956
961
964
961
960
957
958
955
959
962
961
959
957
960
962
963
961
956
961
962
962
963
963
961
964
966
969
966
966
968
973
978
981
984
989
990
997
1003
1004
999
993
993
994
992
988
984
982
980
982
980
981
976
974
970
965
964
963
962
958
953
955
958
964
960
955
948
948
949
950
947
947
949
952
955
955
952
947
938
941
944
951
973
1009
1056
1122
1185
1246
1278
1259
1194
1121
1065
1024
997
982
964
959
957
960
954
944
938
937
937
936
935
931
929
928
927
928
925
922
923
925
927
928
927
924
926
927
929
927
924
925
923
922
924
927
931
930
923
919
921
923
923
920
918
920
922
927
927
924
921
920
924
929
929
927
924
925
926
925
924
926
922
924
931
934
935
932
932
935
937
940
939
940
945
951
951
949
949
954
959
963
967
967
969
967
968
971
975
980
980
983
984
985
989
991
992
990
986
985
986
985
981
979
975
973
967
961
958
960
961
959
956
952
945
943
940
941
939
939
944
943
939
935
935
940
943
942
940
941
942
941
939
935
935
935
938
938
936
938
934
938
937
934
935
936
934
934
933
935
937
940
937
937
936
938
936
933
933
933
937
938
939
940
937
938
937
938
938
937
935
937
941
941
939
939
936
938
939
943
945
945
943
938
936
935
936
934
933
933
933
932
935
934
932
935
935
937
936
935
935
935
936
941
941
942
936
939
939
941
943
942
942
947
953
957
965
970
972
973
975
973
968
966
962
963
967
966
962
959
955
954
951
953
946
940
935
935
937
938
937
933
931
932
934
932
930
927
923
928
929
930
928
927
928
927
928
927
923
919
917
923
944
988
1041
1109
1183
1246
1271
1231
1153
1078
1019
982
973
964
958
953
947
944
941
935
928
923
917
918
919
920
914
913
911
912
918
921
920
918
915
917
919
917
915
914
912
916
918
920
918
915
914
918
920
923
925
922
917
915
921
922
921
922
922
926
924
922
922
923
923
922
926
929
929
926
924
929
928
931
931
928
929
929
932
934
936
936
934
935
938
944
945
945
945
948
953
958
961
963
959
962
965
969
973
975
973
975
979
982
982
983
981
985
989
993
997
997
990
989
992
997
997
994
988
986
983
979
973
970
968
967
960
960
960
955
951
951
950
953
948
944
943
950
951
952
946
942
937
935
936
935
938
939
942
947
953
947
939
930
929
937
944
949
952
949
941
936
942
945
947
944
942
951
954
952
950
945
941
942
948
954
960
961
955
950
948
951
962
970
964
956
952
954
959
963
959
955
956
960
962
966
959
956
956
961
962
962
960
962
962
961
955
956
959
963
963
961
958
957
955
960
959
956
958
959
958
964
966
970
965
961
959
965
970
979
978
970
968
977
992
1003
1004
1001
1000
999
994
998
1001
991
975
972
982
996
995
986
974
970
977
982
973
962
960
960
957
953
951
953
950
953
967
974
971
957
946
940
933
941
951
958
954
949
954
957
950
939
930
928
946
989
1046
1102
1159
1234
1297
1305
1250
1179
1111
1043
998
986
983
973
966
964
955
943
938
938
948
950
948
952
946
930
912
916
925
930
927
927
932
936
937
935
931
929
926
919
915
920
942
947
931
917
909
918
932
936
922
916
914
921
929
925
908
900
902
911
925
937
936
922
904
900
911
924
926
921
920
926
935
933
922
917
920
917
914
912
916
922
930
943
951
949
945
945
948
951
951
949
940
927
923
929
950
973
984
992
990
982
970
959
951
950
953
964
972
976
971
973
986
997
997
998
994
987
979
967
960
958
961
974
981
972
964
956
959
959
958
957
952
948
941
931
919
920
924
937
948
955
954
948
943
938
939
944
947
957
960
962
959
952
946
944
947
947
942
934
930
927
925
924
925
927
931
936
939
935
928
934
943
945
939
939
947
953
953
947
945
946
946
947
948
950
951
945
947
950
951
950
947
944
945
948
946
944
941
940
941
947
952
962
967
965
958
950
952
958
961
959
952
950
952
959
959
960
952
948
951
958
965
969
967
969
967
968
967
970
971
968
974
974
972
965
962
961
966
973
977
985
994
1002
1005
1001
994
996
991
990
989
991
995
993
989
987
985
982
979
975
971
969
970
976
972
967
962
963
970
971
967
965
957
956
963
966
966
965
966
970
970
969
966
965
960
958
960
967
988
1028
1076
1142
1215
1289
1325
1305
1237
1165
1101
1058
1038
1035
1023
1010
1009
1005
999
993
985
979
973
970
965
959
950
948
953
962
963
959
955
956
958
957
956
952
949
950
956
957
957
951
950
954
955
955
955
957
957
954
955
956
957
953
949
950
954
962
962
959
952
946
946
951
953
953
954
958
964
965
957
957
954
956
962
964
965
964
964
966
968
968
967
970
969
974
977
973
974
976
985
994
995
996
996
995
996
996
998
1004
1010
1011
1009
1011
1017
1025
1025
1019
1018
1024
1027
1033
1030
1029
1029
1031
1030
1031
1029
1027
1023
1018
1019
1021
1019
1015
1013
1011
1007
1004
1001
997
994
992
995
994
991
987
983
983
987
994
993
988
983
980
981
983
985
988
990
990
988
988
984
984
984
986
986
988
988
990
983
980
982
985
990
989
987
984
987
992
993
991
988
990
989
993
993
992
989
991
994
994
991
989
990
993
995
998
997
994
991
992
997
997
996
995
993
994
996
1001
1000
997
995
995
994
994
991
989
986
990
996
996
996
996
993
994
997
997
996
991
989
992
996
999
997
995
990
989
993
995
999
999
997
1000
998
1002
1002
1002
999
1001
1003
1008
1014
1012
1008
1010
1015
1020
1026
1030
1037
1040
1040
1037
1034
1033
1031
1030
1030
1030
1030
1028
1022
1020
1019
1019
1015
1012
1010
1006
999
997
998
999
997
995
995
994
991
991
987
984
987
990
992
989
986
987
988
993
991
987
980
983
986
984
977
974
984
1008
1047
1092
1144
1209
1278
1326
1327
1275
1206
1140
1082
1047
1041
1043
1034
1017
1010
1007
1006
997
986
975
972
979
987
984
978
970
965
967
971
977
974
971
971
971
971
970
969
970
969
973
977
976
971
966
965
968
974
975
970
966
967
966
969
971
973
972
968
965
968
975
977
974
968
964
969
973
975
974
971
973
971
