952
954
957
960
955
952
950
949
947
950
953
952
949
947
952
958
958
955
947
944
941
941
940
947
968
1008
1055
1109
1173
1230
1257
1241
1194
1138
1084
1030
995
985
980
971
963
958
957
953
948
940
935
934
932
935
937
934
934
931
929
929
929
928
930
932
931
932
936
938
938
936
934
931
928
927
927
929
928
929
931
936
934
933
933
931
934
934
931
927
927
929
930
931
931
930
930
933
934
936
936
932
929
935
935
940
940
940
938
937
940
942
942
943
943
945
947
949
951
948
947
951
954
955
957
957
958
962
963
967
969
969
968
971
973
977
984
980
978
978
979
984
986
987
984
985
987
989
988
988
987
986
989
987
984
979
975
974
975
977
975
969
966
964
965
963
963
961
957
957
956
959
957
953
951
951
953
956
953
954
952
952
954
951
950
950
950
951
954
955
953
949
947
946
951
955
956
954
952
954
955
958
956
955
951
954
958
961
959
958
955
957
958
960
961
957
958
957
960
960
961
960
960
959
959
959
960
959
957
959
960
962
961
960
956
960
960
963
962
961
956
955
960
958
961
961
958
958
958
957
957
960
958
959
960
961
959
960
956
958
958
960
958
955
957
956
959
960
961
962
958
959
960
960
959
958
955
956
959
960
957
958
955
957
959
962
961
960
957
956
960
960
960
962
962
964
964
962
961
959
960
962
967
970
967
967
964
966
972
977
981
986
990
996
997
996
990
991
989
987
985
984
983
979
979
980
981
979
977
972
968
968
965
965
963
961
959
958
961
963
964
961
957
956
958
961
960
957
956
955
956
959
957
953
951
949
947
946
945
952
975
1016
1062
1120
1186
1243
1262
1231
1171
1114
1060
1021
1005
1002
997
991
986
979
975
970
963
959
951
948
945
946
947
949
947
945
942
943
944
945
944
940
940
942
943
943
943
943
944
946
947
944
943
944
941
944
940
947
946
947
944
947
946
945
942
941
941
941
945
946
948
948
945
946
949
950
951
946
944
945
948
951
951
951
950
953
955
955
956
955
954
957
960
963
965
965
962
968
971
975
977
975
974
976
983
986
988
991
993
992
995
996
995
997
993
993
999
1001
1003
1003
1001
1001
1004
1003
998
995
989
990
989
990
986
981
980
978
977
976
972
968
966
964
968
967
964
962
958
957
960
962
959
959
956
956
959
962
962
958
955
956
957
957
961
959
957
956
959
964
964
960
957
960
963
963
962
961
960
961
963
964
966
965
963
967
968
968
965
961
959
961
965
967
970
968
964
965
968
970
970
967
964
965
968
969
969
968
966
969
970
971
969
966
965
965
967
970
968
966
964
967
969
969
969
967
967
965
967
969
968
968
964
966
966
968
969
966
963
969
971
972
972
969
965
967
968
971
969
965
964
967
967
969
969
968
967
967
968
966
970
967
967
967
968
969
970
967
966
968
968
972
973
970
968
970
973
974
974
974
975
975
979
984
988
990
994
1000
1006
1006
1003
1000
995
993
991
992
992
992
991
992
991
986
983
978
974
972
967
970
971
971
970
972
973
971
971
966
964
966
968
969
970
968
967
965
966
969
969
965
959
956
953
960
972
998
1030
1081
1144
1214
1262
1267
1223
1158
1099
1058
1035
1028
1025
1019
1014
1010
1003
995
982
975
969
968
967
964
960
960
958
961
960
958
955
956
957
955
956
956
953
954
953
955
954
951
952
951
955
955
956
954
951
954
954
958
958
956
954
955
954
959
960
961
955
954
956
958
958
957
957
958
958
961
961
961
961
961
965
966
963
962
961
966
970
973
972
970
966
967
972
974
974
977
975
979
981
987
987
986
984
982
986
990
989
993
994
997
1000
1004
1007
1007
1006
1006
1009
1012
1014
1011
1007
1010
1013
1010
1009
1006
1003
1001
1001
999
998
993
990
991
989
989
985
982
979
977
978
976
980
978
977
975
978
977
977
975
971
972
974
975
972
969
967
969
972
973
974
974
974
976
976
975
971
969
967
969
971
972
972
972
971
973
974
976
974
974
975
975
977
979
980
977
972
975
977
978
979
978
977
976
979
981
980
980
976
976
974
976
974
975
973
977
976
976
976
977
976
979
981
979
977
975
973
975
978
979
981
977
976
973
975
976
975
976
974
974
976
975
975
976
974
974
974
976
977
976
976
976
977
979
981
976
977
974
975
978
977
977
975
973
976
976
981
979
975
975
977
979
979
977
974
975
976
978
981
979
980
980
982
987
988
986
986
985
985
989
989
993
996
1004
1012
1016
1012
1008
1005
1006
1007
1006
1002
999
999
997
997
999
996
992
989
987
983
979
978
978
975
974
973
976
976
975
971
974
974
975
975
970
968
973
970
974
973
972
971
969
966
963
959
958
961
979
1015
1061
1117
1183
1241
1255
1223
1165
1103
1054
1034
1035
1031
1024
1012
1001
990
979
973
970
969
963
958
954
955
955
955
955
952
953
952
956
955
954
953
949
951
953
953
952
948
948
955
955
953
952
948
950
953
955
952
951
952
952
953
957
954
951
952
952
956
958
956
954
950
952
956
961
960
957
955
956
960
961
965
963
962
962
965
966
966
967
965
967
967
971
974
978
978
980
982
985
982
984
983
986
989
991
994
995
994
995
998
1004
1004
1003
1003
1003
1004
1007
1008
1006
1004
1001
1002
1003
999
996
992
989
990
989
988
988
984
980
979
980
980
980
977
973
973
973
973
972
973
969
966
966
967
968
965
965
967
971
969
969
966
963
964
971
976
972
971
969
972
973
971
972
973
971
972
977
976
975
971
974
975
975
975
975
973
975
977
979
978
976
976
975
976
978
976
977
978
973
973
980
979
977
975
973
971
975
975
975
974
976
975
973
971
974
974
973
975
976
975
975
973
971
976
978
978
975
974
973
974
977
973
972
971
969
971
972
974
973
970
966
971
973
974
970
970
971
975
976
974
971
969
968
971
974
975
975
971
970
973
975
974
972
968
967
969
971
970
971
967
971
976
975
972
969
969
968
971
973
973
976
980
986
996
1004
1003
1000
995
992
993
992
987
986
984
982
985
988
987
985
980
974
971
972
967
964
960
958
960
963
963
963
961
959
957
957
958
956
956
952
955
955
956
953
954
953
953
952
947
947
945
953
973
1009
1045
1091
1151
1203
1214
1175
1110
1054
1015
992
987
987
979
976
973
963
960
952
944
940
937
936
935
935
933
927
923
924
930
931
932
928
928
929
931
932
929
926
923
923
925
928
929
922
918
920
923
924
924
922
920
921
920
917
919
920
920
919
923
927
922
914
911
914
919
924
921
919
919
920
923
928
928
925
923
924
926
929
927
924
923
927
928
930
932
932
932
934
937
939
940
943
943
947
951
953
952
952
951
951
955
960
961
958
957
954
957
963
965
965
962
962
960
960
955
955
951
950
950
949
948
946
944
939
939
940
938
937
937
935
935
934
933
931
928
927
927
930
931
929
927
927
929
930
929
931
927
927
930
933
932
931
931
929
932
936
937
934
934
936
934
937
933
936
935
936
939
940
941
940
941
943
944
945
946
943
943
944
948
950
947
950
949
949
951
954
953
955
952
951
952
956
955
956
955
952
954
955
955
957
954
953
957
957
959
960
958
959
961
963
962
962
956
954
959
961
961
956
958
958
962
962
961
958
959
961
964
964
966
963
960
960
964
968
967
965
965
967
967
969
967
965
966
965
969
971
971
972
968
971
972
974
976
976
973
972
975
980
987
991
999
1002
1006
1005
1001
1000
999
999
998
998
995
992
989
987
990
995
992
988
983
979
979
980
978
979
974
971
973
975
973
971
969
973
973
976
976
973
969
970
972
976
974
972
971
973
973
967
960
954
951
960
985
1021
1068
1122
1186
1244
1274
1255
1202
1145
1093
1050
1033
1032
1026
1016
1007
1005
1001
994
986
980
974
970
972
972
967
964
958
956
959
962
958
959
956
958
959
960
960
959
959
959
961
960
959
960
957
957
958
960
961
958
957
955
960
963
960
958
956
957
957
962
962
960
957
958
961
963
964
963
961
961
962
965
968
968
966
967
971
973
972
972
971
972
975
978
978
977
979
981
985
991
990
988
986
984
988
996
1000
1002
1001
1001
1005
1007
1008
1010
1011
1010
1010
1010
1011
1010
1012
1014
1016
1016
1010
1009
1008
1010
1009
1006
999
996
992
988
990
990
991
987
984
982
983
982
980
979
977
975
975
974
975
973
970
969
971
973
971
970
968
965
968
969
969
970
970
967
970
972
971
969
967
969
974
975
975
974
972
970
972
974
972
971
970
972
973
974
973
972
972
973
977
977
977
976
975
971
975
975
977
976
975
971
974
976
974
976
976
976
979
981
981
979
976
973
978
982
982
978
975
976
977
980
979
978
975
972
975
976
977
976
975
976
978
979
980
978
973
976
978
980
976
974
975
973
974
976
977
975
975
974
975
978
976
975
974
973
975
981
978
977
974
975
976
978
977
974
969
970
971
977
976
975
975
977
978
979
978
974
976
977
978
977
979
979
979
983
991
1001
1006
1007
1004
999
999
1000
1000
998
994
992
993
994
993
992
989
985
986
987
986
979
974
972
972
973
971
972
971
970
969
968
967
967
966
965
967
968
967
967
964
961
964
968
968
963
959
952
947
944
943
956
982
1021
1070
1123
1186
1238
1260
1232
1179
1125
1077
1039
1026
1024
1019
1012
1004
1000
991
979
971
966
959
952
949
949
947
947
946
946
943
941
940
944
945
942
942
940
942
944
945
940
940
940
945
944
946
944
942
944
946
948
950
946
943
942
941
945
944
942
945
942
944
943
943
943
943
943
946
951
951
948
950
946
944
950
949
950
951
950
950
950
956
955
956
957
960
962
963
965
965
966
967
970
973
972
972
972
974
977
979
979
982
985
990
993
994
994
992
993
995
996
999
999
999
999
998
999
1002
1000
995
992
995
992
991
985
983
980
980
978
979
977
973
970
967
971
967
964
961
962
962
963
962
962
958
955
958
959
958
959
958
959
960
961
962
959
959
958
962
962
962
958
958
957
958
961
960
959
957
957
960
961
963
961
960
958
958
962
964
963
960
960
962
966
967
965
961
959
960
963
963
962
960
961
960
964
967
965
962
959
960
963
965
965
963
962
962
963
961
958
958
960
963
962
963
961
956
955
962
962
962
962
960
958
961
961
962
959
960
958
956
958
959
958
957
955
958
959
957
960
955
956
959
963
962
960
957
955
956
957
962
960
957
955
956
960
961
960
960
958
961
962
964
963
963
963
966
970
970
968
969
968
973
975
976
977
984
987
995
1002
1003
1001
996
989
987
989
988
985
981
980
980
981
980
977
974
971
971
971
969
959
953
953
955
960
958
951
947
947
950
951
952
951
950
947
947
945
943
942
944
945
943
945
943
937
936
937
937
939
938
943
967
1002
1039
1087
1148
1197
1212
1181
1132
1084
1042
1004
988
989
988
982
977
969
960
950
944
938
929
924
918
917
921
923
921
917
912
914
917
921
918
915
913
913
916
915
917
917
916
913
916
916
920
919
914
913
914
918
920
923
920
914
912
915
918
917
917
914
913
916
916
916
915
914
917
918
919
923
923
919
913
916
922
925
919
920
921
924
927
926
925
925
927
930
931
929
930
930
935
937
935
932
931
936
939
944
945
945
947
944
949
952
955
955
954
954
956
959
961
961
963
960
963
964
968
968
966
963
965
966
965
962
960
958
959
958
955
951
947
944
946
947
947
945
941
938
937
938
936
938
935
933
936
939
936
933
931
930
931
935
933
934
934
934
939
938
938
939
936
934
935
936
939
940
942
940
938
942
942
943
944
943
948
947
946
946
947
947
951
951
951
948
950
951
952
951
952
951
951
952
951
955
955
952
952
953
953
955
958
958
957
955
956
957
954
953
952
954
957
955
955
953
952
952
955
955
956
954
953
952
953
956
955
956
953
955
955
959
956
954
951
953
955
957
959
957
954
951
953
956
958
958
957
955
952
955
958
959
954
955
958
960
957
959
959
958
961
963
963
965
963
963
966
968
967
967
969
974
979
984
988
997
998
992
992
990
993
991
988
984
983
984
984
982
983
982
980
979
978
974
970
966
964
965
966
965
963
961
962
963
964
962
960
960
958
966
963
961
960
960
964
964
965
964
959
954
951
947
946
952
965
1000
1044
1091
1150
1212
1251
1246
1204
1150
1101
1056
1028
1021
1018
1009
1003
998
990
983
980
973
967
959
962
959
958
960
957
958
956
952
954
955
957
957
957
958
957
957
957
957
956
956
953
954
958
958
959
958
956
959
959
959
955
952
956
959
960
960
960
960
959
960
961
962
961
958
959
963
965
964
961
961
965
967
966
965
966
965
968
974
974
974
971
972
977
978
980
983
981
983
984
987
988
991
993
992
997
996
998
1000
1001
1000
1006
1009
1012
1014
1010
1011
1013
1015
1018
1018
1017
1016
1018
1018
1018
1017
1011
1011
1012
1015
1014
1009
1004
999
999
999
1002
1001
997
991
984
979
975
977
979
980
979
979
980
979
981
978
980
981
981
979
979
979
980
980
979
978
978
978
979
980
982
980
980
979
984
985
988
986
981
980
981
985
984
985
984
985
983
984
986
984
984
982
983
983
984
985
988
985
984
988
991
989
988
984
984
985
985
985
981
981
983
983
983
982
982
980
982
982
984
984
981
978
980
981
979
981
981
980
983
985
985
983
980
978
981
984
983
980
981
981
983
984
983
984
983
979
980
980
981
980
978
976
979
983
983
985
985
984
985
986
990
991
990
988
991
993
994
996
1000
1001
1012
1018
1018
1012
1007
1008
1011
1009
1006
1003
1002
1001
1002
1001
1000
1000
995
989
988
983
982
981
981
980
981
978
978
978
974
973
973
975
977
977
975
971
971
972
974
974
971
963
959
955
958
968
994
1034
1087
1150
1220
1266
1264
1208
1145
1095
1055
1039
1038
1034
1027
1021
1011
1001
990
976
971
966
966
966
964
959
960
961
961
961
958
956
956
956
958
957
959
955
957
957
956
957
955
955
959
963
962
963
962
962
960
958
957
958
961
957
955
954
956
956
956
953
955
956
957
961
958
957
959
958
962
963
963
963
961
964
967
966
966
966
970
972
973
972
971
973
976
982
981
982
982
983
988
992
995
997
991
994
999
1001
1008
1008
1007
1005
1005
1011
1012
1014
1015
1014
1017
1018
1016
1016
1014
1011
1009
1010
1012
1010
1007
1003
1001
999
1000
996
989
988
989
989
991
986
983
979
979
981
981
979
980
977
977
977
976
977
977
975
977
978
979
976
974
974
976
978
977
975
976
976
978
981
979
980
978
977
977
981
983
982
982
981
980
980
981
979
978
977
978
978
980
979
979
977
979
981
981
980
976
976
978
980
980
979
980
978
978
979
978
979
978
977
979
978
979
979
981
980
980
980
981
979
981
980
980
982
983
983
984
982
980
980
981
978
976
974
976
979
980
981
980
975
975
978
977
977
977
976
979
983
982
975
976
974
979
982
983
980
980
976
979
984
987
984
983
985
991
997
1003
1009
1011
1007
1003
1004
1005
1001
999
995
994
994
994
993
992
988
984
982
979
979
978
976
973
972
971
971
968
967
967
967
969
966
965
964
968
967
969
968
967
964
963
960
955
952
951
960
995
1033
1080
1140
1208
1256
1260
1215
1154
1096
1051
1029
1029
1025
1021
1013
1004
994
987
979
975
964
958
956
954
955
958
956
954
950
950
950
954
951
951
949
947
949
953
952
949
946
946
948
951
949
950
948
951
949
952
951
949
948
950
950
951
948
949
947
950
951
953
951
951
945
949
950
955
954
953
950
953
954
957
957
955
955
958
958
960
959
962
962
964
966
969
970
969
968
972
974
979
978
978
978
982
985
988
993
995
995
996
995
995
996
998
998
998
1001
1003
1002
1003
999
998
1001
1002
1003
1000
996
992
992
992
989
983
981
980
981
977
974
974
967
968
970
971
969
967
966
966
966
967
965
963
961
961
963
966
966
964
962
962
965
965
964
963
962
964
964
966
966
963
962
962
965
968
967
967
963
962
964
967
961
961
961
961
960
964
966
965
962
963
963
966
963
962
961
961
961
965
966
966
963
962
962
963
963
962
959
959
962
964
965
963
959
960
964
964
964
961
962
961
962
964
965
962
958
960
962
964
963
960
961
961
960
963
965
963
960
961
962
964
965
962
957
958
959
961
960
958
956
956
961
964
962
962
961
963
963
964
963
964
962
966
969
969
968
967
963
965
969
974
979
982
989
993
994
992
990
987
986
984
984
983
982
978
978
977
977
976
972
972
969
965
961
960
957
956
954
956
958
957
956
955
951
952
953
953
953
947
948
946
950
952
952
950
950
947
945
940
936
933
935
959
996
1041
1093
1155
1211
1236
1215
1160
1100
1048
1015
1008
1007
1002
994
987
977
967
960
952
946
941
937
935
937
937
933
931
930
930
930
929
928
930
927
927
928
930
930
929
930
929
930
930
931
929
928
927
927
931
929
926
926
926
927
930
937
933
932
929
930
931
929
