1023
1009
995
985
976
971
964
958
948
936
929
928
931
932
928
924
922
925
927
926
924
923
920
922
923
926
928
927
924
923
920
920
920
919
918
921
923
924
922
923
921
923
925
923
917
916
918
921
921
923
920
924
923
922
921
921
921
920
919
923
921
918
915
919
921
924
924
925
924
925
922
918
918
918
917
922
922
926
928
932
934
932
930
933
937
942
941
943
945
947
950
954
954
954
954
955
963
960
962
961
960
964
964
967
967
965
962
965
967
967
965
962
956
957
955
955
952
950
947
947
947
944
940
938
936
938
939
938
936
934
934
935
938
937
938
939
938
944
952
954
941
925
913
921
930
937
937
935
929
922
921
922
923
925
927
933
935
933
930
928
931
933
934
934
933
931
931
936
941
939
938
937
935
937
941
941
941
939
938
941
945
949
950
949
951
951
948
944
936
932
933
940
944
944
939
932
932
934
938
943
941
942
936
933
932
931
933
933
932
936
936
937
936
934
933
935
939
941
940
936
935
938
941
940
939
936
935
937
939
942
939
938
936
935
938
937
939
937
936
937
936
938
938
935
935
939
941
943
940
938
936
939
941
942
939
936
937
938
942
945
947
948
947
950
952
951
949
948
947
951
954
956
961
967
969
971
969
965
964
961
956
957
961
962
959
957
954
954
955
956
954
950
945
941
940
941
941
939
937
935
935
934
935
936
935
935
936
934
934
931
933
936
936
935
930
927
923
919
915
916
927
954
993
1047
1107
1172
1231
1262
1246
1196
1141
1093
1055
1038
1030
1019
1002
990
980
974
962
956
949
941
936
929
928
930
929
928
929
927
925
925
923
925
924
922
921
924
923
921
921
924
922
927
926
926
926
922
923
920
923
926
925
924
921
922
923
925
924
925
925
927
926
925
921
921
923
923
925
924
922
923
920
922
922
923
922
920
921
923
925
924
925
927
924
926
927
929
930
930
929
932
936
938
937
936
935
941
945
950
950
950
948
951
954
957
959
957
958
962
965
966
965
967
966
966
968
970
971
969
966
968
967
966
964
960
955
953
955
956
955
955
953
952
954
950
949
947
941
945
945
944
945
944
941
944
945
945
942
939
939
941
944
948
943
942
940
941
942
944
944
943
939
943
943
946
945
946
943
947
950
953
948
949
948
952
953
955
952
951
948
952
956
956
955
955
952
955
957
959
957
955
954
955
958
961
957
953
952
952
954
957
957
957
956
957
959
957
955
952
951
957
959
959
954
952
956
960
958
956
958
957
953
953
954
958
955
956
953
954
952
955
961
959
954
953
951
954
954
955
951
954
956
953
953
952
951
952
959
961
957
956
954
956
959
961
958
960
963
965
967
967
965
962
960
962
966
972
976
979
982
982
982
980
979
975
977
978
974
969
968
969
970
969
966
965
965
963
957
955
954
951
951
948
945
945
947
947
945
945
945
948
948
947
947
950
946
947
947
947
944
938
936
933
932
937
956
988
1030
1083
1144
1202
1237
1235
1194
1141
1096
1067
1047
1030
1008
985
974
973
968
958
948
945
944
940
935
932
932
931
930
928
929
929
929
927
932
931
928
923
917
916
920
924
926
925
923
923
924
927
930
924
917
920
920
924
918
917
916
918
923
928
924
919
919
923
920
919
919
922
924
924
925
925
925
922
919
916
919
922
926
926
921
922
925
928
930
933
934
930
928
931
932
934
937
941
938
941
942
942
941
946
951
953
953
950
950
953
958
960
963
961
961
961
959
963
963
962
956
955
957
957
954
952
949
946
947
950
946
938
935
937
935
932
925
922
921
925
931
928
920
917
918
924
925
924
921
917
915
918
915
914
913
913
915
915
916
916
917
920
917
920
918
915
915
917
918
919
922
920
917
918
916
918
917
919
919
919
916
921
921
922
920
919
915
914
915
919
917
913
910
912
912
915
917
917
913
913
913
917
917
914
912
912
915
910
912
909
906
909
910
908
908
909
907
906
912
910
908
906
906
906
910
909
908
906
903
905
907
908
906
903
903
903
907
907
910
909
903
907
910
910
911
911
912
916
919
919
917
915
919
926
932
934
934
930
927
927
932
930
924
921
916
916
919
917
917
912
911
912
912
907
904
901
898
896
899
902
900
897
893
896
899
899
896
895
894
894
895
897
898
898
894
890
890
887
884
881
890
915
960
1017
1082
1150
1211
1245
1228
1167
1097
1041
1004
986
976
953
931
921
917
909
905
902
899
894
888
886
888
891
887
884
881
882
883
883
883
882
881
885
884
883
883
879
879
881
882
885
884
884
885
883
883
882
878
880
879
878
881
883
885
885
882
882
880
881
879
880
879
881
883
882
883
881
882
883
887
889
888
886
881
883
887
891
891
888
887
891
891
894
893
897
896
898
900
902
905
906
905
907
913
912
912
914
913
918
920
923
922
923
922
924
926
931
932
931
931
932
934
930
929
925
921
921
922
923
920
917
913
913
910
912
910
908
904
903
906
903
903
901
898
900
901
904
902
897
894
893
896
896
895
893
894
896
899
896
895
893
893
896
898
898
896
894
895
896
898
898
900
898
899
901
902
904
903
900
897
900
906
906
904
904
901
904
904
910
910
908
903
905
906
908
909
906
905
906
906
908
908
907
905
905
905
908
908
906
903
903
906
904
905
904
903
906
909
908
905
904
903
906
907
910
909
907
903
904
905
906
909
909
905
906
907
907
909
908
906
906
907
910
910
910
907
908
910
912
913
917
915
919
921
922
918
917
918
919
925
930
931
931
933
938
939
935
933
931
930
931
931
932
930
928
926
926
926
927
924
921
915
915
915
914
911
913
907
907
911
913
912
907
904
905
907
909
911
911
910
910
909
910
908
906
899
896
897
902
917
951
1000
1060
1127
1194
1243
1248
1203
1142
1089
1051
1029
1018
1004
983
970
963
955
944
934
926
922
916
911
908
905
906
906
908
907
902
899
901
904
906
906
904
902
904
905
907
905
903
902
901
902
905
903
903
902
904
905
905
904
904
902
904
906
908
906
903
904
906
908
908
907
904
902
903
906
910
908
906
906
907
909
912
909
907
908
911
911
911
913
912
916
917
920
925
923
923
924
924
928
931
932
933
933
935
938
941
948
948
950
950
952
956
956
957
958
959
961
963
963
963
961
962
965
966
963
957
954
955
956
953
949
946
943
942
942
943
942
938
935
932
933
935
934
931
931
928
930
932
931
931
932
930
928
929
927
927
925
925
927
928
930
927
924
925
930
934
932
930
928
928
930
932
930
931
931
934
934
936
936
934
933
936
938
938
937
936
937
939
941
942
943
939
940
943
941
944
945
943
939
941
943
944
943
944
942
942
944
946
944
942
941
941
944
947
945
944
943
946
944
947
942
941
940
943
943
946
946
945
943
942
943
945
944
941
941
943
943
946
943
942
939
940
942
945
945
945
943
941
944
943
942
941
937
943
944
944
944
943
942
943
945
947
946
942
941
946
949
952
954
956
958
956
956
956
957
957
956
959
965
969
978
978
970
968
969
968
967
965
963
965
966
967
963
962
955
955
954
953
949
944
942
941
942
946
944
942
939
940
941
944
944
943
938
937
938
941
942
941
937
936
934
932
926
920
929
954
994
1046
1114
1188
1249
1285
1274
1222
1154
1097
1061
1046
1043
1033
1012
998
986
977
967
960
951
943
938
935
934
934
933
933
931
933
935
934
933
930
928
926
927
931
932
931
928
928
928
931
930
927
926
927
927
931
930
930
926
928
931
932
930
926
926
925
927
931
930
929
927
927
923
928
927
926
927
926
930
932
930
928
928
929
932
934
934
934
933
935
938
939
942
941
939
941
944
946
950
948
948
949
953
961
963
963
962
962
963
967
968
968
969
971
976
979
976
976
977
975
979
981
982
982
978
979
980
981
980
976
974
972
972
970
969
967
964
962
962
961
959
958
955
953
954
956
954
950
950
951
954
952
954
951
950
949
951
952
950
947
946
949
948
949
950
949
947
947
950
951
947
948
946
947
950
951
952
950
948
952
957
957
955
956
951
951
952
954
953
953
952
953
956
960
960
960
958
959
959
960
961
959
957
957
961
964
961
961
958
957
958
963
965
964
962
965
962
962
962
963
960
961
962
961
963
961
960
962
963
965
966
963
961
964
966
969
968
964
961
961
963
967
965
964
964
964
968
970
969
970
969
969
969
967
968
966
966
967
970
971
968
967
969
972
976
979
980
979
981
981
983
980
980
982
979
982
987
990
993
995
997
1003
1006
1000
997
992
989
990
990
991
990
988
988
983
981
984
984
980
976
974
974
977
976
972
965
961
965
970
966
965
963
964
967
970
968
961
959
960
964
969
969
965
958
959
960
960
959
957
960
983
1020
1061
1118
1183
1244
1278
1264
1214
1159
1114
1078
1064
1055
1039
1018
1003
994
989
983
980
973
963
955
954
953
954
953
955
952
953
954
957
957
952
947
946
947
949
949
948
944
946
946
949
950
948
948
947
949
952
947
946
941
943
946
949
949
947
945
944
947
948
945
942
942
945
948
950
949
942
942
943
948
950
950
947
946
947
951
954
952
950
947
949
951
953
954
955
956
957
958
960
961
959
958
963
970
974
975
973
973
975
976
977
978
979
978
979
984
986
987
986
986
987
990
989
985
981
981
984
985
984
983
976
972
975
979
975
973
971
965
966
963
963
965
966
962
961
962
961
960
958
957
960
960
957
957
954
951
952
953
956
956
954
951
950
952
952
952
948
948
947
948
950
950
949
948
950
951
950
955
951
948
948
950
951
952
950
949
948
945
952
953
952
949
953
953
954
952
949
946
950
955
956
956
954
949
952
956
956
954
952
951
952
956
958
957
955
949
952
952
951
953
954
952
952
951
951
952
950
950
952
952
953
950
948
948
944
949
951
954
951
950
948
949
952
951
951
948
946
948
950
951
950
950
948
950
950
949
949
946
946
947
949
950
949
946
946
948
948
947
948
947
949
951
955
955
957
957
959
961
962
961
960
960
960
962
963
967
967
969
974
982
982
980
974
972
974
971
972
971
967
968
968
969
966
965
961
955
955
954
953
946
946
944
944
946
946
947
946
944
945
944
945
943
944
941
943
944
943
942
941
938
938
939
939
932
928
924
928
944
977
1026
1080
1145
1218
1274
1294
1264
1206
1142
1090
1057
1047
1037
1022
1002
992
985
978
968
956
947
940
938
937
935
933
930
932
935
933
933
930
928
928
927
932
931
930
926
926
928
931
927
926
927
926
927
929
932
927
925
926
929
930
931
928
929
930
931
932
932
932
930
929
932
932
933
931
929
931
931
931
932
931
930
932
930
930
930
931
932
934
934
935
937
935
936
938
939
938
943
943
943
945
949
953
952
952
948
953
958
961
960
961
961
963
967
971
972
972
971
971
972
978
977
978
979
977
981
981
982
980
979
976
976
975
974
971
965
966
967
967
965
961
959
960
958
957
956
957
950
950
951
952
949
947
945
947
950
949
950
944
941
943
944
950
947
946
943
944
944
944
943
943
942
946
948
947
943
941
941
942
946
948
947
946
945
945
948
950
952
948
945
945
947
952
954
953
951
951
950
952
953
952
951
947
952
955
956
953
950
951
951
954
956
951
948
951
953
956
955
954
953
953
952
952
953
954
949
950
953
954
955
953
951
953
954
956
957
954
950
949
950
951
955
951
951
952
951
951
950
946
945
946
950
953
952
950
947
950
953
955
952
950
948
947
951
953
952
949
949
948
950
951
953
951
948
951
954
954
957
960
961
963
966
965
965
962
960
963
964
966
967
969
973
978
985
986
982
974
971
971
971
971
969
969
965
969
969
970
968
965
958
956
955
954
952
949
945
944
943
945
943
940
938
939
940
945
943
944
940
940
941
943
943
941
940
937
935
930
927
924
929
949
985
1031
1091
1161
1227
1271
1279
1240
1179
1118
1073
1048
1043
1036
1024
1006
990
981
974
963
953
945
940
937
934
934
934
934
930
931
932
937
934
930
927
926
927
930
929
930
927
928
929
929
930
930
928
928
930
932
932
929
926
928
930
932
930
931
929
928
929
931
930
932
928
929
930
934
932
930
929
926
928
931
931
931
927
930
934
935
933
931
929
933
938
940
937
937
934
939
942
943
942
944
944
947
949
953
956
957
955
956
958
961
964
966
967
968
972
974
974
971
971
973
977
978
978
976
972
973
976
974
969
967
962
963
963
966
963
964
959
955
957
955
953
951
950
952
954
951
951
949
947
948
951
952
950
949
946
946
949
952
950
948
948
947
948
949
947
946
947
945
947
947
948
948
947
945
948
951
951
949
946
948
949
952
952
951
948
949
953
955
956
955
952
952
951
953
954
952
950
953
955
956
958
957
951
953
952
953
951
950
947
949
952
953
954
954
952
951
952
953
955
953
950
949
951
954
955
953
951
950
950
953
952
950
951
951
953
953
953
950
952
950
952
956
956
955
951
950
952
956
955
955
955
953
954
955
956
953
951
952
956
957
957
953
953
954
959
959
962
964
964
964
965
966
965
960
962
963
968
975
979
984
985
985
985
982
981
977
973
972
970
975
976
975
973
972
971
972
967
962
957
956
955
956
955
951
950
949
950
952
949
950
949
947
949
950
949
947
944
944
948
948
944
939
930
925
930
941
966
1002
1051
1116
1192
1246
1258
1222
1160
1105
1069
1055
1047
1039
1019
1002
995
988
980
968
955
951
948
946
946
943
942
940
939
941
942
939
939
936
937
940
937
939
937
938
939
939
940
939
938
937
938
938
940
941
938
939
938
940
941
939
937
937
938
938
940
940
940
940
941
941
942
940
938
938
941
943
942
939
939
940
944
944
945
942
942
944
948
953
953
951
952
951
955
961
962
965
965
965
968
971
974
973
974
976
978
981
983
984
981
981
979
987
988
986
985
985
987
986
983
981
979
976
977
978
976
974
968
966
968
969
966
963
960
960
960
962
961
960
956
958
961
961
962
959
960
957
956
957
956
958
959
955
960
959
961
960
957
957
956
959
960
960
962
961
963
961
962
962
961
960
963
965
964
965
961
963
967
967
967
967
964
964
963
968
970
968
966
965
966
968
967
966
963
965
968
967
965
966
966
967
968
968
964
959
959
960
966
967
968
965
964
967
969
969
967
965
960
962
966
968
965
964
962
965
968
969
970
968
965
966
967
969
969
971
968
968
967
969
970
969
966
968
967
968
967
967
967
966
969
971
973
972
972
973
976
980
978
978
976
980
981
982
983
985
985
992
1000
1004
1000
994
989
988
990
989
987
986
987
990
988
986
981
979
974
972
971
970
968
965
963
962
966
968
968
965
962
966
964
962
964
967
962
962
963
965
964
961
958
951
949
948
947
958
982
1023
1074
1139
1207
1255
1255
1208
1151
1106
1079
1066
1054
1036
1019
1013
1006
994
981
972
970
967
962
959
959
957
958
960
956
951
948
950
953
955
952
950
949
949
949
953
951
950
950
952
954
956
955
951
949
949
954
956
956
954
951
952
953
958
955
954
952
954
954
955
955
954
953
953
957
958
956
957
958
957
958
963
962
959
959
961
964
968
965
963
966
970
974
977
977
978
977
977
982
987
986
989
987
987
991
994
992
989
992
996
1000
1001
1001
1000
998
999
1001
1002
1003
1002
998
995
993
994
992
992
990
989
990
993
989
984
980
979
978
982
979
977
977
977
975
981
978
979
977
972
975
978
976
973
973
975
977
977
976
975
974
973
974
977
978
978
977
973
975
981
982
981
979
978
979
979
983
984
984
983
983
986
987
987
986
986
987
991
987
985
983
984
988
991
988
985
982
979
983
988
987
989
988
986
985
984
984
987
987
986
987
985
985
983
984
983
985
987
983
980
981
982
986
988
988
984
974
976
982
988
987
982
981
981
982
986
984
982
979
976
981
985
984
980
976
978
982
987
987
986
983
985
987
990
989
989
987
989
995
995
989
985
988
989
997
1005
1012
1013
1009
1007
1005
996
991
991
992
992
994
994
993
991
989
986
984
983
980
978
973
972
975
975
974
970
968
970
972
972
967
966
969
967
968
972
970
970
966
963
964
970
967
964
956
951
952
957
971
1002
1047
1101
1171
1239
1275
1265
1216
1155
1104
1069
1049
1033
1013
993
989
983
972
967
965
963
963
958
952
950
954
954
952
948
946
948
950
949
947
950
955
949
942
942
949
952
954
949
947
943
940
943
946
948
943
940
942
950
947
946
944
945
944
944
944
947
948
946
945
948
946
947
947
943
937
943
949
948
944
942
944
951
955
955
951
950
951
956
957
958
953
956
964
970
964
959
962
965
969
972
971
973
978
984
983
985
986
987
986
985
989
992
989
986
985
987
994
993
993
988
983
980
