927
926
928
931
934
931
927
926
933
933
936
936
934
933
938
936
936
940
937
937
938
943
945
945
945
943
947
949
953
952
953
952
955
959
962
963
964
964
966
970
972
974
973
972
973
977
981
981
979
980
980
983
983
984
982
980
982
980
979
976
975
971
969
969
967
964
963
957
957
957
957
954
951
950
948
951
950
949
944
943
943
943
945
946
946
943
945
944
948
947
945
942
942
946
951
948
945
944
945
948
950
947
946
942
943
947
949
949
947
941
945
946
948
950
951
946
949
949
950
949
948
948
949
951
951
950
948
949
947
950
951
950
948
944
945
947
949
948
945
944
946
949
950
947
949
947
948
950
951
949
945
944
944
944
947
948
950
947
946
948
948
947
945
942
945
945
947
943
943
942
944
947
948
949
947
944
945
945
946
946
945
943
943
946
949
949
945
943
944
945
946
945
943
941
942
944
947
948
948
947
947
950
954
957
959
962
966
970
978
980
984
982
982
979
981
980
976
973
973
973
974
971
967
967
966
964
963
960
955
951
947
948
946
946
944
944
943
947
948
947
944
940
944
943
944
944
941
940
939
939
939
937
931
927
923
926
947
981
1023
1071
1134
1192
1214
1192
1137
1084
1039
1007
996
995
986
975
970
966
963
959
951
939
932
931
934
929
926
920
920
920
922
922
920
919
917
919
920
919
918
917
919
921
922
919
919
918
922
924
928
926
921
921
924
926
928
929
926
923
923
926
928
927
925
923
924
924
928
929
927
928
926
931
933
931
928
929
929
935
936
937
934
934
938
941
942
940
938
939
943
944
947
949
951
949
949
950
956
959
960
958
962
963
966
967
967
968
970
973
978
980
981
979
979
982
983
985
984
984
983
980
984
985
981
975
975
974
978
974
972
970
967
967
969
964
960
953
954
956
955
954
953
947
948
949
949
949
946
944
947
947
948
949
943
942
943
946
947
947
946
944
943
945
950
950
949
946
945
946
948
948
949
945
948
949
949
949
947
946
949
950
953
952
952
950
950
954
957
954
953
952
953
953
955
956
953
951
950
953
953
953
949
947
949
951
951
952
949
950
950
950
951
954
951
949
949
950
952
950
949
951
952
953
952
953
951
951
950
953
952
952
952
950
952
952
952
950
949
949
948
953
951
952
952
952
950
949
950
953
951
949
947
949
949
951
949
948
950
951
952
953
952
950
951
952
955
955
955
953
955
958
958
959
962
965
975
984
987
989
986
981
982
985
983
978
975
975
974
975
976
974
970
965
960
958
957
957
955
951
951
954
953
952
950
948
947
948
947
949
947
946
945
946
948
948
945
941
946
946
943
939
932
929
935
954
985
1022
1066
1123
1185
1222
1204
1147
1090
1043
1016
1006
1006
999
991
986
978
972
965
951
943
939
937
934
933
932
931
928
925
925
927
927
925
924
923
925
926
928
927
925
922
925
925
926
924
923
923
926
924
923
925
924
924
926
928
929
927
925
926
926
926
926
923
924
924
925
927
929
929
925
926
930
931
933
929
930
931
934
937
938
936
933
936
939
941
940
938
942
945
947
952
950
951
949
954
955
960
962
964
963
963
968
970
972
971
972
972
975
979
981
981
981
980
982
984
985
981
981
981
979
980
977
975
974
972
969
968
968
964
962
960
961
958
956
954
951
954
947
952
950
948
949
946
948
946
946
946
944
945
944
947
945
946
944
945
947
950
948
945
944
945
949
949
949
947
945
947
948
950
947
945
945
946
947
953
952
952
948
946
948
951
951
949
947
946
949
952
952
949
949
950
950
950
946
947
947
948
951
953
952
949
949
949
950
952
950
950
948
948
950
955
950
951
949
951
951
952
950
950
950
950
950
953
954
951
948
950
953
955
952
951
948
947
949
952
952
952
950
949
950
953
953
953
949
948
952
954
952
950
949
947
951
954
954
954
951
948
951
953
956
955
955
954
957
959
961
959
957
960
966
976
983
987
985
982
979
985
981
976
974
972
975
976
971
966
964
962
964
963
954
950
947
947
947
947
944
942
943
943
943
945
942
939
939
935
938
940
934
935
936
936
938
939
937
934
930
924
923
927
939
967
1008
1056
1120
1180
1204
1179
1116
1062
1015
989
976
969
959
960
961
958
948
942
932
926
923
924
924
924
922
921
920
920
918
915
915
916
917
919
921
920
917
915
917
920
918
917
916
917
920
921
916
918
915
915
918
923
920
914
913
918
922
923
920
919
920
922
922
921
922
920
920
921
923
926
927
925
924
923
926
928
927
925
928
928
930
933
936
934
933
933
937
943
942
942
943
945
947
951
950
951
952
953
957
961
961
960
960
960
967
971
971
969
970
972
974
977
973
973
972
971
970
973
968
971
969
964
962
962
962
961
957
954
952
954
951
950
948
946
945
944
942
940
940
940
940
942
943
943
941
939
944
947
944
941
941
942
944
944
941
942
941
942
941
944
941
940
940
941
943
946
947
944
943
941
943
942
941
939
942
944
948
951
947
946
942
942
945
946
944
943
945
945
946
946
943
942
944
944
945
943
939
938
942
942
942
943
941
941
940
938
938
943
944
944
941
942
945
945
945
942
943
941
942
942
942
938
942
942
944
944
944
942
942
941
942
944
944
942
940
937
941
943
946
946
941
939
942
947
946
945
946
945
949
950
949
951
953
952
955
961
965
965
973
976
979
978
975
973
971
969
968
967
964
961
958
958
961
962
956
957
953
948
947
948
947
942
939
936
938
942
943
943
940
936
938
942
940
938
938
939
942
943
939
937
939
938
937
931
927
925
934
962
1008
1065
1126
1195
1244
1245
1199
1139
1074
1018
989
975
965
953
946
946
944
940
938
933
929
923
920
923
924
923
922
921
918
918
920
924
922
922
917
919
919
922
921
918
918
918
921
922
923
924
922
921
924
926
928
924
924
923
926
928
928
925
925
927
927
930
929
931
930
930
931
934
934
934
931
930
933
938
939
938
939
939
940
944
946
944
945
945
948
953
956
957
957
957
962
964
967
969
970
969
972
977
979
979
980
980
983
988
991
988
986
984
986
990
990
990
988
983
984
984
981
979
979
976
975
975
971
966
964
962
963
965
963
961
957
954
956
959
955
955
951
951
954
956
955
953
951
948
952
954
953
952
954
952
953
955
956
955
955
953
959
958
958
957
957
958
957
960
959
959
957
959
963
962
961
962
962
957
961
965
964
962
959
956
959
964
963
960
960
960
959
961
960
962
962
961
963
964
963
962
960
960
963
966
964
961
961
960
963
963
963
963
960
961
964
967
964
961
962
960
961
962
962
962
962
959
964
966
965
962
963
961
961
965
964
964
962
963
963
965
964
965
963
961
965
968
967
965
964
966
968
972
970
969
969
970
972
975
974
975
979
983
991
999
1002
1002
999
998
997
998
996
991
988
988
988
988
992
990
985
982
983
980
974
972
972
968
969
971
970
967
963
962
963
966
966
965
962
962
962
964
965
962
961
963
963
959
951
946
945
951
977
1018
1068
1129
1194
1253
1277
1244
1185
1123
1071
1041
1035
1033
1023
1014
1004
995
986
976
966
957
951
951
952
953
952
950
947
943
945
947
947
944
941
943
943
945
943
944
943
941
944
945
947
945
941
946
946
946
946
945
944
945
946
950
948
946
942
942
944
947
945
942
945
948
950
950
950
949
945
946
950
952
953
952
949
950
952
957
959
958
957
959
963
966
967
967
970
973
974
978
982
981
982
985
988
993
993
991
989
991
995
1002
1000
1000
1000
999
1004
1007
1007
1004
1000
1000
1005
1007
1004
999
994
993
994
989
988
984
979
976
979
979
972
969
968
967
969
970
967
965
960
961
963
964
963
961
961
958
961
961
961
960
961
959
966
964
963
962
960
960
961
961
961
960
957
959
963
966
964
960
961
961
962
965
966
962
963
963
964
965
964
964
962
962
964
963
962
960
960
961
961
964
965
965
960
961
962
964
965
961
959
956
962
965
964
962
960
960
963
965
964
964
963
961
961
961
964
963
959
958
961
962
963
961
960
960
963
965
964
963
961
960
963
961
964
961
958
960
963
962
963
960
961
962
965
966
967
967
965
965
971
972
974
973
974
973
977
978
981
983
986
991
1001
1004
1003
996
993
992
994
992
990
987
983
982
984
985
982
979
976
973
971
972
966
960
960
958
961
960
958
956
958
957
958
954
956
954
953
953
952
954
957
954
950
948
946
945
947
952
969
1004
1047
1093
1150
1210
1239
1223
1170
1115
1061
1026
1014
1012
1006
999
990
983
975
962
957
950
946
945
952
956
955
947
935
925
922
925
930
930
929
929
929
927
931
932
937
933
929
927
929
932
931
930
930
929
933
931
932
933
932
930
929
931
936
934
932
927
927
931
930
931
929
931
935
934
934
936
933
933
934
936
938
935
934
936
942
941
942
939
939
941
948
947
949
949
951
952
955
960
960
961
961
960
962
966
967
971
974
971
975
976
979
978
977
979
983
984
982
982
983
979
977
973
975
973
971
968
970
972
970
965
958
954
955
956
956
955
953
953
954
955
958
955
951
949
949
949
952
951
946
946
949
953
951
951
952
951
953
955
954
953
953
950
954
956
958
958
956
957
957
958
958
959
957
955
958
961
965
962
961
959
963
964
965
964
958
959
964
964
965
964
961
961
962
963
963
962
962
960
965
966
965
964
960
960
962
960
964
964
962
962
963
963
966
965
961
956
958
959
963
965
961
960
962
963
963
962
961
960
958
960
960
960
962
961
962
964
964
963
963
961
964
968
968
969
968
970
971
977
975
978
984
989
997
1000
1000
998
996
995
998
998
994
992
988
989
988
989
990
989
983
979
975
978
975
972
968
966
969
968
969
966
964
962
965
967
965
963
964
963
963
965
965
962
963
963
963
958
952
947
950
969
1007
1057
1112
1181
1238
1264
1240
1184
1124
1071
1039
1027
1024
1015
1006
999
991
985
980
972
967
963
958
955
957
958
956
954
955
950
950
952
954
957
954
953
954
955
954
951
949
949
953
954
954
955
954
953
955
955
958
954
956
955
956
958
957
957
955
955
959
959
958
956
956
956
956
961
961
960
959
956
963
967
967
965
966
965
967
970
967
970
969
968
974
976
977
977
978
978
980
984
986
986
987
987
992
996
998
1001
1001
1001
1004
1007
1009
1009
1007
1007
1012
1014
1016
1018
1016
1014
1018
1019
1017
1017
1014
1013
1014
1011
1008
1006
1001
997
994
996
995
993
991
988
988
987
983
983
980
978
980
983
980
978
978
975
977
977
978
978
976
977
979
981
982
978
976
976
977
979
981
982
977
975
978
979
979
981
980
980
981
982
982
982
978
978
981
982
986
983
984
981
984
985
986
986
983
981
981
984
984
984
979
979
980
984
984
985
981
980
981
982
983
982
977
978
982
984
983
982
980
978
978
980
982
981
982
978
977
980
981
981
978
978
980
981
979
975
974
975
983
984
979
976
975
975
976
981
981
979
979
976
976
978
979
978
978
977
977
979
983
985
988
989
988
989
988
987
989
992
1000
1006
1010
1015
1013
1011
1009
1007
1011
1012
1006
1000
1001
1002
1004
1004
1002
998
992
994
988
985
980
976
975
977
979
980
975
973
976
980
982
983
981
979
980
980
976
975
974
974
976
973
968
960
957
955
965
994
1035
1084
1138
1197
1251
1271
1240
1183
1127
1075
1037
1024
1024
1019
1012
1005
1000
994
986
975
966
965
966
971
970
964
957
956
959
961
962
960
955
952
954
956
954
957
956
957
960
960
962
961
961
958
959
959
959
961
959
960
963
964
963
961
961
962
963
964
965
967
966
967
967
969
967
967
967
966
971
972
973
973
974
976
979
978
979
979
980
979
982
983
979
979
985
985
990
991
992
998
997
996
1001
1004
1009
1009
1011
1010
1012
1015
1019
1019
1018
1017
1022
1022
1025
1023
1027
1029
1033
1035
1035
1031
1027
1023
1025
1026
1028
1029
1027
1026
1022
1016
1012
1008
1004
1002
1001
1006
1007
1007
1002
997
997
996
996
995
992
988
985
989
992
991
989
985
984
984
984
982
984
982
988
989
988
987
987
985
986
987
986
987
985
984
989
990
992
988
988
983
986
985
987
989
992
988
986
987
989
994
997
992
988
988
993
993
992
989
989
989
988
988
988
988
992
993
994
994
991
987
984
985
989
994
995
991
991
992
994
995
992
991
991
995
994
991
988
984
989
994
995
992
988
984
985
991
994
995
992
991
987
989
986
989
989
988
993
995
995
994
992
986
988
992
992
990
989
987
991
993
989
989
991
992
991
990
994
999
999
996
998
999
1002
1002
1000
997
998
1006
1009
1013
1018
1021
1027
1027
1025
1022
1022
1017
1016
1013
1014
1013
1012
1012
1016
1021
1017
1010
1002
996
992
989
987
982
981
983
984
991
995
992
992
986
986
984
983
977
970
965
964
968
975
976
977
975
976
978
975
968
961
958
968
990
1024
1065
1111
1165
1226
1266
1268
1228
1174
1127
1081
1045
1023
1018
1012
1002
997
995
994
990
981
973
970
973
975
973
966
964
961
960
960
958
957
956
959
962
962
961
958
955
960
962
958
956
955
956
956
958
959
960
958
958
959
957
958
959
960
961
961
963
964
965
963
958
959
958
960
958
963
963
961
956
955
956
959
962
968
970
973
969
968
966
966
968
976
979
978
972
968
972
977
981
981
981
986
989
989
986
984
985
989
992
995
997
995
995
998
1002
1008
1007
1006
1007
1009
1013
1013
1015
1014
1009
1013
1017
1017
1017
1014
1014
1016
1019
1018
1020
1015
1009
1005
1006
1008
1008
1004
999
996
991
987
988
988
984
983
982
982
984
979
975
975
976
979
980
976
974
977
979
980
978
976
976
979
979
978
973
973
974
977
975
975
973
972
973
975
977
976
977
977
974
971
972
975
977
982
982
982
984
982
978
980
978
981
982
982
981
980
974
977
980
986
983
981
979
978
977
977
981
979
976
974
975
975
978
982
978
975
971
971
973
979
977
979
978
979
982
982
979
977
979
982
985
986
979
977
977
979
978
976
974
975
978
981
978
974
975
977
981
981
981
978
975
978
976
975
975
975
973
976
976
976
976
979
979
979
980
982
985
985
984
986
990
991
994
994
987
983
984
990
1000
1004
1013
1018
1015
1009
1010
1012
1011
1007
1005
1005
1004
1000
996
997
997
998
998
995
988
985
983
981
978
978
976
979
981
981
986
988
989
982
973
966
962
963
966
967
967
969
969
966
965
964
965
966
964
967
974
993
1027
1064
1113
1172
1219
1231
1198
1143
1092
1048
1016
1002
999
992
986
986
983
984
981
977
967
963
959
957
957
962
959
960
959
955
955
954
951
951
952
960
962
957
950
949
952
956
959
962
964
959
957
954
953
954
957
958
963
963
960
962
963
960
955
958
964
967
968
968
962
961
955
956
960
961
963
961
961
963
963
963
961
963
964
969
970
972
971
971
972
972
974
977
975
972
978
985
989
990
988
990
992
995
995
999
1000
1002
1004
1004
1007
1006
1005
1007
1010
1016
1016
1015
1014
1012
1012
1017
1020
1020
1016
1015
1013
1013
1013
1014
1012
1010
1006
1002
998
994
991
991
993
996
994
989
986
988
991
991
986
984
977
975
977
976
977
975
972
971
975
978
981
982
976
979
976
975
973
970
970
969
974
980
985
982
976
972
977
981
981
976
974
973
976
979
980
982
983
987
986
986
988
993
992
986
979
975
972
976
981
982
981
972
962
961
963
969
972
973
973
972
969
969
970
974
970
970
968
970
972
969
971
969
970
973
974
972
968
969
969
971
972
973
971
968
970
975
975
977
972
967
968
970
975
975
973
973
973
970
968
971
973
976
979
985
984
985
984
984
985
982
979
974
975
977
976
982
987
997
1005
1009
1009
1007
1002
995
991
993
997
997
999
998
998
997
993
994
987
981
977
976
973
972
973
976
977
974
971
967
967
969
968
963
958
960
960
964
964
964
961
958
959
958
955
951
946
943
945
957
986
1029
1074
1136
1202
1253
1249
1191
1123
1064
1028
1013
1006
989
977
971
969
966
966
960
953
950
951
952
948
945
945
946
946
945
942
942
944
948
947
946
942
940
940
943
944
949
952
954
954
949
943
940
939
940
939
945
950
951
953
952
945
941
939
937
940
939
941
944
946
947
944
941
944
942
946
943
940
939
945
949
953
957
957
952
950
953
956
955
952
950
955
960
967
972
977
977
976
974
978
984
984
980
976
980
989
993
991
986
988
991
993
992
989
989
990
995
994
992
988
987
978
973
972
973
973
970
963
961
959
960
955
950
949
949
950
952
952
953
952
950
945
943
944
942
943
946
945
949
950
946
942
945
947
948
946
943
941
944
946
951
950
946
943
942
949
952
953
951
947
950
956
955
955
952
951
949
952
950
954
953
953
953
952
950
947
946
942
943
944
947
951
948
949
955
962
961
958
951
948
944
944
948
950
952
950
950
953
954
952
950
946
941
939
944
947
948
949
946
945
947
