966
966
965
965
966
963
964
963
963
963
963
964
962
961
960
960
961
959
962
961
959
959
960
962
961
960
957
958
961
962
965
963
964
965
967
971
974
974
975
975
976
978
980
981
981
983
982
985
984
982
981
981
982
983
981
975
971
970
977
979
979
974
971
970
970
968
966
962
959
958
958
959
957
952
948
949
952
955
956
951
951
952
952
955
954
952
952
952
951
952
952
951
950
949
949
951
948
934
922
923
930
944
957
983
1026
1090
1158
1219
1277
1328
1359
1370
1353
1289
1196
1098
1016
959
933
923
929
944
965
974
971
962
962
959
957
957
958
956
953
951
949
949
949
950
947
944
944
947
948
948
948
944
941
945
948
947
948
947
943
942
944
946
947
947
948
949
952
953
952
951
951
950
953
956
956
954
955
957
961
965
965
967
965
967
971
974
980
983
982
984
989
996
995
996
999
1002
1004
1009
1016
1017
1020
1022
1027
1028
1032
1034
1030
1036
1041
1045
1043
1046
1047
1051
1049
1051
1052
1048
1045
1047
1046
1044
1041
1038
1033
1029
1027
1025
1021
1014
1011
1007
1006
1002
998
996
990
989
987
987
986
985
980
978
980
979
981
978
976
977
978
980
978
977
977
975
978
980
979
979
977
978
979
980
981
980
978
980
983
982
983
984
980
982
981
985
985
983
982
982
985
986
987
985
984
985
986
988
986
985
983
984
986
989
987
983
982
982
987
987
988
985
983
984
984
985
987
984
981
979
981
982
982
975
975
977
981
981
979
979
976
975
975
977
975
974
972
972
974
974
974
971
970
970
972
975
973
972
969
971
972
970
975
970
968
969
970
971
972
972
969
974
979
984
987
987
983
984
988
990
990
990
990
992
994
993
995
994
991
992
990
991
988
983
982
979
983
986
988
986
981
982
978
978
977
971
965
967
968
966
964
961
963
960
958
957
957
955
956
953
956
957
958
957
955
955
957
957
956
956
956
954
958
958
953
945
932
925
926
936
947
964
994
1048
1111
1176
1240
1301
1350
1381
1392
1375
1318
1227
1120
1028
964
933
921
922
938
961
977
979
973
965
961
962
963
964
963
958
952
949
951
949
950
948
947
948
950
950
951
948
946
947
950
950
949
945
945
945
948
952
950
948
947
949
951
953
954
951
950
952
956
958
957
956
956
957
961
963
963
961
961
966
969
974
974
976
978
979
985
988
990
992
996
1001
1006
1012
1013
1015
1018
1024
1027
1031
1035
1034
1037
1041
1045
1050
1051
1051
1053
1055
1059
1062
1062
1060
1058
1059
1058
1056
1054
1049
1046
1044
1039
1038
1030
1024
1019
1015
1012
1007
1003
999
993
990
990
987
984
982
981
980
980
980
980
977
975
976
976
976
976
974
972
975
976
977
977
975
975
976
978
979
980
980
978
978
981
983
982
981
981
979
981
982
982
982
980
982
985
984
984
984
982
983
985
985
985
984
984
980
983
984
984
983
978
980
983
982
982
979
978
977
976
979
979
976
975
973
973
975
976
974
969
973
973
975
972
971
967
969
971
972
973
970
968
968
971
971
972
968
965
968
970
972
970
967
967
968
972
975
975
977
978
979
982
985
983
983
984
988
989
992
989
990
989
991
992
991
989
985
983
981
980
982
983
983
983
983
980
980
975
972
967
967
964
964
963
961
958
957
958
958
957
955
955
955
956
958
956
956
955
957
956
958
961
954
954
954
954
949
936
922
917
926
941
961
999
1058
1132
1212
1283
1346
1391
1408
1384
1315
1204
1089
994
942
928
930
940
960
975
979
975
968
965
966
963
965
959
955
956
951
950
950
948
949
950
951
950
947
945
944
948
948
947
948
945
946
949
947
949
949
947
950
951
953
953
951
950
953
955
956
958
957
955
958
960
962
964
963
964
968
971
975
976
979
980
984
987
995
999
1000
1001
1007
1014
1018
1023
1026
1024
1030
1038
1040
1043
1044
1046
1049
1051
1057
1058
1058
1059
1061
1064
1066
1065
1064
1061
1062
1061
1059
1057
1050
1043
1040
1038
1033
1028
1022
1013
1010
1007
1005
999
994
991
989
987
987
985
981
979
980
978
979
980
977
973
976
977
978
977
977
976
976
975
982
979
979
978
978
980
983
984
981
981
979
981
984
983
984
981
984
987
988
988
985
984
985
984
986
984
982
980
981
983
984
982
982
979
978
980
982
979
978
978
977
976
975
976
975
972
973
974
974
971
968
968
968
969
969
967
967
966
967
966
967
968
968
965
965
965
967
963
963
964
966
967
971
970
973
974
978
981
982
983
982
981
983
987
991
992
988
988
989
992
993
989
986
980
980
978
976
979
979
978
979
979
976
975
972
967
966
965
965
961
961
958
954
955
954
955
951
950
951
949
953
953
954
951
952
954
954
953
952
951
952
953
951
942
928
914
911
917
933
952
981
1040
1121
1208
1288
1355
1401
1412
1396
1331
1220
1097
1001
943
926
929
940
958
972
974
969
962
959
960
955
954
953
952
950
945
945
941
941
942
944
944
943
941
941
942
944
943
942
939
939
942
944
943
942
941
946
947
948
947
947
945
948
948
949
949
950
952
955
958
960
961
963
963
966
968
973
976
977
979
984
988
995
999
998
1002
1009
1012
1017
1019
1023
1025
1028
1035
1039
1041
1042
1043
1045
1047
1052
1055
1055
1054
1053
1055
1057
1056
1053
1049
1046
1044
1041
1035
1033
1023
1020
1016
1014
1008
1002
994
992
988
990
985
983
977
977
979
980
979
975
973
973
973
977
973
975
971
975
975
976
976
973
974
973
975
977
976
978
975
976
977
979
979
978
976
977
980
983
983
979
978
979
982
983
983
982
981
982
982
983
982
981
976
979
977
979
978
977
976
975
976
977
977
975
974
973
974
975
976
974
970
972
971
972
969
971
968
968
970
971
970
968
966
965
967
968
965
964
961
961
964
966
964
965
962
965
965
967
967
964
961
963
965
968
966
966
965
967
973
979
980
981
977
978
979
980
982
983
983
986
986
983
986
986
986
984
985
986
982
977
972
970
974
978
979
980
976
974
971
969
966
965
962
963
962
963
959
957
953
952
953
954
954
953
951
952
955
957
954
954
950
955
956
956
957
954
952
953
954
950
941
925
918
923
935
951
977
1022
1090
1168
1246
1315
1359
1383
1374
1322
1230
1127
1034
967
931
926
934
955
972
977
969
963
960
961
961
958
953
952
951
950
949
947
945
944
947
946
947
943
942
944
947
949
949
944
944
944
948
948
946
946
944
947
948
949
950
947
945
952
953
955
956
951
950
954
957
959
960
963
964
967
969
973
975
977
977
980
989
992
992
997
998
1003
1008
1015
1018
1017
1020
1024
1027
1031
1034
1035
1035
1039
1042
1047
1047
1050
1047
1047
1047
1050
1049
1049
1042
1040
1041
1039
1036
1031
1024
1021
1019
1016
1011
1005
999
992
994
993
992
990
985
981
982
983
980
980
976
974
975
977
976
972
973
975
978
979
977
973
975
974
974
977
978
978
977
976
979
980
980
979
976
980
980
982
981
981
977
979
981
982
984
984
980
982
984
985
985
983
980
981
981
984
986
981
978
978
982
983
983
981
978
976
980
981
979
977
975
974
977
974
976
975
970
969
974
972
973
969
966
970
970
969
971
969
965
965
966
967
969
966
965
964
964
964
966
965
964
965
966
966
964
964
962
963
967
967
969
973
973
976
980
982
982
981
977
983
985
987
988
987
983
987
986
990
990
988
984
982
981
980
979
976
974
978
982
985
980
976
970
969
968
967
965
961
959
961
959
960
956
954
952
951
952
956
955
952
950
952
953
955
954
952
953
952
953
953
955
953
947
944
938
927
922
922
931
950
979
1029
1101
1177
1247
1312
1365
1390
1391
1350
1257
1139
1033
963
930
922
929
948
969
980
974
965
959
958
960
957
957
952
949
946
945
949
946
945
943
941
942
946
944
943
940
942
946
946
945
944
943
943
944
946
945
943
944
945
947
948
947
947
945
948
949
952
952
953
954
956
959
961
960
962
961
965
970
972
974
972
975
978
984
987
990
989
993
999
1005
1008
1011
1013
1015
1019
1025
1029
1030
1031
1033
1036
1040
1043
1043
1046
1044
1048
1052
1054
1056
1055
1054
1051
1052
1053
1050
1047
1045
1040
1041
1039
1034
1026
1019
1018
1013
1015
1010
1005
996
995
993
990
990
983
978
980
980
981
978
976
972
971
974
976
974
972
970
972
973
974
974
973
972
971
973
975
976
974
972
973
975
976
975
974
974
975
976
979
978
977
976
976
977
979
980
979
976
978
979
981
980
979
977
978
980
981
978
978
976
977
979
978
980
976
975
976
978
978
976
975
974
974
975
974
975
973
973
972
972
973
971
968
967
967
968
967
966
965
963
964
965
966
965
965
961
963
965
963
962
961
959
961
963
964
963
964
960
964
968
971
973
974
972
976
978
981
979
978
978
981
984
984
983
982
983
984
986
986
985
982
977
975
975
975
975
973
973
976
976
970
970
967
961
959
958
961
958
955
951
952
951
953
951
948
948
949
950
953
952
949
948
946
948
949
948
947
946
947
948
947
945
933
918
911
909
918
931
947
979
1041
1124
1208
1283
1350
1392
1409
1389
1329
1224
1104
1005
941
919
921
925
935
956
967
972
968
961
955
952
953
954
953
948
945
939
943
939
942
941
940
937
936
938
939
939
939
935
936
938
938
939
938
936
938
938
940
939
937
937
939
942
942
943
942
941
944
947
950
950
951
949
951
955
957
960
960
959
963
967
970
975
974
976
981
986
990
995
995
999
1005
1010
1016
1020
1019
1022
1026
1027
1034
1036
1037
1040
1043
1046
1049
1050
1051
1049
1054
1055
1055
1053
1050
1050
1048
1044
1043
1041
1037
1032
1028
1025
1021
1017
1009
1004
1000
997
996
993
987
982
981
981
980
977
976
971
971
972
973
971
971
967
968
969
970
969
968
966
966
969
973
972
971
970
970
973
975
976
976
974
973
974
975
977
975
975
977
976
980
977
977
976
977
981
979
978
980
978
979
980
982
980
980
979
982
981
982
980
978
976
976
977
976
975
973
970
971
975
975
974
973
969
971
972
971
970
971
967
966
966
966
967
964
964
964
965
965
964
963
960
964
963
964
964
961
961
960
960
963
965
962
959
961
960
962
962
964
966
969
974
976
975
974
974
977
981
982
984
983
981
982
982
984
985
984
981
981
982
980
976
971
969
972
975
977
978
975
972
970
969
969
965
962
956
959
959
957
955
956
950
951
953
954
951
950
950
951
952
956
953
950
949
949
951
953
953
951
946
940
929
921
917
926
935
952
986
1044
1116
1190
1259
1327
1374
1394
1387
1338
1245
1132
1030
965
934
926
930
947
970
979
979
970
963
958
961
964
959
955
951
951
951
950
950
947
946
947
949
950
950
948
945
946
949
949
949
946
947
948
948
950
949
950
946
948
952
954
952
953
950
954
954
956
956
955
956
960
962
964
965
964
964
969
973
975
978
979
980
983
987
994
995
995
998
1003
1009
1013
1015
1018
1019
1023
1029
1037
1036
1039
1040
1041
1045
1049
1053
1052
1053
1056
1058
1061
1060
1059
1058
1058
1057
1059
1053
1051
1042
1044
1041
1038
1033
1028
1021
1016
1015
1009
1004
1001
996
997
995
992
988
986
983
986
987
987
987
984
981
984
985
983
983
982
982
983
985
984
983
982
983
985
987
987
986
988
986
988
989
991
989
989
987
989
990
993
992
988
989
991
993
992
990
989
987
989
991
990
991
988
988
988
987
986
988
986
985
986
986
987
987
983
981
982
984
983
982
981
977
983
979
979
977
976
978
978
976
975
974
975
973
977
978
975
974
975
973
973
972
975
972
972
971
972
973
974
973
973
975
975
978
980
981
983
984
987
988
989
988
989
989
991
993
995
992
992
993
996
1000
998
996
993
988
989
988
986
983
986
987
991
992
989
982
979
976
976
976
978
974
971
967
968
968
967
965
965
961
962
963
963
964
962
962
964
965
967
965
962
960
962
962
964
961
960
952
943
937
936
941
951
966
996
1046
1110
1181
1242
1301
1353
1386
1388
1358
1289
1190
1093
1018
969
942
936
946
970
985
986
981
974
968
968
969
969
965
962
957
958
959
960
958
959
955
957
955
957
955
953
952
952
954
955
954
953
949
952
953
954
953
955
953
953
957
958
957
954
954
957
960
962
961
962
960
963
967
969
970
967
966
969
975
977
980
978
982
986
990
994
997
997
999
1005
1010
1013
1016
1017
1021
1024
1029
1034
1036
1036
1038
1042
1046
1048
1049
1051
1053
1054
1060
1060
1059
1061
1057
1058
1057
1054
1053
1051
1043
1042
1041
1038
1030
1028
1021
1021
1016
1015
1008
1004
999
997
996
994
990
987
985
985
985
983
985
982
980
982
983
984
980
979
977
979
983
984
984
984
982
982
983
985
985
983
982
984
987
988
989
988
984
988
989
990
990
989
988
990
992
992
991
991
989
990
992
992
992
989
989
987
988
989
991
988
985
988
987
989
987
987
982
982
987
987
986
982
982
983
982
984
982
977
976
976
977
978
976
976
973
972
976
975
974
971
970
970
973
975
974
971
970
972
972
973
972
968
968
970
973
973
976
977
978
979
984
985
985
983
982
985
987
991
992
989
987
989
992
994
993
990
984
985
984
982
983
980
980
983
985
983
981
976
969
970
967
963
963
960
960
960
959
958
956
951
953
953
955
956
956
953
950
952
955
954
953
951
951
951
953
953
949
939
924
914
915
922
935
949
982
1048
1130
1215
1293
1357
1401
1420
1406
1348
1244
1120
1010
944
919
922
940
960
975
976
971
965
962
958
957
956
954
952
946
944
942
942
944
942
942
938
938
940
940
938
940
939
938
938
939
939
939
940
936
938
939
944
943
944
941
944
945
948
947
948
946
949
953
954
955
956
956
960
964
968
968
971
969
976
981
984
989
991
992
998
1005
1009
1014
1016
1019
1024
1029
1034
1035
1038
1038
1044
1048
1055
1052
1053
1052
1054
1055
1055
1053
1054
1053
1050
1049
1045
1037
1032
1027
1024
1019
1013
1007
1002
995
993
989
987
985
981
975
976
977
974
971
971
967
967
968
970
969
967
967
967
968
970
969
969
967
969
974
972
971
971
968
968
972
973
974
973
972
975
975
976
976
976
970
974
978
978
978
976
975
975
977
977
975
972
972
970
974
974
973
972
970
971
971
973
972
969
968
968
971
972
970
966
964
966
968
966
968
965
964
963
963
965
964
961
959
962
961
963
961
957
955
955
957
960
959
958
954
957
957
958
957
955
954
954
958
960
960
962
960
965
971
974
973
971
972
974
976
976
977
978
977
979
981
984
983
980
975
972
973
972
969
967
968
973
974
973
969
965
958
959
958
957
952
949
947
948
947
947
943
941
939
942
944
944
940
940
937
941
944
944
943
941
938
941
941
939
931
917
904
899
906
918
938
968
1028
1110
1195
1272
1341
1395
1416
1407
1354
1245
1117
1000
930
912
916
931
950
966
964
957
954
951
949
946
940
939
937
935
932
931
928
931
931
930
931
929
927
931
932
932
930
927
927
930
931
932
932
933
931
934
936
937
935
934
935
937
941
942
942
939
941
946
949
950
952
956
957
962
967
969
973
973
977
981
985
991
994
998
1003
1008
1013
1019
1021
1025
1026
1028
1035
1040
1042
1044
1045
1048
1051
1051
1049
1049
1049
1047
1049
1045
1042
1037
1031
1027
1024
1020
1016
1008
1000
996
993
986
985
975
971
970
970
970
966
965
961
963
963
964
956
958
955
958
960
961
961
958
959
960
960
960
957
960
961
963
964
966
964
964
964
966
966
968
968
966
966
966
967
965
969
969
966
969
968
968
969
967
967
967
967
969
968
968
966
965
966
970
967
967
965
965
967
963
963
962
960
960
959
962
961
959
957
956
958
957
958
956
954
953
957
956
953
952
950
952
954
953
949
947
950
952
953
953
953
952
948
950
953
953
954
951
953
956
959
962
965
966
962
967
971
971
969
971
968
971
972
971
974
975
974
976
976
970
967
962
959
959
964
966
967
967
960
959
957
954
950
947
946
945
945
944
942
937
936
937
938
938
940
938
936
937
936
939
938
937
936
937
940
939
938
936
927
917
904
899
907
920
940
979
1046
1126
1207
1279
1341
1383
1396
1369
1292
1178
1058
971
926
913
915
928
949
963
963
955
947
944
943
945
944
940
936
932
930
931
933
932
933
931
929
932
932
935
932
930
929
932
930
930
931
930
931
934
934
933
931
934
935
937
938
936
938
939
939
942
947
947
948
948
949
954
953
957
957
958
961
969
973
975
979
982
982
985
992
998
1000
1002
1004
1010
1016
1018
1022
1024
1025
1029
1034
1035
1037
1038
1038
1041
1045
1048
1048
1045
1043
1043
1039
1038
1036
1033
1027
1025
1025
1017
1014
1005
1002
999
996
994
990
984
981
976
978
977
974
971
966
967
968
968
967
966
966
965
963
964
964
963
963
963
963
963
963
963
961
964
965
969
969
966
966
965
968
970
970
968
969
971
973
972
971
968
969
970
973
974
973
972
971
974
973
976
973
972
970
971
974
972
973
972
972
973
973
973
970
968
966
966
968
969
970
967
968
965
966
967
966
962
962
965
964
964
963
959
957
957
960
962
959
957
956
958
957
957
955
953
954
955
955
957
957
955
955
956
958
957
958
957
960
962
967
970
970
967
968
970
972
972
