990
989
986
988
989
991
989
990
985
987
985
988
986
983
984
982
987
986
984
982
981
980
981
982
980
978
977
980
980
979
976
974
972
975
974
975
971
971
968
971
971
972
969
969
968
970
972
971
969
966
965
966
969
972
967
967
966
968
970
970
969
965
966
971
971
970
971
968
970
976
981
984
983
979
983
983
985
988
987
988
985
987
988
992
992
988
988
986
986
985
981
977
975
979
985
986
981
977
973
973
973
969
968
962
961
960
964
961
957
954
953
954
957
957
953
952
950
953
953
952
953
952
951
954
957
955
955
953
951
953
952
953
945
927
917
912
920
934
949
982
1042
1124
1207
1284
1351
1393
1410
1403
1356
1264
1143
1032
959
930
929
935
948
965
975
976
969
967
966
961
958
957
955
952
950
948
946
949
950
948
944
943
939
942
945
945
943
942
942
943
945
945
945
942
942
947
950
949
949
947
948
948
951
954
953
951
953
956
960
959
959
958
962
966
971
973
973
973
976
980
985
989
995
996
1000
1005
1007
1013
1017
1018
1023
1027
1033
1034
1039
1040
1041
1047
1050
1053
1055
1055
1056
1059
1064
1062
1060
1058
1056
1056
1057
1053
1047
1042
1035
1031
1030
1025
1018
1014
1010
1004
1003
1001
996
990
989
989
988
987
984
980
980
978
978
979
977
976
974
978
980
978
976
977
975
979
981
979
982
976
977
978
982
984
984
984
983
985
987
985
983
984
983
987
986
987
983
983
984
985
987
986
984
983
983
985
985
985
981
981
981
982
983
983
979
979
978
979
978
978
974
976
974
977
974
976
972
970
968
971
972
971
970
969
967
966
968
967
967
965
965
968
968
968
965
963
959
964
964
964
962
963
962
962
964
960
960
958
960
961
962
964
963
962
962
963
966
967
971
974
976
977
979
977
977
976
977
979
984
985
982
983
984
986
985
983
981
975
973
973
974
973
975
975
973
973
973
968
967
962
962
957
957
957
957
954
952
951
952
952
949
947
946
949
951
949
951
949
948
948
951
952
950
951
948
950
952
949
942
927
914
912
921
935
953
990
1053
1128
1204
1273
1338
1384
1401
1390
1333
1222
1094
990
933
918
921
932
955
972
974
969
962
961
956
953
952
951
949
948
946
943
940
942
943
942
940
939
939
941
941
944
940
940
939
941
944
945
944
946
942
945
944
945
946
945
946
951
951
953
951
951
953
954
959
962
961
961
963
965
967
970
975
972
977
982
987
990
993
997
1001
1007
1012
1016
1018
1020
1022
1026
1031
1038
1039
1042
1043
1046
1046
1048
1047
1051
1051
1054
1055
1057
1055
1050
1048
1044
1044
1042
1036
1029
1023
1023
1016
1013
1006
1000
995
993
994
990
987
984
982
981
981
981
981
978
977
977
979
979
978
977
974
978
979
981
978
976
977
979
981
982
981
979
981
981
986
985
985
984
986
986
988
987
985
983
984
987
986
988
988
986
985
985
983
984
985
982
980
983
984
985
983
982
979
978
980
979
977
975
972
974
975
975
973
971
970
972
974
973
969
967
964
966
967
968
966
965
966
968
966
965
963
961
961
963
965
966
964
962
963
962
963
963
961
960
961
962
963
965
965
962
962
965
969
972
975
976
977
977
979
979
980
979
981
985
987
987
985
984
983
986
988
989
984
980
978
976
975
975
976
975
979
977
976
974
970
967
964
962
963
962
960
956
955
955
956
955
952
953
952
953
955
955
953
952
949
953
954
954
952
953
954
954
952
953
943
931
919
920
928
943
962
993
1051
1132
1211
1285
1349
1388
1393
1359
1278
1162
1052
971
930
922
932
953
974
978
971
965
963
962
960
957
955
954
953
951
948
946
942
944
948
950
948
944
946
948
948
948
946
945
946
947
950
948
946
945
945
948
949
952
953
952
949
953
955
955
957
955
955
961
961
966
965
963
965
967
972
974
975
976
978
983
986
991
993
994
997
1002
1008
1012
1014
1016
1018
1024
1027
1029
1031
1033
1036
1040
1045
1049
1048
1048
1048
1053
1057
1058
1058
1057
1058
1059
1057
1056
1052
1049
1047
1045
1043
1039
1035
1029
1023
1019
1020
1015
1009
1005
1004
999
1001
997
994
987
986
986
990
987
985
984
979
981
982
981
981
979
979
980
981
981
980
979
977
980
980
983
979
980
979
982
984
986
984
982
982
983
988
987
986
986
984
986
990
990
989
987
988
990
991
991
990
989
988
989
989
988
991
986
989
989
988
988
988
984
983
986
986
984
984
981
981
982
982
981
979
975
976
978
980
979
975
977
974
976
979
974
974
974
972
973
975
973
970
971
970
971
973
971
970
967
967
967
970
968
969
967
966
969
971
969
968
965
964
966
971
971
971
971
975
980
984
984
983
982
981
984
987
991
990
990
990
989
994
994
990
987
988
986
988
983
980
980
979
981
984
985
983
978
976
974
972
971
968
962
960
963
963
962
958
955
952
953
958
956
952
951
952
955
957
955
953
953
951
957
958
956
954
953
948
939
925
916
918
930
945
976
1030
1105
1185
1259
1330
1385
1416
1416
1383
1302
1186
1070
983
937
922
930
941
965
980
980
972
964
958
962
959
959
954
951
947
949
948
946
943
941
942
941
946
945
946
942
943
945
944
944
944
942
941
944
945
945
946
947
944
946
948
949
948
950
948
951
954
953
953
953
953
955
959
960
963
964
964
968
970
972
974
978
978
985
988
992
992
994
998
1004
1009
1013
1016
1019
1021
1026
1031
1033
1034
1034
1037
1039
1046
1046
1047
1048
1050
1052
1056
1059
1058
1056
1055
1057
1056
1055
1052
1047
1045
1044
1043
1039
1031
1026
1021
1019
1014
1011
1004
999
997
995
994
992
989
984
981
978
982
980
978
975
975
977
977
978
974
974
974
974
977
977
976
976
974
976
976
977
977
975
975
978
980
982
981
980
978
980
982
981
981
981
980
981
985
985
984
982
980
981
982
986
985
985
982
983
983
985
982
983
980
982
983
983
983
981
981
982
982
981
980
978
978
979
979
978
978
977
974
976
976
975
975
972
972
974
975
972
969
967
968
971
971
972
967
966
964
968
967
967
964
963
963
965
965
966
966
961
962
966
964
965
964
961
960
964
964
964
958
960
962
966
965
968
969
969
971
975
976
980
977
977
978
980
983
986
984
983
982
984
988
988
986
982
979
982
979
975
972
970
974
976
979
978
972
967
965
962
963
960
958
953
953
954
956
954
951
949
948
951
951
949
950
949
948
948
949
948
948
947
948
952
951
952
948
944
938
929
919
908
912
921
937
962
1007
1071
1144
1216
1285
1349
1390
1403
1383
1316
1209
1093
999
944
924
922
928
941
962
974
969
960
954
952
956
956
953
949
948
947
942
944
943
942
939
941
942
938
938
936
936
937
937
938
939
939
938
937
938
940
942
938
939
941
945
944
945
943
942
945
944
946
944
946
946
948
950
952
953
954
954
958
961
962
960
964
964
967
971
974
975
976
981
984
988
992
995
995
999
1003
1007
1011
1012
1015
1019
1026
1028
1031
1031
1034
1035
1040
1042
1045
1044
1046
1046
1047
1051
1053
1051
1047
1046
1047
1047
1045
1041
1037
1033
1032
1029
1023
1019
1012
1008
1007
1006
999
991
988
984
986
986
983
978
975
974
975
976
976
973
970
970
968
971
971
970
969
969
973
972
972
972
970
969
971
975
974
972
971
969
974
974
976
977
975
975
976
979
978
977
976
976
977
979
979
980
975
977
976
978
980
979
978
976
977
979
981
979
976
975
977
976
976
976
974
974
976
976
975
972
973
970
971
973
973
971
968
967
968
969
967
966
964
962
963
964
965
963
962
958
963
961
961
959
958
958
961
962
961
961
960
959
958
960
960
959
957
957
958
959
956
958
954
955
957
958
958
958
956
957
960
962
963
964
968
969
974
975
976
977
974
974
978
982
982
982
981
982
983
984
983
980
977
974
973
971
970
970
971
972
972
973
969
965
962
960
960
958
957
952
952
948
949
950
948
948
946
945
946
946
946
945
947
944
946
950
948
949
945
945
947
947
947
940
929
914
911
919
931
946
972
1021
1090
1164
1235
1298
1356
1388
1394
1363
1284
1172
1064
984
934
922
920
930
950
966
971
966
961
955
951
952
952
950
946
945
942
941
942
941
941
940
937
936
939
942
942
936
938
936
940
938
941
939
940
937
935
942
942
940
938
937
942
943
943
943
945
948
948
949
948
949
950
948
951
957
958
959
957
961
964
966
971
974
975
976
981
987
990
991
992
994
999
1004
1007
1008
1008
1015
1017
1022
1026
1027
1027
1031
1036
1041
1042
1041
1040
1039
1043
1046
1048
1047
1044
1041
1038
1040
1037
1034
1029
1025
1023
1021
1018
1012
1005
1001
1000
998
994
990
985
979
981
978
980
975
972
971
973
974
972
974
971
967
970
971
971
971
970
969
972
973
974
974
971
967
969
973
971
973
971
971
975
973
977
973
973
972
976
978
979
978
977
975
974
978
976
977
975
975
976
977
978
975
973
973
975
977
979
977
976
973
973
974
974
971
972
969
968
971
970
969
963
962
966
967
967
966
965
960
960
964
962
961
959
959
959
961
962
960
956
955
958
961
959
957
957
956
958
958
957
958
955
954
955
958
960
957
957
958
962
968
971
971
971
972
974
975
975
975
975
978
980
978
980
984
979
978
977
973
973
971
969
967
972
973
973
971
965
964
964
961
960
955
953
950
951
950
949
949
947
944
948
946
947
944
944
943
944
946
947
946
945
943
944
946
947
944
942
941
939
929
915
906
912
923
946
980
1041
1119
1197
1274
1340
1386
1395
1363
1279
1155
1039
964
924
913
920
936
958
971
969
960
951
949
950
952
948
946
942
940
939
938
938
935
933
934
937
937
936
933
931
932
932
935
936
935
934
933
934
938
938
937
936
937
937
942
942
943
943
943
942
947
949
949
949
950
953
958
960
961
961
962
968
973
974
977
975
979
987
992
997
1000
1002
1004
1008
1015
1018
1022
1022
1026
1030
1035
1035
1036
1038
1037
1042
1045
1046
1043
1043
1042
1042
1042
1041
1036
1031
1027
1025
1024
1018
1011
1005
1000
995
994
992
985
981
978
976
973
973
971
965
962
966
967
965
963
963
960
963
964
961
961
961
959
962
965
965
963
962
963
965
965
967
966
962
963
966
968
968
965
966
968
972
972
974
970
969
967
971
973
972
971
969
969
969
972
970
968
967
966
969
969
970
969
967
964
966
967
967
966
966
963
964
965
963
959
960
959
962
962
959
959
957
956
955
955
955
956
954
954
955
954
953
953
949
952
953
955
953
953
950
948
949
951
951
950
949
949
950
952
952
951
948
950
955
961
963
965
965
963
963
966
969
968
971
970
975
974
975
972
974
972
975
975
971
969
963
961
962
965
967
966
964
963
961
960
957
951
950
947
946
948
946
943
940
939
939
942
940
939
935
936
937
941
940
941
937
937
939
940
940
940
939
940
938
937
929
917
902
898
908
925
945
977
1038
1118
1202
1280
1348
1393
1404
1383
1321
1221
1107
1006
940
914
912
922
936
956
965
963
958
952
951
950
946
943
944
943
939
936
933
933
932
933
933
935
932
928
931
932
933
932
928
930
931
936
934
934
932
931
934
935
935
935
935
935
940
941
942
940
939
939
943
947
948
949
948
948
951
955
956
955
957
960
964
969
972
973
975
978
983
989
993
997
997
1001
1007
1012
1015
1016
1016
1019
1025
1031
1034
1032
1036
1036
1041
1042
1046
1045
1044
1046
1047
1048
1048
1045
1042
1038
1038
1040
1037
1031
1027
1020
1020
1015
1010
1003
996
990
989
990
985
981
975
973
972
971
972
969
964
963
966
967
966
961
961
959
963
966
966
963
962
963
963
966
963
965
964
963
968
967
968
967
966
967
967
969
971
971
971
966
970
970
972
970
970
970
972
974
974
971
970
970
969
971
971
971
969
969
969
971
970
968
967
965
965
968
967
965
963
962
963
964
963
961
957
955
958
961
961
957
954
952
953
956
959
958
954
953
953
955
954
950
950
951
953
954
953
952
950
950
951
952
953
951
949
950
951
952
950
950
949
949
949
954
949
951
953
954
959
965
967
967
961
963
966
968
969
971
969
969
971
972
974
974
972
971
968
968
966
962
960
960
966
969
966
962
957
955
956
954
954
950
946
942
941
943
941
938
937
936
938
940
941
940
939
936
940
942
941
940
937
939
939
940
939
938
925
909
900
903
914
932
960
1017
1098
1179
1260
1328
1373
1393
1378
1312
1196
1068
969
923
913
918
929
945
962
964
957
953
948
944
946
944
942
938
938
933
933
936
936
937
934
932
927
929
932
933
931
932
932
931
932
934
934
934
934
935
934
936
936
937
932
932
937
941
940
941
940
940
943
946
944
946
944
949
952
955
956
957
959
959
965
968
972
971
974
974
982
986
990
990
994
996
1002
1006
1011
1011
1013
1015
1022
1024
1024
1026
1029
1029
1035
1037
1037
1038
1041
1039
1041
1044
1044
1040
1037
1034
1035
1037
1033
1030
1022
1020
1016
1015
1009
1003
999
993
992
989
987
983
979
979
978
979
974
971
968
966
967
970
968
969
967
967
967
969
968
966
966
965
968
971
970
966
968
968
971
974
973
971
971
971
971
972
972
972
973
970
973
975
975
977
972
972
973
974
974
976
973
975
975
974
974
970
970
971
971
974
971
971
969
965
968
970
968
964
965
962
965
965
963
963
962
961
962
962
960
958
955
955
954
959
958
958
955
954
956
955
955
955
952
954
953
955
954
956
953
951
951
955
955
955
955
952
953
956
954
953
955
959
963
968
969
969
969
968
972
974
976
975
975
975
974
977
978
977
977
976
976
974
968
966
964
964
968
971
973
967
963
959
958
959
956
952
952
950
950
949
946
945
943
943
944
947
947
945
943
941
944
946
945
945
943
941
944
945
945
941
930
917
911
917
928
946
978
1035
1114
1194
1264
1327
1370
1387
1369
1309
1206
1096
1005
948
921
923
933
954
968
973
965
959
953
952
951
951
950
948
945
942
940
937
939
939
940
940
938
935
938
940
938
936
935
938
938
941
940
938
935
937
939
942
942
941
941
942
944
946
946
946
943
941
947
949
949
952
951
950
954
960
959
959
959
960
966
969
971
974
973
975
980
985
987
990
992
996
1001
1007
1010
1012
1013
1013
1021
1025
1029
1027
1030
1029
1034
1037
1040
1041
1043
1042
1044
1048
1047
1048
1045
1042
1044
1043
1043
1037
1034
1030
1028
1026
1021
1015
1007
1005
1003
1001
997
992
987
983
983
983
981
978
976
975
976
976
976
975
971
970
972
977
975
973
973
971
973
977
975
975
974
974
974
978
977
976
975
975
978
981
981
981
981
979
979
983
980
982
981
982
982
983
983
982
981
981
980
979
980
981
977
979
978
979
980
977
976
977
973
976
977
975
971
971
971
972
970
971
967
967
968
968
966
964
963
962
965
967
965
961
962
960
961
962
963
960
960
956
960
959
959
958
958
958
958
962
959
957
957
958
959
963
962
964
961
965
970
973
976
973
976
973
976
978
981
981
983
983
981
983
985
986
984
983
982
982
979
976
971
970
972
976
978
977
973
970
966
966
962
963
958
957
957
957
959
956
951
947
949
948
951
948
946
947
949
950
950
948
945
946
947
947
949
948
949
946
948
944
937
922
910
903
911
924
939
959
994
1056
1135
1210
1277
1339
1386
1406
1405
1375
1300
1191
1082
996
945
928
926
931
946
963
976
976
969
962
956
953
954
958
955
952
948
943
944
943
943
941
939
939
940
940
941
940
937
936
937
941
938
938
937
936
937
938
938
936
935
936
940
942
944
944
943
944
947
946
950
948
948
950
950
954
955
955
955
956
958
960
963
968
966
968
973
975
978
980
979
986
990
995
999
999
1002
1004
1011
1017
1018
1021
1025
1026
1029
1035
1036
1040
1039
1039
1043
1046
1047
1049
1051
1050
1053
1054
1052
1051
1048
1046
1046
1045
1040
1037
1031
1025
1021
1019
1014
1010
1004
1000
997
993
990
985
982
980
980
979
976
974
973
972
972
971
971
969
970
969
970
971
972
972
969
970
971
975
975
975
972
971
975
976
974
975
976
976
977
979
982
980
979
976
979
980
983
979
978
976
978
979
981
978
979
978
979
980
980
979
978
975
976
977
978
978
974
973
975
977
976
975
972
970
972
974
973
972
970
969
967
969
969
966
967
964
967
967
966
965
962
960
962
963
962
962
960
959
961
962
961
958
958
958
959
963
961
960
956
957
958
961
960
960
960
959
962
965
963
965
967
971
975
977
978
975
976
978
977
983
984
981
981
979
981
984
987
985
980
979
975
975
972
970
969
971
976
978
976
968
967
965
964
964
964
960
956
955
955
954
952
949
947
947
951
951
950
948
946
947
948
950
949
949
948
946
947
949
949
947
947
944
945
941
934
918
907
906
918
931
946
977
1026
1095
1171
1242
1311
1364
1396
1400
1375
1311
1211
1097
1003
945
924
922
928
938
956
968
968
965
959
957
954
953
952
952
951
945
941
938
941
943
945
941
938
937
935
939
938
938
935
937
936
935
939
936
936
936
936
940
940
938
937
937
940
943
943
943
940
940
942
944
946
946
945
948
952
952
952
952
955
956
959
963
964
965
966
967
972
976
979
980
982
983
990
993
995
