968
965
962
957
958
960
958
954
950
948
949
947
947
944
943
940
943
946
947
944
941
942
943
946
944
944
944
943
945
946
945
943
936
924
913
905
908
918
930
950
992
1057
1127
1197
1259
1317
1365
1386
1380
1336
1254
1141
1041
969
935
922
924
937
955
969
968
960
954
952
951
950
952
946
941
938
939
940
937
938
934
934
935
935
936
934
932
930
931
934
935
935
936
933
935
938
935
936
935
934
937
938
939
939
935
935
940
942
944
942
943
943
945
948
950
950
951
952
957
959
959
962
964
964
968
972
976
977
978
983
988
993
997
996
997
1003
1008
1012
1018
1019
1023
1022
1028
1031
1034
1035
1037
1037
1041
1043
1046
1045
1043
1043
1045
1044
1041
1039
1034
1029
1028
1024
1021
1014
1011
1006
1002
999
994
989
984
979
977
976
973
970
967
964
966
964
964
962
962
959
962
963
962
959
960
958
958
960
962
961
959
959
962
963
965
964
962
961
964
965
967
966
965
965
965
966
968
966
964
966
968
970
968
969
969
968
967
970
970
969
966
964
965
966
966
965
962
964
966
969
970
968
965
963
963
964
962
962
958
960
961
961
960
957
957
956
956
958
957
956
954
952
952
955
955
950
952
951
952
955
953
951
949
947
950
950
951
949
949
948
948
948
949
950
948
948
951
954
954
956
957
957
961
963
962
965
965
963
966
970
974
970
969
968
972
975
973
970
967
963
961
962
962
960
962
962
963
961
960
955
952
949
949
950
947
944
942
939
942
943
940
938
936
935
939
939
939
938
936
936
936
939
938
941
938
937
937
938
938
938
936
934
930
922
911
908
911
922
940
966
1014
1080
1147
1210
1267
1314
1340
1348
1328
1274
1190
1101
1024
964
930
915
914
923
940
954
957
952
947
945
943
943
941
942
941
939
936
934
933
930
933
932
932
931
930
930
929
930
932
928
927
926
927
930
930
930
930
930
929
933
931
932
930
930
931
933
935
934
933
933
936
938
938
939
938
937
941
943
948
947
947
949
951
956
957
955
959
963
966
970
973
974
977
981
987
989
993
995
997
1001
1004
1010
1012
1014
1016
1018
1021
1025
1028
1030
1029
1030
1033
1035
1033
1033
1033
1029
1031
1031
1030
1026
1020
1017
1014
1014
1009
1004
999
991
993
990
986
980
977
975
977
974
972
970
967
965
965
966
965
966
962
962
962
961
963
963
959
957
958
959
962
961
961
958
960
963
962
964
962
961
965
966
967
965
965
964
965
968
968
967
967
966
969
968
970
972
971
969
970
973
975
972
969
970
970
972
971
969
969
968
969
972
972
971
967
965
965
969
968
966
962
960
960
965
965
963
961
961
960
960
962
958
955
956
955
957
957
955
950
953
952
953
954
953
950
950
950
953
952
950
949
948
950
951
951
950
947
944
948
949
950
949
947
944
946
948
946
947
945
944
949
950
955
954
957
959
961
962
962
962
962
961
966
968
968
967
967
966
970
972
972
970
966
966
964
965
961
958
958
957
962
963
961
957
952
953
951
948
948
945
941
939
941
940
938
935
935
933
934
936
935
932
932
929
931
933
935
931
931
932
933
935
935
933
932
932
933
933
931
926
914
899
895
898
905
917
928
952
995
1061
1130
1199
1262
1318
1362
1378
1365
1312
1222
1113
1019
958
926
917
915
920
935
953
960
956
947
944
941
943
941
940
936
935
931
932
928
929
926
926
927
927
924
926
924
923
923
925
925
925
923
921
925
926
924
925
924
924
926
927
927
927
926
926
929
931
930
930
930
929
931
934
935
935
935
936
937
941
943
944
942
944
947
951
955
955
956
959
964
967
971
972
972
976
982
985
989
992
996
995
1000
1004
1009
1011
1013
1016
1020
1022
1026
1027
1029
1029
1031
1033
1032
1035
1032
1033
1033
1034
1031
1029
1025
1017
1019
1014
1012
1008
1000
995
990
990
985
980
977
971
969
970
966
966
962
957
959
957
956
955
953
953
953
953
950
953
951
951
951
955
952
954
952
951
953
956
954
955
953
952
952
956
957
959
956
955
957
959
957
959
957
959
960
962
959
961
959
957
961
960
963
963
959
958
961
960
961
959
957
956
958
959
956
956
954
952
955
955
957
954
951
952
949
952
953
948
946
948
947
947
947
943
941
944
943
944
943
943
941
940
940
942
943
939
939
938
941
940
942
943
941
938
941
940
942
941
940
940
940
943
940
939
938
937
940
942
944
942
941
942
945
950
953
953
953
953
953
958
958
959
960
959
964
964
964
966
966
963
965
962
963
959
957
952
952
952
953
955
956
953
952
951
948
945
942
939
939
940
937
936
932
931
929
932
931
928
928
929
928
929
929
928
929
927
927
929
929
929
926
925
929
931
928
928
926
926
926
924
913
899
891
893
906
922
940
980
1039
1114
1189
1257
1317
1356
1374
1365
1317
1227
1114
1013
946
917
911
911
915
928
942
948
946
940
937
934
933
929
930
931
930
924
923
921
921
921
922
920
917
918
917
920
921
919
916
917
918
921
920
917
916
917
921
921
920
920
918
920
920
925
924
925
924
921
924
929
930
933
932
929
933
936
938
938
940
941
945
951
953
952
955
959
964
970
972
974
977
980
986
989
993
996
997
999
1004
1009
1009
1011
1015
1015
1021
1024
1025
1025
1026
1028
1029
1030
1028
1027
1025
1022
1021
1019
1016
1010
1004
1000
997
992
988
982
977
971
970
969
965
960
956
955
956
956
953
951
950
947
948
948
949
948
947
946
945
949
950
948
945
944
948
949
951
949
949
948
951
951
954
954
953
952
954
957
957
955
955
955
957
958
960
958
958
957
957
960
960
958
957
954
956
957
958
957
953
954
955
952
953
951
951
949
949
952
949
947
947
942
943
946
945
943
943
944
945
943
946
943
940
940
944
942
942
941
937
938
940
940
939
939
936
937
938
938
940
939
937
935
937
940
939
938
937
933
938
939
940
939
938
936
937
941
937
938
937
936
939
942
939
938
939
939
939
944
945
950
949
948
952
956
957
957
958
958
958
962
965
964
962
962
964
963
964
961
957
953
954
953
953
956
956
956
956
956
952
949
945
943
945
944
943
940
939
935
934
937
936
934
934
932
934
935
934
935
933
932
932
935
935
935
931
933
933
935
935
936
931
931
935
938
939
938
935
936
937
935
927
912
904
907
921
941
965
1016
1087
1169
1249
1319
1371
1390
1372
1305
1189
1076
981
933
919
917
926
946
961
963
955
948
948
948
950
947
943
938
933
939
936
935
936
933
934
938
938
935
934
933
936
937
939
938
936
936
937
940
942
941
938
938
942
944
947
944
945
944
947
950
952
952
952
951
957
960
963
963
963
965
968
974
978
979
982
983
989
993
999
1001
1003
1005
1012
1018
1023
1022
1027
1028
1032
1038
1040
1041
1043
1043
1045
1051
1052
1052
1051
1049
1050
1050
1051
1047
1042
1039
1039
1036
1033
1030
1023
1016
1012
1011
1006
1001
998
992
992
990
988
987
982
980
980
980
979
976
975
974
975
978
977
977
974
974
978
979
981
979
977
977
977
980
981
980
980
979
984
983
984
985
982
982
985
987
989
987
987
987
986
988
989
990
988
987
989
986
991
989
986
987
988
990
991
988
987
985
987
987
987
985
983
981
983
984
984
982
981
978
980
980
980
978
977
975
978
977
977
978
976
973
974
975
976
971
970
971
974
973
973
972
970
969
970
971
973
969
968
967
970
971
971
969
969
968
970
968
971
970
968
968
969
970
972
970
969
970
973
977
981
982
983
984
987
988
989
988
989
990
992
995
995
994
993
993
995
993
990
988
981
981
984
987
988
986
984
982
980
978
976
973
971
969
967
966
966
964
962
961
961
963
963
963
959
960
963
964
962
959
960
958
960
958
960
959
961
960
961
964
961
964
963
961
965
964
966
964
961
959
951
940
931
932
941
957
982
1033
1107
1191
1265
1330
1382
1402
1395
1336
1229
1105
1010
959
944
941
952
969
985
988
981
976
974
973
972
972
968
965
962
962
961
960
963
962
959
957
959
961
960
958
956
957
959
958
958
957
958
959
959
962
961
962
961
960
963
965
966
966
963
965
966
969
972
971
971
972
974
978
980
981
983
984
987
993
995
996
999
1002
1007
1011
1015
1017
1017
1021
1028
1033
1035
1034
1036
1037
1042
1044
1049
1050
1050
1050
1055
1057
1057
1057
1056
1054
1055
1057
1055
1047
1044
1041
1039
1038
1034
1028
1022
1017
1014
1012
1006
1002
996
992
991
992
990
987
984
980
980
980
979
980
974
974
975
978
979
976
973
972
973
975
976
974
974
972
975
976
975
975
973
973
977
981
980
981
976
976
981
981
980
977
978
978
980
981
982
980
979
978
980
981
983
979
979
982
979
981
981
979
976
976
979
979
979
978
976
975
973
975
975
975
972
973
973
974
972
970
969
966
968
966
967
967
961
960
962
965
965
963
959
958
959
958
962
960
958
956
959
960
959
957
954
954
953
957
955
955
953
951
955
956
957
954
953
951
951
955
955
952
950
948
949
953
953
950
950
950
953
957
958
958
959
962
965
969
969
968
966
968
970
971
971
972
971
970
970
969
966
963
958
956
958
961
964
964
962
956
955
955
953
952
948
945
945
948
945
943
940
937
937
941
939
937
937
935
938
938
939
939
936
932
936
935
936
935
933
931
932
936
935
936
936
935
937
938
938
937
933
931
925
916
906
903
911
922
941
971
1022
1091
1157
1219
1281
1329
1353
1355
1322
1245
1140
1039
973
935
915
906
909
928
946
953
949
943
943
944
946
942
936
932
931
931
929
932
928
927
927
929
930
928
924
925
927
929
929
928
926
926
925
929
929
929
927
928
928
929
930
930
930
928
930
933
933
931
932
934
935
938
938
939
938
936
943
947
946
948
947
948
952
957
956
958
962
963
969
972
975
979
981
980
986
991
993
996
996
997
1002
1006
1008
1011
1010
1012
1015
1020
1020
1019
1019
1019
1023
1023
1023
1020
1018
1016
1014
1014
1012
1007
1004
998
996
993
989
984
977
975
972
970
969
965
960
958
959
958
954
953
952
949
951
949
948
949
944
943
947
946
948
946
944
942
945
945
946
947
944
944
944
947
946
949
947
946
947
950
951
949
950
948
948
951
953
953
952
951
950
953
956
953
952
951
954
955
954
951
951
952
950
953
953
952
948
950
950
949
951
948
945
945
946
946
946
943
941
940
941
943
942
937
938
935
937
938
938
935
935
935
935
936
936
934
932
931
931
932
933
931
930
927
931
931
931
928
929
925
929
931
930
928
925
926
929
931
931
930
930
933
937
942
944
943
943
941
945
947
951
948
946
944
944
948
949
949
946
942
941
939
937
936
935
935
942
941
940
936
930
926
927
926
923
922
919
918
913
915
914
911
912
911
912
913
913
914
910
909
912
913
912
913
910
911
913
915
913
912
909
908
907
901
889
879
879
893
911
935
983
1051
1127
1202
1272
1323
1348
1344
1306
1222
1114
1015
943
901
889
891
899
917
931
934
928
921
920
920
918
916
913
910
908
909
908
905
902
897
901
904
903
902
900
900
902
904
904
902
901
902
901
904
905
903
903
903
904
906
906
906
903
905
905
909
910
911
909
910
912
916
914
915
916
915
920
920
924
924
925
926
929
934
935
940
941
941
950
954
958
958
962
964
968
975
979
983
983
986
990
995
996
999
1000
1001
1003
1006
1011
1009
1010
1011
1012
1014
1015
1012
1008
1008
1005
1007
1005
999
994
989
988
984
980
976
970
962
958
957
952
950
947
939
938
941
939
933
931
930
929
930
931
930
927
923
925
925
927
926
925
924
926
926
926
928
923
926
926
929
927
929
928
922
927
929
930
930
930
929
932
933
935
935
934
933
936
937
938
935
936
935
937
937
938
936
935
935
936
938
937
934
932
934
932
935
934
932
932
931
932
933
930
929
928
925
926
929
929
926
923
921
922
924
925
923
921
920
921
924
922
921
919
920
919
921
921
920
918
917
915
918
918
915
915
914
916
916
916
915
914
915
915
916
915
915
914
911
913
914
914
915
913
915
915
919
918
919
920
921
927
932
932
931
931
929
932
936
937
937
936
934
936
939
941
940
936
934
932
932
927
927
927
929
931
931
929
924
921
918
920
919
916
913
910
908
907
908
905
904
902
902
904
904
905
903
901
900
902
904
901
899
901
902
903
908
906
906
906
904
902
897
886
877
872
878
892
912
944
1004
1077
1155
1230
1297
1344
1361
1343
1273
1169
1058
969
911
893
885
888
895
912
925
927
921
916
915
914
914
913
910
906
908
905
904
902
899
904
903
903
901
900
898
900
903
902
902
899
898
900
901
900
900
900
898
899
902
904
901
901
903
904
907
907
906
906
906
908
909
911
912
911
912
914
920
921
919
919
922
927
931
934
935
936
938
944
947
948
951
956
959
963
969
971
975
977
980
987
990
991
993
994
996
999
1004
1005
1007
1008
1007
1010
1013
1015
1014
1013
1009
1011
1010
1008
1005
1000
996
996
993
990
983
977
972
969
964
961
955
952
948
945
947
941
939
936
933
934
936
933
931
929
928
930
930
929
928
927
927
930
930
930
929
927
928
929
931
932
931
928
927
930
933
935
933
931
932
933
937
936
936
934
934
936
936
936
934
935
935
938
938
940
939
939
937
940
939
938
937
937
936
937
940
941
937
936
935
935
935
935
935
932
930
932
933
932
931
929
928
931
932
930
928
928
925
928
929
929
925
925
923
923
924
924
923
922
923
924
924
927
923
920
919
922
923
922
922
919
918
920
922
923
923
921
921
923
921
922
921
921
919
923
926
924
923
924
922
924
926
929
930
928
929
933
937
936
939
940
937
941
944
943
946
946
946
946
946
947
947
946
943
945
945
942
940
937
936
936
942
943
945
941
941
937
937
935
932
928
923
923
924
923
924
920
918
918
919
919
916
915
914
917
918
918
918
916
915
915
919
918
917
917
915
919
921
921
919
914
914
909
904
896
888
891
902
916
932
965
1017
1084
1150
1211
1270
1320
1349
1357
1333
1268
1174
1072
990
936
906
897
903
911
927
940
940
937
935
933
930
925
923
927
926
925
921
916
917
917
918
918
917
915
912
915
916
916
914
914
910
914
916
917
914
916
915
916
919
919
918
916
916
918
924
923
921
921
922
923
926
925
926
925
926
928
932
933
936
936
935
938
944
945
947
948
949
952
959
961
964
967
970
974
981
983
984
986
990
997
999
1004
1006
1006
1008
1013
1017
1020
1021
1023
1022
1027
1030
1031
1029
1027
1026
1028
1029
1027
1024
1022
1018
1017
1014
1015
1009
1002
999
994
992
988
983
979
976
973
971
967
964
962
958
959
960
957
956
953
950
954
955
953
952
948
950
951
951
951
950
951
949
948
953
954
952
954
950
953
957
957
957
956
955
956
960
959
960
962
958
961
963
961
960
961
960
962
964
965
964
961
961
964
964
963
963
962
962
962
964
964
962
960
960
962
962
962
958
959
957
958
957
958
954
955
952
956
956
954
952
950
948
948
951
950
948
946
946
947
947
947
945
940
941
944
947
945
945
943
942
943
947
946
945
942
943
945
948
944
943
945
943
944
947
947
948
946
945
950
953
955
954
956
957
958
961
960
964
963
964
967
968
967
966
967
966
966
966
963
960
955
954
955
960
961
961
960
957
953
954
950
948
944
942
941
943
939
938
937
936
936
939
933
936
934
932
934
937
936
935
934
934
937
938
938
935
935
932
936
936
928
919
905
896
901
911
926
945
981
1042
1121
1197
1270
1336
1378
1396
1388
1339
1237
1121
1019
949
921
917
921
929
946
956
959
954
949
945
944
943
942
943
937
934
931
928
931
934
930
929
927
927
928
930
928
929
927
926
928
929
929
929
928
926
929
931
932
931
932
932
932
934
934
936
935
936
939
942
941
943
941
942
946
949
949
952
952
953
958
962
964
966
967
970
976
981
983
987
988
992
999
1005
1005
1009
1011
1013
1019
1023
1027
1029
1031
1031
1036
1041
1044
1044
1044
1045
1047
1051
1049
1047
1047
1045
1046
1045
1040
1033
1030
1025
1023
1021
1013
1008
999
995
992
990
984
982
977
975
972
971
968
966
966
964
964
965
965
962
961
961
961
965
963
962
962
961
963
966
963
963
961
961
961
966
963
963
965
964
966
970
968
968
968
966
970
972
970
970
969
970
969
974
974
970
967
968
971
973
970
967
967
967
970
974
970
968
965
962
965
968
964
964
962
962
962
963
962
960
960
956
959
960
956
955
952
952
953
955
955
954
954
952
950
955
952
951
950
949
951
952
951
953
948
949
950
951
952
951
950
949
952
953
951
952
948
949
951
954
953
955
958
961
962
967
966
968
966
967
971
976
974
973
972
973
977
977
974
972
969
966
964
963
964
966
965
966
969
967
960
954
952
949
953
952
947
948
943
942
944
945
943
940
939
939
940
942
941
939
938
936
940
945
942
941
940
939
940
943
941
932
919
909
907
918
933
953
990
1052
1132
1213
1282
1341
1381
1396
1376
1306
1191
1070
979
934
921
921
927
945
961
967
963
958
952
951
951
949
948
948
