949
949
949
949
949
949
949
949
947
947
947
948
952
952
950
951
950
952
953
955
956
955
955
958
959
962
963
962
962
964
968
974
974
975
977
980
985
991
992
992
997
1000
1006
1012
1015
1017
1021
1024
1030
1036
1038
1039
1039
1044
1046
1051
1050
1053
1051
1056
1057
1059
1061
1059
1057
1058
1056
1054
1052
1048
1041
1040
1038
1035
1028
1023
1014
1011
1007
1005
999
995
991
989
987
983
981
980
978
975
976
975
975
971
971
971
972
973
970
971
969
971
969
971
970
971
968
967
969
972
974
971
970
971
976
975
974
974
973
976
978
979
978
976
976
976
980
980
980
979
976
977
981
980
978
978
977
977
980
981
978
976
974
975
976
976
977
974
973
973
974
975
973
970
970
971
972
973
970
968
966
967
967
966
966
966
964
965
964
964
963
964
960
961
961
964
962
962
959
959
960
960
962
959
959
960
961
965
969
968
968
971
973
975
976
977
975
976
977
981
981
981
978
980
982
983
981
981
975
973
974
972
970
970
970
973
974
973
972
965
961
960
959
958
956
953
948
947
948
948
945
942
943
942
943
944
946
943
940
942
944
944
945
943
942
943
944
943
943
940
935
929
916
908
906
914
927
946
982
1042
1118
1194
1262
1326
1374
1394
1384
1341
1252
1148
1050
977
936
920
919
927
943
958
965
960
952
949
949
948
948
945
940
938
937
938
937
934
931
932
934
935
932
931
927
930
933
931
932
930
929
931
929
929
930
931
927
930
932
933
936
932
930
934
938
937
937
937
936
939
942
945
946
944
944
946
950
955
956
956
955
960
966
969
972
973
976
982
987
992
997
998
999
1004
1010
1016
1016
1019
1023
1027
1031
1036
1035
1036
1038
1041
1045
1047
1046
1046
1043
1044
1043
1042
1041
1035
1033
1030
1027
1022
1018
1011
1006
1001
998
994
988
981
976
974
972
970
969
963
961
959
961
962
962
954
955
954
958
959
958
955
954
955
954
956
955
954
953
954
958
958
958
958
957
959
960
961
961
960
958
961
962
964
964
962
960
962
963
965
965
965
961
962
965
965
964
962
963
962
963
965
964
961
959
958
961
962
961
959
957
958
959
960
957
958
956
954
955
956
956
954
953
954
955
955
955
954
949
951
952
950
951
951
948
947
949
950
949
947
944
948
947
949
950
946
944
945
949
948
947
947
945
944
945
947
948
947
947
949
952
953
957
957
961
962
962
962
961
963
962
967
970
971
972
970
969
971
974
974
971
969
965
961
962
961
961
962
960
962
964
960
956
953
949
948
948
946
943
943
940
938
939
938
937
934
934
934
934
937
936
936
932
933
934
934
936
934
933
934
937
937
935
932
922
910
900
897
906
917
933
969
1033
1113
1199
1270
1331
1374
1392
1370
1297
1182
1063
972
927
914
916
923
940
953
956
949
945
941
941
941
943
938
933
929
925
925
927
927
927
922
921
920
924
925
924
926
922
924
925
927
925
925
922
924
926
928
926
929
925
930
930
930
932
931
933
935
937
942
943
942
942
944
948
953
956
958
958
965
969
971
975
978
981
986
991
998
1004
1004
1007
1011
1014
1020
1022
1023
1023
1029
1030
1038
1038
1036
1035
1038
1039
1039
1036
1033
1027
1027
1026
1023
1021
1009
1005
1001
999
996
991
983
978
974
972
970
968
963
960
959
960
957
958
953
952
953
955
955
954
954
953
955
956
955
955
954
953
954
956
958
957
957
955
956
957
959
958
956
956
959
958
960
961
959
957
957
959
962
962
960
957
960
960
961
962
957
959
957
961
958
960
957
957
958
959
961
961
960
955
957
958
957
957
955
954
954
953
954
953
951
949
951
950
952
951
947
947
948
950
949
949
947
945
946
947
945
945
943
942
942
943
944
944
942
942
942
943
943
943
944
944
944
947
947
948
943
943
945
945
947
951
950
954
957
958
960
961
958
957
960
962
966
966
963
961
964
968
966
966
964
960
959
955
955
956
954
955
956
960
959
956
951
947
946
948
947
945
941
938
938
935
935
933
933
933
935
937
937
934
931
930
932
934
935
936
935
933
933
934
935
934
933
929
921
910
904
907
917
930
952
990
1058
1131
1204
1267
1325
1361
1364
1325
1236
1122
1019
951
919
909
910
928
948
957
955
945
942
938
941
940
939
936
930
929
928
929
929
928
927
925
927
927
926
928
926
927
928
930
929
927
926
926
926
929
928
930
928
926
927
933
934
934
933
929
935
937
939
939
937
938
942
944
948
949
951
953
957
961
965
966
970
972
976
981
983
988
990
992
998
1003
1006
1010
1012
1013
1015
1019
1025
1026
1026
1027
1031
1032
1035
1036
1031
1030
1033
1031
1032
1030
1025
1022
1018
1016
1013
1005
1003
997
993
990
989
984
979
972
971
970
971
967
964
962
961
963
964
961
957
955
959
958
959
958
955
957
957
958
957
957
954
956
957
958
957
959
958
960
960
961
960
961
962
963
964
965
963
962
965
965
964
966
967
967
965
966
967
968
968
967
965
967
967
966
968
967
966
965
969
967
965
965
964
964
965
965
963
960
960
960
962
962
960
959
956
958
958
957
955
954
953
953
955
955
954
953
949
951
952
953
952
951
949
950
952
952
950
949
948
948
950
951
951
949
948
948
950
953
953
949
948
950
950
953
953
956
955
958
964
965
966
964
964
966
967
970
973
972
970
969
974
977
977
974
971
968
968
966
962
961
961
964
967
968
963
961
956
954
955
953
948
945
944
947
945
944
943
940
937
941
940
939
939
938
938
938
938
941
939
937
937
939
940
939
940
937
931
923
913
907
913
925
942
978
1039
1121
1204
1278
1337
1378
1388
1355
1273
1156
1041
957
916
912
921
939
954
959
958
951
946
944
945
942
940
937
936
934
933
932
933
934
932
928
928
931
931
932
931
931
930
931
930
930
930
930
928
930
934
934
933
933
933
932
935
938
937
939
938
939
943
944
947
947
949
949
951
956
957
959
961
966
971
975
980
981
982
987
993
998
1002
1006
1006
1012
1019
1022
1023
1027
1026
1033
1039
1040
1044
1041
1043
1046
1049
1048
1051
1048
1043
1043
1045
1044
1041
1035
1027
1026
1023
1020
1013
1009
1001
999
996
993
988
982
977
977
974
974
970
968
966
961
964
963
963
961
958
958
960
959
961
957
955
958
960
961
959
958
956
960
961
963
962
961
960
964
965
966
964
962
962
964
966
966
967
966
965
967
970
969
969
968
966
966
968
968
970
968
965
966
970
967
967
966
964
967
966
965
963
963
961
964
964
964
962
961
957
960
962
961
959
959
956
957
957
958
956
955
954
955
957
957
955
949
950
952
955
954
953
951
948
950
951
952
950
950
949
950
950
951
950
948
948
949
951
952
951
953
953
953
957
962
962
964
965
965
968
969
970
970
971
972
973
973
975
976
973
975
974
972
969
966
962
960
963
966
967
966
963
962
959
957
957
952
948
947
948
946
943
940
938
939
940
938
939
936
937
939
938
939
939
938
936
935
940
941
939
939
935
934
928
918
908
906
911
928
952
994
1060
1142
1221
1298
1357
1388
1389
1355
1267
1152
1042
968
928
918
923
939
955
965
961
950
944
946
947
947
942
938
935
935
937
937
933
931
930
931
933
933
933
931
928
929
931
931
931
932
929
930
931
934
934
932
930
933
935
936
937
937
936
935
938
942
942
942
943
944
948
951
952
953
955
958
963
964
967
970
972
978
980
984
987
992
994
1000
1005
1009
1014
1017
1017
1023
1029
1031
1034
1033
1036
1038
1042
1045
1047
1048
1046
1048
1048
1050
1050
1045
1041
1042
1040
1036
1031
1023
1019
1019
1015
1011
1003
995
991
988
985
980
976
974
970
968
968
969
967
963
960
960
962
961
962
959
954
954
958
959
959
956
955
958
958
958
960
956
956
959
963
961
963
962
961
963
964
965
964
964
962
964
966
969
967
965
964
965
970
969
969
965
965
966
969
967
970
966
966
967
969
970
967
966
963
965
965
966
966
963
962
962
964
961
962
960
958
960
958
962
959
957
955
957
956
958
956
954
953
953
957
957
955
954
951
951
951
955
952
952
951
950
951
954
954
950
950
952
955
954
952
950
949
952
952
954
955
953
954
958
961
966
966
965
965
966
970
972
973
971
970
973
975
975
974
975
974
976
976
974
970
969
965
962
964
968
968
968
968
966
964
962
959
954
954
951
951
950
948
948
944
943
941
941
940
939
935
936
940
939
939
938
938
940
942
941
937
941
940
941
941
942
942
940
934
930
918
908
905
912
921
938
967
1013
1078
1144
1211
1277
1339
1381
1399
1384
1335
1242
1134
1040
970
936
922
922
927
942
955
962
959
955
953
949
949
945
942
945
944
940
937
935
933
932
935
932
934
931
930
932
936
934
932
932
927
931
931
933
932
930
930
933
932
933
935
934
931
935
937
940
938
938
935
937
941
942
942
941
943
942
946
948
951
951
952
952
959
961
965
966
966
969
974
979
983
983
987
990
996
999
1000
1004
1005
1009
1016
1020
1023
1023
1023
1028
1033
1038
1040
1039
1041
1045
1048
1050
1049
1047
1047
1049
1049
1051
1047
1043
1040
1038
1037
1033
1027
1024
1015
1016
1010
1008
1004
996
992
987
987
985
982
979
973
975
972
971
969
967
963
966
965
967
963
959
959
958
962
961
962
959
959
959
960
959
959
960
960
962
964
965
961
964
962
962
964
966
966
966
963
967
968
969
969
969
968
967
970
970
970
969
968
970
970
970
970
970
968
969
971
971
970
968
967
968
967
967
968
966
964
965
968
968
969
964
962
964
965
964
964
962
960
960
962
963
960
961
956
958
960
959
958
958
956
957
956
958
956
956
951
954
953
955
953
951
952
951
952
953
953
952
949
951
950
952
953
950
949
952
952
954
954
950
949
951
952
952
952
952
951
954
959
961
963
964
963
965
967
969
967
969
969
973
976
975
976
974
975
977
977
975
973
967
962
961
962
966
966
966
963
962
960
958
954
953
950
951
950
947
945
943
942
942
944
944
942
938
936
939
938
939
941
939
940
941
944
943
942
941
941
943
944
942
940
929
918
912
912
923
936
961
1003
1068
1138
1206
1275
1331
1364
1378
1358
1291
1193
1094
1014
958
929
919
920
933
951
961
965
955
949
946
945
949
948
944
939
938
935
937
938
938
939
935
935
933
935
938
938
934
932
935
935
937
936
935
933
934
937
939
937
935
934
936
939
940
939
939
938
941
943
944
945
944
944
948
950
950
951
952
951
956
959
962
963
964
967
971
975
979
981
980
985
991
995
1000
1002
1002
1006
1011
1016
1020
1022
1025
1027
1032
1033
1038
1038
1037
1039
1039
1044
1047
1048
1045
1042
1044
1045
1043
1039
1036
1029
1026
1027
1023
1015
1008
1004
1001
1002
997
991
986
985
984
982
980
979
973
972
971
971
970
969
968
967
966
967
967
966
964
962
963
965
966
966
965
964
964
967
967
966
964
966
965
968
968
968
969
967
969
971
971
972
972
970
972
973
975
975
975
975
974
977
975
977
972
972
972
978
976
978
975
976
975
974
976
976
973
972
973
976
975
973
973
969
972
972
972
971
971
968
969
972
969
969
967
965
964
966
965
965
965
960
961
964
963
959
959
958
960
960
961
960
958
955
957
958
959
957
956
956
958
958
960
958
958
956
957
958
959
958
957
955
958
959
962
964
968
971
970
970
974
976
974
974
975
983
982
980
978
979
982
981
982
977
975
970
973
970
973
974
972
972
972
972
969
964
961
959
958
956
958
955
951
948
949
949
947
947
946
946
945
947
946
946
945
944
945
947
948
947
944
944
945
947
944
935
920
910
916
929
948
975
1023
1098
1182
1262
1327
1371
1389
1372
1308
1206
1093
1000
945
922
926
940
959
968
970
960
954
954
954
957
951
945
944
944
945
942
941
940
938
940
941
941
939
939
939
940
943
942
940
939
939
942
943
942
942
940
942
942
947
946
944
941
945
947
949
950
950
951
952
955
958
960
961
960
966
969
972
973
975
973
980
985
992
993
995
995
1002
1009
1012
1016
1018
1022
1026
1032
1035
1035
1037
1039
1042
1044
1046
1050
1050
1050
1051
1055
1054
1054
1051
1048
1047
1048
1046
1041
1035
1030
1029
1024
1020
1014
1008
1001
998
995
995
989
983
978
977
977
975
973
970
967
968
968
967
966
963
963
964
966
965
964
964
961
962
966
964
962
962
961
962
966
967
966
965
965
966
969
972
968
970
969
971
971
973
972
969
969
970
973
974
973
971
971
971
972
974
972
971
971
971
973
974
973
971
969
972
971
972
971
966
962
966
968
968
966
963
961
964
965
964
964
962
961
961
961
962
960
958
958
957
959
959
958
956
953
956
957
956
957
954
955
956
954
955
956
955
951
953
955
957
957
954
954
955
960
963
964
968
966
970
972
973
973
974
972
974
977
980
976
978
979
979
980
979
975
973
969
969
970
970
972
971
970
966
965
963
958
956
952
953
952
951
949
947
943
944
945
947
943
942
941
942
943
943
943
942
943
944
946
950
945
943
943
941
942
940
933
919
904
908
919
934
954
989
1047
1126
1205
1275
1336
1381
1395
1375
1304
1199
1084
993
946
928
927
933
943
958
968
965
960
956
954
949
949
950
947
946
943
939
935
938
936
936
935
936
934
936
938
937
937
936
933
936
938
939
937
938
937
938
941
942
943
942
938
940
942
946
945
947
947
949
949
953
952
953
952
955
958
961
962
963
966
969
974
977
980
981
984
990
996
998
1002
1005
1009
1012
1018
1022
1024
1027
1029
1034
1036
1043
1044
1045
1047
1051
1054
1054
1057
1057
1056
1057
1058
1056
1057
1054
1048
1049
1046
1044
1038
1032
1027
1024
1020
1016
1010
1004
998
995
993
992
988
983
978
980
978
975
973
972
971
972
971
970
969
968
968
969
970
970
967
969
968
969
969
970
969
967
968
971
975
975
975
975
973
973
974
978
976
978
974
978
978
981
980
979
974
978
982
983
980
980
978
979
985
985
983
980
977
979
980
978
977
976
975
975
977
977
976
971
973
971
973
974
970
967
969
967
971
969
965
964
962
967
967
967
966
964
961
963
963
966
963
963
960
960
961
964
962
961
959
961
963
963
964
963
963
964
968
969
974
976
974
974
978
978
978
980
981
983
985
984
984
984
985
986
986
983
981
975
972
973
976
976
977
977
973
972
970
970
966
962
962
960
960
960
958
955
954
950
955
954
953
953
951
950
954
953
951
951
948
952
955
953
950
953
950
951
951
946
932
919
913
921
935
953
981
1034
1104
1186
1258
1322
1370
1392
1386
1334
1238
1126
1028
965
937
932
934
943
961
977
975
970
965
965
964
961
958
957
957
955
950
951
949
948
949
949
949
947
943
946
947
949
947
947
944
948
948
949
948
948
948
951
951
955
952
952
951
950
955
956
954
956
953
957
959
963
962
961
962
966
970
972
972
971
974
980
982
986
988
989
989
995
999
1003
1009
1013
1014
1016
1022
1028
1030
1031
1033
1036
1041
1044
1047
1047
1048
1053
1054
1055
1057
1059
1057
1061
1060
1060
1060
1057
1054
1051
1050
1045
1040
1036
1028
1027
1023
1018
1014
1012
1004
1003
998
997
994
990
987
986
986
986
984
981
980
981
979
982
981
979
977
979
979
979
975
977
977
978
981
982
981
979
980
982
984
984
984
983
979
985
984
986
985
983
984
982
985
985
987
985
986
985
988
990
988
986
985
984
986
987
986
984
981
981
984
987
983
982
980
979
982
984
983
978
978
978
976
976
976
972
970
972
974
974
974
971
969
970
971
972
969
965
965
966
966
968
967
965
964
966
967
965
966
963
962
964
965
966
965
965
964
965
966
969
968
970
972
976
980
979
979
980
981
983
986
987
989
988
985
987
988
990
992
987
984
982
980
978
978
977
979
981
984
983
979
975
970
969
967
968
964
961
958
958
959
956
953
952
951
952
954
955
953
952
951
952
954
953
955
949
950
952
954
954
954
949
942
934
924
921
930
943
962
1001
1059
1131
1203
1267
1322
1365
1383
1375
1329
1245
1142
1048
981
942
924
923
934
956
974
977
970
965
959
960
960
960
956
955
949
949
949
950
949
946
944
943
944
946
946
942
942
945
945
946
946
944
940
943
946
946
946
945
943
948
948
951
948
947
945
948
952
952
952
952
953
954
956
958
958
957
958
961
965
968
968
967
969
973
978
980
984
986
987
991
997
1001
1005
1005
1006
1011
1015
1018
1021
1025
1027
1031
1035
1038
1042
1042
1043
1046
1048
1049
1050
1049
1049
1050
1051
1052
1048
1044
1041
1038
1037
1033
1027
1023
1015
1012
1008
1002
1000
993
989
988
985
984
981
977
973
975
976
973
973
968
969
968
971
971
971
967
967
966
969
967
966
965
964
966
970
970
971
970
968
973
974
977
974
973
973
976
980
980
978
977
976
977
979
979
979
977
977
977
980
977
979
977
975
976
977
979
976
975
971
974
973
974
973
971
969
970
970
971
969
967
966
965
967
967
966
963
964
962
963
961
963
960
957
960
962
962
961
957
955
957
960
962
958
957
954
956
959
960
956
958
954
957
960
962
962
963
965
969
974
972
973
971
969
971
978
980
979
977
975
980
981
981
981
976
974
972
969
969
966
965
968
971
972
