971
975
974
973
971
973
978
986
988
992
996
996
997
1001
1002
1001
1000
1000
998
997
993
989
985
979
976
966
958
951
949
949
950
952
951
950
946
949
951
952
952
950
951
951
957
958
959
958
956
959
959
962
961
957
957
958
959
969
984
1008
1038
1071
1102
1133
1169
1202
1232
1256
1267
1261
1233
1199
1169
1147
1131
1104
1076
1053
1038
1027
1016
998
983
971
959
950
940
932
928
923
922
921
922
923
921
920
917
918
923
926
926
926
923
925
923
927
925
925
923
925
928
929
929
926
927
927
928
929
927
929
928
927
928
929
929
926
924
929
931
932
931
930
927
930
933
935
935
933
931
932
936
938
937
938
940
941
943
945
947
947
949
952
956
959
962
962
965
971
975
977
978
980
982
988
993
997
997
995
1000
1004
1009
1011
1015
1016
1016
1020
1024
1023
1021
1019
1017
1015
1016
1014
1013
1013
1009
1007
1005
1004
1000
997
995
994
994
994
991
987
984
984
986
986
984
979
977
977
976
977
976
974
970
966
968
969
968
968
970
968
969
968
968
966
963
967
968
967
965
966
963
965
970
965
964
960
959
962
964
964
962
961
960
963
966
968
964
962
962
962
964
965
965
965
963
965
967
964
964
962
962
965
969
969
969
967
966
968
968
969
971
974
977
982
987
990
990
988
987
988
992
995
998
998
1000
1003
1007
1011
1012
1010
1008
1007
1011
1008
1005
1000
995
988
980
970
961
955
952
955
957
957
955
952
950
953
956
958
957
954
957
958
960
960
958
959
957
959
960
961
958
957
958
959
958
955
950
947
951
959
979
1001
1026
1057
1093
1136
1176
1213
1241
1260
1271
1267
1251
1227
1204
1181
1155
1127
1092
1071
1056
1047
1034
1018
1000
984
974
961
949
940
936
930
924
918
915
918
920
919
920
915
917
916
918
922
920
920
921
923
924
922
922
922
922
922
924
920
920
921
922
925
923
924
922
923
921
924
920
921
918
918
917
922
923
924
925
921
924
924
923
923
925
924
925
925
924
927
930
930
930
931
932
937
936
937
936
941
943
947
951
954
955
959
964
969
971
972
972
975
977
979
983
984
984
987
990
989
990
988
986
985
987
984
983
983
983
983
983
981
978
975
972
975
976
975
973
971
971
970
969
971
973
970
968
969
971
969
968
965
965
966
967
966
965
964
966
967
966
968
966
965
963
965
966
967
967
967
964
967
968
967
966
966
967
969
969
966
966
967
965
969
969
968
967
967
964
962
963
966
966
968
964
966
967
965
965
963
962
965
966
966
966
964
965
968
969
970
966
967
969
971
975
977
982
986
989
991
988
985
983
984
990
995
1002
1003
1003
1006
1007
1012
1014
1011
1007
1004
1002
1004
1003
997
986
974
965
959
960
959
957
957
954
954
955
957
957
957
956
958
960
960
963
961
960
963
963
965
963
963
964
968
969
967
962
961
960
971
989
1022
1058
1095
1134
1177
1216
1248
1268
1277
1275
1254
1226
1194
1168
1144
1114
1080
1059
1043
1026
1008
986
973
966
955
946
937
933
931
931
928
924
921
921
922
924
923
925
925
924
927
931
932
929
929
927
929
929
930
930
926
926
927
931
928
926
927
927
927
930
929
928
927
925
925
925
929
925
924
924
925
926
928
929
929
927
929
930
931
934
934
935
936
939
941
942
945
945
951
952
954
956
958
960
966
972
975
977
981
982
986
987
990
993
994
993
993
996
994
994
993
993
993
994
992
989
987
984
986
986
985
981
977
977
981
980
982
980
979
974
974
977
977
976
972
971
972
975
975
975
971
970
971
972
972
970
970
971
972
974
972
970
966
965
969
971
972
971
969
968
971
972
972
969
970
967
967
970
967
968
968
969
970
972
969
969
967
967
969
974
974
974
973
968
972
975
972
971
969
970
971
971
973
974
972
972
972
975
974
973
977
981
987
993
993
994
990
987
990
995
1001
1003
1003
1006
1010
1015
1016
1014
1017
1011
1007
1007
1009
1007
1003
999
991
984
973
965
959
955
958
957
959
958
957
956
959
959
962
961
956
958
960
960
961
964
963
963
965
966
966
968
966
962
964
963
962
963
972
986
1013
1047
1081
1116
1150
1182
1217
1244
1263
1275
1276
1257
1230
1204
1183
1159
1128
1093
1072
1059
1050
1031
1011
995
984
973
961
950
939
933
933
931
927
925
921
922
921
923
926
922
923
920
925
929
930
930
929
926
927
931
931
931
927
927
930
931
929
929
929
929
931
931
931
930
925
927
929
931
932
930
927
926
929
931
931
930
930
929
930
932
935
935
934
934
937
939
943
944
946
946
952
956
958
960
962
965
969
974
975
977
976
976
982
987
990
987
989
990
994
995
994
992
992
988
989
989
985
982
980
980
982
983
981
979
977
972
974
976
975
974
971
969
971
972
974
973
971
969
970
969
971
968
966
966
968
968
968
967
966
963
964
968
967
966
965
967
968
970
970
969
966
967
967
970
971
970
966
966
967
969
969
966
967
962
963
969
967
969
967
965
966
966
968
968
968
968
967
970
967
969
965
965
969
970
971
970
969
975
979
985
989
992
992
986
987
989
994
999
998
1000
1003
1009
1014
1017
1014
1012
1012
1011
1011
1006
1003
997
990
979
966
959
956
953
954
957
958
956
953
952
956
960
960
959
956
957
958
961
963
964
961
961
966
968
966
965
964
963
965
962
960
961
971
989
1020
1055
1095
1136
1177
1211
1243
1265
1281
1278
1256
1226
1203
1182
1160
1128
1095
1072
1060
1044
1027
1006
988
971
960
953
944
940
935
931
926
927
925
925
924
921
920
923
925
928
927
927
930
931
929
930
928
928
931
933
932
931
930
930
931
934
932
934
933
932
932
934
932
934
930
932
934
936
938
935
934
933
936
937
938
935
935
935
938
940
941
943
944
946
951
954
956
956
961
962
967
972
975
976
974
980
986
988
993
996
995
996
999
1000
1000
1002
1000
998
999
1001
1000
1000
994
992
990
989
991
986
985
982
982
982
980
981
978
977
978
978
979
980
977
976
977
977
975
974
971
972
973
973
972
969
970
970
967
970
970
969
968
968
969
970
971
972
969
970
970
968
969
972
971
968
970
971
971
971
970
969
969
973
973
971
969
972
969
973
972
972
970
971
969
971
973
973
972
971
972
971
972
971
970
973
974
977
974
976
978
982
989
994
995
992
990
988
991
998
1001
1005
1005
1009
1010
1016
1015
1016
1011
1008
1007
1009
1006
1002
989
977
967
961
959
957
957
953
955
956
957
956
955
954
958
960
962
961
957
958
959
963
962
959
961
963
965
968
963
962
960
957
962
970
987
1012
1044
1082
1129
1171
1209
1242
1266
1273
1266
1245
1221
1194
1174
1147
1121
1096
1075
1061
1043
1024
1006
992
977
964
949
940
935
933
930
923
920
917
919
920
922
920
920
921
922
924
924
924
924
924
926
927
929
928
927
926
927
928
928
929
929
926
927
929
928
926
924
924
923
926
927
926
924
922
926
931
932
930
927
926
926
929
929
930
931
933
935
940
942
942
946
947
948
953
953
955
957
956
962
967
971
971
974
977
982
987
989
990
992
991
995
997
993
992
988
992
992
990
988
984
981
980
981
981
981
977
975
971
971
973
971
970
967
966
968
969
969
966
963
964
962
966
963
960
961
959
961
960
963
961
958
957
958
960
961
960
958
956
960
962
961
960
959
958
962
961
961
959
959
960
960
960
962
959
961
962
963
963
961
959
957
958
958
964
965
963
961
961
963
963
964
960
960
958
962
965
967
965
965
964
963
970
972
977
978
978
983
979
980
981
986
990
994
998
1001
1003
1003
1005
1008
1008
1003
1001
997
996
994
992
979
966
955
950
952
953
950
946
947
948
951
952
951
953
951
950
954
957
956
954
952
954
956
959
961
960
960
956
955
956
953
958
966
987
1021
1063
1108
1153
1192
1225
1256
1272
1273
1255
1227
1201
1181
1165
1133
1099
1068
1047
1035
1018
997
979
965
951
945
936
929
923
920
915
919
920
920
917
912
909
914
918
919
919
917
918
922
923
924
920
917
918
919
921
924
923
921
919
920
923
923
922
920
919
920
921
924
923
921
921
924
926
929
924
923
922
926
928
931
929
928
928
934
936
941
937
938
937
945
947
952
953
953
956
961
964
969
973
973
974
980
983
986
989
989
988
992
992
990
989
986
983
984
985
985
983
980
975
978
979
978
977
972
969
971
969
971
968
966
967
966
965
968
967
966
963
966
967
967
965
961
959
964
966
966
963
961
958
961
961
962
961
960
961
962
965
967
966
962
962
960
960
965
963
962
961
963
965
965
964
964
961
965
963
965
963
962
963
965
966
966
964
962
962
963
968
967
964
965
963
962
965
967
965
965
967
969
973
978
983
984
982
983
983
982
984
987
993
1000
1001
1001
1004
1004
1008
1012
1011
1010
1004
999
996
998
997
989
976
965
957
956
956
955
953
950
948
950
955
955
955
952
948
954
958
958
957
957
953
955
959
961
959
960
960
961
962
959
955
958
963
977
1005
1040
1076
1117
1158
1199
1231
1256
1268
1269
1248
1220
1196
1176
1157
1130
1095
1070
1054
1040
1021
1001
983
971
962
950
940
931
928
922
924
922
920
918
917
919
918
918
918
917
918
918
924
923
921
923
924
922
925
925
926
926
923
925
925
924
925
923
925
924
927
925
924
922
923
925
926
929
928
927
924
925
928
929
928
927
925
927
930
931
932
930
932
937
940
943
944
943
946
950
952
957
959
961
963
970
975
974
977
978
980
984
988
992
992
989
989
990
993
990
988
984
980
983
982
979
979
975
973
972
972
971
974
972
970
970
970
968
967
965
963
966
967
966
966
963
961
963
965
963
962
962
960
962
959
960
961
959
956
962
963
964
961
958
957
960
962
963
958
958
958
961
963
963
962
959
960
962
963
962
958
959
956
957
961
962
961
961
959
959
962
962
962
960
960
962
961
964
963
961
965
969
978
984
984
983
978
982
989
991
995
996
995
999
1002
1003
1003
1002
998
999
999
996
988
980
967
958
954
950
948
946
946
947
949
950
948
945
949
950
950
951
950
949
949
951
952
954
954
952
950
953
956
958
958
952
948
947
954
959
973
996
1026
1065
1105
1148
1188
1219
1245
1264
1268
1250
1218
1186
1165
1146
1125
1095
1069
1054
1046
1032
1013
995
980
967
952
940
934
927
922
915
912
912
913
913
912
910
912
913
915
915
915
914
910
913
915
917
914
913
916
915
918
920
919
917
914
918
921
921
919
917
916
916
917
916
916
916
916
919
920
918
915
916
918
919
920
920
920
918
918
922
923
925
924
926
928
935
938
936
938
939
941
946
951
952
956
956
958
962
968
969
969
970
974
978
982
984
982
984
984
983
986
986
981
981
980
978
979
976
974
972
970
969
970
969
966
964
964
963
965
965
963
962
961
961
963
965
964
960
958
959
960
958
959
957
956
956
959
960
957
954
952
955
956
956
955
954
953
955
957
956
956
956
955
956
959
958
956
957
957
956
956
958
957
956
955
956
959
956
956
956
955
960
961
960
958
954
955
956
957
957
958
955
956
957
960
960
960
963
965
969
977
979
978
978
978
979
983
986
990
992
991
995
998
1001
1002
998
996
998
998
999
997
992
986
977
969
957
949
946
944
945
947
946
946
944
943
943
945
948
943
943
942
944
948
950
952
952
948
950
951
955
956
954
950
952
951
951
953
961
977
1004
1033
1066
1102
1132
1166
1199
1226
1246
1260
1260
1242
1214
1190
1164
1138
1107
1080
1062
1050
1037
1020
1002
987
978
969
959
946
934
928
926
922
916
912
907
904
905
910
911
912
909
907
908
912
913
913
911
908
913
918
916
912
915
914
917
917
917
914
915
913
914
915
915
916
912
912
914
915
913
913
911
909
911
914
913
913
911
912
913
916
918
919
918
917
922
925
927
928
927
926
930
934
935
935
938
939
944
946
948
952
954
954
959
963
964
968
968
971
973
976
978
979
978
977
979
978
977
973
970
969
973
973
971
968
963
963
962
964
963
962
958
954
956
957
956
957
953
952
951
955
953
950
949
948
949
952
950
949
947
949
948
947
945
947
947
943
946
944
946
944
944
941
946
946
946
944
942
941
945
944
946
944
943
943
946
945
944
943
944
944
945
947
945
946
943
943
944
946
948
947
944
942
943
946
946
944
942
940
942
944
946
945
944
943
947
950
953
957
957
960
963
969
969
964
962
964
971
975
979
980
981
982
985
990
991
987
986
985
984
987
985
976
967
957
949
943
941
938
936
934
935
936
937
936
936
934
937
938
940
942
938
937
942
944
944
945
946
943
945
947
950
949
944
940
942
948
962
981
1008
1038
1074
1109
1150
1187
1215
1240
1256
1259
1241
1214
1187
1162
1137
1108
1075
1051
1035
1022
1006
990
974
961
950
941
930
924
919
914
910
907
907
908
908
906
905
904
905
905
907
909
906
904
907
909
911
911
909
909
911
913
912
913
909
909
911
914
914
912
908
907
908
910
914
910
912
911
913
915
911
912
910
910
910
913
913
912
911
911
914
917
919
920
916
919
924
927
930
929
931
932
938
940
945
946
947
950
955
960
963
964
967
970
973
974
974
974
978
980
981
983
980
977
975
972
975
976
974
969
966
965
966
967
966
965
961
958
959
961
960
959
958
957
957
957
958
955
954
953
954
958
956
955
953
949
956
956
956
954
953
949
952
952
953
956
953
952
953
954
953
954
952
949
952
950
952
951
951
953
954
957
957
954
952
953
955
955
953
949
952
949
950
954
954
952
953
951
951
954
955
957
952
950
953
955
957
954
952
952
955
955
958
956
956
957
958
961
963
965
967
970
973
976
978
975
975
976
982
986
989
987
988
990
997
999
999
999
993
996
995
995
994
991
983
976
968
961
952
947
944
943
947
948
946
947
947
944
946
949
950
949
949
946
951
952
949
951
950
952
955
957
956
954
955
953
955
954
951
947
951
960
983
1011
1045
1078
1106
1144
1180
1215
1237
1252
1259
1253
1229
1202
1177
1157
1130
1098
1072
1055
1042
1024
1006
990
977
968
956
944
934
928
925
927
924
922
921
919
915
918
917
918
917
917
916
922
923
922
923
925
924
926
924
922
924
923
924
926
927
926
924
923
926
926
925
922
923
923
924
926
926
923
923
921
924
928
926
925
926
926
926
927
928
928
930
929
931
935
936
937
940
942
944
947
949
951
953
955
961
965
965
968
971
974
978
984
986
988
989
989
991
993
996
993
990
987
987
988
988
985
981
978
979
982
979
977
973
971
974
976
973
969
969
966
971
972
971
967
967
968
967
968
970
967
966
965
964
969
967
966
965
963
965
967
965
965
963
961
963
965
965
965
963
961
963
962
961
960
961
962
963
965
965
963
963
962
961
964
966
964
963
963
961
966
966
964
962
962
962
966
965
968
963
962
963
967
964
963
965
964
965
967
965
965
966
967
974
980
982
985
983
982
981
984
987
988
991
994
998
1005
1002
1004
1003
1005
1008
1005
1003
1002
999
996
994
986
973
964
956
953
950
951
950
950
949
949
947
951
951
951
950
950
954
955
954
956
953
953
954
959
960
957
956
956
958
959
958
954
954
957
967
987
1012
1044
1080
1120
1160
1197
1228
1252
1266
1272
1261
1238
1213
1191
1166
1145
1116
1089
1069
1054
1038
1021
1004
993
978
962
950
938
935
932
927
925
921
915
918
918
918
918
915
915
917
918
920
919
919
919
921
922
921
922
921
920
920
921
923
920
917
918
922
925
924
923
921
921
922
924
923
924
917
916
920
923
923
924
923
924
925
927
928
927
928
929
931
935
938
943
941
942
947
950
951
954
956
958
961
966
968
971
975
975
984
987
986
987
987
991
992
993
994
993
990
989
988
989
986
985
978
976
978
981
980
976
975
972
972
972
972
968
967
966
967
968
966
968
967
965
966
968
965
966
965
962
965
965
962
961
958
960
962
967
966
965
962
960
963
965
964
965
964
963
966
966
965
964
963
963
965
967
967
967
964
961
961
962
967
966
965
965
966
968
969
967
963
964
964
967
968
965
967
965
966
968
968
970
974
977
980
987
989
990
985
985
991
997
1001
1006
1005
1002
1007
1011
1013
1009
1005
1005
1005
1006
1007
1000
993
978
967
963
958
957
953
953
955
956
955
955
953
953
952
956
958
958
957
955
959
964
962
963
961
960
963
965
965
962
961
961
960
965
971
987
1016
1049
1092
1132
1172
1210
1241
1265
1281
1278
1256
1225
1198
1175
1153
1125
1098
1076
1063
1049
1032
1013
996
981
967
950
945
940
935
932
927
922
924
924
922
921
919
919
923
924
924
923
925
924
927
929
928
927
927
922
927
929
932
930
929
929
929
934
931
928
927
928
928
929
926
929
928
927
931
933
930
932
931
931
933
935
934
933
933
936
940
943
945
944
946
950
955
955
959
961
965
966
975
982
983
983
980
985
989
994
996
992
992
994
996
998
998
994
995
992
991
991
990
988
985
982
983
983
980
978
975
973
974
977
976
973
972
970
971
975
973
971
970
969
972
971
969
967
967
968
971
971
970
968
966
967
969
