968
968
966
966
965
965
964
964
967
966
962
960
962
961
964
965
958
959
958
958
961
959
955
955
952
956
957
958
959
957
954
958
959
960
958
954
953
955
954
959
960
961
957
955
956
957
959
957
954
955
956
956
960
959
957
954
956
957
959
959
958
954
956
958
961
964
963
961
966
970
972
976
980
981
983
983
986
988
988
992
993
997
1000
999
999
998
1000
1001
1000
993
988
982
975
964
958
952
944
942
942
946
947
945
944
946
949
946
949
949
946
946
949
951
951
951
947
950
955
957
955
951
948
948
945
951
954
971
993
1030
1066
1110
1155
1196
1226
1252
1270
1271
1254
1230
1204
1182
1159
1125
1094
1069
1055
1044
1027
1005
987
974
956
942
931
927
923
919
912
911
911
913
912
910
909
910
909
909
914
916
915
914
915
917
918
920
922
920
918
919
920
917
916
917
917
919
921
917
917
920
923
922
917
917
914
916
917
918
920
920
920
921
920
922
923
921
919
921
924
930
927
927
928
932
939
943
945
946
946
951
953
957
960
962
966
968
973
980
982
982
980
981
985
988
988
987
986
984
985
984
981
978
978
975
975
975
972
972
969
970
969
968
967
965
963
965
967
969
967
964
960
962
963
967
965
961
959
959
959
962
961
961
958
960
959
960
960
962
960
961
960
964
966
966
962
961
960
961
959
960
959
961
963
962
962
962
962
960
963
965
965
965
962
964
965
966
967
968
965
968
968
966
965
962
964
968
969
969
968
967
967
971
978
983
985
987
986
984
986
992
994
997
999
1002
1005
1012
1011
1012
1009
1009
1007
1006
1004
1000
994
981
972
965
961
956
952
951
954
958
959
954
952
953
957
959
958
959
956
955
957
964
963
961
959
960
964
966
964
962
958
955
959
965
979
1004
1036
1076
1119
1161
1198
1231
1261
1278
1282
1269
1250
1226
1204
1182
1152
1119
1090
1072
1050
1027
1011
995
978
963
946
937
934
933
927
923
918
919
920
922
922
919
918
920
924
926
924
923
921
926
926
928
931
929
930
930
929
930
928
925
923
924
928
931
930
928
924
923
923
923
922
922
920
922
926
927
927
927
929
930
930
931
931
930
933
935
940
942
947
950
951
953
955
956
963
965
965
969
973
975
979
981
983
989
994
997
994
995
991
993
995
997
994
991
987
988
986
985
986
983
983
982
982
981
977
973
974
976
978
978
976
972
969
968
972
974
974
968
968
967
972
970
972
968
966
964
966
967
965
963
961
961
966
970
968
965
962
963
965
967
967
965
964
965
964
967
967
965
964
964
969
967
965
966
965
966
966
966
968
968
968
970
972
974
977
971
969
971
975
976
977
973
970
971
973
973
971
972
971
974
976
982
984
985
984
986
988
991
991
992
992
997
1002
1007
1009
1009
1010
1011
1013
1011
1007
1004
1004
1001
1000
995
983
972
963
962
959
960
959
957
957
958
960
960
961
962
961
961
964
964
965
963
961
960
961
964
965
966
967
968
969
968
967
964
961
965
980
1009
1040
1072
1111
1154
1193
1229
1254
1272
1276
1262
1243
1223
1202
1184
1155
1119
1086
1069
1059
1039
1015
994
981
969
958
944
936
934
932
931
929
925
921
921
923
925
924
927
926
925
929
932
935
935
931
929
930
932
931
931
927
930
933
932
933
931
928
929
933
937
939
935
934
934
935
936
936
931
928
930
933
938
937
933
934
932
934
937
938
936
937
937
941
944
944
942
943
946
946
952
953
954
954
957
962
967
967
966
968
972
978
984
987
986
985
984
991
995
994
992
987
987
992
998
999
994
988
988
987
990
988
985
979
980
978
980
978
977
976
974
978
978
975
974
969
971
970
971
972
972
970
968
969
970
969
969
965
967
968
968
965
966
965
966
971
975
975
970
970
972
973
974
970
967
965
965
970
973
972
969
967
968
968
971
971
970
968
969
970
970
970
969
969
968
969
970
971
970
972
973
973
975
972
972
971
976
975
978
978
981
978
979
982
985
985
986
987
990
992
998
1001
1002
996
995
999
1003
1007
1010
1010
1014
1016
1019
1022
1020
1019
1019
1019
1020
1015
1013
1010
1008
1005
995
986
974
968
964
964
966
966
965
964
966
964
967
964
967
963
962
965
966
969
969
970
970
974
973
975
973
972
976
977
979
978
974
967
966
971
984
1001
1028
1053
1087
1123
1165
1204
1233
1250
1269
1280
1282
1269
1242
1216
1198
1179
1157
1126
1095
1074
1059
1043
1022
1006
990
977
967
961
953
944
938
932
927
930
931
930
930
929
930
929
932
927
925
923
922
928
933
931
926
926
929
928
931
931
927
928
929
929
931
932
932
927
926
927
928
930
928
929
928
931
931
927
925
927
929
928
933
932
931
931
933
935
936
938
937
938
942
944
945
949
950
949
953
956
963
965
963
963
964
971
978
982
985
984
986
992
997
1000
1002
1002
1001
1002
1001
1003
1002
1000
998
996
995
996
996
995
990
992
994
994
990
988
987
989
990
988
984
980
983
984
985
982
981
979
978
980
981
980
977
974
972
977
978
976
975
970
972
971
972
972
971
969
971
975
975
973
968
969
969
972
974
974
975
971
973
972
974
968
969
966
967
970
970
972
971
971
972
973
976
975
975
973
973
975
977
977
974
970
969
969
971
973
973
972
973
973
974
972
976
980
990
991
996
997
995
988
990
996
1003
1007
1007
1005
1006
1007
1014
1016
1014
1008
1004
1006
1008
1008
1002
992
985
977
969
961
955
954
955
954
956
955
955
953
952
958
960
960
959
958
958
960
961
962
960
960
962
963
962
964
963
964
962
960
960
956
957
964
985
1016
1049
1084
1119
1154
1190
1217
1241
1261
1278
1277
1260
1236
1214
1188
1161
1131
1101
1084
1069
1054
1034
1014
999
987
978
964
954
942
941
938
935
929
925
919
919
922
925
926
924
919
918
922
925
925
927
924
928
929
932
930
928
923
925
928
930
931
930
928
929
931
933
933
927
923
925
929
933
933
928
922
923
925
930
929
928
925
924
926
928
929
931
929
927
931
934
933
934
935
938
941
943
945
945
945
945
951
957
961
962
961
964
968
973
979
981
981
983
984
987
988
990
990
990
990
991
992
993
990
987
988
988
986
985
979
980
982
980
980
977
972
972
975
975
973
971
971
972
971
972
970
968
964
965
965
969
969
966
966
968
965
964
961
963
963
962
963
963
962
961
960
963
964
965
968
965
963
969
967
968
968
963
959
961
963
971
971
968
967
970
971
970
969
965
963
965
968
971
973
972
968
966
969
970
965
968
968
970
973
971
970
968
967
972
976
978
981
980
981
985
992
994
994
988
987
990
998
1002
1003
1007
1006
1008
1013
1013
1014
1012
1008
1004
1003
1005
1004
999
991
983
972
966
956
950
947
950
949
949
948
945
944
947
951
952
952
951
949
950
951
954
953
953
953
954
956
959
958
956
951
948
948
950
951
959
977
1010
1045
1084
1126
1165
1199
1228
1253
1276
1282
1272
1247
1220
1196
1167
1131
1098
1072
1061
1051
1033
1007
991
977
967
952
943
936
927
921
916
913
912
914
911
909
911
913
916
918
916
914
914
916
916
914
916
915
919
923
923
924
923
920
919
915
917
918
915
917
917
921
921
919
919
914
914
917
919
917
914
913
915
918
920
919
918
918
923
924
924
928
929
930
931
931
934
939
940
941
941
945
950
951
952
953
957
965
970
971
966
968
970
979
985
986
983
977
979
978
980
983
981
977
976
980
979
974
970
966
965
967
968
967
966
964
958
959
960
961
960
958
956
958
958
958
959
953
955
956
960
957
955
951
949
951
956
958
958
955
954
954
951
954
954
951
952
953
955
955
953
954
958
958
960
958
957
955
956
959
962
961
959
958
958
959
960
963
960
957
957
962
963
963
960
957
955
959
960
962
961
961
960
961
961
962
960
961
961
964
966
966
966
967
969
975
980
982
982
977
976
977
982
983
988
991
994
998
1008
1010
1009
1008
1006
1009
1009
1007
1005
1000
997
991
984
977
965
955
953
957
955
956
956
953
951
953
955
956
956
956
956
956
960
960
958
956
961
961
961
960
961
960
963
961
960
956
954
958
973
995
1022
1053
1086
1123
1165
1204
1236
1259
1271
1271
1260
1238
1215
1193
1168
1136
1101
1079
1061
1044
1022
1001
985
972
962
951
942
938
934
931
929
924
918
918
919
924
924
925
922
920
919
924
928
930
927
926
926
926
928
927
927
929
928
930
928
930
930
927
927
930
929
930
930
928
930
932
932
931
929
926
928
931
931
933
931
930
930
933
937
939
939
938
939
943
948
950
952
953
952
955
959
965
968
969
971
976
983
983
985
988
994
995
996
998
1000
1001
1002
1002
1004
1003
1001
1000
1000
1000
1001
998
997
994
995
994
995
992
989
987
988
991
993
990
988
986
983
985
985
985
986
983
985
987
987
988
985
980
983
984
983
983
986
982
982
985
986
984
983
980
983
984
987
985
983
979
982
983
987
985
985
980
980
983
984
983
985
984
984
982
983
983
982
981
983
985
988
987
982
978
981
984
984
984
982
980
981
982
987
988
985
982
982
987
990
995
997
998
1002
1002
1005
1003
999
998
1004
1012
1018
1019
1019
1017
1021
1026
1029
1024
1022
1017
1018
1020
1017
1010
999
986
976
973
974
973
970
964
966
969
968
969
971
969
968
969
971
972
971
971
970
970
971
973
976
977
976
975
976
974
977
971
968
968
975
991
1017
1048
1088
1132
1175
1216
1246
1268
1285
1291
1277
1251
1224
1202
1178
1152
1121
1094
1072
1052
1030
1013
1001
988
974
960
950
945
947
941
934
931
932
933
932
931
931
935
933
935
935
934
935
934
934
934
939
936
934
933
934
937
940
941
937
932
934
937
940
941
939
937
938
939
938
936
935
934
937
940
939
940
938
935
938
940
944
942
945
942
946
952
957
957
955
953
959
963
969
970
968
968
974
979
984
985
986
985
988
989
993
995
995
992
993
995
995
990
989
987
992
989
990
985
985
985
983
985
985
984
981
980
983
984
985
981
977
974
976
979
979
979
974
972
969
970
971
972
969
970
969
968
973
973
971
972
970
973
973
976
973
973
973
974
973
973
974
972
973
975
976
977
974
973
976
978
979
978
978
974
976
975
979
978
979
975
975
978
979
977
976
974
973
975
978
978
977
973
975
979
984
987
994
1000
1005
1007
1003
1001
997
1003
1008
1013
1014
1014
1016
1015
1020
1019
1020
1018
1012
1007
1004
1004
1002
992
979
967
963
961
963
963
960
958
958
959
960
961
960
960
960
963
962
963
962
962
962
965
964
966
967
964
966
968
968
965
961
958
959
967
983
1006
1032
1065
1105
1146
1188
1223
1251
1267
1283
1284
1268
1242
1215
1192
1165
1133
1105
1082
1068
1048
1027
1011
996
983
968
952
946
942
940
936
930
922
921
924
926
927
923
921
924
927
931
927
925
923
927
929
931
929
929
925
928
930
932
933
930
929
929
931
932
931
931
928
927
931
932
931
931
930
927
930
929
930
930
928
932
934
936
935
935
936
939
945
946
950
948
949
956
959
961
960
962
963
967
971
976
979
981
984
991
994
998
998
998
994
996
998
1001
999
998
995
993
993
993
990
989
987
983
984
983
984
980
978
976
978
978
977
976
974
975
975
972
975
974
973
972
974
975
973
973
969
970
971
969
969
969
967
969
972
971
969
970
969
971
973
972
971
969
967
966
969
974
973
971
967
968
968
973
970
970
965
966
971
971
972
969
967
969
969
970
971
970
968
965
966
972
971
973
970
970
970
971
972
974
975
978
983
988
991
994
994
993
992
994
998
998
998
1003
1008
1012
1013
1014
1010
1010
1012
1015
1011
1005
1000
994
986
978
967
960
956
955
954
953
952
952
953
957
958
960
960
960
956
955
961
964
960
960
960
961
965
967
967
963
960
960
961
959
956
963
977
1007
1042
1078
1113
1147
1180
1213
1240
1262
1277
1277
1259
1237
1213
1192
1162
1127
1094
1075
1062
1048
1028
1007
991
979
967
954
942
935
930
928
926
921
914
911
908
912
916
919
920
918
917
919
921
924
924
924
920
920
922
924
926
923
920
921
921
926
926
926
924
924
921
925
925
925
924
924
925
927
925
923
919
922
924
929
927
927
926
931
931
934
935
935
932
935
941
943
946
947
945
948
952
956
960
964
964
969
973
977
978
982
983
986
990
993
993
995
991
989
990
991
994
991
987
985
986
982
981
979
976
974
975
974
973
972
969
971
973
974
972
967
964
965
968
970
965
962
960
960
962
964
964
962
960
962
963
963
962
963
961
961
962
966
966
963
961
963
963
963
962
962
961
962
963
965
964
964
961
964
965
966
967
964
961
967
968
970
970
966
963
964
968
970
967
964
963
967
970
970
969
965
962
966
968
972
972
975
976
981
986
988
988
987
984
990
997
1003
1006
1003
1004
1008
1013
1018
1018
1013
1006
1005
1006
1003
999
988
977
966
960
960
961
956
954
956
959
958
956
958
957
957
960
962
963
961
959
959
965
966
968
965
964
965
968
969
967
962
957
961
975
997
1026
1061
1096
1135
1180
1218
1253
1274
1282
1273
1251
1226
1201
1178
1151
1115
1081
1060
1046
1028
1006
991
976
966
954
945
940
936
933
933
931
929
923
923
927
929
929
927
926
929
931
935
934
934
932
933
934
935
933
930
929
930
932
934
935
932
933
933
933
934
935
932
933
930
933
935
937
937
934
933
932
934
936
938
934
937
940
943
943
944
944
945
949
952
956
958
962
961
962
967
970
971
972
973
979
984
985
985
987
992
996
1000
998
999
997
998
999
997
995
995
994
994
992
991
990
986
981
982
983
985
983
982
979
981
983
982
980
978
977
978
979
981
980
980
975
975
977
979
980
978
975
977
978
979
980
979
977
979
981
978
977
977
975
974
975
977
977
975
974
975
976
979
980
979
973
977
977
981
979
978
975
975
980
981
981
980
977
979
979
980
979
979
980
983
983
984
983
982
982
982
985
986
986
983
982
983
986
988
993
993
995
999
1006
1010
1011
1007
1002
1004
1007
1014
1016
1018
1019
1023
1027
1033
1034
1033
1029
1030
1028
1026
1027
1023
1014
1006
998
988
981
975
971
972
970
971
970
968
967
969
971
976
977
973
972
973
977
977
977
976
976
976
975
979
978
979
977
979
974
975
974
981
997
1029
1061
1101
1141
1183
1218
1252
1275
1287
1284
1262
1230
1203
1185
1165
1134
1101
1078
1062
1048
1028
1008
994
980
971
962
954
951
948
942
940
937
936
940
939
937
937
942
943
941
940
941
941
940
942
945
943
942
943
944
944
942
939
939
942
944
944
941
940
939
942
941
943
941
941
937
938
939
942
941
943
938
939
941
946
942
942
942
943
947
949
950
952
950
951
953
957
959
961
961
964
966
971
971
976
976
981
986
991
993
995
993
999
1000
1006
1005
1003
1002
1004
1005
1005
1004
1004
1001
999
1000
1000
997
996
995
993
994
993
991
992
988
987
984
986
985
983
982
984
985
987
986
984
982
984
984
985
983
980
978
980
982
984
982
981
978
982
984
981
981
981
981
982
983
984
983
983
982
981
981
981
982
981
978
980
982
984
980
977
973
978
981
982
981
980
977
979
981
983
981
980
977
978
981
983
982
981
980
980
982
983
982
981
978
979
981
985
992
999
1004
1004
1005
1004
1004
1006
1008
1012
1013
1015
1017
1018
1015
1024
1029
1027
1023
1018
1015
1016
1013
1014
1002
993
978
971
969
970
967
964
960
962
962
965
965
965
962
962
965
964
963
965
966
969
972
974
975
972
971
974
974
975
974
974
969
966
965
974
989
1011
1040
1077
1118
1163
1201
1233
1255
1274
1292
1292
1273
1243
1217
1198
1184
1163
1135
1103
1082
1070
1058
1043
1022
1003
989
977
967
959
949
943
941
937
937
938
937
935
931
932
935
936
936
935
935
935
936
935
935
935
934
936
937
939
937
936
934
936
938
938
936
935
932
933
938
940
938
935
934
935
935
938
936
936
935
933
934
936
939
937
936
934
939
941
941
942
940
945
944
948
948
952
950
954
957
959
960
961
965
967
971
976
979
980
979
985
990
995
996
996
993
995
997
1003
999
1001
997
997
996
997
994
993
990
991
989
989
988
987
984
983
984
982
981
982
980
982
982
981
980
978
977
976
976
979
978
976
975
976
976
975
975
974
968
969
974
975
972
971
969
971
975
975
976
972
971
970
971
975
976
973
972
971
974
975
974
976
974
972
974
976
975
974
972
971
972
974
973
970
969
971
973
974
971
970
969
971
975
974
974
970
968
969
970
973
971
972
969
973
976
978
982
983
990
992
998
998
995
993
995
1001
1007
1008
1008
1009
1008
1011
1017
1020
1021
1017
1012
1010
1010
1010
1004
996
984
973
967
961
963
960
957
958
961
961
960
960
957
959
961
964
961
960
959
960
964
964
965
964
965
966
969
971
971
967
965
960
960
961
966
971
985
1008
1044
1083
1125
1167
1205
1237
1263
1278
1276
1257
1229
1203
1185
1167
1139
1105
1081
1069
1063
1049
1030
1009
993
985
975
965
954
944
940
935
935
934
935
933
931
930
933
934
933
933
931
931
936
937
937
937
935
936
940
939
940
938
935
936
940
941
942
941
937
937
940
939
940
937
935
939
940
939
939
936
936
938
941
942
940
938
