953
954
951
949
949
952
954
951
949
945
948
950
951
955
952
949
946
948
951
952
952
954
954
952
953
952
955
953
953
953
954
954
953
948
951
951
953
954
954
953
950
951
949
947
946
943
942
943
944
943
944
942
941
943
944
947
953
957
961
960
960
955
956
964
969
978
984
988
989
989
991
991
994
993
989
988
983
983
976
965
952
944
939
940
943
940
937
935
933
933
934
935
937
939
941
940
943
937
938
937
939
943
946
947
946
943
943
941
945
946
954
971
1000
1042
1081
1125
1167
1202
1231
1252
1253
1235
1206
1179
1160
1143
1119
1086
1052
1033
1017
1006
990
974
959
946
936
935
931
928
920
914
908
911
915
914
913
911
911
913
917
918
918
917
915
921
922
923
922
919
919
918
922
922
922
921
922
924
925
922
918
918
919
923
925
925
926
924
925
927
926
928
928
928
931
937
943
942
942
938
939
943
951
957
955
954
954
958
962
965
966
968
966
970
978
980
980
979
979
984
985
989
989
989
986
988
990
989
987
983
982
984
989
987
984
981
979
978
978
979
977
977
976
976
978
977
974
973
971
975
977
975
975
974
973
974
974
973
974
971
971
973
974
977
977
974
972
973
975
973
971
972
972
972
974
976
975
971
969
971
972
971
972
967
963
962
967
967
966
965
962
962
967
970
966
964
962
964
966
966
964
963
962
963
966
966
968
968
968
971
971
970
968
971
973
979
981
983
986
989
992
992
994
992
993
997
1001
1008
1011
1012
1016
1019
1019
1019
1016
1013
1009
1006
1005
1003
998
988
974
965
958
960
960
959
954
953
949
954
960
958
962
959
959
963
965
964
966
967
965
968
971
972
971
971
969
969
971
968
967
969
978
998
1026
1056
1081
1111
1146
1187
1221
1247
1266
1271
1260
1234
1207
1185
1163
1137
1108
1081
1068
1055
1038
1018
1003
996
987
976
961
946
942
938
936
932
929
927
925
925
927
928
928
929
929
932
931
929
932
930
930
932
932
932
931
928
930
933
933
933
932
931
930
934
937
934
934
932
932
933
934
933
933
931
928
932
933
933
933
930
928
931
935
937
940
941
938
938
941
946
948
954
954
957
959
962
965
967
970
974
978
980
979
983
988
994
999
1000
1002
1002
1003
1005
1006
1004
1001
1000
995
995
997
995
997
994
992
992
991
989
986
983
982
984
985
985
984
980
980
982
984
981
976
975
975
975
976
974
977
972
969
971
972
970
965
965
970
970
971
971
969
967
964
966
969
969
970
968
967
966
969
969
969
967
965
967
971
969
969
966
966
969
967
971
970
969
967
968
970
968
967
966
966
965
968
968
970
968
966
965
963
964
964
966
966
970
978
979
980
976
976
981
989
993
994
994
993
996
999
1005
1006
1007
1004
1004
1001
1001
999
998
989
982
974
967
962
957
952
953
953
954
949
949
950
951
954
953
951
951
955
957
960
959
959
958
957
960
962
965
960
956
955
960
963
960
962
975
1002
1036
1080
1124
1165
1203
1237
1264
1280
1277
1259
1232
1205
1184
1162
1132
1097
1067
1053
1041
1024
1002
985
965
956
945
939
930
923
917
914
915
915
915
911
909
907
910
916
917
918
917
915
917
919
916
916
917
916
915
916
919
919
918
918
922
922
921
916
915
913
919
919
919
918
914
915
916
920
920
919
920
919
922
925
924
925
925
923
925
928
929
931
929
931
935
940
940
947
950
950
955
956
958
962
964
967
970
975
979
980
980
979
981
986
986
985
982
983
984
985
984
983
979
977
973
972
968
969
967
968
967
967
963
963
962
962
962
961
962
961
959
957
960
962
961
961
958
954
955
957
957
958
954
954
954
959
957
956
956
954
953
956
956
956
958
958
959
961
962
958
955
954
956
960
963
960
957
955
959
961
962
962
957
955
962
964
965
963
960
961
965
964
962
960
962
965
967
968
967
965
966
965
969
973
974
977
979
983
987
986
986
984
980
986
992
997
1000
1003
1007
1007
1011
1012
1012
1010
1007
1003
1005
1003
1000
993
977
968
964
962
961
959
959
957
960
963
964
962
961
960
962
966
967
963
960
961
965
967
966
965
966
966
967
971
971
972
969
967
966
969
970
981
999
1025
1063
1100
1140
1177
1215
1241
1259
1266
1252
1222
1190
1169
1161
1149
1131
1108
1082
1062
1050
1037
1018
1000
985
975
967
957
949
944
940
934
933
935
935
934
933
932
933
934
932
930
933
931
933
933
935
934
933
933
934
940
939
938
935
933
936
938
941
940
937
938
938
937
935
937
936
936
937
939
940
939
938
936
936
938
939
942
938
937
939
939
940
942
942
942
943
947
948
951
952
956
956
963
966
967
970
970
978
985
986
985
986
989
994
999
1000
1003
1002
1002
1004
1006
1005
1003
1001
997
997
999
997
995
991
988
989
988
987
987
985
985
984
984
981
981
985
984
984
985
980
979
977
974
977
982
983
982
978
974
977
979
979
975
972
968
970
973
973
971
968
969
970
973
972
972
969
966
967
972
972
969
970
972
974
975
976
975
975
975
976
979
981
979
976
975
977
979
980
978
979
975
981
982
983
983
981
980
982
989
994
997
1000
999
1004
1003
1002
1002
1004
1008
1013
1015
1020
1017
1020
1022
1027
1024
1023
1019
1016
1014
1010
1004
993
981
971
966
969
970
970
964
959
958
959
963
964
965
963
961
965
965
967
967
966
963
965
966
970
970
969
968
970
973
972
968
963
965
966
975
987
1010
1038
1078
1125
1171
1213
1241
1263
1278
1280
1266
1233
1205
1185
1168
1152
1129
1100
1076
1059
1045
1027
1009
992
982
969
960
948
942
937
931
927
927
927
928
928
925
924
922
924
925
926
925
925
922
926
928
929
931
928
927
929
929
930
930
929
929
930
932
932
930
928
927
927
931
929
927
927
927
932
934
933
931
927
927
928
931
931
932
930
927
928
927
930
929
929
932
936
938
937
940
941
943
945
947
949
952
952
954
962
965
965
968
969
972
975
980
982
984
984
986
989
991
991
991
989
989
989
990
992
986
984
986
988
987
984
980
977
972
976
976
976
970
970
969
972
971
971
969
970
968
970
971
969
970
969
967
969
970
971
969
968
964
965
971
971
971
969
966
964
967
969
967
966
966
965
969
972
966
966
963
965
966
967
970
968
967
969
971
969
970
967
965
966
969
968
964
964
965
965
968
969
969
967
969
970
971
969
970
974
972
975
978
982
984
985
989
992
995
990
989
989
994
1000
1005
1007
1009
1008
1007
1010
1016
1015
1011
1009
1006
1004
1006
1004
996
984
969
963
959
957
956
955
954
958
956
955
954
951
954
955
959
961
961
962
962
965
966
968
967
966
965
965
966
964
964
961
961
966
980
1004
1034
1066
1102
1144
1179
1210
1236
1255
1272
1285
1283
1261
1229
1197
1172
1145
1110
1073
1052
1038
1027
1012
999
988
975
961
953
944
941
939
936
930
926
925
924
925
924
920
920
922
923
922
924
924
927
932
930
926
923
925
925
930
932
932
928
925
926
926
932
931
930
927
925
928
927
931
930
931
929
930
931
933
933
934
933
934
933
933
933
931
932
934
935
938
938
938
939
939
943
946
948
946
948
951
953
955
957
961
962
963
967
970
973
974
977
985
990
994
991
990
990
995
998
1001
998
997
992
995
998
997
994
989
986
987
989
988
984
981
980
981
979
980
980
978
975
975
978
975
971
973
970
973
974
976
974
971
968
968
973
972
972
965
966
967
971
972
972
967
968
972
972
971
971
968
970
970
971
970
971
968
970
970
974
974
974
970
968
968
971
973
974
971
969
969
971
971
970
970
967
971
971
970
969
970
969
971
974
975
973
967
971
973
974
975
976
978
983
988
992
992
992
989
988
992
1001
1003
1008
1007
1009
1016
1021
1021
1018
1013
1010
1011
1012
1010
1006
999
991
981
973
967
964
964
963
965
965
965
967
965
966
966
970
969
968
966
969
973
974
975
974
974
972
973
975
976
973
968
971
981
1000
1033
1066
1104
1141
1182
1218
1246
1264
1274
1279
1263
1234
1202
1179
1159
1128
1096
1073
1057
1042
1025
1008
997
985
971
961
955
955
957
954
950
947
942
943
944
943
943
943
942
941
944
949
950
948
948
949
953
950
949
948
950
949
948
948
946
946
945
943
944
952
952
950
948
944
946
948
949
949
947
942
944
950
951
949
944
941
944
947
945
946
948
948
950
951
952
948
950
953
960
968
970
965
959
958
957
957
962
967
971
977
978
980
987
990
990
991
992
994
993
993
994
998
1002
1004
1005
996
991
991
993
994
993
992
994
998
1001
1000
996
990
985
983
984
988
988
988
987
986
990
993
993
990
985
981
984
988
988
984
987
990
995
997
993
983
982
983
990
999
1004
999
992
981
975
976
978
980
982
979
980
983
990
994
994
990
991
991
988
981
973
970
973
983
991
995
1000
994
991
988
993
997
999
996
995
993
992
992
992
997
1008
1020
1023
1023
1023
1020
1021
1022
1023
1028
1027
1030
1035
1032
1035
1035
1031
1032
1033
1030
1027
1023
1018
1010
1006
999
987
979
976
975
976
976
973
974
972
972
973
977
976
975
974
974
975
980
983
986
987
982
975
972
976
981
984
987
989
989
990
992
1002
1028
1065
1106
1147
1187
1222
1249
1268
1283
1291
1282
1251
1215
1192
1174
1156
1126
1104
1084
1074
1054
1033
1019
1011
1001
993
982
971
965
959
956
957
961
961
962
965
964
964
962
955
953
954
956
958
961
962
959
958
959
961
962
961
956
950
951
956
960
958
953
947
946
950
954
957
955
954
950
946
945
947
951
952
953
954
952
952
952
953
959
961
964
966
966
968
969
973
978
979
983
984
985
989
990
992
996
996
999
1004
1010
1018
1020
1017
1014
1016
1019
1021
1021
1019
1020
1027
1027
1023
1018
1017
1016
1013
1010
1007
1002
999
999
1002
1003
1001
1000
1000
998
999
999
998
995
996
998
999
1000
999
1000
996
996
997
998
999
997
993
995
998
1002
1004
999
996
994
994
998
998
996
995
996
994
994
994
993
994
990
990
993
993
995
993
994
996
997
997
996
995
993
991
989
993
991
991
992
997
1001
1001
997
997
996
1002
1002
999
1000
998
1000
1004
1007
1013
1016
1015
1016
1015
1018
1021
1024
1026
1026
1030
1034
1039
1043
1041
1036
1035
1038
1044
1045
1043
1035
1027
1019
1008
1000
989
989
990
986
981
977
977
977
978
984
988
985
980
976
978
984
989
988
987
983
984
984
982
983
979
978
978
974
973
973
974
980
992
1009
1031
1063
1097
1142
1190
1235
1261
1282
1286
1272
1246
1216
1188
1163
1133
1104
1084
1073
1063
1043
1024
1005
998
990
983
968
957
951
949
949
942
936
936
936
937
937
937
941
939
937
940
939
940
941
937
938
938
940
942
945
940
941
946
949
947
943
939
940
942
942
948
951
950
948
946
949
948
945
946
944
947
948
946
947
946
948
952
955
956
952
951
954
957
962
964
966
965
967
968
976
978
983
984
983
991
997
1003
1004
1005
1004
1006
1014
1017
1016
1018
1015
1017
1016
1014
1013
1013
1012
1012
1014
1015
1010
1005
1002
1006
1007
1005
1000
1001
999
1000
1004
1002
996
997
995
997
998
997
992
992
993
994
994
990
991
991
989
988
986
984
983
982
982
986
989
989
986
984
981
982
983
982
980
980
980
984
979
978
978
980
979
979
984
986
984
986
984
986
989
988
984
981
979
979
983
985
982
982
981
986
988
993
994
994
995
999
1003
1004
1002
998
993
995
1004
1016
1016
1015
1017
1019
1020
1024
1022
1016
1014
1012
1015
1016
1012
1003
991
979
971
968
965
966
966
965
969
968
970
967
966
969
968
969
968
968
968
970
973
974
974
976
976
979
976
975
969
968
976
994
1020
1049
1085
1117
1159
1200
1234
1256
1268
1264
1234
1201
1174
1157
1141
1122
1090
1057
1037
1023
1010
999
986
971
959
950
939
933
929
928
926
929
930
930
930
933
932
933
930
931
931
935
934
937
937
938
941
943
944
941
938
939
943
946
950
950
945
940
940
945
951
948
943
941
939
942
944
946
944
940
938
940
944
946
945
948
948
948
948
948
946
944
944
953
958
962
961
958
960
966
969
971
975
977
978
980
983
986
990
991
990
994
997
999
1000
1000
1000
1001
1006
1005
1003
1000
999
997
1000
999
995
993
991
992
992
991
987
987
985
987
992
988
981
974
971
975
976
977
976
977
974
975
975
974
971
971
974
977
979
980
977
975
973
977
977
974
971
965
967
969
976
974
970
966
967
972
974
972
965
964
963
966
967
967
968
965
963
964
960
958
958
961
964
962
963
963
966
968
967
969
971
974
973
972
972
978
985
991
994
996
997
996
998
1001
1006
1007
1012
1019
1019
1022
1026
1027
1027
1026
1021
1014
1012
1007
1000
996
988
976
964
953
951
954
962
963
967
966
964
960
953
953
955
957
958
964
968
968
972
977
983
985
981
976
971
971
969
977
992
1021
1057
1093
1133
1176
1211
1238
1255
1270
1280
1266
1232
1194
1164
1140
1111
1079
1056
1044
1031
1013
995
983
972
959
946
938
934
930
930
926
922
921
919
923
922
918
919
921
922
927
928
928
924
918
917
922
927
931
931
931
935
935
937
938
939
936
937
940
940
937
930
927
927
928
929
929
936
937
936
935
936
935
936
936
936
937
940
939
939
938
939
941
946
947
950
953
954
955
959
964
968
970
971
978
985
989
993
991
995
997
998
1000
997
997
998
999
1000
996
995
988
989
987
989
986
983
977
977
978
977
978
977
974
973
974
974
974
973
972
973
972
973
973
973
969
969
972
974
972
972
972
972
972
974
975
973
973
971
972
976
975
972
971
971
973
973
973
973
970
972
973
975
976
972
969
967
972
975
973
971
967
965
967
969
969
970
969
967
973
975
975
973
971
969
972
973
970
972
972
975
982
993
992
989
985
982
989
997
1001
1002
1004
1003
1010
1014
1014
1015
1010
1006
1005
1003
1003
998
991
979
969
961
956
952
952
954
953
951
951
949
951
952
952
954
952
952
953
955
957
956
957
957
957
956
960
960
961
958
956
952
951
948
949
954
961
982
1012
1046
1081
1123
1165
1207
1242
1267
1279
1273
1249
1219
1191
1170
1144
1112
1080
1058
1052
1047
1037
1018
995
978
965
957
944
938
930
925
923
918
918
915
913
913
915
919
917
918
915
916
917
919
923
924
923
921
922
925
927
929
922
923
926
928
929
931
928
930
931
930
926
923
925
926
929
930
929
929
928
926
929
932
931
929
929
929
931
933
933
936
939
942
943
943
943
945
947
950
957
960
959
962
964
966
969
972
975
978
979
979
981
988
990
988
988
990
990
990
990
992
989
987
986
987
985
981
979
974
974
977
977
976
969
967
967
967
961
961
964
969
969
966
965
961
959
958
961
962
961
959
956
957
959
959
961
961
958
955
958
961
964
964
964
963
963
963
963
963
965
966
968
970
970
968
967
966
970
973
975
977
977
978
977
977
973
972
972
974
975
976
976
979
978
975
979
983
984
985
986
986
987
986
984
979
977
977
980
985
984
985
984
983
985
989
992
1002
1005
1008
1007
1003
1002
1008
1013
1016
1016
1018
1020
1022
1026
1031
1034
1037
1034
1031
1026
1020
1021
1016
1011
997
983
971
969
970
968
968
965
962
964
963
964
965
964
961
962
967
969
966
963
965
968
969
971
968
971
970
972
975
977
976
973
970
967
970
974
986
1005
1034
1067
1099
1137
1174
1208
1233
1255
1267
1263
1244
1211
1178
1158
1142
1125
1100
1076
1060
1047
1032
1016
1000
985
976
966
957
948
941
940
937
934
930
929
928
927
924
928
928
928
928
925
927
929
930
927
927
927
929
930
929
930
931
932
928
931
933
933
933
930
928
931
934
934
932
931
931
932
934
935
932
933
929
933
933
933
930
929
929
932
935
937
936
933
931
932
934
939
941
941
943
945
946
946
951
953
958
960
963
964
963
967
972
978
984
983
987
989
992
998
1001
998
1001
1001
1002
1001
1002
1001
999
996
996
998
1000
997
994
989
988
988
988
987
982
982
982
983
985
983
982
978
975
976
978
978
975
971
974
976
979
977
973
970
974
980
982
984
981
978
975
973
976
979
972
969
973
975
978
976
976
976
975
976
977
975
973
973
975
974
976
974
973
972
973
971
973
973
975
975
973
976
979
978
975
973
970
976
978
977
977
973
970
974
976
979
978
981
983
992
996
997
999
995
994
995
1000
1004
1006
1009
1011
1016
1019
1018
1020
1016
1013
1012
1014
1012
1008
1003
995
990
983
971
961
956
955
956
956
954
954
954
955
957
960
963
961
959
957
958
959
959
957
957
960
962
963
963
963
964
961
962
962
962
966
978
999
1031
1066
1100
1134
1168
1200
1230
1252
1265
1273
1255
1225
1194
1171
1149
1122
1091
1069
1055
1041
1023
1001
985
972
966
957
950
942
939
934
933
927
922
921
921
922
924
924
923
921
919
920
923
927
930
931
930
927
929
928
930
930
927
928
932
929
930
928
927
926
927
932
935
934
930
930
929
931
928
928
925
925
928
927
927
926
926
927
932
931
934
934
933
932
936
943
944
943
943
944
949
953
954
956
957
960
962
966
971
974
973
978
982
986
992
992
994
996
998
999
999
996
993
996
998
997
995
993
992
990
985
987
990
987
985
983
980
979
977
977
975
973
976
978
977
975
973
971
974
976
976
973
973
971
974
972
973
971
974
973
976
