970
969
968
966
965
964
967
969
966
964
963
964
966
965
965
963
962
968
970
971
967
966
966
968
971
969
967
968
966
970
972
970
969
968
969
971
972
973
970
970
970
971
971
972
973
974
976
984
989
990
989
985
985
991
1000
1001
1003
1006
1008
1010
1013
1013
1008
1004
1003
1005
1007
1004
993
984
971
965
960
958
956
954
952
957
958
958
958
956
956
959
962
962
963
960
960
963
966
963
966
965
966
966
965
961
957
961
971
992
1017
1051
1086
1128
1169
1210
1243
1267
1278
1267
1244
1219
1192
1169
1135
1099
1071
1055
1048
1033
1011
994
977
964
955
945
940
933
931
930
932
932
929
927
925
929
931
930
932
931
931
932
937
935
934
931
931
933
936
935
932
932
933
932
935
935
934
930
927
934
936
937
935
931
933
937
936
938
933
929
935
939
942
940
940
939
940
945
948
948
951
950
953
956
959
962
966
969
971
976
982
984
984
986
986
992
996
1000
1001
1002
998
1004
1005
1001
999
997
994
995
996
992
991
988
985
985
985
986
984
981
981
977
981
976
973
975
977
977
979
978
975
973
975
977
978
978
976
973
971
973
976
975
973
971
970
969
972
974
970
968
969
971
976
977
975
974
974
973
976
976
973
971
970
971
973
973
973
971
972
970
974
971
971
969
972
971
974
972
971
970
970
971
974
975
974
973
973
972
976
977
977
979
979
984
988
993
991
989
987
991
1001
1004
1009
1009
1008
1013
1016
1017
1015
1011
1007
1007
1008
1004
998
990
980
973
965
963
964
962
960
962
963
961
960
959
961
962
967
965
963
962
958
962
965
967
964
965
965
969
970
971
965
961
960
965
978
995
1020
1052
1083
1123
1168
1208
1242
1265
1275
1270
1249
1219
1191
1167
1141
1108
1080
1060
1046
1028
1008
991
982
970
956
947
938
937
936
930
928
925
925
927
931
930
927
926
925
931
933
933
932
932
931
931
933
935
933
932
933
933
936
935
932
933
932
934
936
935
934
934
934
934
935
933
934
933
932
935
935
937
936
934
933
938
939
940
939
940
941
945
949
949
950
951
953
956
963
964
967
969
970
976
982
984
988
989
990
993
997
1001
1001
1000
1003
1005
1005
1004
1002
1000
998
999
999
996
993
988
989
989
991
989
988
985
984
985
987
984
982
980
980
983
985
982
979
978
976
978
982
981
978
974
974
977
978
979
977
976
976
976
976
979
976
975
974
976
978
979
977
975
977
980
984
980
978
977
974
978
981
979
977
976
974
975
981
982
982
977
977
979
978
980
977
976
976
978
979
980
979
976
974
977
979
981
980
979
981
983
986
991
995
997
1000
1001
999
999
998
1001
1005
1011
1017
1015
1015
1014
1018
1023
1029
1024
1019
1017
1017
1017
1016
1012
1005
997
987
980
974
972
967
966
966
964
968
966
968
966
967
969
969
969
968
966
968
969
972
974
974
971
971
973
974
973
973
971
969
969
975
983
996
1017
1047
1085
1120
1156
1190
1219
1245
1267
1285
1285
1268
1240
1208
1188
1164
1134
1103
1078
1064
1051
1037
1019
1003
990
979
970
960
953
945
940
935
932
933
932
931
929
926
927
934
934
933
934
933
933
936
937
936
936
935
936
939
935
937
937
934
935
937
937
935
933
932
936
938
936
934
934
934
937
939
939
936
935
934
936
938
938
938
938
939
941
943
944
947
946
949
950
956
955
957
957
960
964
968
970
973
976
976
984
989
988
991
992
993
997
1002
1001
1003
1004
1002
1003
1006
1005
999
996
994
997
999
995
990
989
987
987
990
986
985
982
979
980
984
982
978
976
976
978
980
978
975
972
972
974
976
977
975
974
971
975
974
973
969
969
972
973
975
974
974
972
972
974
975
974
973
972
973
973
976
975
975
973
975
975
977
975
975
973
972
974
974
974
974
973
973
976
977
978
975
977
971
975
975
977
974
973
975
978
981
976
975
977
976
981
984
989
994
995
998
999
1001
999
997
1000
1002
1007
1013
1015
1013
1015
1015
1021
1020
1019
1017
1013
1010
1007
1005
995
983
973
964
964
966
965
962
962
961
963
965
963
962
964
963
964
965
966
966
967
965
969
972
972
970
970
971
972
973
972
968
967
965
974
987
1009
1041
1073
1109
1149
1189
1219
1245
1265
1281
1285
1270
1242
1211
1184
1157
1129
1101
1081
1069
1054
1034
1017
1007
993
979
967
955
947
943
940
936
929
927
929
932
929
926
923
925
927
930
931
931
928
930
934
934
935
934
935
932
935
936
933
934
933
933
934
937
935
934
931
931
933
935
934
932
931
931
933
935
934
933
933
933
934
936
937
934
936
937
940
940
941
941
942
944
948
950
953
955
956
956
960
968
968
970
970
974
977
983
987
989
990
992
995
998
1001
1003
1001
1000
1003
1004
1006
1003
1000
998
998
998
996
993
991
988
988
989
987
985
984
983
983
985
982
979
978
975
978
980
978
977
978
975
974
980
978
977
974
972
974
978
972
972
970
969
973
974
972
971
970
967
973
976
975
976
974
973
974
977
974
974
974
970
972
977
975
974
972
969
975
976
977
974
974
974
977
979
978
976
974
974
978
979
979
975
974
973
976
977
977
977
975
975
978
982
981
980
981
982
988
993
996
997
998
992
995
998
999
1003
1006
1008
1011
1016
1015
1017
1015
1016
1016
1019
1015
1011
1008
1007
1003
997
988
974
965
961
961
966
963
961
961
960
960
964
964
963
962
963
965
968
964
962
965
965
968
968
968
967
965
965
965
969
964
962
965
975
999
1026
1059
1094
1132
1171
1208
1243
1266
1276
1273
1251
1228
1203
1179
1150
1113
1088
1073
1066
1056
1038
1017
1000
992
981
967
952
942
937
934
932
927
925
922
922
925
927
929
929
925
925
928
930
929
931
930
931
933
932
934
932
932
931
934
935
932
933
932
930
935
934
933
931
931
929
928
932
932
931
932
930
935
936
935
935
935
937
938
943
942
944
944
946
948
951
955
958
958
960
966
971
974
977
977
980
985
989
989
991
989
991
995
1000
999
999
999
996
998
999
996
994
988
988
990
994
990
990
986
984
983
983
979
977
976
975
977
982
979
975
975
972
973
974
973
973
972
972
974
970
973
973
973
971
968
970
974
972
970
969
969
973
973
970
968
970
971
973
971
974
971
969
970
975
974
971
971
969
972
974
970
972
971
969
975
975
975
975
971
971
975
978
978
977
974
974
974
976
974
974
972
973
975
980
978
977
976
974
977
982
988
988
990
989
992
991
989
988
989
995
1001
1008
1011
1011
1012
1014
1018
1019
1018
1014
1012
1010
1012
1015
1011
1002
993
982
973
972
968
967
964
967
963
965
965
966
965
966
971
974
969
969
970
968
969
970
971
968
970
970
973
976
973
970
967
965
971
986
1008
1032
1058
1088
1125
1163
1199
1232
1254
1273
1278
1266
1233
1201
1177
1148
1118
1085
1056
1042
1030
1016
1003
986
970
962
953
946
942
937
934
927
921
919
923
925
922
918
918
922
925
924
921
919
916
915
916
920
920
921
921
920
924
928
926
925
922
922
926
930
929
927
927
928
928
930
927
928
929
930
933
936
933
930
927
930
934
938
935
934
933
933
936
941
942
944
944
945
948
953
954
956
956
961
964
967
969
971
974
979
985
987
987
986
988
988
992
996
997
1000
1001
996
997
999
996
991
991
991
990
989
987
987
983
981
983
983
980
981
981
981
982
983
980
979
980
979
981
983
981
980
977
975
977
981
980
977
976
975
980
979
978
976
975
974
978
981
981
979
977
978
979
980
980
978
978
979
983
984
985
982
979
976
978
978
979
978
977
978
978
979
980
977
975
977
980
981
980
979
982
979
980
980
978
978
977
977
984
983
981
982
983
979
986
990
992
994
997
1000
1001
1005
1004
1003
1001
1000
1007
1015
1017
1018
1019
1023
1023
1023
1018
1014
1011
1009
1009
1007
1002
994
987
977
976
973
969
967
963
961
963
966
968
964
963
963
965
966
967
965
966
967
970
971
970
970
969
971
975
977
976
972
971
970
969
969
972
978
992
1014
1041
1077
1110
1147
1179
1207
1236
1260
1278
1284
1265
1233
1200
1176
1155
1131
1099
1077
1062
1050
1029
1007
992
981
971
965
956
944
938
936
934
933
932
935
935
936
934
935
937
935
934
934
933
939
939
939
935
935
937
941
939
940
938
937
937
939
937
937
937
938
941
947
944
942
938
932
934
938
937
938
936
936
937
940
937
938
936
938
942
945
945
944
943
947
954
958
960
959
957
960
965
972
974
975
977
979
985
990
992
994
996
997
995
1001
1002
1003
1001
1001
1001
1000
998
999
996
994
993
993
990
985
982
982
982
986
984
982
978
974
977
979
978
977
975
975
975
974
974
974
974
974
972
976
973
974
975
974
972
976
975
975
974
969
972
974
977
977
975
972
973
976
974
976
973
974
973
975
975
975
974
973
973
977
978
975
974
976
978
977
974
975
975
975
976
978
975
973
971
973
974
980
977
977
975
978
983
988
988
993
997
999
1003
1003
1001
1001
1000
1007
1008
1012
1014
1016
1014
1016
1016
1015
1013
1008
1004
1003
999
996
988
979
973
966
964
962
960
958
958
959
961
960
960
960
956
956
958
963
963
961
960
961
963
965
965
965
961
962
961
963
963
962
959
963
979
1003
1033
1066
1102
1142
1182
1216
1242
1262
1271
1264
1243
1217
1189
1164
1138
1110
1085
1070
1056
1037
1019
1002
994
984
973
960
946
939
936
936
932
926
922
920
923
924
921
917
916
916
913
915
915
912
915
915
920
920
916
914
917
925
928
928
927
924
920
920
916
916
911
911
910
911
913
916
914
910
908
907
908
910
912
913
915
917
918
922
924
926
927
928
932
940
940
940
944
946
951
955
959
961
962
963
966
974
974
976
983
989
995
1000
998
997
997
998
998
1002
995
989
985
985
985
985
983
980
978
976
977
980
982
980
978
977
980
981
979
977
973
973
974
979
977
976
975
978
977
977
974
972
969
966
969
972
971
969
969
970
974
975
977
974
970
969
971
976
973
972
970
970
972
974
974
972
971
970
971
973
973
970
968
967
971
975
975
972
968
967
966
972
971
970
969
968
971
975
973
973
971
971
975
974
975
978
982
988
996
1001
1000
996
994
999
1004
1007
1010
1008
1008
1010
1014
1017
1018
1016
1011
1010
1010
1008
1003
990
978
965
963
962
959
958
955
956
958
958
958
957
957
956
960
963
962
961
960
962
964
967
964
966
966
966
965
963
961
959
956
956
967
988
1015
1047
1082
1124
1167
1204
1230
1252
1270
1276
1267
1244
1216
1190
1167
1137
1106
1082
1067
1054
1038
1018
1001
990
974
958
941
932
929
924
919
916
914
914
917
918
918
921
918
916
918
920
918
919
919
919
921
925
925
925
924
922
925
927
924
926
922
922
926
927
925
924
922
920
924
926
925
924
923
922
925
927
926
927
924
925
930
931
932
931
930
930
935
938
941
940
942
944
947
955
955
959
959
962
966
968
969
968
973
976
979
984
986
986
984
985
986
990
988
985
980
978
977
981
980
977
972
970
970
969
969
969
962
960
959
962
965
963
964
962
960
961
960
957
956
957
957
960
959
955
956
957
956
957
956
956
956
955
962
963
961
957
959
954
956
961
959
960
959
956
959
964
963
958
959
956
959
960
958
958
958
957
961
962
961
960
958
959
959
961
957
957
953
952
956
960
961
963
962
960
960
966
966
966
966
967
973
977
979
977
978
979
979
983
986
990
992
993
999
1005
1007
1008
1006
1001
1000
1003
999
998
994
989
981
969
959
948
949
952
954
954
953
953
952
952
952
954
958
957
957
958
959
958
959
958
956
957
959
959
962
962
960
954
953
956
969
989
1019
1052
1089
1131
1176
1216
1245
1259
1256
1233
1198
1172
1151
1126
1096
1065
1048
1033
1017
1001
986
974
962
949
938
931
929
929
925
924
923
924
920
922
920
922
921
923
925
926
928
930
929
927
928
930
931
930
930
931
930
932
931
930
931
931
931
929
928
927
928
928
929
929
930
929
928
929
932
933
932
932
929
932
937
940
939
939
939
942
946
952
953
952
953
957
961
968
970
970
973
974
977
983
984
986
987
988
991
994
991
991
988
989
989
989
993
991
988
984
982
988
988
984
979
981
979
982
981
979
976
975
981
985
986
981
977
977
979
985
984
983
978
978
979
980
980
981
981
982
984
984
981
977
979
980
980
983
980
978
978
977
977
979
976
975
975
978
980
983
978
976
975
977
981
979
979
973
974
971
975
977
978
976
974
976
977
980
976
976
977
977
978
978
978
977
979
979
980
980
983
982
985
987
993
999
997
993
992
993
999
1006
1009
1013
1014
1017
1021
1025
1022
1021
1014
1009
1009
1012
1011
1003
994
982
974
967
968
964
962
959
965
961
960
964
967
965
965
967
966
966
965
967
968
966
964
965
966
965
967
968
967
963
958
954
962
973
985
1010
1045
1085
1126
1168
1203
1229
1249
1255
1242
1217
1185
1162
1146
1123
1092
1067
1053
1043
1032
1015
1001
988
976
962
954
946
947
948
948
946
944
947
947
946
947
948
948
949
950
950
950
950
948
948
951
952
953
952
949
948
949
953
954
951
947
948
951
954
953
951
948
943
944
948
947
947
940
940
945
949
950
944
942
942
945
947
949
947
949
951
953
955
958
959
960
961
968
970
973
976
977
980
987
992
994
996
996
998
1005
1009
1011
1011
1007
1009
1010
1011
1011
1009
1006
1004
1005
1005
1008
1004
1002
997
998
999
999
998
991
993
993
993
993
993
989
989
991
993
994
994
991
989
991
992
991
990
991
992
994
996
994
994
991
991
995
997
996
994
992
992
993
994
995
994
992
991
993
995
997
995
996
994
992
996
997
994
993
992
994
996
997
993
991
989
991
994
996
992
989
986
991
996
996
994
993
995
1002
1008
1011
1016
1017
1014
1013
1017
1021
1024
1023
1024
1029
1033
1036
1037
1031
1031
1028
1028
1027
1023
1018
1012
1003
990
983
979
976
975
975
975
974
972
971
973
974
975
974
975
974
976
979
983
984
979
977
976
981
983
983
980
977
972
971
971
976
984
998
1023
1056
1094
1134
1175
1214
1248
1275
1290
1285
1255
1218
1190
1173
1154
1125
1093
1074
1065
1051
1034
1015
999
988
978
967
955
950
945
940
936
936
939
937
938
936
937
936
943
940
938
939
940
940
942
941
942
939
941
939
944
945
943
940
942
945
945
947
945
943
943
944
944
944
941
941
940
943
944
940
942
938
939
943
945
946
944
943
942
946
950
951
951
952
954
956
960
959
961
961
964
969
973
975
974
977
979
986
990
996
995
993
994
997
1004
1003
1004
1001
1005
1005
1006
1006
1002
1000
1002
1002
1001
998
995
994
992
992
992
993
992
989
989
989
989
987
983
981
984
986
988
988
984
983
982
982
985
984
982
981
981
983
983
982
979
980
980
981
983
983
982
981
985
985
984
985
984
982
983
984
987
988
987
982
982
984
984
984
984
982
981
983
984
984
985
983
982
984
986
986
983
983
984
983
984
983
983
982
985
985
988
987
985
987
986
991
996
1000
1004
1004
1006
1012
1013
1009
1007
1007
1012
1016
1020
1022
1021
1023
1026
1030
1032
1029
1025
1019
1017
1019
1018
1014
1004
991
982
976
974
969
971
967
964
961
965
968
966
967
966
970
970
970
969
969
970
970
974
970
973
970
971
976
977
974
975
974
970
970
967
967
971
981
1004
1037
1077
1118
1160
1200
1228
1251
1267
1280
1282
1265
1235
1207
1185
1164
1139
1109
1085
1069
1059
1042
1021
1001
992
983
975
963
950
941
939
939
936
932
929
928
928
931
932
930
928
927
929
931
933
933
932
932
931
933
935
935
932
930
929
934
936
937
932
931
930
931
937
935
934
932
933
933
934
931
931
934
932
932
935
933
933
932
932
935
936
937
936
936
935
938
940
941
939
941
941
942
946
948
949
950
953
954
958
960
962
965
968
972
973
976
977
982
985
988
993
993
993
994
995
996
995
997
995
993
992
991
993
989
988
986
985
985
987
985
982
981
980
982
984
980
977
974
973
975
976
977
975
971
969
972
975
970
969
967
967
970
971
968
966
965
964
966
969
970
969
968
969
969
970
970
971
969
969
972
974
974
973
971
975
975
975
975
975
971
970
971
975
974
973
971
969
972
976
974
970
972
974
975
977
978
974
972
973
973
976
973
970
968
967
966
967
973
972
972
970
975
983
983
987
991
995
1000
999
995
992
998
1002
1009
1016
1019
1020
1021
1025
1025
1024
1021
1017
1016
1015
1015
1013
1007
995
982
970
962
965
964
960
956
956
958
961
960
961
957
958
965
965
966
966
963
963
966
965
966
967
966
967
973
975
978
975
969
965
966
969
976
990
1011
1039
1073
1114
1154
1191
1222
1249
1271
1281
1264
1234
1204
1181
1161
1138
1105
1080
1063
1047
1029
1015
1005
992
981
965
955
948
944
937
931
929
929
932
931
930
929
930
930
932
931
929
927
927
931
933
934
933
933
931
934
933
931
925
920
924
926
933
937
935
934
928
927
932
938
937
936
930
928
932
934
935
932
930
932
935
934
927
925
927
929
936
941
945
948
947
948
950
953
952
954
955
959
962
963
965
967
968
972
977
978
978
981
985
989
994
993
991
991
994
995
1002
994
992
990
986
986
984
981
978
978
984
987
984
980
975
975
976
974
974
972
970
970
973
974
