979
980
980
979
980
979
980
981
981
980
980
981
980
983
981
980
977
977
979
978
977
976
978
982
980
977
975
976
979
977
978
975
973
971
974
981
975
977
974
974
977
979
982
978
981
977
979
979
980
980
978
981
983
989
988
991
996
1001
1004
1006
1004
1003
1005
1007
1010
1015
1020
1019
1020
1023
1027
1030
1031
1025
1019
1014
1015
1015
1013
1006
1003
995
986
978
973
970
967
969
971
972
972
970
966
968
969
972
973
971
972
974
976
977
972
972
971
972
972
975
976
974
971
967
963
963
965
972
984
1003
1031
1062
1094
1130
1170
1211
1246
1275
1287
1287
1268
1242
1220
1198
1167
1128
1092
1072
1063
1055
1041
1025
1006
995
983
977
965
953
945
942
938
942
939
934
933
935
939
945
948
949
949
947
946
948
952
949
946
945
946
949
945
949
946
947
948
951
951
950
950
953
954
953
951
950
948
950
951
953
954
952
948
949
950
953
952
954
952
952
953
956
959
957
954
952
953
957
964
964
967
968
968
973
977
979
981
984
987
993
995
1000
999
1003
1007
1010
1013
1015
1016
1017
1020
1021
1022
1018
1015
1015
1016
1018
1015
1009
1004
1007
1008
1007
1004
1001
1000
998
998
997
1000
996
993
992
989
993
993
992
991
990
989
994
993
992
988
990
991
989
989
988
989
991
990
991
991
989
988
990
989
991
987
986
987
987
988
992
990
988
984
987
988
990
985
984
983
983
988
991
994
990
987
984
985
987
988
988
988
988
985
989
989
987
986
986
988
986
988
990
992
994
999
1003
1009
1012
1012
1012
1013
1016
1018
1021
1019
1023
1026
1029
1029
1028
1030
1026
1027
1026
1025
1020
1016
1007
1000
992
982
973
972
970
967
967
965
967
963
966
972
974
973
969
962
967
971
974
975
973
973
975
977
977
976
974
970
968
969
973
985
1005
1031
1065
1103
1143
1186
1224
1255
1277
1288
1288
1262
1227
1197
1173
1146
1116
1093
1076
1059
1036
1019
1010
997
986
975
961
951
947
945
940
937
935
938
939
940
935
933
935
935
935
938
938
939
939
942
941
941
940
936
937
937
941
946
946
945
942
943
945
944
944
942
943
945
944
943
940
940
939
941
944
945
943
943
942
943
946
948
947
948
951
954
955
956
961
960
962
965
970
970
968
976
979
985
988
990
992
992
997
1000
1005
1007
1009
1007
1006
1008
1012
1014
1011
1006
1005
1004
1005
1003
1002
997
995
995
993
992
991
986
987
989
990
987
988
985
982
984
987
985
984
982
984
985
982
979
977
976
978
981
986
985
982
975
974
977
977
979
978
975
974
977
978
978
976
975
978
977
982
979
980
976
977
980
980
977
976
977
979
981
982
982
979
982
981
980
982
982
984
981
982
985
985
982
978
978
979
984
988
986
984
985
989
998
1003
1006
1007
1004
1001
1005
1013
1018
1019
1019
1019
1022
1026
1031
1029
1025
1021
1022
1022
1017
1008
996
984
977
971
968
964
964
965
963
966
965
965
967
968
969
975
971
967
969
967
973
975
973
971
972
975
977
977
973
970
967
971
984
1011
1046
1088
1130
1176
1214
1245
1269
1289
1296
1282
1255
1225
1199
1172
1142
1110
1084
1068
1050
1029
1008
994
981
968
956
945
935
934
933
933
928
925
922
919
920
925
927
926
924
926
929
930
929
929
928
929
930
933
933
933
933
935
935
934
933
928
929
928
929
930
930
930
926
926
933
934
931
929
925
927
931
935
934
929
929
932
936
939
941
937
938
939
942
948
953
951
953
955
961
964
964
965
968
974
977
978
979
984
984
988
993
997
996
996
994
997
999
1001
997
996
994
993
994
995
994
989
983
983
982
986
986
986
981
977
980
977
974
975
975
974
976
978
976
973
974
976
976
978
976
973
970
971
973
974
974
973
973
974
975
973
973
969
967
970
975
976
976
974
970
971
972
974
974
971
972
974
972
974
976
975
970
969
970
971
971
971
974
971
971
971
971
972
971
972
973
973
976
974
972
973
975
978
978
978
979
986
988
990
988
993
997
996
997
998
1000
1002
1008
1011
1014
1017
1019
1016
1014
1015
1016
1019
1016
1011
998
982
974
968
964
960
953
956
959
960
960
958
958
960
962
963
962
960
958
963
967
968
968
967
965
965
965
963
962
958
954
961
979
1006
1040
1076
1112
1151
1188
1220
1248
1273
1276
1261
1236
1204
1171
1132
1097
1077
1065
1047
1026
1007
995
981
968
955
943
936
932
926
922
921
920
919
917
919
920
921
923
926
924
925
926
925
926
927
927
925
927
929
928
927
925
929
931
933
933
927
925
926
932
930
927
929
925
924
926
930
931
930
927
928
930
933
933
932
934
937
945
948
950
948
944
946
952
956
960
963
964
967
970
976
977
981
980
985
991
994
996
995
993
995
996
998
996
996
991
990
990
992
992
990
987
985
984
983
983
982
980
978
976
977
976
973
971
971
971
971
968
967
964
964
966
965
969
967
963
964
966
967
966
963
959
959
962
967
967
964
960
959
960
962
960
960
960
961
962
961
961
961
960
960
960
960
957
957
957
957
960
962
957
955
953
954
956
959
957
953
951
952
951
954
953
951
949
951
954
957
957
956
953
956
957
961
967
970
973
978
980
978
976
976
978
985
991
992
998
996
998
1003
1005
1008
1004
999
997
997
997
995
987
973
960
947
942
943
944
940
939
939
939
942
942
942
936
938
942
942
944
944
942
944
944
948
951
949
946
947
948
950
947
943
939
944
954
977
1012
1050
1091
1138
1185
1220
1250
1268
1269
1256
1234
1213
1184
1156
1124
1092
1075
1066
1050
1030
1007
989
974
961
946
933
923
918
914
914
911
910
908
910
914
916
917
914
908
911
911
910
909
911
908
909
913
914
914
914
914
914
919
918
916
915
916
916
915
918
916
916
913
916
914
913
912
915
917
921
925
921
919
913
910
918
925
927
929
929
927
930
933
934
938
938
942
944
945
949
953
958
966
972
978
985
986
980
977
987
994
995
989
984
982
988
992
991
987
983
983
983
984
981
982
981
980
981
985
983
977
972
970
972
976
976
977
973
969
972
973
974
972
973
972
972
977
978
976
977
974
974
977
976
973
973
972
975
980
981
979
979
977
978
981
984
984
982
978
975
975
977
977
978
975
975
977
980
981
976
975
975
973
975
978
979
978
977
979
980
978
976
974
978
977
981
980
978
977
977
976
978
977
976
971
974
976
977
980
980
983
980
985
989
988
986
984
991
997
1002
1007
1008
1011
1011
1014
1014
1015
1012
1008
1009
1011
1011
1005
996
985
971
964
959
958
957
956
958
958
960
961
957
954
957
959
959
957
954
955
955
957
962
963
964
961
961
964
966
965
959
954
955
962
978
1003
1032
1063
1103
1142
1178
1207
1232
1251
1273
1281
1277
1254
1229
1201
1176
1143
1111
1081
1067
1052
1036
1016
999
982
967
951
942
935
935
930
924
916
915
915
918
912
911
910
914
916
919
917
917
918
917
919
923
922
923
921
922
922
924
925
924
923
920
922
923
923
921
918
917
920
922
921
921
920
924
923
924
923
921
920
922
923
924
922
918
917
920
922
928
930
929
929
933
935
938
940
942
943
946
951
954
951
953
954
958
963
966
967
967
969
973
977
981
981
980
982
980
981
981
982
977
977
979
980
980
976
972
968
969
969
967
966
965
962
961
964
965
962
964
961
962
963
970
969
962
957
958
962
963
963
959
954
954
957
956
960
957
955
957
959
962
960
959
956
958
957
957
960
955
952
952
948
951
955
955
951
954
955
955
956
954
954
953
955
956
953
954
952
954
954
956
956
953
951
955
956
957
959
957
955
954
956
957
959
960
959
957
962
970
970
972
970
969
971
976
980
988
991
992
996
1000
1001
1003
1002
1001
998
995
995
994
989
985
978
968
957
949
946
947
948
947
948
945
941
946
950
953
953
948
946
946
949
953
955
953
952
951
955
960
958
956
953
952
952
949
948
947
953
969
994
1021
1052
1089
1127
1169
1208
1241
1260
1267
1255
1227
1202
1179
1162
1132
1095
1063
1048
1043
1027
1008
991
979
969
959
950
938
930
928
923
925
923
923
918
916
917
917
915
915
912
914
916
920
919
921
917
917
917
922
921
921
922
920
922
923
922
920
919
920
924
923
925
925
925
924
926
925
924
923
920
921
923
923
922
922
919
921
923
926
927
927
924
925
927
928
927
928
931
931
935
939
941
948
945
949
955
959
961
964
966
969
974
977
984
983
982
982
986
990
991
988
985
984
988
992
997
994
992
989
991
991
988
986
980
979
981
982
985
985
986
987
991
989
988
984
982
986
992
994
992
989
989
989
988
989
988
988
988
988
989
989
987
986
984
990
994
995
989
983
982
982
984
984
985
986
984
983
986
988
986
987
986
987
988
986
987
983
984
987
988
990
987
986
984
990
989
989
982
981
978
980
983
983
984
981
980
982
980
979
979
979
978
981
983
985
983
982
980
987
994
1002
1005
1007
1002
995
996
1000
1005
1010
1013
1016
1018
1023
1024
1021
1017
1015
1016
1020
1019
1014
1004
993
984
975
969
965
963
965
963
966
965
962
958
962
965
966
966
965
966
967
969
970
972
970
972
972
974
974
975
974
973
969
966
964
971
983
1005
1037
1071
1112
1147
1186
1215
1243
1263
1282
1293
1282
1252
1219
1190
1170
1141
1108
1078
1058
1046
1031
1011
993
974
965
951
943
937
937
931
927
926
928
929
930
927
925
927
930
929
930
926
926
929
930
934
934
932
932
931
933
933
933
931
931
931
937
938
937
933
932
933
934
936
934
931
929
929
934
936
935
932
936
938
939
940
934
932
933
935
938
942
948
947
945
945
950
952
955
954
958
960
963
961
963
967
971
976
983
987
989
988
989
992
999
1001
1005
1003
1007
1008
1009
1004
998
997
1000
1004
1002
997
994
991
990
989
991
991
986
979
978
981
985
983
982
978
978
979
979
976
974
974
976
978
979
980
977
975
974
976
975
975
975
974
976
973
972
970
968
972
973
977
978
976
971
970
971
971
973
973
973
971
969
972
972
972
971
967
968
974
977
977
978
974
974
973
975
973
972
972
971
975
976
974
974
974
978
982
982
979
979
978
985
992
997
999
1000
999
1000
998
998
999
1000
1002
1009
1011
1012
1016
1019
1018
1015
1014
1014
1015
1011
1009
1005
1001
996
986
975
965
961
963
962
959
955
956
958
960
962
962
959
958
962
965
968
965
961
961
961
965
967
969
969
966
965
967
969
968
962
956
962
970
991
1020
1057
1095
1137
1177
1208
1232
1247
1262
1278
1286
1270
1240
1210
1185
1161
1134
1105
1081
1067
1054
1034
1016
997
987
975
963
949
941
941
940
935
930
927
927
928
927
925
923
925
931
933
931
927
926
929
931
932
932
929
923
926
932
936
934
931
927
925
925
925
928
927
921
925
925
928
927
925
921
926
929
930
931
933
931
930
928
932
935
935
937
937
941
940
939
940
938
942
944
949
951
955
957
957
958
959
962
963
967
971
974
982
981
983
981
988
991
996
999
997
997
995
996
996
995
992
993
994
993
994
989
987
985
985
984
984
981
980
976
977
978
979
976
975
972
976
975
976
973
969
968
968
971
972
975
968
967
967
968
971
969
967
965
967
968
968
968
968
966
967
971
971
967
964
963
964
967
965
967
966
963
963
966
969
971
969
967
968
970
971
971
971
967
971
973
972
974
971
971
970
973
973
973
972
970
970
973
977
975
972
971
972
974
977
981
982
983
988
992
999
998
999
993
993
1001
1004
1010
1012
1011
1011
1016
1019
1021
1020
1016
1016
1016
1016
1015
1010
1001
991
984
976
966
961
957
955
956
959
959
958
956
957
959
961
964
962
955
953
957
962
966
965
962
961
965
965
964
967
964
963
957
954
955
956
969
993
1025
1055
1086
1116
1142
1178
1212
1241
1264
1275
1268
1245
1216
1193
1171
1142
1109
1083
1066
1053
1035
1014
996
986
979
970
957
943
935
930
929
926
921
915
912
913
915
915
912
910
911
913
917
919
921
917
915
916
917
920
917
915
910
913
913
912
912
914
916
917
915
913
917
917
917
917
920
922
922
921
921
923
921
922
922
920
919
923
927
929
928
924
927
931
938
942
941
939
937
940
947
949
952
952
953
958
961
961
964
964
967
974
975
978
980
979
979
980
985
982
980
980
979
983
984
985
982
975
969
971
970
971
970
966
963
961
964
963
963
962
959
959
958
962
965
961
958
959
962
961
961
960
954
954
957
955
954
952
951
953
953
953
952
949
945
945
948
947
944
938
938
935
933
932
931
931
929
930
927
928
931
935
943
944
945
944
944
939
929
930
936
937
934
929
931
936
943
947
945
941
941
945
948
951
958
967
967
968
962
968
971
977
982
988
987
984
981
984
993
1002
1007
1009
1009
1010
1016
1018
1017
1018
1014
1008
1007
1005
1003
996
983
967
957
954
954
955
953
955
951
953
957
960
965
965
964
965
967
969
969
969
969
971
975
981
981
982
981
981
982
981
978
976
985
1004
1035
1069
1112
1153
1193
1235
1266
1286
1293
1277
1248
1225
1204
1178
1141
1107
1090
1080
1070
1057
1039
1023
1009
995
982
972
963
954
941
937
935
934
932
928
924
926
930
931
932
928
925
927
925
927
926
924
921
920
923
926
924
923
920
921
922
922
922
922
924
929
927
930
927
927
926
926
928
928
929
929
928
926
929
932
933
932
929
934
936
940
942
938
937
936
943
948
950
950
947
948
952
957
961
964
965
965
970
974
976
975
976
980
980
980
979
978
979
983
982
980
979
977
976
975
978
978
974
968
964
963
964
966
965
959
956
956
959
960
959
957
953
956
959
960
958
957
953
952
954
955
953
955
951
954
957
957
955
955
950
950
955
956
958
958
957
956
957
960
959
956
956
956
957
957
958
956
954
956
955
955
954
955
957
956
959
959
957
956
953
954
954
956
957
954
954
955
957
958
955
955
952
953
957
960
963
964
960
963
967
968
970
972
980
987
995
999
997
999
1001
1000
993
987
985
990
990
989
981
973
963
951
946
949
949
950
953
954
955
955
955
957
959
958
955
959
966
970
975
973
969
969
973
976
977
979
972
967
968
974
991
1020
1059
1099
1144
1192
1233
1264
1279
1276
1255
1225
1199
1188
1175
1155
1127
1104
1081
1062
1041
1018
1000
988
976
963
953
952
951
951
948
947
945
947
948
948
944
941
945
948
949
949
950
951
950
951
952
953
951
949
947
949
951
950
950
952
951
948
948
951
953
955
952
950
947
946
947
948
949
950
946
942
942
945
945
948
948
949
947
949
950
955
958
959
957
954
953
957
964
970
972
969
969
974
982
988
989
987
984
985
988
991
989
986
983
987
987
989
980
975
973
974
975
975
971
965
962
967
968
967
964
962
959
958
960
958
958
959
958
958
957
958
960
956
952
950
953
956
958
957
954
955
955
954
952
954
953
957
954
953
951
954
951
952
956
956
953
949
947
951
952
956
952
956
954
957
957
958
958
957
953
957
962
964
962
965
963
965
966
968
968
967
966
971
972
976
976
977
977
981
986
990
995
995
994
994
995
1000
1007
1011
1011
1017
1021
1025
1025
1025
1022
1022
1023
1025
1024
1017
1012
1007
997
987
978
972
970
970
971
973
968
967
967
969
970
971
969
970
967
969
974
975
973
971
970
971
975
974
974
970
968
963
972
986
1011
1046
1083
1126
1166
1208
1238
1256
1270
1280
1275
1253
1215
1184
1159
1142
1117
1092
1071
1052
1029
1010
996
985
973
957
949
943
941
940
939
932
931
932
935
934
932
934
932
934
933
935
933
931
932
934
937
938
936
935
931
934
934
937
936
937
936
936
936
937
933
932
933
938
935
935
933
933
933
933
935
937
936
938
936
938
937
940
944
946
944
945
946
950
952
954
956
959
963
970
970
972
974
975
984
989
992
995
997
1000
1000
1002
1001
1000
1000
1000
1000
1000
998
996
995
995
997
996
993
987
983
986
986
985
983
980
977
981
981
980
980
977
974
977
976
979
979
977
975
975
975
976
976
974
975
977
976
976
976
977
976
974
975
977
974
973
971
972
975
976
976
973
971
974
978
978
976
971
971
972
974
978
975
975
972
973
978
978
976
974
972
973
977
978
978
977
976
974
975
972
975
975
974
974
976
979
982
982
985
989
999
1004
1003
998
991
991
997
1004
1008
1010
1010
1013
1017
1019
1021
1020
1021
1018
1017
1015
1011
1004
994
989
979
969
960
957
957
959
955
957
954
953
951
954
955
957
957
956
953
954
956
961
961
960
956
957
956
959
961
961
956
954
956
953
955
963
982
1013
1048
1091
1132
1174
1205
1231
1247
1261
1272
1268
1241
1204
1174
1152
1128
1100
1072
1055
1042
1023
1005
985
970
955
943
932
928
926
922
921
917
915
915
915
913
912
912
918
918
914
912
913
916
917
919
919
915
912
910
911
915
918
917
915
917
918
917
916
915
919
919
919
915
916
914
913
915
919
919
916
914
915
918
919
919
919
921
919
922
924
926
927
928
929
934
938
942
942
941
946
953
958
958
959
962
968
974
975
978
977
981
985
986
988
987
985
985
985
985
984
985
981
975
979
979
979
979
978
977
975
973
970
970
971
969
969
973
973
971
968
967
973
974
975
973
967
963
967
974
972
968
965
967
969
970
970
