962
959
959
962
962
962
962
958
955
956
957
958
953
952
949
950
952
951
951
953
945
945
944
952
951
950
948
947
949
949
947
946
947
951
954
952
948
946
946
950
951
950
948
946
946
950
951
951
950
951
948
949
952
953
952
953
951
953
956
954
951
951
954
956
959
955
954
954
954
958
963
967
970
972
971
970
970
970
974
980
986
990
994
996
995
993
993
991
990
989
987
986
983
974
965
953
941
938
938
938
941
941
938
936
938
941
942
942
942
939
938
943
945
949
949
946
946
949
955
952
949
942
941
948
959
978
1010
1047
1091
1139
1186
1222
1249
1263
1264
1250
1223
1195
1166
1132
1094
1064
1052
1042
1026
1004
979
964
951
940
928
921
915
913
914
910
910
907
906
904
909
909
907
908
907
910
915
915
914
908
911
915
919
917
915
914
914
915
917
919
916
915
913
913
914
915
914
914
914
913
915
914
920
917
916
917
919
920
920
921
917
921
928
925
929
928
932
939
943
944
946
947
951
956
961
967
965
967
972
976
981
982
982
983
982
983
988
987
983
982
980
980
979
978
974
970
970
970
971
970
969
969
965
964
966
966
964
963
962
964
965
963
964
964
964
963
964
966
962
963
961
965
967
962
963
960
958
961
963
965
963
961
961
961
965
964
962
963
960
964
962
964
961
964
962
965
965
964
966
963
962
965
965
966
967
966
965
965
967
966
968
965
963
968
970
967
967
966
967
969
970
968
967
967
972
978
982
985
985
981
979
983
991
996
999
1000
999
1005
1008
1011
1012
1009
1007
1003
999
992
987
982
976
971
960
946
935
924
921
927
936
945
952
955
958
963
969
967
968
965
961
963
970
974
973
975
979
990
992
990
982
981
984
990
996
1004
1022
1047
1076
1116
1157
1201
1240
1272
1288
1296
1290
1265
1237
1210
1189
1175
1154
1121
1091
1072
1054
1039
1021
1005
988
975
963
954
949
944
939
933
931
935
938
935
938
933
935
941
941
942
939
940
942
942
942
939
937
935
934
936
938
939
936
931
931
931
930
930
927
924
922
926
928
931
929
927
928
934
936
938
939
940
939
943
948
952
952
952
950
956
959
962
960
960
958
962
967
968
971
967
968
976
984
987
983
981
980
989
997
1001
1001
1002
1003
1007
1010
1008
1001
1000
1001
1006
1006
1004
1001
1004
1001
1002
1003
1000
995
994
992
994
998
997
994
990
989
991
991
989
988
988
985
987
987
985
983
980
980
983
988
986
985
982
982
984
984
986
985
981
978
979
983
983
985
983
980
980
984
980
977
976
971
971
973
971
970
970
969
967
971
968
964
964
961
962
962
961
958
959
959
959
961
959
956
953
953
954
957
957
957
953
954
954
958
957
958
958
959
966
972
975
978
976
972
975
980
984
988
990
993
995
999
998
1000
1000
1000
998
999
996
994
992
991
986
976
963
951
945
943
944
947
948
946
944
945
946
947
948
947
947
945
950
950
949
952
951
951
953
953
954
955
954
955
955
955
952
952
950
956
970
988
1018
1047
1082
1121
1165
1201
1230
1250
1265
1273
1272
1250
1228
1205
1180
1156
1124
1094
1074
1059
1041
1019
1003
989
974
961
946
936
931
929
926
921
917
915
913
916
914
910
911
912
914
918
919
914
914
916
919
919
920
918
918
917
920
920
920
919
916
917
918
922
921
919
920
917
918
921
919
915
916
915
918
922
919
920
918
916
916
922
921
919
917
917
922
925
927
928
928
928
933
938
938
940
943
941
949
951
957
958
960
963
966
972
974
975
978
981
985
985
982
981
980
983
984
987
984
980
978
976
979
979
976
974
971
968
967
969
967
961
961
959
961
963
960
958
956
955
956
958
958
957
956
955
956
957
954
953
951
951
954
955
954
954
951
951
951
953
953
952
949
951
951
954
950
951
947
949
951
952
953
952
951
950
952
955
956
953
951
951
952
955
957
956
956
954
956
963
964
966
962
960
960
964
963
964
962
963
967
968
972
970
973
975
982
986
985
982
983
988
999
1005
1007
1005
1005
1007
1013
1019
1022
1024
1020
1019
1021
1020
1017
1008
993
980
975
974
975
972
967
968
970
972
971
970
972
969
972
972
971
970
970
970
974
977
976
975
973
972
974
977
977
975
969
968
977
990
1009
1040
1071
1108
1148
1188
1221
1244
1257
1268
1273
1256
1227
1200
1178
1158
1139
1110
1083
1063
1049
1034
1015
1001
985
971
958
947
936
934
930
927
923
920
918
922
922
920
916
916
922
924
924
924
925
925
926
927
926
926
925
925
928
929
928
925
925
923
928
930
927
926
922
923
924
926
927
923
922
920
922
923
923
921
922
921
924
925
922
923
923
921
926
929
929
927
929
931
932
938
939
938
940
939
945
949
950
951
953
957
962
969
966
969
972
974
978
983
986
984
985
985
989
991
990
986
983
982
984
988
985
983
980
979
977
978
978
973
971
969
969
972
969
966
966
964
966
966
966
965
962
963
962
964
964
963
961
962
961
964
960
961
959
958
963
965
962
962
959
958
960
964
962
958
960
958
963
963
962
961
961
960
961
966
963
962
961
959
963
963
964
963
963
962
963
965
965
965
964
960
966
966
965
966
962
963
965
966
966
966
966
964
966
968
969
969
971
978
984
987
987
985
980
978
983
990
996
998
1000
1000
1002
1004
1005
1006
1004
1004
1002
1002
1000
1002
996
987
980
973
962
959
956
955
954
954
953
951
951
952
951
954
953
953
952
951
952
955
957
958
958
957
959
963
960
960
958
961
961
960
958
961
969
993
1024
1062
1099
1136
1173
1207
1237
1255
1269
1276
1268
1242
1219
1196
1171
1137
1100
1070
1058
1048
1027
1007
990
972
962
956
948
933
929
926
923
925
920
916
915
914
918
918
918
916
913
916
918
923
924
925
920
920
922
926
924
923
923
922
925
924
923
923
922
921
923
921
923
923
924
923
922
924
925
922
923
923
925
930
928
927
929
931
933
937
938
936
934
937
938
944
948
949
946
950
955
964
968
969
968
969
972
979
981
982
987
988
989
993
996
995
992
991
992
993
990
987
985
983
986
986
984
983
977
974
974
975
975
974
970
966
967
970
974
971
969
967
969
971
968
963
962
959
962
966
967
967
962
963
963
964
959
959
958
957
960
960
960
960
958
957
958
962
964
965
961
964
964
962
962
965
963
966
967
970
967
965
963
964
965
968
969
966
964
963
967
968
969
970
967
966
970
971
972
969
970
972
974
975
975
973
971
974
980
988
990
988
987
987
988
989
990
994
998
1002
1010
1014
1011
1012
1013
1015
1017
1018
1017
1009
1003
1003
1010
1012
1004
991
979
968
970
971
968
966
966
966
967
970
970
971
970
974
976
981
983
985
983
985
988
992
992
992
991
992
996
998
998
992
989
989
991
1000
1011
1030
1058
1091
1126
1165
1205
1236
1257
1271
1283
1283
1262
1223
1196
1176
1164
1144
1114
1080
1063
1048
1033
1018
1002
988
977
967
960
957
955
951
947
942
941
944
946
941
940
941
944
948
948
946
945
948
950
951
954
955
953
949
951
955
955
955
955
955
957
954
951
952
951
950
951
953
952
952
949
947
949
952
953
950
950
948
950
953
954
953
949
951
955
958
958
958
958
958
965
968
969
972
970
973
977
981
984
986
991
995
1000
1005
1004
1004
1005
1010
1015
1016
1012
1011
1012
1015
1016
1018
1014
1011
1006
1004
1007
1008
1005
1001
996
992
997
999
999
994
991
992
994
992
990
990
987
992
993
991
993
991
992
990
991
990
989
988
985
986
991
992
989
987
983
983
986
986
987
985
982
983
985
985
985
982
982
979
980
982
986
985
986
983
985
987
982
983
982
982
987
990
988
983
979
983
988
991
988
981
979
978
983
985
985
982
979
978
982
986
988
991
995
998
1004
1011
1008
1004
1002
1004
1010
1012
1016
1019
1020
1023
1029
1030
1028
1025
1025
1023
1022
1022
1020
1014
1007
999
988
983
977
971
968
969
968
969
966
968
966
967
970
967
969
967
970
967
970
973
972
972
971
974
976
979
980
977
974
972
971
973
972
972
975
987
1008
1039
1075
1113
1152
1189
1222
1249
1267
1279
1276
1256
1226
1200
1178
1163
1136
1105
1083
1070
1055
1033
1013
995
985
978
968
954
944
941
939
938
937
935
932
932
931
934
934
934
932
934
934
937
936
937
934
935
933
934
936
936
937
938
938
938
936
934
933
937
937
938
935
933
934
935
937
940
939
934
934
933
938
939
938
937
934
934
936
939
941
941
941
940
944
947
951
951
950
952
959
963
966
969
967
969
977
980
984
986
988
993
997
999
1001
1000
1000
1000
1003
1005
1007
1002
999
998
996
999
994
992
985
987
987
988
986
983
977
978
977
978
977
974
972
971
971
970
969
965
964
965
966
965
965
962
958
958
958
960
960
956
953
953
957
959
960
957
956
953
956
958
958
957
955
954
957
960
960
959
957
957
957
957
957
962
959
959
961
964
963
962
959
959
961
962
965
963
965
964
971
971
969
966
961
966
970
976
980
982
984
988
994
995
991
989
990
992
997
1003
1005
1006
1008
1011
1016
1014
1011
1011
1007
1004
1000
1000
993
984
970
961
956
951
952
953
948
951
954
958
959
956
954
954
958
962
959
957
955
957
959
962
964
965
967
966
969
969
969
966
964
961
975
994
1022
1055
1088
1130
1172
1212
1240
1260
1277
1288
1283
1264
1234
1210
1185
1157
1120
1085
1059
1046
1032
1014
997
984
973
962
950
936
931
932
934
928
922
920
920
921
922
921
920
923
924
926
929
929
926
922
923
925
925
927
925
925
927
925
925
927
925
926
929
929
926
925
923
926
928
928
924
921
921
922
927
929
927
924
920
922
929
931
931
927
928
931
932
939
939
942
941
946
951
957
960
959
963
969
973
976
981
985
986
993
996
997
997
1001
1000
1001
1005
1007
1008
1007
1007
1006
1002
1001
998
998
998
1000
998
996
995
993
991
989
991
990
988
987
988
987
988
989
990
987
986
985
985
989
989
987
985
985
987
989
985
985
982
986
985
986
983
985
982
982
981
981
982
980
979
979
983
983
983
980
978
979
982
983
984
985
983
981
982
983
985
982
978
979
984
986
985
980
977
977
979
980
981
980
978
977
978
981
982
981
981
982
985
988
990
994
998
1003
1008
1008
1007
1004
1006
1010
1016
1021
1023
1022
1024
1026
1030
1028
1025
1022
1018
1015
1013
1007
998
986
975
970
970
972
968
965
958
964
967
969
968
966
965
967
968
970
972
969
970
974
975
973
974
975
974
975
975
973
972
970
967
970
986
1012
1045
1083
1123
1165
1204
1230
1251
1268
1273
1266
1239
1207
1178
1156
1134
1108
1081
1064
1050
1030
1008
994
983
975
966
952
942
940
942
939
936
931
931
931
933
933
934
930
930
935
938
939
936
934
933
936
939
942
940
936
933
934
936
940
939
939
935
933
937
940
940
937
936
937
937
937
938
938
936
937
935
937
935
938
936
937
941
941
940
939
937
942
945
947
949
953
955
959
959
959
962
967
971
974
976
984
988
988
992
996
999
1003
1003
1001
1000
1005
1007
1010
1008
1004
1000
996
998
998
996
995
992
989
986
986
985
984
980
980
980
979
980
979
975
977
978
976
976
974
975
972
973
976
976
974
971
973
976
977
977
973
970
972
976
975
975
974
971
969
972
977
980
973
969
969
974
975
972
971
971
968
971
974
977
973
970
968
975
976
976
972
970
972
976
977
975
975
974
975
977
975
974
974
975
975
978
977
977
977
976
983
991
996
998
996
993
998
1003
1005
1008
1005
1007
1009
1014
1015
1020
1018
1016
1008
1007
1006
1002
995
987
973
962
955
948
950
948
946
940
938
939
939
942
942
937
935
937
940
941
943
948
953
950
941
937
942
947
953
961
968
965
952
941
941
956
981
1018
1065
1116
1165
1204
1234
1255
1272
1276
1260
1226
1193
1162
1129
1092
1069
1052
1031
1006
985
973
964
952
934
920
913
916
916
912
906
906
905
905
907
907
904
904
906
906
904
907
905
907
907
910
913
914
912
910
910
916
917
918
916
917
916
918
919
920
921
919
919
919
920
921
918
919
919
923
926
926
921
919
925
930
934
932
929
928
934
942
948
946
945
943
946
953
959
960
963
964
971
974
979
982
979
979
983
989
990
989
988
985
985
984
984
981
979
974
972
972
970
967
967
967
964
963
960
954
952
954
957
960
960
957
953
949
952
955
954
953
954
951
950
954
956
955
954
951
954
953
956
956
955
953
957
954
956
954
953
952
953
956
955
956
953
952
952
956
956
955
956
954
954
956
957
958
955
954
955
955
956
958
957
955
955
956
959
960
958
957
957
963
965
963
963
963
966
972
979
983
983
982
982
982
985
993
998
1001
1006
1010
1014
1015
1018
1017
1015
1015
1015
1013
1011
1007
1002
996
985
970
961
953
955
958
957
957
957
955
957
961
962
962
959
955
958
963
966
968
968
962
961
961
965
968
966
965
967
967
970
968
965
969
990
1019
1053
1090
1131
1173
1215
1250
1274
1283
1279
1253
1226
1201
1186
1171
1143
1110
1088
1070
1057
1037
1017
997
989
975
965
955
948
942
939
938
938
935
934
931
935
936
937
936
931
931
935
937
940
939
942
943
947
949
954
955
954
947
945
945
948
949
948
946
948
949
950
947
946
940
942
945
949
946
946
941
944
942
943
942
940
940
944
945
944
946
948
950
953
956
957
961
962
963
967
972
976
981
984
986
990
999
999
999
999
998
1003
1009
1010
1006
1006
1004
1005
1005
1004
1001
999
996
999
1003
1005
1003
999
996
998
1000
1002
1003
1007
1003
1003
1004
1004
1000
997
997
999
999
999
998
998
997
994
997
997
996
995
990
994
994
993
990
989
986
986
992
995
994
990
984
982
982
983
984
982
980
982
983
984
981
979
975
975
979
976
975
974
970
971
975
975
974
971
967
972
976
976
975
973
969
970
970
973
970
967
964
967
970
972
976
978
979
982
986
986
985
988
994
1003
1011
1020
1025
1027
1028
1027
1027
1027
1034
1035
1035
1035
1036
1027
1017
1007
998
994
997
997
994
988
988
988
992
992
990
986
986
988
992
991
992
992
988
991
993
997
997
994
990
992
994
993
989
984
980
980
989
1004
1028
1062
1097
1139
1176
1212
1243
1266
1282
1290
1286
1264
1236
1214
1193
1172
1143
1117
1096
1082
1066
1047
1031
1016
1002
988
969
959
953
950
945
935
927
926
930
929
927
923
925
924
929
926
922
920
918
919
923
925
923
920
919
921
927
930
932
935
932
932
934
932
931
935
937
937
939
944
944
938
937
937
943
945
945
943
945
947
951
955
955
952
951
955
959
963
962
963
964
968
974
977
979
983
983
986
990
992
996
994
999
1004
1008
1010
1012
1013
1013
1013
1015
1017
1015
1016
1015
1015
1013
1016
1015
1013
1010
1011
1014
1011
1012
1008
1005
1004
1004
1004
1003
998
992
992
994
994
993
988
982
982
981
979
979
977
975
975
976
974
971
966
963
961
962
966
968
963
956
962
966
969
969
968
965
972
973
977
975
971
972
972
971
973
974
976
977
981
979
980
979
979
982
986
988
988
988
987
988
990
992
992
994
995
992
993
996
1000
995
997
995
996
1000
1002
1005
1001
1000
1001
1003
1001
1000
1002
1001
1005
1009
1013
1012
1009
1003
1003
1006
1010
1012
1014
1014
1014
1017
1020
1021
1023
1021
1024
1025
1032
1031
1029
1021
1017
1012
1001
986
976
970
963
965
964
960
960
960
964
965
961
960
962
964
964
964
966
967
965
965
967
974
977
975
975
970
976
980
981
981
982
976
979
986
1005
1032
1062
1092
1125
1164
1196
1228
1251
1265
1283
1292
1280
1256
1229
1210
1191
1170
1142
1113
1095
1080
1064
1044
1031
1017
1003
987
973
963
959
954
949
940
936
933
934
931
926
924
925
924
923
916
913
913
918
926
931
929
923
916
914
922
933
935
935
934
929
927
928
933
939
934
933
933
935
936
936
938
939
938
936
936
934
937
942
949
952
950
949
949
953
955
958
959
960
959
962
966
972
972
973
973
974
975
979
980
983
983
988
988
994
994
994
994
994
997
1002
1004
1001
1000
1004
1008
1009
1008
1005
1005
1004
1002
1002
1002
1000
997
998
998
996
993
992
988
989
988
986
985
985
980
979
978
975
971
967
959
960
966
973
977
974
969
968
971
975
976
968
963
963
963
959
953
953
954
959
964
967
968
965
965
964
967
971
975
974
975
971
973
976
977
976
973
977
981
984
987
985
986
987
989
990
992
990
989
991
992
993
992
992
989
990
990
987
988
988
987
987
989
987
986
980
976
976
976
978
976
977
979
982
991
995
995
991
987
990
993
996
1002
1002
1001
1005
1005
1008
1013
1011
1006
1005
1004
1002
999
990
979
966
954
952
948
949
954
959
957
955
953
953
955
960
963
962
961
962
963
965
963
964
968
970
969
969
967
967
968
969
970
969
967
968
971
977
987
1004
1028
1058
1089
1120
1152
1189
1223
1252
1272
1288
1285
1277
1257
1235
1213
1187
1155
1125
1105
1091
1073
1051
1031
1012
1000
985
968
952
937
931
927
927
925
920
919
916
918
920
930
934
936
938
939
940
933
931
929
929
931
931
929
926
922
923
929
932
928
920
915
916
921
926
927
929
928
931
930
933
935
937
937
939
944
947
948
951
951
952
954
957
957
956
956
959
965
967
968
967
964
966
970
978
979
980
977
980
985
990
992
996
994
996
1000
1004
1004
