935
935
935
935
935
935
935
935
934
938
937
943
947
951
953
956
959
963
967
972
975
979
976
979
982
985
986
985
983
983
984
983
982
981
977
977
980
977
976
973
968
969
971
970
970
967
963
963
965
966
964
963
961
962
961
965
964
962
961
961
960
961
963
962
958
959
958
960
960
962
959
958
958
959
959
957
957
958
960
960
957
957
955
956
959
960
959
954
952
954
959
962
959
957
956
956
958
959
957
956
955
958
957
959
959
957
956
959
959
960
959
958
955
959
959
959
960
959
958
957
963
962
965
967
966
975
978
982
978
975
975
979
986
993
995
994
993
994
996
998
1000
999
996
995
994
993
994
989
984
976
968
959
952
948
946
948
948
950
948
945
941
945
945
948
950
949
946
947
948
951
949
950
944
947
950
949
950
950
952
953
953
951
950
950
953
964
982
1007
1034
1071
1104
1142
1179
1207
1229
1244
1256
1260
1242
1216
1189
1166
1139
1106
1075
1053
1043
1025
1003
985
975
967
959
949
938
930
925
923
920
914
912
914
916
920
916
916
914
915
918
921
918
918
917
915
919
921
922
919
917
920
922
923
922
919
917
917
921
922
921
920
918
915
917
919
921
918
917
918
921
920
918
919
921
920
925
928
926
927
925
930
930
934
935
938
937
940
944
949
950
952
954
958
964
972
974
976
977
978
982
983
988
989
987
990
991
992
993
990
990
989
989
987
987
985
984
981
980
981
978
971
968
971
972
971
973
968
962
963
966
967
964
967
966
966
966
965
965
962
962
962
961
961
961
959
958
959
962
961
960
959
952
957
960
962
960
960
958
958
962
966
964
959
958
955
959
960
960
962
961
960
960
961
962
958
956
957
959
960
960
959
955
957
960
960
960
958
952
955
960
960
958
956
953
955
958
963
964
965
963
967
975
979
979
975
972
974
980
983
989
988
989
990
995
1000
995
994
991
990
991
990
987
983
976
970
959
952
946
945
943
943
941
942
944
942
940
940
944
945
945
944
946
946
947
948
946
944
945
947
949
950
951
947
946
947
946
946
947
950
958
979
1006
1042
1078
1116
1152
1190
1220
1241
1259
1259
1237
1206
1180
1156
1130
1101
1073
1059
1055
1043
1024
1001
986
974
965
954
941
933
926
925
925
922
920
916
912
914
916
920
921
920
918
919
925
929
927
925
922
921
923
925
924
926
925
926
926
927
924
923
921
921
922
923
923
924
923
922
924
924
924
923
919
921
921
921
925
924
922
925
926
930
929
928
929
934
936
941
942
940
944
947
955
959
960
957
959
963
967
973
976
977
977
978
983
986
984
984
980
983
980
983
981
975
972
974
973
974
971
968
964
965
964
964
963
962
958
958
960
961
960
958
955
955
956
957
957
956
953
956
955
956
954
954
951
951
954
957
957
954
952
950
952
955
954
951
951
950
953
953
952
951
951
953
957
956
953
949
947
949
952
954
953
951
949
950
952
953
953
951
951
953
957
959
957
952
949
953
957
960
960
966
964
969
974
980
976
973
975
981
988
990
991
995
997
999
1001
1003
1001
998
990
990
988
988
982
973
961
954
950
949
950
946
943
944
946
949
948
947
943
947
949
949
948
949
948
950
953
954
953
951
949
952
954
956
956
953
948
948
952
960
978
1004
1035
1072
1107
1146
1179
1209
1230
1245
1255
1252
1231
1201
1175
1154
1132
1098
1062
1040
1021
1008
989
975
963
951
942
934
930
926
925
917
912
910
911
913
912
911
907
910
913
914
915
913
910
912
914
915
919
918
915
917
918
918
920
919
917
917
919
917
919
918
914
917
918
920
917
915
914
916
919
919
917
916
918
920
922
924
923
921
920
922
923
925
928
929
929
933
939
944
942
943
944
947
950
955
961
962
961
966
972
974
977
978
976
979
980
983
984
988
987
988
987
990
986
982
979
978
981
981
978
974
972
970
973
973
971
969
969
968
967
970
970
965
964
962
962
965
965
965
961
961
959
961
961
961
959
957
958
958
960
960
959
959
962
962
961
963
962
960
960
960
960
960
958
960
961
963
961
961
956
957
959
961
962
958
956
960
963
965
964
961
958
958
962
965
964
960
958
959
962
965
962
960
961
965
968
971
975
975
975
976
980
981
978
982
985
988
992
997
999
998
998
1000
1005
1003
1003
998
994
996
995
990
978
968
959
956
956
957
952
951
949
950
953
956
955
954
955
954
954
958
961
959
956
958
957
961
962
962
960
961
963
963
961
959
957
958
969
991
1022
1061
1095
1136
1178
1213
1234
1252
1260
1252
1231
1203
1178
1159
1138
1116
1086
1058
1037
1018
1002
985
970
958
951
940
927
924
922
924
923
921
917
915
916
916
916
917
920
921
921
922
922
923
924
925
926
926
925
925
927
931
930
930
929
925
926
930
930
927
928
924
927
929
927
928
926
925
923
922
929
928
927
924
925
927
929
931
930
927
931
934
939
940
944
941
945
947
948
949
950
950
955
961
967
968
973
972
977
981
985
986
988
989
991
993
996
995
994
993
989
989
992
989
984
981
980
981
979
978
978
976
977
976
975
973
975
975
973
975
976
973
971
968
969
970
972
972
970
968
967
968
970
970
969
970
970
970
971
973
969
966
968
970
968
967
968
968
969
969
972
971
968
967
968
970
974
970
966
968
966
971
972
973
970
967
967
969
972
970
971
968
968
972
971
969
968
965
969
974
975
973
970
967
967
971
976
977
979
983
990
995
994
988
989
990
998
1004
1007
1006
1009
1007
1006
1009
1013
1011
1009
1006
1002
1002
1000
998
986
972
964
959
958
957
956
957
958
956
956
957
957
956
959
957
959
960
959
959
959
962
965
963
963
963
968
970
969
966
961
962
966
975
992
1015
1047
1084
1127
1172
1211
1239
1263
1271
1263
1240
1216
1191
1172
1149
1117
1086
1067
1052
1029
1008
992
978
970
959
947
935
932
932
927
927
925
924
925
922
921
923
925
925
925
929
929
928
927
926
924
927
930
930
931
930
931
931
928
929
928
928
928
931
930
930
929
927
931
932
933
934
932
928
932
934
936
935
934
931
931
931
933
936
938
937
940
942
946
950
951
952
958
961
965
969
968
970
976
980
984
987
988
989
992
997
1001
999
998
993
994
996
997
996
992
989
989
988
990
987
984
981
980
979
977
977
976
974
974
976
977
974
974
968
970
970
972
969
969
964
967
969
971
970
968
965
966
967
971
967
965
965
962
966
968
967
966
966
965
966
967
966
967
962
964
963
965
966
966
966
965
964
968
968
967
964
966
967
969
970
969
964
966
969
969
970
967
965
967
968
971
970
970
970
969
973
973
973
971
970
979
983
985
987
985
984
985
989
995
998
998
999
1002
1005
1012
1010
1009
1003
1004
1007
1007
1006
1001
998
993
988
980
969
963
953
954
957
958
956
954
950
955
956
958
958
956
956
958
959
960
960
958
956
960
963
965
966
964
960
964
962
962
961
962
964
977
996
1024
1060
1097
1135
1175
1212
1239
1256
1266
1257
1237
1212
1191
1175
1155
1129
1096
1068
1051
1038
1020
998
981
969
961
952
942
935
933
931
931
930
927
925
923
924
925
924
925
924
925
928
930
929
930
927
929
931
931
930
925
925
927
929
930
928
927
923
925
929
932
931
928
927
925
929
927
927
929
925
923
926
927
930
930
930
927
931
931
931
932
934
933
938
942
942
942
943
948
954
956
958
959
964
970
975
976
979
978
978
982
985
989
989
989
989
990
993
996
993
989
986
988
985
983
984
983
978
978
979
982
979
976
975
974
975
975
975
972
968
966
968
972
972
967
965
967
968
971
970
969
963
964
965
969
968
965
964
965
966
967
966
964
964
966
967
965
968
967
965
967
966
969
967
963
963
963
967
967
966
965
963
963
965
967
968
968
965
966
967
969
967
968
965
966
966
967
968
966
964
969
969
969
969
966
967
970
971
975
978
980
980
982
988
988
986
986
986
994
999
1003
1005
1006
1006
1009
1012
1011
1008
1005
1002
1003
1004
1004
999
990
979
970
965
963
959
955
956
957
959
960
958
956
954
956
960
960
960
960
959
959
960
964
965
963
962
962
963
966
968
963
962
961
959
962
964
973
988
1015
1051
1088
1123
1159
1195
1227
1251
1264
1265
1244
1214
1188
1173
1156
1128
1095
1072
1055
1052
1040
1020
999
980
966
959
953
945
937
933
932
929
928
925
924
922
924
927
929
928
925
926
927
929
935
932
927
925
926
928
931
931
930
928
929
932
930
932
930
930
928
927
929
929
926
922
922
922
925
924
922
923
925
923
926
926
925
925
927
930
931
927
928
927
930
936
938
936
937
939
943
944
947
951
953
954
958
961
966
969
970
971
974
975
981
984
986
985
989
992
993
994
992
991
992
993
993
990
987
984
982
985
984
982
977
976
975
977
980
978
973
970
969
971
972
971
971
969
967
969
971
972
969
966
968
965
968
967
966
962
965
967
967
965
962
959
962
965
967
965
963
963
962
965
966
966
964
963
965
964
964
965
967
965
966
968
969
966
963
963
965
967
969
966
965
962
964
965
969
969
966
964
963
966
966
967
968
967
966
967
968
967
969
967
969
971
971
971
971
973
980
987
989
988
984
981
986
992
999
1001
1002
1001
1001
1004
1009
1009
1007
1004
1005
1007
1004
1000
999
995
991
985
975
964
959
954
954
956
956
954
952
950
953
956
957
955
957
954
954
956
956
957
957
954
956
959
962
965
959
959
962
960
961
961
958
957
960
969
981
1004
1026
1057
1092
1129
1165
1196
1220
1240
1260
1265
1255
1229
1200
1178
1161
1143
1120
1090
1068
1057
1042
1027
1008
989
974
962
952
941
931
926
923
920
919
917
918
918
919
914
914
913
918
919
918
918
919
919
920
919
918
920
923
922
923
923
920
919
920
923
923
923
920
919
917
918
919
919
919
918
919
919
920
919
917
918
918
920
921
918
919
918
918
922
925
925
925
923
926
931
936
937
937
935
938
943
949
951
955
957
957
961
966
964
969
969
974
978
980
980
982
981
986
988
991
990
987
983
985
986
987
987
984
982
979
980
980
977
976
972
970
969
970
969
968
966
967
969
969
966
965
962
962
965
969
965
964
961
960
962
965
964
961
957
960
961
963
961
960
959
960
961
961
962
958
957
961
960
962
962
959
957
959
962
963
964
961
960
962
963
966
964
961
962
961
963
963
962
961
961
962
964
966
962
961
958
961
965
965
964
964
961
964
966
967
967
965
963
962
965
968
970
973
974
980
983
986
985
982
980
985
989
992
993
994
995
998
1002
1005
1002
1003
999
997
998
999
996
993
984
976
969
964
960
955
948
947
950
953
951
949
948
951
953
953
952
952
950
953
955
955
957
956
956
956
959
961
960
957
955
959
955
959
961
967
987
1019
1057
1099
1143
1176
1213
1242
1264
1280
1275
1253
1223
1194
1170
1149
1118
1085
1059
1044
1031
1012
995
977
966
957
947
937
932
926
925
922
919
917
916
917
913
912
918
920
920
919
916
918
919
920
920
921
919
921
924
924
923
922
918
918
922
922
923
923
922
918
922
924
923
921
919
920
924
925
925
921
920
919
922
922
922
924
924
926
928
927
930
932
931
934
937
940
941
942
942
944
952
956
958
962
962
964
969
973
977
978
977
982
986
989
992
992
992
991
990
988
989
987
983
983
984
982
980
979
974
974
974
972
972
970
965
967
972
972
970
969
963
964
965
965
966
967
964
963
964
965
964
962
961
961
963
964
963
964
960
960
961
960
959
960
958
958
960
963
962
961
960
961
963
964
963
963
958
960
963
964
963
965
964
959
963
966
965
964
961
960
962
963
964
962
960
962
963
965
965
962
961
960
962
962
963
962
963
963
966
972
974
976
974
977
980
982
979
980
979
988
992
995
999
997
999
1002
1003
1002
1001
997
993
993
990
989
985
977
968
959
958
955
952
949
948
949
948
948
948
946
949
953
953
954
955
955
954
955
956
958
959
957
956
956
960
962
959
960
957
956
960
961
969
985
1014
1047
1087
1120
1158
1190
1215
1240
1257
1268
1264
1242
1210
1186
1168
1147
1112
1076
1049
1031
1018
1005
985
968
958
951
947
940
931
925
921
919
918
919
918
919
916
917
919
920
920
917
921
921
924
920
920
922
919
920
925
926
920
922
921
922
923
923
922
924
921
920
921
921
919
922
920
923
924
924
922
922
922
922
924
924
924
924
925
927
933
932
936
932
933
937
943
944
945
944
944
950
955
959
961
963
966
970
975
979
979
983
980
985
987
989
988
986
985
987
986
984
985
980
976
976
976
978
977
976
971
971
973
973
972
971
970
968
971
974
970
968
966
968
969
968
969
968
966
965
966
964
968
964
965
965
968
968
968
966
964
969
970
969
967
967
966
969
968
971
970
966
964
969
967
970
969
968
967
968
971
970
972
969
968
969
973
975
975
971
967
969
969
973
973
973
970
971
973
977
978
977
974
977
983
989
993
992
992
992
993
994
996
1001
1003
1008
1010
1013
1015
1015
1013
1014
1011
1010
1010
1008
1004
1000
992
985
974
966
961
961
960
965
962
960
961
961
965
969
968
966
961
965
966
966
969
966
964
966
969
971
973
971
966
965
967
973
980
993
1009
1036
1066
1100
1135
1173
1207
1237
1257
1274
1268
1243
1210
1183
1160
1138
1106
1079
1063
1050
1031
1013
998
985
973
962
955
950
943
939
936
934
934
934
931
932
928
932
935
938
937
934
931
932
934
935
938
936
936
933
938
936
937
937
935
935
937
937
937
935
936
937
938
938
936
936
937
937
938
940
938
936
936
935
937
942
941
941
938
941
943
946
948
947
945
947
952
958
960
962
962
962
968
975
979
982
983
985
991
994
996
997
1001
1002
1005
1005
1003
1002
1001
1003
1002
1002
999
996
994
993
994
993
990
989
986
988
990
989
989
986
982
984
984
985
984
981
980
979
981
985
980
983
978
978
980
981
981
978
974
976
978
980
981
978
978
980
979
978
978
980
978
978
979
981
980
980
979
979
982
981
982
981
981
981
982
984
981
979
978
981
984
983
983
984
981
985
986
989
986
982
980
981
985
986
987
989
994
1001
1005
1006
1002
1000
998
1002
1010
1014
1016
1017
1014
1016
1023
1026
1024
1020
1015
1015
1016
1013
1006
992
980
970
972
971
971
969
966
968
967
970
973
971
971
972
972
972
972
971
971
975
977
978
980
979
975
979
981
983
983
978
975
979
986
1003
1029
1064
1102
1147
1190
1225
1250
1266
1278
1288
1279
1253
1218
1192
1167
1134
1106
1086
1071
1055
1032
1012
996
987
976
966
954
950
950
947
943
938
937
938
938
938
940
937
937
938
940
945
943
943
940
941
946
948
945
942
940
941
943
947
946
941
940
941
945
946
946
944
936
935
940
943
941
942
939
939
940
943
940
938
938
938
940
943
944
942
943
946
948
951
955
957
958
961
963
968
969
970
970
974
979
983
985
988
987
992
997
1002
1004
1004
1003
1002
1004
1008
1005
1005
999
1001
1002
1001
1001
999
993
994
997
995
995
994
991
989
990
988
987
984
984
985
986
984
986
984
983
983
983
985
984
981
979
979
980
979
977
977
978
981
981
982
982
981
979
982
983
984
981
979
977
978
981
985
985
983
978
979
981
983
982
979
978
981
980
979
978
979
980
980
983
983
982
981
979
980
980
980
981
980
978
981
984
983
983
981
983
988
995
1000
1000
997
995
999
1005
1011
1015
1014
1014
1017
1020
1024
1022
1017
1014
1011
1014
1012
1006
998
986
977
972
968
967
964
964
965
965
970
971
970
966
966
967
969
970
970
967
969
973
974
975
973
970
972
973
973
974
970
968
976
990
1018
1050
1085
1124
1169
1212
1244
1267
1276
1264
1237
1210
1184
1156
1123
1092
1071
1063
1058
1041
1019
998
985
974
963
953
945
940
940
939
936
936
932
933
932
934
937
936
934
934
936
939
942
940
937
936
938
939
941
939
939
939
940
942
943
941
940
939
937
938
939
942
939
939
939
939
938
936
936
938
939
940
943
942
939
942
941
943
942
945
944
943
947
951
955
958
959
960
962
966
968
971
972
970
975
980
986
990
992
990
993
996
999
998
999
999
1002
1003
1002
1002
1000
999
996
997
998
994
993
988
987
988
991
989
984
984
984
982
986
982
982
982
980
982
982
979
980
977
979
981
980
977
975
972
974
975
973
973
973
973
974
974
976
975
975
975
974
975
977
977
975
975
975
975
976
971
974
971
975
978
978
976
974
971
973
975
978
977
977
974
975
977
976
976
973
970
974
975
974
976
972
972
971
975
976
975
976
976
976
980
982
986
990
988
991
994
994
989
989
991
999
1005
1010
1011
1009
1010
1012
1018
1019
1017
1013
1009
1011
1010
1005
1001
992
980
973
968
968
966
962
960
962
965
965
965
963
963
965
968
969
968
966
963
967
969
969
971
973
971
971
972
975
975
972
970
971
978
990
1010
1038
1070
1106
1140
1174
1200
1225
1245
1262
1273
1264
1237
1205
1176
1156
1130
1099
1071
1051
1039
1024
1007
993
980
972
964
958
953
946
942
935
934
934
935
932
933
931
930
935
937
937
938
935
937
937
941
