998
997
995
996
992
988
979
967
957
950
948
948
950
949
948
947
947
947
949
950
948
947
948
950
952
952
954
952
951
952
955
956
956
955
951
951
949
957
966
986
1017
1052
1092
1134
1173
1207
1234
1256
1266
1256
1223
1191
1164
1140
1109
1079
1058
1042
1024
1005
986
973
964
950
936
932
927
925
920
915
910
912
912
915
916
914
914
916
919
918
919
920
917
919
922
923
920
920
916
918
920
922
919
920
918
918
920
922
923
921
918
916
917
920
921
917
916
917
920
923
921
920
920
923
925
928
927
927
926
928
935
941
940
943
941
946
949
955
959
963
967
971
977
979
981
980
980
982
985
989
986
984
982
980
982
981
983
978
975
971
972
974
973
968
966
967
966
964
964
963
961
961
962
962
963
961
960
962
961
962
959
957
955
955
959
960
962
959
958
958
960
962
961
955
955
956
957
959
959
958
955
959
959
960
958
955
954
957
958
960
956
953
954
953
955
956
956
955
954
956
960
959
955
956
956
958
962
960
959
958
955
960
966
969
973
976
977
978
981
978
980
980
985
987
988
993
994
1000
997
1001
1001
999
998
994
995
991
988
982
971
959
951
949
950
945
944
944
942
944
947
946
947
946
946
947
951
951
949
947
946
953
957
958
958
953
953
952
954
954
951
950
950
962
984
1013
1049
1088
1128
1172
1208
1238
1262
1267
1259
1236
1209
1187
1163
1134
1100
1071
1056
1039
1023
999
979
965
956
944
933
925
920
917
915
914
912
908
909
911
913
913
915
915
909
916
917
918
919
917
913
915
919
920
918
919
919
921
922
920
920
919
916
915
918
922
920
917
914
918
917
919
917
918
919
918
921
922
922
924
923
923
927
929
933
933
933
936
941
945
949
950
950
952
958
963
965
965
970
973
977
975
977
979
982
986
989
988
986
983
983
984
985
984
984
980
978
978
979
974
975
972
969
969
972
971
969
967
964
963
964
966
965
962
961
962
962
963
959
958
959
957
959
959
956
954
955
955
956
958
958
956
956
957
957
958
960
958
958
960
960
962
960
958
956
959
960
958
960
959
957
958
960
963
961
960
956
957
958
962
964
962
959
961
963
964
962
960
963
963
965
965
964
961
960
960
964
966
967
968
971
975
979
981
981
977
978
980
986
992
994
997
995
1000
1000
1004
1004
998
998
997
1000
999
997
994
985
979
971
964
955
949
949
949
950
951
953
953
952
953
951
952
953
952
951
954
957
956
955
955
955
957
959
960
960
959
961
961
963
958
960
963
972
997
1028
1062
1097
1133
1168
1206
1237
1255
1271
1274
1262
1238
1209
1184
1163
1140
1109
1079
1061
1050
1033
1011
995
982
972
963
950
939
931
929
931
927
923
920
917
917
919
921
920
917
918
918
922
924
922
924
923
925
927
924
925
922
919
922
924
926
926
924
922
922
924
925
921
919
919
921
925
925
925
923
923
924
927
926
925
924
919
925
926
930
928
930
928
930
936
937
938
939
939
941
946
946
947
948
950
958
961
966
966
969
969
972
980
982
984
984
984
985
985
988
988
988
985
987
988
987
983
981
980
979
977
975
975
974
970
969
971
970
969
968
965
966
966
970
967
964
965
965
967
967
967
965
963
965
965
967
968
965
963
962
966
965
965
964
966
968
970
970
967
965
962
964
966
967
965
964
963
963
967
963
964
964
962
963
963
962
963
962
961
963
962
965
964
961
961
962
962
965
965
963
963
965
967
968
967
966
966
969
977
984
985
984
986
985
986
990
992
993
994
999
999
1006
1009
1011
1010
1009
1007
1006
1006
1003
999
996
988
980
964
958
950
950
949
951
953
953
952
951
954
954
954
952
952
949
952
955
956
954
951
955
960
962
961
960
956
957
957
956
955
958
966
984
1008
1038
1072
1111
1153
1191
1224
1253
1272
1278
1261
1237
1212
1190
1164
1132
1099
1075
1063
1054
1039
1019
1000
987
979
969
957
943
933
928
926
924
921
916
915
918
919
918
918
919
918
919
921
923
923
920
922
923
924
926
925
924
923
925
927
927
929
924
923
926
927
927
926
922
922
921
923
925
924
923
921
922
926
928
928
924
921
923
928
930
928
929
928
930
937
937
938
939
940
944
947
949
951
952
954
958
963
969
970
972
972
976
980
984
987
985
983
988
991
992
991
990
989
987
992
986
985
983
978
978
976
978
979
977
975
975
973
973
968
965
963
965
969
967
965
965
962
963
964
963
959
959
958
958
959
962
961
959
957
960
960
960
958
958
957
956
961
963
962
960
958
961
962
962
961
958
957
959
962
963
963
963
962
960
962
962
961
962
957
960
961
963
962
960
956
959
965
966
964
963
960
960
964
964
965
963
961
963
965
964
965
966
963
968
974
978
984
985
983
983
982
982
985
991
993
996
1000
1004
1005
1009
1008
1007
1008
1007
1003
1003
1001
996
992
989
976
963
955
951
955
955
954
953
950
952
955
955
954
954
954
955
958
961
960
957
958
960
964
966
963
963
959
962
963
963
961
957
960
967
987
1016
1044
1079
1114
1152
1194
1225
1251
1269
1271
1254
1226
1195
1170
1145
1112
1082
1063
1049
1034
1016
1001
987
978
968
958
944
933
930
930
924
921
920
920
921
921
924
923
923
922
922
923
924
924
923
924
927
927
928
926
925
923
925
927
928
927
926
925
924
927
928
926
924
924
925
924
925
925
923
920
921
924
926
925
925
924
926
930
935
934
935
933
934
939
940
942
943
947
949
955
959
959
962
965
970
972
973
979
981
984
986
988
990
987
989
985
989
987
987
986
983
982
982
981
983
981
977
976
976
974
974
970
966
964
964
968
967
963
959
959
962
965
965
962
959
959
960
961
962
961
960
957
958
959
959
956
958
956
954
957
956
957
954
954
954
954
959
957
955
953
956
957
957
957
958
957
957
956
956
960
957
955
954
954
958
957
956
954
955
956
956
958
955
954
955
957
959
960
959
957
958
958
963
961
958
953
954
956
959
960
958
960
966
970
976
978
976
973
970
974
980
983
988
987
991
998
1000
1002
1001
997
997
995
993
991
990
990
987
985
975
963
952
946
945
945
948
944
945
940
944
948
950
947
948
943
946
948
949
949
950
947
953
954
954
954
954
951
952
953
949
948
947
951
968
989
1015
1044
1078
1114
1160
1202
1234
1257
1267
1266
1245
1218
1190
1164
1138
1104
1071
1051
1040
1030
1014
998
984
972
963
952
943
934
929
925
920
918
915
913
911
913
916
917
915
918
917
920
920
920
919
918
918
921
924
923
922
918
920
920
924
923
922
921
923
925
925
925
922
920
922
921
925
922
922
919
920
923
924
923
922
919
924
925
927
928
925
923
925
928
933
933
935
935
941
943
946
948
950
953
957
959
966
970
972
973
975
982
985
983
988
986
989
990
990
990
989
987
986
986
987
982
982
977
978
980
979
977
974
972
971
974
976
975
971
968
967
967
971
970
967
967
966
965
965
966
966
962
965
966
967
967
962
961
963
967
967
966
965
965
967
969
967
966
964
963
965
966
968
968
965
966
964
965
969
969
966
962
963
965
966
968
965
965
967
968
966
969
964
964
964
964
966
966
966
964
964
967
966
967
966
961
966
966
968
970
971
972
978
986
990
992
989
985
984
989
992
997
996
997
1001
1005
1009
1013
1013
1009
1008
1008
1007
1004
1001
999
997
991
982
974
960
954
953
956
954
953
951
950
951
954
956
955
955
951
953
955
958
958
957
956
957
960
962
964
961
960
961
962
961
957
954
954
961
971
985
1008
1039
1073
1117
1157
1195
1227
1252
1272
1284
1275
1246
1215
1190
1170
1146
1118
1088
1067
1053
1038
1021
1004
989
977
964
950
942
936
934
930
923
920
920
922
921
920
918
919
920
922
924
923
922
921
922
926
927
930
927
924
925
929
929
928
928
926
926
926
929
926
927
926
926
927
926
927
925
924
928
930
930
928
927
925
931
930
931
931
932
932
932
934
937
941
942
943
946
951
955
955
956
955
962
963
967
972
974
977
982
985
991
991
992
990
995
994
996
996
992
992
991
989
987
986
983
979
980
978
977
976
976
971
972
972
972
971
970
969
970
969
970
967
967
967
964
966
964
962
960
961
962
962
967
964
963
960
960
962
963
961
960
959
961
963
966
964
961
960
960
963
964
962
963
962
962
963
963
966
966
963
966
966
965
964
961
963
964
967
967
966
964
964
967
966
967
965
965
963
965
968
968
967
965
966
968
972
977
982
985
986
986
988
987
986
989
992
999
1000
1005
1005
1004
1005
1007
1006
1007
1004
1002
997
994
989
980
971
961
954
953
952
954
951
952
950
951
953
954
954
952
951
953
954
954
953
957
954
956
958
959
959
960
958
961
959
957
958
960
968
987
1017
1056
1097
1135
1171
1206
1234
1260
1274
1271
1252
1223
1196
1173
1143
1110
1080
1061
1051
1039
1017
997
984
970
961
949
940
936
929
924
920
920
917
915
914
915
917
919
918
916
916
917
920
921
920
920
917
921
923
920
921
920
920
921
923
924
926
923
921
923
922
923
922
921
922
921
924
925
924
920
921
921
922
922
921
922
922
926
927
927
929
929
928
930
934
936
939
939
940
944
948
953
953
955
956
961
966
970
972
972
974
978
983
986
989
988
986
986
989
989
989
987
986
986
985
982
981
980
980
980
977
975
973
972
970
968
969
968
967
965
967
966
965
966
966
966
964
965
965
966
965
966
964
964
965
964
963
960
960
961
961
964
964
960
961
960
961
964
962
961
959
960
964
966
967
964
960
961
961
962
963
960
958
963
964
966
963
963
960
959
962
965
964
964
958
961
964
966
965
962
963
965
966
968
966
967
966
973
977
982
987
986
984
983
986
989
992
995
998
1000
1006
1008
1008
1007
1002
1002
1002
1003
1002
998
991
982
973
962
954
952
949
949
951
954
950
949
948
951
955
953
954
954
951
952
956
957
957
957
959
958
961
964
963
960
954
953
955
958
971
995
1022
1059
1097
1136
1177
1210
1236
1258
1273
1268
1244
1213
1186
1161
1135
1107
1080
1067
1053
1043
1026
1013
996
983
964
949
942
937
931
927
919
918
916
917
915
913
912
914
915
920
917
918
917
919
922
924
924
920
918
920
923
922
920
922
920
922
923
924
925
923
921
920
922
922
922
923
921
922
923
923
923
924
921
924
926
927
927
927
925
929
932
933
935
935
935
939
939
946
951
949
951
952
958
962
965
968
969
975
980
984
986
987
987
989
993
995
995
992
990
991
992
994
991
990
984
986
986
981
984
979
981
980
979
978
975
972
971
970
972
971
969
968
967
967
970
971
969
968
963
968
967
967
965
964
961
963
962
965
965
964
963
965
967
966
965
963
961
962
961
966
964
964
962
963
965
962
963
961
961
962
966
965
965
965
963
964
965
966
964
963
960
963
965
967
967
967
965
963
968
968
965
964
963
965
967
969
970
967
971
975
982
986
986
985
980
980
987
989
994
996
996
1000
1008
1010
1011
1011
1006
1005
1006
1006
1004
998
992
985
975
968
960
955
952
955
953
955
957
951
950
953
956
959
960
957
955
956
961
961
962
961
959
961
963
964
960
958
954
956
964
979
1008
1039
1069
1107
1148
1191
1225
1251
1266
1270
1255
1231
1204
1179
1152
1121
1092
1072
1057
1043
1026
1008
994
982
968
952
937
932
929
930
924
920
918
920
922
921
920
920
920
922
925
926
924
925
925
927
928
929
928
927
925
927
928
930
929
929
926
927
928
930
927
928
926
927
929
929
926
924
925
923
926
930
929
930
930
932
934
935
936
938
939
942
945
947
948
953
953
957
963
966
967
967
968
972
976
981
984
985
986
990
993
997
996
995
991
991
990
990
990
986
982
980
982
981
982
979
973
974
973
974
975
973
969
968
972
970
970
968
962
963
966
969
966
964
961
961
964
966
965
961
962
961
962
964
963
962
961
961
961
962
962
962
961
962
963
965
962
962
961
960
960
964
966
962
961
962
963
963
963
960
959
962
963
964
965
962
961
963
965
965
964
962
961
963
964
965
966
961
960
965
967
969
972
972
975
982
984
984
982
981
981
987
993
998
997
999
1001
1005
1008
1008
1004
1000
997
998
998
996
988
978
964
957
954
953
952
952
947
951
953
956
954
950
947
949
954
954
954
952
950
953
954
954
958
959
958
959
960
956
954
952
951
960
977
1002
1033
1066
1103
1146
1189
1221
1247
1263
1273
1268
1245
1220
1193
1165
1134
1098
1067
1046
1033
1013
996
979
968
957
949
938
930
925
924
921
920
914
912
914
916
920
919
915
914
916
919
923
922
921
919
917
920
923
921
918
917
919
920
921
923
921
917
918
919
920
919
919
919
920
921
922
919
919
918
918
918
918
918
919
920
923
925
926
927
928
928
932
933
934
938
941
942
947
954
956
957
957
962
967
972
976
977
979
977
980
985
985
985
986
986
986
985
983
983
982
978
976
975
977
974
971
968
970
973
972
969
967
964
963
963
964
962
962
959
961
963
965
965
961
957
960
960
960
959
959
956
958
959
961
960
960
959
962
964
964
962
958
958
963
963
965
965
962
959
960
963
964
962
962
960
962
963
965
963
960
962
966
967
968
967
964
963
966
968
966
964
963
959
963
964
963
964
965
965
967
970
974
975
979
982
984
987
987
986
987
989
994
1001
1004
1007
1006
1007
1008
1008
1006
1002
999
999
1000
998
988
978
967
956
952
954
955
953
950
951
951
955
955
952
952
953
954
957
956
955
953
955
955
959
958
960
958
959
958
960
958
958
958
962
983
1012
1045
1082
1122
1156
1196
1225
1247
1267
1276
1266
1242
1210
1185
1160
1132
1100
1076
1060
1048
1032
1011
992
979
968
958
942
934
928
926
921
920
915
913
912
913
914
917
916
915
914
916
920
922
922
920
921
922
924
924
923
921
921
922
924
923
921
922
921
922
924
926
924
923
920
922
922
924
923
923
921
923
925
926
923
925
923
926
928
928
929
929
929
931
934
936
937
936
938
941
946
953
953
955
957
961
968
969
970
971
973
977
983
987
986
985
984
989
993
994
996
991
988
988
992
989
985
984
980
981
981
981
981
980
974
974
977
974
971
970
969
970
971
970
967
964
964
965
966
966
965
963
961
961
964
967
962
963
959
961
963
964
961
961
954
958
958
960
959
962
959
962
962
963
960
961
959
960
962
962
961
962
960
958
963
965
964
964
960
960
961
964
962
964
961
964
965
965
964
961
963
963
967
967
967
965
963
964
965
966
968
969
969
973
978
982
985
985
982
983
981
987
991
994
993
997
1000
1004
1008
1007
1007
1007
1008
1008
1006
1002
998
994
989
978
969
960
956
957
957
956
954
952
950
951
953
955
954
955
951
951
955
955
955
953
955
957
960
962
961
962
960
960
963
963
959
958
955
962
977
1000
1026
1052
1082
1116
1150
1184
1215
1239
1258
1273
1270
1251
1223
1194
1170
1145
1116
1090
1071
1063
1049
1033
1014
1008
994
980
968
956
947
941
937
932
924
922
923
923
921
920
919
919
921
920
922
921
921
922
925
925
923
922
921
924
926
924
925
922
923
922
925
928
929
925
922
922
924
924
925
924
919
924
927
927
928
924
922
927
925
926
926
926
926
929
931
932
930
929
930
930
933
938
938
939
942
943
945
948
951
953
953
958
964
965
967
968
968
970
976
980
981
983
984
988
988
992
992
991
990
991
993
991
987
984
981
984
982
985
981
978
974
974
975
974
973
973
973
969
971
973
974
973
969
969
969
969
968
966
963
966
967
968
968
964
961
963
965
966
965
963
962
964
964
964
966
962
963
965
968
964
964
964
961
963
964
965
963
962
962
963
965
966
967
967
964
965
964
967
963
963
962
963
966
966
966
965
963
964
968
967
968
966
963
966
967
966
968
965
965
967
965
968
970
967
965
968
975
984
990
991
989
986
987
989
992
993
994
997
1000
1006
1007
1006
1010
1009
1010
1008
1003
1000
1000
999
996
992
979
969
959
958
957
958
956
952
951
949
950
953
952
954
953
951
957
957
954
954
954
955
956
957
959
960
958
962
962
962
959
957
952
954
960
969
986
1010
1036
1070
1106
1144
1185
1216
1239
1263
1275
1270
1247
1220
1191
1170
1142
1110
1083
1061
1043
1032
1014
1000
983
970
957
947
940
935
928
923
919
917
915
919
918
916
914
917
920
921
922
917
916
918
917
921
921
924
920
922
923
924
925
925
922
923
927
927
923
922
921
923
924
927
927
922
921
922
923
920
922
921
919
921
923
926
926
926
924
924
928
934
937
938
934
937
943
945
948
947
945
952
957
962
963
965
968
972
978
982
983
984
984
988
990
991
991
989
987
989
989
988
988
986
981
980
980
977
972
973
971
969
970
970
972
971
966
967
967
966
966
964
961
961
961
965
963
963
959
959
962
962
961
958
959
959
961
961
961
959
958
958
961
962
962
962
959
958
960
960
959
959
959
960
963
961
963
962
959
962
964
964
963
962
961
962
965
964
963
960
959
962
964
962
963
962
961
962
964
966
964
964
962
965
