1009
1007
1007
1006
1006
1008
1014
1022
1027
1026
1033
1036
1034
1031
1027
1031
1034
1042
1047
1046
1047
1053
1056
1055
1054
1050
1046
1040
1037
1032
1028
1018
1007
996
985
982
979
978
975
971
968
969
969
968
966
961
965
972
974
972
970
968
969
970
975
978
981
979
979
980
980
978
976
974
978
992
1018
1052
1091
1130
1177
1220
1252
1274
1288
1295
1289
1270
1237
1208
1183
1161
1134
1105
1084
1065
1047
1024
1007
994
987
975
959
945
939
935
937
936
931
928
929
933
936
938
935
934
936
938
938
937
936
938
938
938
941
939
938
936
939
939
942
940
937
938
942
941
942
940
938
935
937
939
942
941
937
930
932
933
935
934
931
932
931
932
933
934
929
925
925
928
932
935
932
931
934
940
944
946
945
949
953
956
960
961
964
966
971
976
983
983
986
985
991
998
1002
1003
1006
999
1001
1002
1004
1006
1003
999
1000
1001
999
998
993
990
990
993
991
988
988
987
989
988
987
984
985
986
990
994
994
993
991
992
992
993
995
994
993
993
998
1002
1002
1002
1005
1000
997
999
1001
999
994
989
983
986
989
993
990
990
990
988
986
985
984
982
982
980
981
980
979
978
979
981
986
987
987
985
985
987
988
986
984
985
985
985
985
985
979
979
981
980
981
984
984
984
986
992
995
997
1000
1002
1004
1005
1003
995
999
1001
1005
1008
1015
1015
1015
1013
1013
1013
1013
1010
1004
998
998
996
990
978
969
957
953
955
958
952
949
946
948
952
960
959
958
955
959
964
967
968
970
970
972
973
976
976
977
979
981
984
984
978
975
972
976
986
1004
1025
1059
1094
1137
1182
1222
1254
1276
1290
1297
1293
1270
1236
1209
1190
1168
1143
1114
1091
1072
1055
1035
1017
1001
988
972
959
949
945
941
938
935
929
929
929
932
930
926
924
927
929
930
933
932
932
932
930
934
933
934
931
932
934
932
935
932
932
932
933
934
937
934
935
933
936
937
937
934
933
935
937
938
938
937
936
935
936
937
940
939
935
936
939
943
946
943
943
951
953
957
956
957
956
960
965
967
969
968
969
973
976
978
982
985
986
989
993
998
997
998
999
1001
1001
1002
1002
999
993
995
997
999
996
992
990
989
989
990
988
987
981
980
981
984
979
977
974
974
977
979
977
974
974
975
977
978
976
974
974
972
972
977
979
975
972
971
974
979
977
972
970
971
973
973
973
973
971
971
972
972
971
969
969
971
974
977
974
972
972
972
974
975
974
970
973
975
977
976
973
972
971
972
972
972
978
977
974
973
975
979
981
980
976
974
976
977
980
980
981
987
995
1001
1003
999
996
992
995
1001
1006
1006
1009
1011
1013
1018
1020
1022
1021
1020
1019
1019
1019
1017
1009
1002
994
983
978
967
961
962
962
961
958
959
958
961
962
964
964
963
960
963
963
966
970
967
966
967
966
970
968
968
967
965
964
961
960
960
968
983
1005
1036
1074
1113
1157
1200
1237
1259
1275
1285
1285
1272
1247
1218
1191
1165
1133
1103
1080
1065
1056
1037
1016
995
983
972
957
944
933
929
926
922
918
912
908
906
908
909
910
906
907
909
911
912
909
909
907
909
912
914
912
910
909
908
908
909
910
908
908
910
912
914
914
911
909
910
912
913
915
914
911
911
912
913
910
912
911
912
915
916
917
915
917
919
924
927
929
928
929
935
939
942
947
947
947
951
955
960
960
963
967
970
972
977
978
978
978
980
982
982
984
981
977
977
978
977
976
972
970
971
968
969
966
962
960
960
964
966
965
963
961
962
962
963
959
957
954
956
957
958
958
955
953
951
952
953
949
946
946
947
947
950
952
952
953
957
959
961
961
956
954
955
960
964
964
962
958
958
963
961
962
960
960
960
963
964
962
959
961
962
965
965
964
965
964
964
967
967
965
964
966
968
971
972
972
971
969
967
970
975
982
985
984
985
985
986
984
986
988
989
994
1000
1005
1004
1006
1008
1010
1007
1006
1005
999
1002
1000
997
983
973
961
955
950
951
950
947
945
949
951
954
955
951
948
951
953
954
960
961
955
953
957
957
958
957
954
955
957
960
958
952
949
954
967
985
1011
1038
1067
1103
1133
1166
1197
1224
1245
1259
1261
1243
1216
1194
1172
1149
1120
1090
1070
1056
1041
1023
1008
992
980
966
952
943
936
932
927
921
917
914
915
916
917
915
913
913
914
917
918
920
917
918
921
925
924
922
920
921
923
924
925
923
921
920
922
923
921
922
921
920
924
925
925
925
923
918
919
922
923
923
920
923
925
925
922
922
923
928
931
932
933
935
936
939
940
944
947
950
951
954
956
961
966
967
967
969
975
976
982
985
983
987
990
993
994
990
985
986
987
988
986
980
979
977
978
979
978
975
971
972
970
968
970
967
964
965
968
968
966
964
961
959
963
967
963
961
959
958
963
962
962
960
957
957
961
962
958
957
954
958
959
961
960
958
958
958
962
964
961
959
957
958
960
960
962
959
958
956
958
959
961
962
960
960
964
964
963
961
963
962
965
968
966
966
966
965
967
964
967
970
967
966
970
975
981
985
988
990
989
988
987
992
996
998
1002
1003
1004
1005
1007
1010
1012
1008
1004
1002
999
995
989
981
968
957
948
948
951
951
952
950
946
946
948
952
955
955
950
950
950
953
952
949
944
944
942
943
943
940
935
934
929
934
940
951
970
1001
1040
1085
1129
1171
1204
1236
1255
1258
1245
1219
1194
1173
1141
1110
1078
1063
1053
1048
1034
1014
998
980
961
943
934
930
924
918
912
912
911
913
913
911
911
914
912
915
913
912
912
913
918
916
915
915
917
915
916
918
918
916
919
921
921
922
920
919
916
916
922
924
923
918
916
917
921
921
919
919
917
920
923
926
928
925
922
924
928
934
936
939
938
942
948
952
958
956
958
960
965
971
976
973
968
973
978
984
984
984
981
985
989
988
989
989
987
986
990
989
986
980
975
973
973
973
972
971
968
967
969
970
968
963
959
961
962
961
959
957
952
954
958
958
957
954
951
952
950
947
946
946
944
947
946
944
943
942
940
942
944
945
943
943
941
943
945
947
946
943
941
945
948
947
948
946
945
944
948
949
948
947
946
945
948
946
947
946
945
946
946
947
951
949
948
948
948
950
951
954
958
963
967
969
967
963
960
962
970
973
976
979
982
985
988
990
988
982
974
979
981
979
973
963
949
940
935
933
933
930
929
928
933
934
934
934
934
933
936
938
936
937
935
939
941
940
940
938
936
937
942
943
942
938
932
934
947
973
1008
1042
1079
1124
1164
1200
1228
1247
1256
1259
1247
1223
1192
1165
1134
1102
1069
1049
1037
1021
999
979
965
953
938
925
916
915
915
910
906
903
900
899
899
898
899
898
897
899
902
904
906
905
905
906
909
906
904
907
906
908
909
911
910
910
910
909
912
916
914
912
910
911
915
918
917
914
912
914
915
918
918
917
917
919
918
923
922
922
922
924
929
934
933
931
934
937
939
944
947
948
950
955
958
964
968
969
969
974
978
982
981
980
977
974
976
976
978
979
977
975
974
973
973
971
966
966
964
965
966
963
963
961
960
959
958
958
956
955
960
956
956
954
953
953
955
957
954
952
949
950
955
955
954
954
952
951
952
954
954
953
951
951
955
954
954
954
953
954
955
956
954
953
951
952
951
952
952
951
947
950
952
951
952
951
949
951
952
951
950
949
948
948
949
952
953
953
951
953
957
959
959
955
957
959
963
967
969
971
968
970
970
970
973
977
981
985
991
995
995
997
999
995
996
994
993
990
987
984
980
978
968
957
947
942
942
942
943
941
941
941
944
946
944
943
942
944
945
946
945
946
944
947
949
950
952
948
948
948
947
943
943
948
962
989
1024
1058
1092
1123
1160
1200
1233
1255
1260
1243
1210
1183
1162
1143
1112
1078
1050
1037
1024
1009
991
975
961
951
943
934
927
921
916
912
911
911
910
910
906
908
913
915
912
911
911
911
917
917
915
912
912
915
917
919
916
914
913
913
916
917
917
916
912
914
916
919
917
915
910
910
912
915
917
915
914
917
919
920
920
917
916
919
925
927
928
930
929
934
936
939
942
942
944
949
956
958
960
962
964
967
974
978
978
978
978
980
986
985
985
981
979
978
978
981
979
976
969
967
969
971
971
969
968
967
969
967
966
966
962
959
961
963
962
959
959
961
965
963
962
957
957
957
959
961
960
958
957
958
960
960
960
960
959
956
957
959
960
958
956
958
958
960
957
958
955
955
957
956
958
958
958
958
960
960
960
962
960
964
965
962
963
961
961
963
964
966
966
962
963
966
969
972
977
980
982
983
985
983
981
984
989
997
999
1004
1004
1006
1006
1010
1009
1007
1003
999
995
997
996
993
980
967
956
951
954
956
955
953
951
952
955
957
957
956
953
955
955
959
961
960
958
958
961
963
962
962
955
955
955
957
959
963
978
1007
1041
1078
1117
1158
1202
1238
1264
1279
1273
1247
1218
1189
1169
1146
1114
1082
1060
1050
1042
1027
1006
989
972
964
954
945
937
931
926
926
923
922
921
920
918
921
922
924
925
926
925
927
925
924
924
926
922
925
927
932
931
929
927
930
930
929
928
924
924
924
926
927
930
927
924
922
926
926
926
924
924
925
924
929
929
927
924
927
930
932
935
934
933
936
939
944
949
951
951
953
958
963
964
965
970
971
969
974
976
984
984
989
992
994
996
995
994
995
995
997
992
992
990
989
991
990
989
985
984
985
986
984
983
984
983
982
983
985
985
982
980
982
983
988
986
985
985
985
989
990
990
986
984
986
989
992
990
988
987
991
993
994
992
989
985
987
989
992
992
986
987
990
988
990
990
988
985
988
989
990
990
987
986
984
988
990
991
990
987
989
989
991
988
986
983
985
989
989
989
990
988
991
996
1004
1008
1009
1010
1009
1008
1013
1019
1020
1020
1023
1025
1025
1026
1028
1029
1028
1029
1025
1023
1017
1015
1007
997
985
974
968
966
964
965
969
967
966
963
963
963
965
965
962
959
961
964
966
966
964
962
966
966
968
966
964
962
959
961
970
989
1018
1051
1093
1138
1181
1221
1249
1272
1291
1299
1285
1257
1224
1198
1169
1140
1107
1081
1062
1043
1019
1001
987
972
957
942
936
935
932
927
921
916
915
918
921
919
919
919
920
920
922
923
923
921
923
925
924
925
924
922
923
925
926
925
925
924
924
923
924
924
922
920
923
926
927
925
922
922
918
921
924
925
924
922
921
926
928
928
932
934
933
936
938
936
939
939
942
945
948
953
954
956
962
966
968
971
970
974
977
979
986
988
989
987
988
992
994
994
993
988
988
985
987
986
983
981
980
978
980
979
978
973
973
973
972
970
967
967
967
971
971
967
966
963
964
964
966
965
965
961
962
962
961
960
957
956
959
959
960
960
958
954
955
957
958
958
959
957
958
958
955
955
952
951
953
957
955
954
954
952
955
960
959
961
958
954
956
955
958
959
959
957
958
958
959
959
957
954
954
956
957
960
957
958
956
960
966
966
969
971
977
981
984
981
975
975
981
989
992
994
993
994
999
1004
1005
1002
999
996
996
998
998
989
980
966
955
950
948
947
944
944
943
944
944
946
946
946
948
951
950
949
945
947
947
950
952
952
950
951
952
951
950
949
947
943
946
957
972
996
1030
1066
1110
1156
1200
1232
1254
1270
1269
1255
1225
1199
1169
1137
1100
1074
1057
1045
1031
1008
991
979
966
953
939
928
920
920
921
915
913
908
908
907
909
908
911
909
910
912
913
913
913
913
913
915
912
914
913
912
913
915
919
916
913
914
914
916
919
916
912
912
913
916
915
917
912
910
912
914
915
917
918
918
920
918
918
918
920
920
925
926
929
929
928
931
935
940
943
944
944
944
949
953
956
960
960
962
967
973
977
977
979
978
980
985
989
988
987
985
984
984
984
984
980
977
976
978
974
975
973
968
970
970
969
970
968
966
965
967
968
964
962
960
961
963
963
962
960
957
958
960
962
961
959
955
957
960
961
961
958
955
960
959
959
958
956
955
957
958
960
959
958
958
958
960
960
959
961
956
959
959
963
958
959
958
960
962
961
962
962
958
961
961
961
960
960
959
962
963
966
964
961
959
960
962
963
964
962
959
964
969
974
975
979
979
981
986
984
984
982
982
986
992
996
997
997
1001
1003
1009
1007
1003
999
997
998
1002
1002
995
987
977
967
960
954
952
948
947
947
949
948
950
948
949
946
950
950
950
950
948
950
953
955
952
950
950
953
956
957
956
953
950
950
951
958
967
985
1008
1038
1073
1109
1148
1183
1212
1241
1266
1275
1262
1237
1206
1186
1164
1136
1103
1078
1064
1054
1041
1022
1003
984
971
959
948
937
927
923
915
913
911
912
911
908
907
910
915
916
913
912
909
910
916
918
919
918
916
919
921
920
921
918
917
917
920
918
922
919
913
915
917
918
916
916
914
917
920
919
916
916
915
919
922
923
923
920
918
922
928
930
929
929
929
934
937
942
945
947
948
953
957
961
962
965
966
969
973
975
975
978
978
981
984
987
988
985
985
983
981
982
980
978
975
975
973
973
971
968
964
964
968
968
966
964
958
957
960
959
960
955
953
956
957
958
957
955
953
956
957
958
955
953
949
951
950
952
952
952
952
955
956
954
952
950
947
950
953
953
952
951
951
953
955
957
955
954
952
953
955
956
957
955
956
955
955
955
952
953
955
956
957
959
959
957
957
956
959
961
957
957
954
956
959
961
962
963
962
965
969
976
979
980
980
977
976
979
985
988
992
995
997
1001
1002
1002
1002
1004
1002
1001
998
995
990
993
994
992
983
969
958
954
952
953
951
948
945
950
951
950
951
950
950
952
952
954
953
953
951
950
955
955
957
957
956
955
959
958
959
959
960
959
958
964
974
994
1019
1053
1090
1129
1165
1204
1233
1258
1273
1286
1288
1276
1248
1223
1203
1178
1151
1115
1079
1061
1050
1038
1018
997
979
967
958
948
940
932
928
928
927
926
922
917
913
915
917
919
919
917
920
921
923
923
923
922
923
924
926
928
926
925
924
923
926
927
926
926
922
924
924
925
924
921
920
920
923
924
926
924
923
924
923
927
926
925
925
927
930
933
931
927
927
933
937
941
944
944
943
946
950
953
955
957
956
963
966
972
977
980
980
983
989
990
994
993
994
997
996
994
994
990
989
990
993
993
988
986
981
980
981
980
980
977
975
974
977
976
976
974
973
972
971
974
972
972
969
970
969
972
973
973
969
967
968
969
967
965
966
967
970
969
965
966
965
967
968
970
967
964
965
966
967
968
970
967
963
961
963
968
966
968
966
966
966
967
972
972
970
973
972
972
970
971
968
967
970
972
972
970
969
970
974
976
974
970
967
969
971
974
974
972
974
979
986
989
992
993
990
990
988
989
992
997
1001
1005
1008
1010
1011
1015
1013
1013
1010
1010
1006
1003
1004
1003
1002
1000
988
972
964
961
961
964
962
958
957
958
961
963
962
963
960
961
961
961
961
962
960
960
965
966
966
965
966
968
970
971
968
966
965
968
974
997
1018
1045
1077
1112
1152
1194
1229
1257
1275
1291
1293
1275
1250
1223
1204
1186
1160
1125
1093
1074
1060
1043
1022
1006
992
981
969
961
955
951
949
943
938
936
936
935
935
935
933
933
936
935
937
940
942
945
942
942
941
944
942
944
944
945
946
942
942
942
947
947
949
948
945
944
947
948
949
948
945
946
947
948
949
948
944
948
950
952
948
946
946
949
951
952
953
954
953
954
959
963
967
966
967
970
972
976
981
982
984
990
995
995
998
1002
1000
1005
1006
1011
1012
1010
1014
1013
1016
1014
1010
1011
1008
1006
1005
1005
1002
1001
1001
1001
1003
1001
997
995
992
992
993
993
994
990
988
989
990
989
989
987
987
986
986
986
987
987
983
985
983
982
984
984
983
984
983
986
985
983
983
986
983
987
986
986
986
982
984
986
986
984
981
981
985
987
988
984
983
985
985
986
987
983
982
985
988
990
988
989
984
985
989
991
990
989
988
993
997
1005
1008
1012
1014
1015
1012
1013
1018
1021
1019
1020
1022
1024
1026
1028
1028
1030
1029
1025
1025
1020
1016
1009
1000
988
980
975
972
972
973
975
973
971
967
969
973
975
973
972
971
975
977
978
976
976
978
980
983
982
981
979
975
975
974
980
988
1008
1042
1087
1136
1182
1223
1251
1272
1293
1306
1292
1259
1224
1196
1169
1141
1110
1085
1067
1046
1025
1009
995
983
967
959
951
949
948
946
939
935
935
937
937
937
934
932
939
940
942
942
939
936
938
940
942
939
937
936
938
941
943
941
940
938
938
938
940
940
939
934
938
940
936
936
935
934
939
937
937
938
937
939
940
941
945
947
946
945
947
952
953
953
952
953
959
965
970
972
973
973
976
981
984
987
987
988
990
992
996
997
997
992
994
992
991
990
987
985
984
982
983
982
978
977
974
975
973
971
968
967
972
972
971
969
968
964
969
969
970
968
964
964
965
969
969
967
965
963
962
965
966
964
963
961
963
966
967
966
964
964
963
961
965
964
963
963
963
965
964
965
964
962
961
964
964
966
964
962
963
965
964
965
963
964
966
967
