970
966
965
964
967
968
969
970
966
963
965
968
969
968
971
971
969
970
969
969
967
968
970
972
970
967
966
967
968
969
969
967
966
967
970
972
971
969
963
967
971
974
972
970
967
970
975
981
985
985
989
994
990
991
988
991
995
1001
1008
1008
1009
1010
1012
1011
1011
1009
1004
1002
995
991
983
973
962
950
944
942
942
942
939
940
937
941
942
946
944
944
942
943
946
944
946
946
944
946
948
949
952
951
949
950
948
947
944
939
937
946
963
987
1016
1049
1091
1141
1185
1221
1248
1263
1264
1244
1217
1188
1166
1144
1113
1083
1068
1060
1047
1031
1012
997
987
975
959
950
939
933
933
932
927
923
922
925
922
927
924
925
921
922
924
923
924
924
922
923
926
930
928
926
925
923
924
926
928
925
924
925
926
929
930
928
925
928
928
927
928
924
922
924
927
929
930
929
927
925
926
927
928
930
929
930
933
934
935
934
934
937
943
945
948
948
950
954
955
961
962
964
968
970
972
981
984
982
983
986
990
992
995
996
995
995
996
995
993
996
992
994
996
996
992
988
984
985
987
987
986
982
980
981
981
982
979
978
975
975
975
977
976
976
975
973
974
974
974
972
969
971
970
973
970
969
967
969
971
971
969
970
969
971
974
973
975
971
969
969
969
975
974
975
971
970
969
970
969
966
970
968
971
969
970
970
967
970
972
971
971
968
966
966
969
969
970
967
965
966
969
971
970
970
967
967
968
971
975
980
985
993
995
994
992
990
996
1000
1005
1008
1009
1006
1010
1015
1017
1017
1012
1011
1009
1009
1006
1001
995
984
972
958
952
951
953
948
944
944
947
949
951
947
945
950
952
952
948
950
949
949
952
954
956
956
956
957
959
959
961
956
953
951
949
950
953
965
988
1021
1056
1096
1137
1174
1205
1232
1255
1263
1254
1228
1199
1175
1162
1148
1125
1097
1069
1051
1044
1035
1021
1000
985
972
957
941
935
931
931
930
926
923
921
919
919
920
922
929
931
930
927
929
932
931
932
933
934
939
941
947
947
946
946
949
954
960
960
954
949
951
958
963
960
955
957
959
964
960
956
953
953
955
956
955
950
947
947
944
945
944
945
946
947
951
955
957
958
958
960
963
968
970
973
970
970
974
980
982
983
981
984
984
988
993
994
990
987
985
987
992
998
1000
1001
1003
1004
1002
996
991
989
991
994
996
998
995
989
989
989
990
981
977
973
975
978
979
980
977
975
976
976
974
973
970
969
971
975
978
976
971
970
969
969
969
967
965
964
962
963
962
962
961
958
959
960
960
962
959
954
952
953
956
955
956
954
954
955
957
956
953
953
955
955
955
954
950
953
956
959
955
953
952
954
956
956
957
954
953
954
957
958
959
956
954
953
957
962
962
962
960
956
955
963
968
972
975
975
977
975
977
979
983
982
987
990
992
995
995
999
1002
998
994
993
994
987
982
976
968
953
943
931
932
931
925
923
926
925
927
927
931
932
931
933
935
940
944
943
938
936
935
940
944
950
951
952
956
961
961
954
946
941
946
958
980
1010
1046
1080
1124
1173
1214
1243
1254
1250
1221
1190
1171
1158
1146
1129
1107
1089
1076
1064
1044
1022
1006
998
985
973
961
953
947
941
939
934
928
925
925
923
927
927
927
924
925
924
926
926
927
925
926
927
927
924
925
926
927
931
929
923
918
915
922
930
930
929
928
926
929
929
932
932
930
926
926
931
932
937
937
933
933
934
934
936
933
935
938
942
943
945
945
948
951
954
952
949
948
950
961
969
975
981
982
981
987
992
995
994
991
990
993
995
995
995
993
991
992
991
989
985
980
977
977
976
972
971
968
963
962
964
964
965
964
965
963
962
963
959
958
956
958
961
963
959
958
955
958
963
962
957
955
953
955
961
961
961
959
962
963
965
961
956
953
953
955
959
960
957
954
947
947
950
957
960
959
957
958
962
958
957
956
955
960
965
967
964
959
957
957
960
960
959
959
961
959
965
963
958
957
952
955
960
958
955
954
953
960
962
962
960
961
960
961
963
967
968
966
967
970
974
979
977
973
967
960
956
951
945
942
949
957
957
950
936
924
916
915
917
917
914
913
909
913
917
919
920
920
921
924
923
925
925
924
917
916
921
924
924
928
930
926
927
922
923
927
935
950
972
1000
1025
1049
1079
1118
1160
1194
1220
1232
1229
1210
1177
1152
1130
1109
1081
1054
1040
1028
1023
1011
992
979
971
964
950
939
928
925
918
913
912
910
912
910
907
906
909
911
912
912
916
922
925
922
919
921
922
920
923
923
925
923
922
920
918
917
918
920
921
925
928
928
925
923
924
929
929
929
923
923
921
920
924
924
930
932
933
932
933
937
944
949
951
949
948
945
948
951
956
958
959
962
963
970
973
975
978
979
978
981
980
982
981
977
977
980
981
983
978
972
972
973
976
980
978
976
974
974
971
969
968
967
964
965
965
963
963
962
964
967
966
962
960
960
959
961
965
965
962
960
958
958
959
958
961
963
965
965
968
963
961
964
962
964
964
964
963
965
963
965
965
965
963
959
962
962
968
970
967
965
964
966
964
967
969
965
963
967
967
968
970
970
970
970
973
974
971
975
974
976
979
979
981
982
984
986
983
984
985
992
998
1004
1007
1005
1006
1009
1012
1014
1012
1011
1008
1003
1000
1000
997
990
980
970
964
963
963
962
960
960
959
965
966
968
966
963
962
965
966
967
968
965
963
963
968
968
970
971
965
966
967
965
967
974
989
1022
1054
1085
1122
1160
1197
1228
1252
1259
1238
1203
1169
1148
1133
1124
1102
1074
1054
1041
1031
1017
1001
984
968
957
947
942
942
934
930
931
935
934
930
927
925
926
933
934
934
928
928
934
937
937
936
931
932
935
939
938
935
930
927
931
936
941
938
936
932
931
932
932
931
933
935
940
942
940
934
930
928
932
935
937
940
939
939
939
941
945
944
947
948
948
953
955
954
958
960
964
968
969
969
970
976
985
987
991
992
990
987
991
993
994
993
993
991
989
989
989
987
985
984
985
983
981
979
980
980
980
982
979
975
973
971
971
972
972
972
971
970
973
971
976
972
972
969
969
973
976
975
974
973
974
975
978
974
973
975
976
976
976
971
966
965
968
970
968
965
962
959
958
961
961
960
962
958
962
966
967
969
970
969
970
972
972
972
972
970
971
972
974
973
973
972
969
967
969
970
968
969
973
979
982
984
988
993
997
996
993
991
991
997
1002
1007
1007
1007
1005
1007
1011
1018
1018
1014
1010
1009
1008
1006
1004
995
984
971
964
960
958
960
958
955
955
955
958
955
953
954
959
959
957
956
955
957
957
959
958
961
961
960
965
963
965
963
960
960
969
985
1009
1037
1069
1101
1144
1188
1224
1248
1263
1267
1250
1216
1188
1170
1154
1135
1108
1083
1069
1061
1048
1029
1012
998
987
972
956
947
940
941
937
929
923
920
922
926
929
927
922
917
921
921
923
925
925
926
931
929
930
929
925
923
926
927
927
924
923
922
926
926
929
928
928
928
927
930
933
931
932
930
931
932
933
934
931
931
932
936
937
940
939
939
941
942
943
944
944
945
949
951
955
957
957
957
961
968
971
970
972
973
978
983
989
991
992
995
999
1002
1000
1002
998
995
994
993
992
991
990
984
982
980
983
978
979
977
977
979
979
975
974
972
975
975
978
976
972
971
975
977
977
973
971
971
972
974
976
974
969
967
969
972
970
970
969
966
966
967
966
968
965
963
963
962
964
964
961
961
965
963
962
962
956
960
960
964
965
963
961
961
961
962
966
963
962
962
961
963
963
961
961
960
962
961
962
962
962
960
962
967
967
967
970
972
974
972
975
975
979
982
987
994
996
995
993
992
995
1001
1000
996
994
991
992
992
987
976
968
958
952
949
947
949
947
943
945
949
949
949
947
948
948
949
948
948
947
948
952
954
957
957
952
952
956
957
957
953
952
952
960
977
1009
1045
1080
1117
1158
1197
1227
1246
1260
1258
1237
1209
1182
1156
1133
1100
1070
1052
1038
1023
1001
982
972
964
954
944
938
929
928
928
922
918
913
911
914
917
918
918
919
918
918
920
921
920
919
918
919
921
921
921
918
917
919
921
923
922
920
917
921
926
925
923
918
917
920
925
925
922
919
922
926
931
932
931
927
925
929
933
933
933
935
937
941
945
948
950
948
947
953
958
959
962
964
964
973
977
981
982
983
981
983
989
987
985
984
982
981
984
983
980
974
970
972
972
973
971
968
965
966
968
967
967
965
960
959
963
963
962
961
962
961
963
963
965
964
961
959
957
957
959
958
962
962
961
958
957
955
955
957
960
960
958
958
954
956
956
959
960
959
957
960
960
960
960
960
958
958
962
963
961
960
958
957
958
958
962
962
963
963
965
962
963
961
962
963
965
965
967
971
971
978
979
982
979
978
976
982
987
993
996
996
996
1003
1007
1008
1012
1005
999
1000
1001
1004
1002
994
985
976
972
965
959
955
956
957
957
958
957
954
953
956
959
959
957
959
957
958
960
958
959
961
960
965
969
968
967
964
959
962
964
970
979
995
1024
1060
1101
1143
1184
1215
1239
1260
1267
1259
1232
1197
1168
1152
1140
1117
1084
1056
1037
1030
1017
995
977
965
954
949
944
938
934
932
927
927
925
921
922
922
920
924
926
928
927
926
923
924
927
928
928
928
926
928
931
929
930
930
929
927
929
929
929
927
923
924
929
927
928
929
926
928
929
928
930
927
927
929
928
931
932
932
932
936
934
938
938
937
940
944
948
951
951
950
953
961
965
967
968
968
969
975
982
985
989
986
988
992
995
995
995
993
990
988
989
990
989
982
981
980
979
979
977
974
973
971
973
973
971
970
969
970
970
971
969
969
966
968
970
971
970
965
966
965
967
968
966
967
965
965
967
966
964
964
963
962
965
967
965
963
961
962
965
965
966
965
963
966
966
967
965
967
964
965
967
967
969
968
967
967
969
968
970
970
967
970
970
970
972
969
970
972
974
978
982
987
993
994
993
991
988
993
999
1002
1007
1010
1010
1010
1012
1018
1017
1013
1005
1004
1002
1002
999
990
976
965
958
960
963
964
960
959
957
958
958
960
959
959
960
960
961
963
964
962
963
963
965
967
967
966
967
968
968
967
967
970
976
994
1017
1050
1086
1125
1166
1211
1242
1265
1280
1284
1266
1235
1208
1188
1169
1144
1110
1083
1068
1054
1035
1016
995
982
974
965
955
944
938
938
939
933
929
927
924
926
927
927
924
925
923
926
930
930
930
928
924
928
927
931
929
927
926
927
928
932
927
925
927
928
932
931
929
928
929
931
931
932
933
930
930
931
935
933
931
930
929
932
935
936
937
934
933
937
940
943
944
945
945
949
952
952
955
958
962
966
970
972
974
977
979
983
988
990
991
992
993
996
998
998
998
996
992
993
993
993
990
986
984
983
982
981
979
978
975
976
974
975
972
970
971
972
974
971
968
968
967
970
972
969
968
962
964
964
968
968
970
965
962
964
965
967
965
962
962
962
963
964
962
963
961
960
964
965
963
964
964
967
968
967
965
966
962
966
968
967
969
966
964
965
970
970
971
970
969
970
971
969
969
967
965
964
968
971
969
971
970
972
975
977
982
983
983
986
988
983
984
983
988
996
999
1003
1003
1001
1000
1005
1006
1007
1004
998
998
999
1000
997
990
981
968
960
958
955
954
952
951
950
952
951
951
951
955
958
957
955
952
953
953
957
956
959
958
957
956
961
962
965
963
958
958
960
965
975
990
1013
1044
1079
1110
1144
1181
1213
1238
1256
1275
1281
1269
1241
1212
1191
1167
1138
1103
1073
1054
1044
1031
1012
993
980
966
958
949
938
932
927
924
924
922
921
921
918
917
917
918
918
919
917
919
921
923
922
923
921
918
918
921
924
922
922
923
921
923
924
924
922
923
925
926
925
925
922
921
922
925
926
923
924
923
927
926
926
925
924
928
930
930
934
935
936
938
941
943
944
943
944
946
951
955
957
956
958
958
964
969
971
972
975
976
978
981
983
981
983
983
985
989
993
992
990
984
987
985
989
986
985
984
988
987
982
980
977
978
981
981
978
977
974
977
979
977
977
976
975
973
974
977
975
974
971
968
967
969
967
971
972
970
969
968
973
972
971
970
970
970
972
972
971
968
965
970
972
973
972
968
969
969
970
971
971
972
973
973
971
967
968
970
973
972
974
977
977
973
972
973
977
975
971
971
973
978
979
975
972
969
970
975
978
978
981
981
981
983
987
992
995
998
995
994
995
1000
1006
1009
1010
1013
1018
1021
1022
1020
1016
1015
1015
1015
1012
1008
1006
997
988
976
969
961
960
960
962
961
960
960
966
972
970
970
967
965
965
965
964
968
968
968
966
967
968
967
965
969
970
969
966
965
971
980
1001
1030
1066
1105
1146
1188
1225
1252
1269
1272
1252
1225
1195
1173
1156
1127
1095
1070
1062
1054
1040
1016
993
978
970
962
952
945
939
933
930
927
924
928
929
929
927
927
928
927
927
928
930
932
931
930
928
926
928
930
933
931
931
933
934
934
932
931
928
928
926
930
931
929
928
927
929
928
929
926
925
925
927
930
932
932
932
933
933
932
931
932
933
934
938
944
946
947
944
944
952
959
960
960
960
964
971
975
980
981
982
982
989
994
996
996
998
998
1001
998
997
995
993
993
990
990
990
985
981
981
983
980
980
976
973
973
977
979
977
973
971
969
971
973
972
971
968
961
962
966
967
973
973
968
966
969
968
970
969
968
967
968
967
968
964
961
965
966
967
965
964
963
963
965
965
963
961
959
963
963
964
963
962
966
970
970
965
958
959
960
959
963
965
965
965
966
964
964
967
967
967
965
965
962
960
961
962
960
957
955
960
970
974
983
986
986
980
978
979
983
988
990
991
989
992
1001
1010
1014
1013
1007
1001
997
994
989
987
987
989
990
987
981
970
960
952
950
950
944
938
935
940
946
956
958
956
950
944
942
945
947
950
951
951
946
947
946
940
941
942
950
959
968
969
960
947
953
967
995
1030
1063
1094
1133
1175
1204
1227
1243
1249
1236
1210
1183
1164
1144
1113
1078
1049
1037
1033
1023
1002
982
968
954
941
933
923
915
914
911
911
908
905
902
900
903
908
907
905
903
903
903
904
904
906
906
909
911
912
915
913
910
912
911
910
912
913
915
916
917
918
919
919
915
915
916
921
920
915
913
915
918
914
914
917
919
925
931
932
928
924
926
927
930
934
940
945
944
945
949
954
959
957
958
961
964
966
971
971
975
978
985
987
987
983
982
985
990
992
991
988
986
984
986
982
979
978
978
978
979
977
973
973
970
972
971
970
965
967
960
961
961
963
962
960
958
958
961
961
958
957
954
956
960
957
956
949
949
950
951
950
950
948
944
945
947
947
944
942
939
941
939
940
940
939
939
939
940
942
941
941
941
938
941
939
940
936
933
934
935
939
940
936
934
938
942
943
943
940
940
943
947
940
937
941
941
943
945
943
941
943
950
955
956
959
962
962
962
961
964
970
974
975
978
980
984
989
989
989
987
985
987
987
984
982
981
979
971
962
952
943
939
938
939
940
940
939
938
940
941
941
947
944
943
945
945
948
949
945
944
945
948
950
950
948
950
953
953
951
947
944
945
957
976
1001
1033
1069
1109
1155
1193
1221
1248
1267
1276
1277
1259
1235
1207
1180
1153
1120
1090
1067
1051
1035
1014
995
979
966
953
940
930
926
927
924
918
914
914
913
916
915
912
912
914
919
921
922
918
918
916
919
920
922
923
921
922
923
923
922
924
921
922
923
923
922
919
919
919
922
924
926
926
922
922
926
927
926
925
928
927
927
930
932
932
934
933
937
941
945
947
948
949
948
954
957
959
958
959
965
968
971
975
975
981
986
990
991
995
994
996
999
999
1000
999
1000
1003
1007
1008
1006
1006
1002
1000
999
1002
1002
998
995
991
996
997
991
990
986
986
988
990
991
984
980
980
981
981
981
981
977
975
976
978
978
979
975
974
976
976
977
978
977
977
979
980
979
979
977
979
978
981
981
978
978
975
978
974
975
977
974
974
979
976
976
971
967
967
972
977
978
974
970
970
971
969
972
972
971
972
973
977
979
975
977
976
981
989
994
998
997
997
996
998
996
1002
1007
1011
1015
1018
1024
1029
1029
1023
1022
1021
1020
1018
1015
1007
1004
994
983
970
966
962
963
968
966
962
959
961
962
966
966
962
963
963
966
971
973
971
967
968
968
974
974
972
968
963
965
973
985
1005
1032
1062
1098
1132
1167
1205
1236
1254
1269
1266
1245
1217
1187
1162
1136
1103
1077
1061
1044
1023
1003
989
979
968
954
943
937
932
928
925
923
919
918
924
926
924
923
920
920
927
929
928
926
922
924
926
931
930
926
927
930
933
932
931
927
926
925
928
932
931
928
927
928
928
927
925
924
928
927
929
928
925
924
926
930
932
933
933
931
932
937
938
940
942
942
943
948
950
954
955
956
960
965
970
973
976
977
978
982
985
987
983
984
984
986
986
984
982
980
977
980
980
974
969
968
963
966
968
965
