984
984
981
985
986
988
991
987
986
985
988
990
992
989
989
986
986
990
989
988
984
982
984
987
987
987
987
987
988
990
991
989
988
988
988
988
987
986
986
985
986
986
987
988
988
991
996
1001
1001
1003
1003
1002
1004
1008
1011
1012
1013
1013
1019
1028
1030
1027
1023
1020
1020
1021
1022
1015
1009
1005
994
986
979
972
971
969
969
967
967
966
965
966
969
974
972
970
970
968
967
971
970
968
967
968
974
978
981
981
976
973
971
972
970
967
969
975
988
1011
1039
1071
1108
1147
1186
1219
1244
1265
1278
1276
1257
1228
1202
1180
1158
1132
1102
1083
1071
1061
1042
1022
1008
998
987
976
958
949
948
949
943
938
933
933
935
939
936
933
931
933
935
937
935
934
932
932
936
935
939
936
935
935
939
940
940
941
940
939
938
943
944
943
938
937
938
939
938
937
935
937
937
939
937
938
933
933
937
939
942
940
940
942
946
948
949
949
950
953
958
965
967
967
968
964
967
970
975
978
979
980
983
988
988
989
992
996
999
1002
1003
1002
998
996
999
1000
999
997
995
994
995
993
991
990
987
984
983
983
984
982
980
976
979
982
982
982
980
977
975
977
977
976
973
972
972
972
969
967
967
963
966
969
967
965
963
960
962
965
965
963
960
957
959
962
960
958
957
956
959
964
962
963
962
961
964
962
964
963
962
965
965
968
967
969
967
967
972
974
973
973
969
968
970
972
971
972
970
968
968
970
971
972
971
971
970
973
970
968
969
973
980
981
981
981
980
977
977
981
984
988
992
990
996
1002
1003
1004
1006
1003
1003
1002
1000
996
996
992
991
983
975
965
958
953
955
954
954
952
952
951
952
952
951
952
953
954
956
957
956
958
954
954
958
959
962
958
958
959
960
963
957
956
956
963
981
1011
1048
1085
1120
1161
1197
1226
1249
1268
1281
1273
1250
1221
1193
1174
1149
1116
1080
1051
1039
1029
1014
995
981
968
961
952
943
936
935
933
929
929
924
917
917
927
929
934
938
942
944
943
945
947
950
947
946
944
952
958
954
949
952
956
958
956
956
952
957
959
959
956
956
954
957
963
961
957
951
953
953
957
957
955
955
950
950
953
953
954
957
959
962
965
966
967
971
969
976
982
983
981
982
983
988
994
996
997
996
998
1003
1006
1010
1010
1012
1009
1011
1012
1016
1014
1008
1007
1009
1010
1008
1006
1004
1004
1004
1005
1002
1001
994
996
999
999
998
995
991
991
995
997
996
995
996
994
994
993
993
991
988
988
990
990
988
983
985
986
990
990
988
986
982
982
987
989
989
984
979
979
982
982
980
978
976
975
973
975
973
975
975
976
977
975
975
974
969
968
969
970
972
972
973
974
974
976
976
977
975
977
975
976
974
973
971
969
972
977
978
978
976
974
974
981
985
986
985
985
986
988
988
988
990
994
1001
1007
1009
1009
1007
1010
1012
1012
1006
1001
1001
1001
1002
1002
993
981
967
964
963
963
959
959
957
958
959
960
957
953
954
955
957
959
956
953
953
955
959
959
961
961
960
961
969
972
970
967
965
965
970
976
986
1008
1036
1068
1110
1154
1195
1226
1249
1271
1285
1287
1270
1245
1219
1193
1175
1155
1125
1099
1078
1065
1054
1041
1022
1005
990
984
981
977
969
964
961
958
957
959
957
953
951
953
958
959
958
956
957
957
957
960
958
961
958
959
960
964
964
962
957
958
960
963
966
963
964
963
964
966
965
964
964
963
965
967
963
960
957
958
961
963
963
958
956
956
958
957
960
959
960
960
962
965
966
971
970
972
974
980
982
984
992
995
1001
1006
1008
1008
1008
1011
1016
1021
1019
1020
1018
1020
1020
1021
1019
1018
1017
1014
1017
1013
1014
1012
1006
1004
999
998
997
996
993
991
991
991
987
988
987
984
986
987
984
983
980
978
978
977
977
974
974
972
975
979
978
975
973
974
976
977
976
973
973
974
974
975
970
971
970
968
970
972
973
974
971
967
967
972
971
969
967
967
973
973
972
969
968
966
972
973
973
970
967
966
969
972
970
969
967
966
970
974
974
976
981
983
985
988
987
984
981
982
987
996
1000
1003
1002
1001
1003
1009
1011
1009
1003
1000
1002
1002
1002
1000
992
981
973
967
963
964
961
959
959
958
958
958
958
958
962
962
962
963
962
964
963
964
963
962
962
966
970
969
969
968
964
964
966
970
978
993
1013
1044
1078
1114
1148
1186
1218
1245
1266
1278
1269
1243
1208
1180
1161
1141
1107
1076
1055
1047
1037
1023
1002
991
981
973
967
958
950
946
942
941
940
939
940
938
936
937
938
941
943
941
941
939
943
946
947
947
944
941
944
946
947
943
944
941
942
943
944
946
943
940
944
945
944
943
944
943
943
944
943
939
941
939
942
944
944
943
942
944
947
950
949
947
946
946
950
955
957
956
957
956
960
965
969
969
972
973
976
980
984
988
990
994
999
999
1000
1000
999
1000
1001
1004
1005
1004
1002
998
998
998
998
997
994
992
990
990
991
990
987
986
988
988
988
986
984
983
983
986
984
983
983
982
985
985
985
982
981
980
982
981
982
981
977
978
977
981
981
980
977
978
977
982
981
981
979
977
980
981
981
980
981
978
976
978
979
982
980
980
983
984
980
982
981
982
983
983
984
982
981
977
981
981
983
981
979
977
981
982
982
980
977
980
982
987
991
995
996
998
1001
1001
1002
1003
1003
1004
1012
1014
1016
1016
1017
1019
1017
1018
1017
1016
1013
1013
1015
1013
1007
994
978
972
965
969
968
964
964
964
964
967
967
967
963
966
964
964
965
965
965
965
965
966
970
968
965
965
968
971
969
966
966
965
968
977
990
1014
1041
1074
1114
1154
1193
1223
1245
1264
1276
1268
1240
1211
1186
1170
1153
1128
1100
1070
1056
1041
1024
1004
990
977
968
958
950
945
941
935
929
927
927
928
931
928
925
925
926
928
929
932
929
928
930
931
931
932
930
931
933
935
936
935
932
931
933
933
933
931
931
932
931
934
932
930
929
930
932
934
936
933
932
930
932
936
936
937
935
935
935
937
942
941
941
942
944
948
951
954
955
957
958
964
966
967
969
972
976
981
984
988
988
992
995
996
997
999
996
995
999
998
997
995
993
989
990
991
992
989
985
985
983
983
988
982
977
978
977
979
979
979
977
976
977
979
978
976
975
973
976
978
977
976
971
972
974
974
977
975
972
971
972
976
974
972
972
969
969
972
974
975
970
970
970
974
976
977
974
972
971
974
976
974
976
972
974
974
974
972
972
973
972
980
977
974
977
973
977
977
978
979
975
975
979
979
980
979
979
981
988
994
998
997
997
994
993
998
1001
1005
1008
1008
1010
1014
1014
1016
1018
1018
1017
1016
1013
1008
1001
995
987
978
970
965
963
962
962
966
967
964
961
961
963
965
970
964
963
965
966
968
970
970
968
966
970
972
971
974
972
967
968
969
973
980
996
1023
1061
1103
1146
1189
1224
1249
1269
1286
1286
1268
1238
1210
1187
1161
1127
1089
1065
1050
1037
1018
1000
985
972
959
952
945
943
940
937
934
930
929
929
930
927
928
932
934
936
936
935
931
931
934
937
937
934
933
935
934
936
935
934
934
931
935
933
933
931
931
933
933
934
931
932
931
935
935
935
932
932
934
937
943
943
944
942
945
950
954
955
955
954
957
962
968
970
969
968
972
978
983
986
987
990
990
993
996
998
1002
1001
999
1002
1002
1000
999
996
997
997
996
992
992
989
988
989
989
988
985
978
979
981
982
983
981
979
979
979
980
978
976
974
974
980
978
978
974
971
972
973
976
975
975
971
970
971
973
975
972
971
969
971
972
972
973
971
972
970
972
970
968
970
968
969
972
971
970
969
969
970
974
971
968
966
967
970
970
968
966
969
969
971
974
973
971
967
967
970
976
977
978
980
984
987
986
986
983
984
986
994
1000
1002
1003
1002
1006
1007
1008
1006
1003
1001
1001
997
995
988
981
973
967
957
956
955
953
954
953
954
955
953
956
953
955
957
958
955
959
959
960
958
961
964
966
964
965
967
970
967
963
962
961
967
974
993
1019
1051
1090
1134
1176
1211
1239
1256
1264
1259
1240
1208
1184
1162
1142
1117
1082
1049
1031
1021
1005
988
975
964
955
947
943
939
936
937
933
929
924
923
923
924
921
921
922
926
927
927
923
923
923
928
932
932
932
928
922
924
922
923
926
927
923
923
924
926
925
924
923
923
926
923
922
920
919
922
927
928
927
926
924
927
933
933
931
932
928
933
941
944
944
945
947
952
957
958
960
959
962
967
972
975
977
977
981
987
992
992
991
992
989
993
994
994
994
993
991
991
992
988
987
984
982
984
981
983
979
978
978
981
981
983
980
977
975
980
980
976
976
974
976
978
979
976
975
974
973
974
977
976
975
975
972
973
976
976
976
974
973
976
978
977
976
973
972
972
976
975
974
975
974
977
978
976
976
974
973
975
977
977
974
972
978
980
983
981
977
977
977
977
976
976
977
975
976
978
980
981
982
985
985
990
998
998
996
992
992
997
1005
1007
1009
1010
1011
1018
1020
1022
1016
1014
1009
1011
1012
1007
1000
992
982
975
971
966
963
962
963
965
967
966
966
967
968
972
972
969
967
968
968
975
975
977
977
976
972
979
979
978
976
973
976
981
998
1026
1057
1089
1124
1166
1208
1237
1262
1274
1278
1261
1235
1204
1179
1154
1119
1086
1064
1056
1049
1038
1020
1001
990
981
969
960
951
948
948
945
944
938
935
934
938
940
939
936
937
940
942
943
942
940
940
944
947
946
941
940
937
940
944
946
945
947
946
948
946
947
946
944
942
944
946
947
947
941
938
939
943
945
943
947
944
946
947
948
951
950
951
953
955
955
962
964
967
972
978
978
981
981
982
986
989
992
996
997
998
1002
1006
1007
1007
1007
1007
1005
1009
1007
1008
1005
1001
1000
999
999
999
992
991
991
990
988
987
986
983
983
983
982
982
980
980
982
983
983
983
983
982
984
984
983
983
981
981
982
985
985
984
980
984
984
988
986
984
983
980
984
985
984
985
983
984
984
986
988
989
986
984
983
987
988
990
988
986
986
991
988
987
982
981
983
986
985
985
985
985
983
984
986
984
983
983
985
985
985
986
987
991
997
1002
1005
1002
999
998
1003
1006
1011
1010
1012
1012
1018
1022
1026
1022
1021
1021
1022
1020
1019
1014
1006
998
986
980
974
972
970
967
965
968
967
966
968
968
971
970
968
968
969
967
971
973
974
968
970
970
973
975
976
973
973
971
973
974
979
989
1006
1027
1065
1101
1140
1178
1213
1239
1260
1276
1280
1264
1236
1208
1185
1166
1139
1107
1079
1064
1044
1033
1014
996
982
972
965
957
951
945
941
938
939
938
938
939
936
936
937
938
939
938
938
935
940
942
943
942
942
943
942
944
942
939
938
939
940
943
943
942
941
940
940
940
940
943
940
937
942
945
944
940
939
937
939
943
944
947
943
943
944
945
946
945
946
948
950
954
955
954
958
961
964
970
971
970
972
976
981
984
986
990
989
992
999
1002
1002
1003
1005
1003
1007
1009
1014
1008
1008
1004
1004
1006
1004
1002
1004
1000
997
996
995
998
996
992
990
991
987
983
983
983
982
978
977
975
977
980
980
979
983
989
986
988
992
995
994
989
987
985
989
991
991
991
992
993
992
992
994
997
996
997
998
1001
999
1000
1000
1002
1003
1006
1005
1004
1001
1002
1002
1005
1003
1001
998
996
999
1002
997
1000
996
995
998
1000
999
999
997
995
999
1001
1002
1000
1002
1001
1003
1004
1005
1004
1010
1016
1024
1027
1026
1023
1018
1015
1018
1026
1027
1030
1027
1027
1032
1036
1040
1036
1035
1032
1034
1031
1027
1021
1013
1002
996
993
992
988
983
982
986
990
992
989
983
985
982
987
988
986
985
980
984
987
988
988
987
985
988
992
992
989
986
981
981
984
986
995
1013
1038
1075
1115
1155
1200
1235
1260
1283
1297
1286
1254
1226
1203
1187
1172
1145
1113
1091
1078
1067
1048
1027
1011
998
985
975
967
959
955
951
951
944
944
942
943
942
940
942
943
943
941
940
940
941
945
942
944
943
942
947
947
944
941
941
942
947
950
948
946
944
944
946
950
949
950
949
948
948
950
950
948
947
947
951
952
953
953
951
952
954
956
955
957
955
955
960
961
965
965
966
967
973
978
978
980
982
984
989
994
993
993
996
1000
1003
1007
1009
1011
1011
1010
1010
1015
1014
1013
1009
1009
1009
1010
1007
1005
1003
1001
1001
1001
999
997
995
995
992
993
992
989
986
982
986
989
990
987
981
980
984
984
985
983
983
982
983
983
982
982
982
982
984
983
981
981
981
981
978
982
983
980
981
980
984
986
985
985
981
982
982
981
980
983
982
982
981
982
981
982
979
980
981
982
982
980
977
975
980
980
982
981
979
979
978
979
979
982
982
979
980
984
986
985
982
980
981
982
987
987
990
996
1001
1006
1010
1007
1002
997
1004
1011
1014
1015
1016
1014
1017
1023
1028
1028
1023
1022
1021
1021
1019
1017
1013
1009
1003
997
986
975
969
969
969
968
967
967
964
963
962
968
968
970
967
966
966
968
970
971
971
971
969
972
973
973
971
970
971
973
971
968
965
965
970
984
1004
1031
1065
1100
1144
1183
1217
1243
1265
1277
1273
1256
1227
1200
1182
1161
1134
1106
1084
1070
1056
1041
1024
1006
995
980
966
955
948
945
941
939
933
930
933
934
933
932
931
934
935
939
937
936
936
936
938
940
941
937
938
937
940
942
942
938
938
938
942
943
944
941
938
936
937
938
940
939
937
935
935
935
933
935
934
934
934
935
937
935
931
935
939
942
942
941
942
947
952
956
953
952
955
956
960
964
971
977
977
976
978
984
989
994
995
995
999
1000
1002
1003
1001
1003
1002
1006
1006
1002
997
994
995
996
996
994
989
986
988
990
989
985
984
982
984
983
985
982
981
979
982
981
980
981
981
983
982
983
981
979
979
981
982
984
981
979
976
975
978
979
979
975
973
973
975
978
979
976
973
973
974
974
975
976
973
970
971
971
970
971
969
972
971
972
973
971
968
969
971
975
976
972
971
969
970
971
971
967
969
968
970
970
972
970
970
969
970
971
971
970
971
975
981
988
989
992
988
985
986
988
992
995
997
996
1000
1006
1009
1008
1007
1005
1002
1002
1001
999
999
996
990
982
969
960
955
952
953
953
952
951
950
952
953
952
952
951
952
952
952
952
952
951
950
952
953
956
958
953
954
952
954
954
955
950
947
946
949
962
977
1000
1027
1062
1104
1146
1185
1219
1246
1264
1269
1258
1231
1207
1181
1154
1126
1091
1060
1044
1037
1025
1005
989
977
966
955
941
933
931
929
924
917
917
915
917
918
914
912
913
913
915
914
912
914
914
915
916
915
916
913
915
917
919
918
917
918
915
920
922
924
921
918
915
919
922
920
921
921
921
919
918
918
919
915
917
917
920
921
922
919
917
918
921
923
922
922
927
931
934
934
936
939
942
946
949
950
949
951
953
959
966
968
971
971
972
977
982
981
980
980
980
980
978
980
976
975
977
975
977
975
973
969
970
970
967
967
966
961
960
963
964
965
963
962
960
965
967
967
962
961
957
962
963
964
963
960
957
962
966
965
964
961
960
962
965
965
965
964
961
964
962
966
963
965
964
966
964
968
967
966
968
968
972
969
969
968
967
969
969
972
969
969
970
971
970
974
971
970
970
973
974
974
972
970
969
970
974
977
978
976
974
980
984
987
990
990
991
996
992
994
998
1003
1006
1010
1013
1014
1015
1017
1020
1020
1016
1014
1011
1010
1007
1004
997
986
973
967
963
965
964
964
960
964
961
962
966
967
965
962
963
961
964
966
966
968
963
967
967
969
968
968
965
968
967
962
962
963
975
995
1026
1062
1098
1138
1178
1213
1241
1257
1268
1264
1243
1217
1193
1173
1153
1127
1097
1074
1061
1047
1027
1009
989
978
968
961
949
939
934
931
930
929
927
924
921
922
923
923
925
924
924
926
927
928
927
928
928
930
932
931
928
927
928
930
932
931
931
929
928
933
933
931
929
927
926
927
928
928
930
926
925
926
930
930
929
928
928
930
932
932
931
931
935
938
940
941
941
942
942
947
953
955
954
957
963
969
969
975
975
977
981
984
988
991
991
990
992
993
997
997
993
996
993
993
994
994
991
986
984
983
983
982
980
978
974
976
977
975
973
970
970
972
973
973
972
971
970
972
975
970
968
967
966
969
969
969
967
966
962
965
968
969
966
964
963
962
965
967
965
966
966
967
968
968
965
966
967
969
970
970
969
970
969
971
970
971
970
971
970
976
975
974
970
971
970
973
975
973
972
973
971
975
976
975
975
974
970
974
980
983
984
989
992
993
994
994
995
999
1004
1007
1014
1015
1016
1016
1016
1017
1019
1016
1015
1009
1008
1005
999
987
976
965
962
964
964
963
963
961
961
963
965
965
963
962
963
965
965
965
965
965
968
971
972
971
972
969
966
966
965
966
969
983
1011
1049
1084
1125
1163
1200
1230
1256
1275
1272
1246
1220
1193
1178
1159
1130
1096
1073
1060
1046
1029
1008
993
974
957
949
946
941
938
929
926
927
928
926
925
926
924
931
931
933
931
931
930
933
934
933
934
932
930
933
934
932
931
933
930
937
936
935
932
933
933
935
936
935
935
932
936
937
937
936
935
934
934
937
940
940
942
940
940
944
948
950
950
950
950
953
960
962
964
962
964
971
978
