958
959
958
959
959
965
972
975
976
974
971
970
975
981
985
987
989
989
991
993
993
993
992
993
992
990
987
986
983
978
974
960
950
941
939
942
945
947
944
940
938
941
942
946
946
944
942
943
948
946
941
941
945
947
947
948
949
949
951
952
952
948
946
947
951
969
991
1015
1041
1064
1096
1136
1175
1209
1233
1251
1252
1238
1213
1186
1163
1140
1107
1070
1051
1040
1025
1005
988
978
971
961
949
937
927
924
922
917
913
912
911
910
910
911
909
912
912
913
916
914
913
913
914
917
918
917
918
913
910
914
916
916
915
913
912
916
919
917
916
910
911
915
921
920
918
911
909
912
915
915
918
915
917
919
922
923
924
924
922
927
931
931
930
934
934
944
947
947
948
947
952
957
964
965
968
971
974
977
984
986
983
982
980
980
981
980
981
978
977
978
975
971
969
969
969
972
970
966
963
961
957
961
961
961
960
958
957
957
963
961
958
958
957
957
958
958
956
954
952
957
962
959
957
953
951
955
957
959
958
954
952
957
961
958
956
957
956
958
960
959
957
958
956
958
961
959
959
956
957
957
962
961
962
958
958
961
963
960
958
957
962
966
964
965
961
959
959
961
960
961
962
965
965
969
974
978
978
978
975
977
981
982
986
989
991
992
996
998
1000
1002
1002
1003
1002
998
996
994
994
991
986
980
968
957
954
955
956
951
949
946
945
948
954
953
953
953
951
952
955
953
953
953
954
956
959
957
956
956
956
957
960
962
960
956
956
958
969
989
1015
1050
1085
1127
1165
1199
1224
1245
1259
1264
1254
1226
1199
1176
1161
1141
1114
1078
1048
1032
1018
1005
989
972
957
950
939
935
929
928
927
923
920
920
920
920
917
917
917
920
923
924
923
921
922
923
927
926
924
924
921
923
925
927
925
921
925
924
925
925
919
921
920
918
921
924
923
925
922
923
926
926
922
923
921
923
921
924
927
928
932
935
939
939
940
940
942
947
954
956
958
962
963
967
973
980
982
984
986
992
997
995
994
994
992
996
998
996
991
989
986
990
993
994
989
986
983
984
988
985
981
981
981
982
984
980
979
973
971
970
970
974
973
970
971
973
974
974
972
968
969
971
973
970
967
967
965
968
967
968
967
968
969
968
970
970
965
964
963
968
972
973
969
964
963
967
971
972
971
968
966
968
974
975
975
972
966
967
971
970
969
970
966
970
976
975
975
974
975
978
983
984
987
992
997
1000
998
993
993
993
1001
1007
1011
1013
1017
1016
1018
1018
1014
1010
1009
1010
1007
1007
1002
996
982
970
963
962
960
965
960
954
953
956
963
963
963
962
961
961
960
960
959
961
962
967
969
970
970
968
967
967
966
967
965
965
972
984
1005
1035
1064
1091
1132
1176
1216
1246
1265
1278
1273
1247
1214
1183
1156
1128
1099
1078
1066
1053
1032
1012
996
989
982
972
957
945
939
941
941
938
931
929
930
935
937
938
936
932
933
931
934
933
933
931
929
935
937
933
930
928
928
931
932
931
930
928
928
927
930
932
931
930
927
928
930
928
928
927
925
931
931
929
926
927
926
931
935
939
939
941
940
944
945
944
949
952
952
957
962
966
969
969
969
976
981
985
990
989
990
994
998
996
997
999
1002
1004
1004
1002
996
995
992
995
995
993
992
987
983
982
983
980
979
982
981
983
981
981
978
978
977
978
980
978
977
977
977
980
979
976
975
975
973
976
979
976
976
974
977
978
981
977
975
975
979
981
982
980
980
979
980
981
984
981
980
978
977
979
983
984
984
980
980
981
984
983
982
984
981
985
987
986
982
980
979
983
985
984
984
986
989
996
1002
1006
1003
1002
1000
1003
1007
1012
1014
1015
1016
1019
1022
1023
1022
1019
1017
1016
1017
1015
1009
998
983
976
971
966
965
961
958
958
961
960
958
956
955
957
957
955
955
955
956
959
962
961
963
958
958
960
963
962
958
955
956
958
961
967
986
1015
1053
1097
1142
1181
1212
1234
1253
1277
1289
1274
1239
1202
1171
1144
1114
1086
1067
1052
1031
1012
994
980
970
958
947
941
938
934
931
921
916
918
921
922
922
920
921
923
927
926
927
922
924
926
927
926
923
926
926
930
931
930
926
922
924
925
929
925
926
924
924
924
924
925
925
923
925
927
928
929
927
926
926
929
932
930
930
931
931
938
941
942
942
939
943
949
953
956
956
957
958
962
968
972
976
975
978
980
985
985
988
990
988
992
998
999
998
997
995
999
998
995
991
988
987
988
988
987
983
980
978
978
980
977
977
975
971
970
971
974
972
966
966
968
971
971
968
965
963
966
968
969
968
964
961
962
965
965
962
962
961
965
966
966
963
964
965
966
967
966
968
967
965
965
971
970
966
966
967
967
968
966
964
962
963
966
968
967
968
967
966
968
969
969
968
970
968
971
975
972
969
968
967
971
976
977
974
974
977
982
987
991
991
991
991
993
998
1001
1007
1009
1011
1015
1018
1019
1017
1010
1006
1009
1011
1007
1001
994
981
972
966
964
963
961
960
963
965
963
962
962
962
965
970
969
969
968
965
971
973
972
971
972
970
972
973
971
969
970
969
979
997
1023
1057
1093
1133
1171
1205
1233
1255
1272
1278
1265
1243
1212
1187
1162
1128
1094
1072
1058
1040
1020
1001
987
978
969
956
949
943
940
941
938
933
930
927
929
930
928
927
929
927
929
933
932
935
932
934
934
938
936
933
931
931
930
934
930
931
931
930
933
933
932
933
932
934
938
941
938
938
933
932
934
933
935
935
933
934
937
939
943
942
943
944
947
953
954
954
956
956
959
963
963
963
965
967
971
977
980
983
986
988
992
997
997
999
998
997
1002
1004
1000
996
996
995
997
997
995
993
988
986
986
987
986
984
982
981
979
982
982
981
979
978
978
980
981
980
978
977
979
981
978
972
972
973
978
983
978
979
977
977
976
979
978
978
979
977
981
984
979
977
976
976
978
980
980
981
980
981
982
982
979
981
979
979
983
982
984
981
979
980
984
988
986
985
984
979
981
981
986
984
982
981
985
983
983
982
982
980
983
987
988
991
994
995
1001
1002
1003
1001
996
996
1007
1014
1014
1015
1016
1023
1028
1028
1026
1020
1018
1013
1012
1017
1014
1008
1000
983
975
976
972
973
971
967
970
968
968
966
967
970
972
977
977
973
970
968
972
974
977
973
972
974
977
978
978
974
972
972
975
983
998
1023
1052
1088
1130
1174
1215
1241
1263
1275
1271
1248
1216
1191
1173
1151
1125
1096
1076
1065
1053
1037
1019
1005
993
981
968
960
955
954
949
945
941
939
939
944
942
940
937
935
940
943
945
943
942
942
945
945
944
945
944
944
946
945
946
946
945
943
944
944
944
945
943
945
946
948
947
944
945
944
946
948
950
948
946
945
944
945
946
948
947
949
951
958
958
958
959
962
968
969
970
971
973
975
981
984
988
990
991
993
997
1001
1006
1007
1007
1008
1009
1011
1009
1010
1008
1006
1006
1006
1001
1002
998
996
997
998
998
993
991
990
990
992
989
991
989
988
989
991
991
988
987
985
986
988
988
988
986
984
985
990
988
988
986
984
985
988
988
987
985
986
986
987
987
985
985
985
988
989
988
988
989
987
988
990
990
985
984
983
982
987
990
990
985
985
986
989
987
987
987
985
991
992
991
992
989
988
988
988
990
988
988
988
989
992
995
997
1001
1006
1011
1014
1009
1003
1000
1005
1011
1020
1023
1024
1023
1027
1030
1035
1032
1030
1027
1022
1024
1024
1020
1013
1006
994
988
985
981
977
977
973
975
972
973
973
974
975
977
978
978
974
974
976
975
980
981
982
980
975
979
984
984
986
981
979
978
980
977
985
995
1016
1047
1077
1107
1139
1173
1210
1245
1268
1288
1292
1282
1253
1225
1206
1183
1153
1121
1098
1084
1075
1056
1036
1018
1002
993
985
976
963
951
947
947
945
942
939
935
938
937
939
941
941
941
941
945
948
947
945
942
943
945
944
942
943
941
940
944
949
946
945
943
942
943
946
946
945
944
939
942
942
940
942
940
939
942
944
947
945
945
945
943
949
947
949
946
948
948
952
955
956
958
961
965
969
970
969
972
976
981
986
987
991
990
992
1000
1001
1004
1005
1007
1010
1012
1014
1016
1011
1011
1008
1012
1015
1013
1010
1007
1003
1002
1006
1005
1001
995
992
997
998
994
994
991
990
991
993
990
989
986
985
988
986
987
985
984
983
984
986
986
982
983
980
983
982
982
982
979
981
981
983
986
987
984
980
980
981
982
983
983
981
983
982
986
987
986
984
983
984
986
985
983
983
987
988
988
988
987
985
985
987
985
985
986
984
990
992
992
988
986
986
987
989
989
988
988
993
999
1007
1010
1006
1002
1000
1006
1016
1020
1022
1022
1021
1025
1027
1032
1032
1027
1023
1024
1026
1023
1020
1011
1001
992
986
980
975
973
973
974
976
974
973
971
973
972
976
975
975
973
973
976
979
980
978
978
977
984
985
985
985
982
980
980
979
980
988
1001
1027
1058
1093
1130
1168
1206
1239
1262
1281
1294
1298
1286
1258
1236
1213
1193
1162
1130
1102
1086
1073
1058
1035
1018
1000
991
984
972
962
954
946
945
942
940
935
935
936
938
943
941
940
940
938
941
944
944
941
942
939
946
948
947
944
943
944
945
947
944
943
942
942
944
947
946
943
940
937
941
945
942
943
941
939
944
945
944
942
940
940
947
949
949
950
951
950
949
951
954
957
957
960
963
967
969
971
976
978
983
983
988
989
990
989
994
1001
1002
1001
1005
1004
1010
1014
1014
1012
1011
1008
1010
1011
1008
1004
1002
1000
1000
1000
995
995
994
992
994
994
993
989
989
986
987
991
988
988
984
982
981
984
983
978
978
976
978
981
980
980
977
977
981
982
981
977
975
976
976
978
979
976
978
978
980
982
983
981
980
977
979
979
981
984
982
982
980
979
980
978
981
982
984
986
986
983
984
980
985
988
986
987
985
985
986
991
988
987
989
986
987
989
989
985
988
991
996
1002
1002
1004
1005
1002
1003
1007
1010
1013
1016
1019
1023
1027
1025
1028
1030
1028
1027
1030
1026
1022
1019
1015
1012
1011
1000
987
977
973
977
981
977
973
973
973
976
974
973
972
973
973
976
977
977
976
977
977
981
983
983
980
980
979
981
983
982
982
977
975
977
986
995
1013
1039
1071
1107
1146
1181
1218
1243
1264
1280
1290
1289
1272
1245
1219
1200
1181
1152
1118
1086
1067
1057
1047
1030
1010
995
984
980
971
963
956
953
950
951
949
945
940
939
937
935
939
942
943
944
943
943
947
951
950
948
945
944
945
945
942
945
945
945
948
948
947
943
942
941
945
943
943
941
941
944
947
945
946
947
945
947
949
949
946
945
945
947
950
953
952
953
953
956
959
958
957
956
958
964
968
973
976
973
978
984
988
986
987
988
991
995
1001
1004
1004
1005
1008
1010
1014
1014
1017
1017
1016
1016
1014
1011
1008
1009
1004
1006
1008
1009
1003
999
996
996
999
997
995
993
991
992
996
996
994
991
987
990
992
993
992
990
989
992
996
991
991
990
989
989
990
989
989
988
985
987
990
989
989
989
989
985
988
988
988
987
987
990
993
993
992
989
987
989
993
994
994
990
990
992
994
993
995
993
989
990
992
992
992
991
987
991
996
996
993
990
989
992
993
991
991
990
990
992
994
996
995
997
998
1004
1010
1011
1011
1007
1008
1010
1015
1020
1023
1025
1024
1026
1030
1033
1035
1036
1036
1037
1033
1033
1030
1026
1024
1025
1019
1009
999
988
984
981
984
983
980
977
976
980
983
982
980
980
980
982
986
986
985
983
982
987
989
988
989
987
986
991
993
990
988
983
984
986
992
1002
1019
1042
1076
1115
1150
1186
1219
1246
1267
1287
1293
1283
1258
1226
1202
1183
1164
1133
1101
1079
1068
1057
1042
1022
1007
995
986
979
972
972
966
964
963
962
960
958
957
957
959
960
960
961
959
961
961
963
965
965
960
958
961
960
962
963
962
962
961
962
963
964
962
959
960
957
959
959
962
960
960
961
961
959
957
956
954
956
958
958
957
955
957
963
964
963
965
963
965
970
974
972
977
978
982
984
988
990
992
993
998
1002
1006
1010
1012
1015
1020
1024
1025
1026
1029
1026
1024
1027
1028
1027
1022
1020
1018
1019
1016
1015
1014
1012
1013
1012
1013
1010
1007
1005
1004
1005
1005
1003
1002
1001
1000
1004
1002
998
999
998
1001
1001
1004
1001
1000
1000
997
997
999
1001
1003
998
997
997
999
999
997
1000
999
1000
1004
1003
1005
1005
1002
999
1000
999
1000
998
997
998
1001
1002
1002
1000
999
999
1000
1000
997
999
997
997
998
999
997
998
998
1000
1000
1000
999
1001
1001
1002
1007
1012
1018
1020
1024
1028
1031
1029
1025
1024
1031
1036
1040
1039
1038
1040
1044
1048
1050
1048
1042
1040
1035
1033
1033
1021
1012
1001
990
989
987
986
983
981
981
982
985
986
986
985
985
987
986
985
986
985
985
987
991
990
990
991
990
993
992
993
991
989
987
989
995
1004
1025
1057
1097
1143
1185
1221
1244
1262
1275
1294
1306
1302
1272
1235
1203
1187
1168
1141
1109
1088
1074
1058
1038
1018
1006
995
984
974
966
959
957
953
951
950
953
951
953
951
947
953
955
955
955
952
953
955
957
957
957
958
958
954
955
956
956
953
953
954
957
957
956
951
951
954
956
952
955
955
956
954
956
954
954
954
951
955
954
957
956
957
958
959
961
964
963
963
964
967
975
976
978
979
982
987
990
993
992
995
999
1003
1010
1014
1012
1013
1015
1017
1020
1022
1020
1018
1015
1017
1019
1017
1015
1010
1006
1006
1008
1008
1004
999
997
996
1000
999
995
994
993
992
994
995
993
991
987
989
991
990
986
982
981
986
989
989
988
986
987
986
990
990
992
989
986
989
991
990
990
988
987
988
991
993
994
989
986
989
991
990
990
988
988
989
990
989
988
989
989
990
991
989
992
989
989
991
992
992
992
993
992
995
998
1000
1006
1010
1012
1019
1020
1019
1017
1020
1024
1030
1033
1031
1029
1031
1035
1037
1036
1032
1028
1024
1018
1016
1007
994
983
978
977
978
977
979
974
975
975
975
979
977
978
976
976
976
981
982
980
979
981
982
985
985
985
985
983
983
982
988
998
1020
1053
1099
1149
1190
1229
1259
1279
1299
1297
1273
1239
1211
1189
1170
1141
1106
1081
1066
1049
1028
1011
997
983
970
959
954
953
950
943
941
940
943
944
942
940
940
941
942
947
947
944
944
943
943
947
948
943
944
942
946
949
947
948
944
941
944
944
943
943
942
941
942
944
941
941
938
937
937
940
941
943
938
936
941
942
946
946
944
944
947
951
954
953
953
956
964
969
971
972
973
978
982
987
989
995
994
997
1002
1007
1009
1008
1010
1009
1012
1012
1010
1009
1008
1004
1008
1006
1006
1003
999
997
995
998
998
994
995
990
992
991
990
988
987
988
989
991
988
987
986
986
986
985
984
982
983
982
986
985
986
985
982
981
981
979
982
981
983
981
983
985
985
984
984
984
986
987
988
988
986
983
986
990
992
990
988
987
987
986
985
986
986
983
984
981
982
981
979
979
980
983
982
983
983
981
981
984
987
993
994
999
1005
1008
1005
999
999
1002
1011
1017
1020
1019
1020
1022
1025
1027
1023
1021
1019
1018
1016
1013
1004
991
979
970
965
967
966
966
964
961
963
967
971
968
968
967
970
970
971
968
971
971
975
976
976
976
976
972
972
974
975
973
969
976
993
1021
1057
1096
1136
1177
1220
1253
1279
1295
1296
1273
1246
1221
1194
1166
1130
1091
1070
1062
1048
1030
1009
991
978
968
958
945
940
934
932
930
930
928
928
927
929
932
931
936
932
932
934
939
942
941
940
937
942
944
943
942
944
944
941
943
944
944
938
938
942
945
945
944
942
943
944
947
945
945
942
942
944
945
947
945
946
946
947
949
951
952
953
950
955
958
960
960
964
966
967
972
973
978
978
984
988
994
996
995
997
999
1004
1008
1009
1006
1005
1006
1011
1011
1011
1009
1004
1001
1000
1001
1001
995
994
994
994
994
993
990
987
986
988
990
988
986
984
985
983
992
991
987
983
982
983
987
985
983
982
982
985
988
986
984
982
981
982
986
987
986
980
982
987
988
988
987
983
980
983
984
985
985
981
980
982
986
985
984
984
980
984
984
980
979
978
981
982
984
983
982
982
980
981
982
984
984
983
982
982
986
987
984
982
981
984
989
988
990
992
996
1001
1004
1008
1006
1002
1003
1005
1014
1019
1021
1019
1020
1026
1029
1031
1028
1026
1022
1022
1022
1018
1010
1002
992
982
975
972
968
967
966
969
971
971
968
967
967
972
974
974
972
968
969
972
976
975
976
976
976
979
979
980
975
970
969
972
979
1000
1030
1064
1101
1146
1187
1225
1254
1273
1278
1271
1246
1215
1188
1159
1126
1098
1080
1064
1045
1024
1006
994
984
971
956
943
938
937
934
930
926
925
925
931
932
934
933
930
928
930
936
936
940
938
937
937
940
939
937
935
934
934
939
939
939
935
934
935
935
937
935
931
930
930
932
934
933
934
935
936
938
936
933
934
934
938
941
942
944
943
947
950
954
954
956
955
960
967
971
973
974
975
977
980
986
989
992
992
995
999
1001
1000
999
999
998
998
1003
1001
1002
1000
997
997
997
993
990
990
986
988
987
986
986
982
980
980
981
981
980
977
975
979
980
978
977
975
975
979
979
980
974
974
975
975
976
976
977
977
977
975
977
975
973
971
974
976
978
975
975
974
975
978
981
981
978
975
972
975
976
973
972
970
969
972
972
971
971
971
969
974
