946
949
951
950
951
948
947
946
949
948
948
946
945
947
948
949
946
946
946
948
951
954
953
948
947
952
956
960
961
959
962
966
976
977
979
977
977
986
999
1007
1011
1011
1011
1014
1014
1018
1017
1013
1008
999
993
988
979
973
967
965
961
959
955
951
947
951
951
953
949
944
944
945
950
949
948
942
937
935
933
935
944
974
1022
1098
1190
1275
1344
1382
1402
1407
1400
1375
1322
1232
1112
988
912
901
922
937
935
932
935
939
939
937
933
931
933
938
936
932
929
927
929
929
929
930
929
927
931
933
932
929
930
933
933
934
936
931
932
933
936
937
935
937
934
937
940
940
941
942
940
944
946
948
949
948
947
949
951
954
953
953
956
960
965
966
967
968
968
974
979
981
984
984
981
987
998
1007
1006
1005
1009
1016
1021
1028
1026
1028
1032
1040
1043
1049
1051
1050
1054
1059
1063
1062
1061
1056
1053
1053
1054
1054
1048
1045
1039
1035
1034
1032
1023
1022
1015
1010
1009
1005
1000
994
987
984
983
983
981
975
972
970
971
970
968
963
959
959
963
961
960
956
953
953
955
956
954
950
947
950
953
957
957
952
952
955
961
963
960
959
959
962
963
966
964
963
963
965
968
971
971
970
971
971
974
977
980
980
974
980
980
982
981
979
978
980
977
982
983
980
979
977
978
980
975
975
975
974
973
978
979
975
972
967
970
972
971
969
965
968
972
973
968
963
962
964
968
966
965
962
959
961
962
963
962
961
959
959
963
963
961
960
956
960
961
959
958
958
957
958
958
962
960
958
956
958
961
964
964
963
958
960
960
963
962
954
955
957
957
962
960
959
956
958
958
959
959
955
955
956
959
961
960
958
954
955
959
962
958
954
956
956
956
959
957
953
952
953
958
962
958
955
953
957
958
959
960
956
954
956
961
962
963
957
956
958
961
962
961
960
961
965
969
974
979
979
982
984
990
995
997
1001
1004
1016
1025
1027
1029
1024
1019
1015
1013
1010
1004
994
987
984
983
976
973
966
961
960
964
964
964
960
955
960
962
966
963
960
954
951
948
950
959
982
1027
1097
1186
1263
1326
1365
1387
1391
1385
1357
1292
1197
1081
977
931
939
958
957
953
952
954
958
955
950
942
943
944
945
942
939
939
938
939
942
937
937
936
937
940
943
942
940
937
937
941
943
945
945
943
945
946
949
948
947
946
948
947
949
951
948
949
952
956
961
960
958
958
961
964
970
972
971
972
971
979
983
983
984
984
986
991
995
999
1002
1004
1006
1012
1018
1021
1020
1021
1024
1032
1039
1043
1045
1049
1052
1059
1063
1066
1064
1062
1066
1070
1071
1071
1068
1066
1065
1065
1066
1059
1054
1045
1043
1040
1038
1032
1022
1018
1015
1013
1009
1006
998
995
991
991
989
986
979
975
978
977
978
972
970
967
967
969
970
964
962
962
963
961
967
964
960
962
960
965
968
964
964
961
966
967
968
968
967
966
966
969
973
973
971
972
972
976
978
977
974
974
973
979
982
978
980
977
977
981
981
978
977
976
976
979
980
979
975
974
975
976
976
976
974
968
970
973
976
973
969
968
968
969
974
970
965
966
967
967
969
967
964
964
963
965
968
966
965
963
963
964
967
964
963
961
961
961
963
963
959
960
959
961
963
961
958
958
958
961
963
958
960
957
960
961
966
963
959
955
958
961
962
962
961
960
961
964
964
963
961
958
961
964
968
965
963
958
958
963
965
962
963
957
958
962
964
962
961
962
962
966
966
965
963
962
963
965
966
966
962
963
966
967
973
974
974
974
979
981
989
992
990
994
997
1008
1018
1027
1028
1025
1025
1021
1017
1011
1009
1004
1002
999
994
991
981
977
975
970
969
965
962
962
965
966
970
967
966
964
962
966
964
961
956
960
985
1026
1086
1161
1235
1296
1339
1365
1372
1358
1328
1264
1175
1067
978
937
940
955
962
960
959
956
955
952
951
948
950
945
948
944
941
941
945
944
940
938
938
941
942
943
940
937
940
941
944
945
941
942
942
945
948
946
946
944
944
950
951
952
953
951
953
958
961
962
958
959
959
966
968
970
969
969
971
974
979
981
980
980
984
988
995
996
997
998
1003
1008
1014
1016
1019
1016
1024
1028
1032
1037
1040
1043
1047
1054
1059
1062
1061
1060
1062
1067
1068
1068
1064
1063
1063
1061
1064
1057
1053
1049
1046
1046
1043
1034
1029
1024
1021
1021
1018
1012
1007
1000
997
995
995
992
987
982
982
983
984
978
976
973
971
973
974
969
967
965
966
967
966
967
966
963
967
969
973
973
969
968
971
974
978
977
975
972
977
982
986
983
984
981
983
988
992
988
989
988
988
990
993
992
989
989
988
991
994
994
991
989
988
993
993
993
988
984
986
987
987
986
985
982
982
984
984
983
982
977
975
977
982
978
975
976
976
977
976
976
974
970
972
975
976
975
974
970
971
974
978
976
972
971
967
971
974
969
969
966
966
968
973
972
966
968
966
969
973
971
970
967
967
969
973
971
967
968
968
967
969
968
968
968
969
970
973
974
972
970
968
973
975
973
972
970
973
971
975
975
971
969
972
973
975
975
973
971
972
972
979
977
974
974
975
978
981
979
977
974
976
977
982
982
982
978
982
983
990
989
988
992
994
1002
1008
1007
1007
1010
1017
1027
1036
1041
1041
1034
1032
1028
1030
1026
1022
1013
1012
1007
1008
1001
994
989
988
987
988
983
986
985
984
987
992
990
989
986
985
988
987
989
1000
1025
1076
1142
1216
1279
1320
1340
1343
1336
1308
1249
1165
1065
991
967
982
991
986
979
977
979
980
979
970
965
966
965
967
964
963
959
956
960
960
962
958
957
956
959
963
964
961
961
961
963
967
966
966
960
961
967
966
969
969
966
968
970
972
970
970
971
971
974
977
979
976
976
980
984
985
984
986
985
987
992
996
997
998
997
1004
1007
1011
1013
1014
1017
1019
1025
1029
1030
1031
1036
1037
1045
1052
1051
1050
1055
1056
1061
1070
1070
1071
1068
1071
1073
1074
1074
1072
1068
1065
1067
1067
1062
1056
1049
1044
1040
1044
1040
1032
1027
1023
1020
1018
1015
1010
1006
1003
1003
1002
999
993
991
989
987
992
987
981
980
980
983
982
983
978
977
975
979
982
979
977
976
978
979
983
984
981
980
981
984
987
988
987
985
987
988
990
988
990
991
994
994
1000
996
995
995
998
1000
1003
1001
999
996
998
999
1002
1001
996
996
994
996
1001
997
996
992
994
994
995
993
989
985
986
988
990
987
984
983
980
987
987
981
979
977
979
982
982
980
977
974
975
975
979
977
974
971
977
977
977
977
973
969
975
974
975
975
975
971
970
970
973
970
972
970
969
971
973
973
971
968
969
971
974
971
971
969
969
970
972
972
971
967
970
970
970
972
966
964
969
969
974
971
970
969
968
969
972
970
968
967
966
969
973
973
969
969
969
968
971
972
971
970
969
972
975
973
971
970
973
974
978
977
976
974
975
977
981
982
979
980
983
987
995
998
998
998
1001
1009
1014
1018
1022
1029
1034
1034
1034
1030
1021
1017
1019
1018
1016
1013
1004
997
992
994
995
990
986
981
981
986
988
987
986
985
986
988
992
991
990
987
991
1000
1017
1045
1078
1131
1190
1240
1279
1301
1302
1295
1277
1241
1182
1100
1024
977
969
978
987
984
975
970
973
970
974
969
967
962
960
961
961
962
959
955
957
956
958
957
954
955
953
955
962
957
957
955
954
958
960
960
959
955
956
960
965
966
963
962
963
968
967
967
967
967
965
970
974
969
973
972
973
977
980
981
978
979
983
987
993
993
994
993
996
1002
1008
1009
1009
1010
1015
1018
1024
1025
1028
1027
1030
1035
1042
1043
1043
1045
1048
1053
1056
1059
1056
1055
1055
1059
1062
1058
1054
1053
1050
1050
1054
1048
1044
1038
1037
1036
1033
1031
1024
1016
1015
1015
1011
1010
1003
1000
997
996
995
990
986
981
978
981
980
979
976
970
972
971
975
972
968
965
968
968
967
969
967
964
967
970
973
975
971
968
968
970
974
973
973
971
972
976
975
981
976
975
978
980
984
982
982
980
982
982
984
988
986
984
983
988
987
990
989
985
988
989
992
990
986
984
985
986
986
986
983
979
981
983
984
981
980
976
975
975
979
977
974
972
971
974
977
975
974
969
969
971
970
971
969
965
967
970
969
970
966
966
965
966
969
967
964
962
964
965
967
967
964
963
964
964
966
966
963
960
961
962
967
962
963
960
960
963
964
965
962
960
961
960
965
964
959
957
957
958
959
964
960
958
958
960
962
962
958
954
955
958
963
964
958
953
959
960
963
963
961
957
956
958
962
959
962
957
956
959
966
965
961
961
963
966
967
966
963
963
964
967
972
973
972
972
974
979
983
988
988
988
989
997
1003
1008
1012
1015
1017
1018
1016
1014
1007
1002
1000
1002
1002
996
991
985
980
980
980
976
972
965
967
966
969
970
969
966
966
967
973
971
972
970
969
971
976
984
995
1016
1049
1094
1146
1192
1227
1248
1257
1262
1253
1226
1178
1115
1046
986
963
961
964
962
956
959
956
956
951
948
946
946
945
940
939
935
934
936
937
936
932
930
930
931
934
931
932
930
927
933
937
936
934
934
934
934
938
937
938
938
937
939
941
943
943
939
940
946
947
945
944
943
948
948
952
953
949
952
953
957
962
960
960
958
961
968
971
971
971
970
971
978
982
983
983
984
987
991
997
998
998
998
1000
1006
1013
1016
1016
1016
1018
1023
1029
1029
1032
1031
1033
1034
1037
1038
1036
1031
1033
1033
1038
1036
1033
1027
1027
1025
1024
1024
1016
1011
1007
1005
1006
1003
998
994
989
989
986
981
978
973
972
971
970
969
962
959
958
957
958
959
956
952
952
954
956
953
952
946
947
948
950
951
950
948
947
951
953
954
952
948
951
952
952
956
953
952
951
954
960
955
956
955
953
957
961
962
957
957
958
961
964
964
963
959
963
962
966
966
963
961
962
963
967
966
965
961
960
961
963
961
960
957
955
957
956
958
954
951
950
954
956
954
951
948
947
948
948
947
945
944
944
945
947
946
942
941
941
941
944
942
938
940
938
942
943
942
939
937
936
942
945
942
940
937
937
940
942
942
938
935
937
938
940
940
939
935
931
937
940
940
937
938
936
939
940
938
935
933
934
935
939
938
935
933
932
934
937
936
933
931
930
937
939
938
937
932
933
938
940
941
939
936
936
940
943
946
944
941
942
951
955
956
955
952
955
958
967
969
971
976
982
984
988
987
981
977
977
975
974
973
966
960
959
959
960
957
956
951
950
954
953
955
952
956
957
960
966
968
967
966
967
976
986
1004
1030
1065
1115
1168
1212
1240
1255
1255
1248
1227
1190
1129
1052
986
956
957
964
963
956
951
950
952
953
953
951
946
943
946
949
949
943
941
942
944
947
944
945
944
943
947
950
947
944
944
942
949
952
953
950
949
951
955
958
959
954
952
955
962
966
966
964
963
965
970
974
975
974
974
975
981
985
985
984
986
986
991
997
999
1000
998
1002
1006
1014
1015
1017
1018
1021
1024
1029
1029
1031
1030
1034
1041
1047
1048
1049
1050
1051
1054
1062
1065
1064
1063
1066
1069
1072
1071
1070
1065
1064
1067
1068
1067
1062
1055
1051
1050
1049
1046
1040
1034
1031
1030
1031
1026
1020
1012
1012
1010
1008
1005
1002
997
993
993
996
994
992
987
982
982
987
985
984
979
976
981
981
980
981
977
975
975
981
982
980
979
980
982
986
985
985
984
984
987
991
990
989
988
988
991
995
995
997
994
996
1000
1002
1001
1001
999
998
999
1003
1004
999
996
997
997
1001
999
998
995
995
995
999
997
995
991
989
989
994
992
989
986
987
987
987
986
987
982
981
983
985
982
978
977
979
979
978
980
975
973
974
976
976
977
971
969
967
970
974
973
974
969
971
970
974
975
972
968
966
971
970
967
967
967
967
967
970
971
968
966
966
968
971
972
969
969
969
970
973
970
968
965
969
975
977
979
978
974
978
983
986
988
988
992
993
998
1004
1006
1011
1011
1013
1017
1023
1022
1020
1015
1015
1013
1012
1005
996
989
988
988
986
985
977
972
970
975
978
978
976
973
974
978
984
983
981
977
978
979
992
1009
1037
1077
1130
1188
1231
1258
1267
1259
1252
1225
1182
1120
1045
989
971
980
987
982
975
971
970
965
962
963
958
956
952
954
952
955
948
947
946
947
948
948
946
943
943
944
948
949
947
943
942
944
949
949
947
945
941
946
950
952
950
948
948
950
955
955
952
953
950
956
960
960
957
957
958
962
969
968
970
969
970
975
981
982
983
983
980
989
991
997
998
999
1002
1006
1012
1015
1015
1016
1019
1022
1032
1032
1032
1033
1033
1036
1038
1040
1037
1033
1031
1034
1034
1031
1029
1023
1020
1019
1018
1016
1011
1003
1000
998
999
996
989
984
980
981
982
976
972
967
967
967
968
968
965
962
959
959
963
963
960
955
957
959
962
961
957
956
956
958
961
962
960
958
959
961
966
966
962
961
963
965
967
971
969
963
967
970
972
973
972
969
970
968
973
975
974
974
971
975
979
975
977
974
973
976
980
979
976
973
972
975
979
978
974
973
973
973
976
975
975
969
971
972
976
974
970
970
969
969
971
970
969
966
963
965
969
969
968
961
960
964
967
969
961
962
963
964
967
964
964
962
960
962
965
967
965
961
962
963
968
966
964
963
965
965
967
966
966
966
967
968
974
978
977
977
979
981
987
989
992
990
993
999
1007
1009
1010
1008
1011
1014
1014
1014
1013
1004
1000
1000
996
993
990
984
981
979
979
980
974
973
972
974
976
976
974
975
977
980
987
987
986
985
992
1014
1047
1088
1137
1178
1211
1233
1241
1237
1217
1185
1135
1074
1020
987
983
985
986
982
981
978
972
968
964
963
962
960
959
955
955
953
956
958
953
948
947
952
952
954
951
949
948
949
952
954
952
949
951
953
957
957
955
953
954
955
959
960
959
957
958
960
963
962
965
964
964
967
970
972
971
969
968
973
979
982
983
983
983
989
992
997
999
998
999
1006
1012
1011
1013
1013
1015
1018
1025
1025
1027
1028
1031
1032
1036
1037
1039
1033
1036
1034
1038
1035
1033
1025
1026
1027
1027
1023
1022
1014
1010
1010
1009
1004
1001
995
993
992
992
988
982
977
979
976
978
976
975
970
968
971
971
970
969
966
963
967
968
967
966
966
963
967
970
969
967
968
967
970
972
975
974
972
972
975
977
979
977
975
973
979
978
980
980
978
980
981
983
985
983
982
980
983
986
985
983
983
983
984
988
986
984
981
982
980
986
986
982
980
980
981
983
985
980
978
976
978
980
981
977
975
974
976
979
977
972
969
971
974
974
975
969
970
971
971
973
972
971
969
968
969
972
972
971
968
967
967
972
971
970
968
967
970
972
971
971
967
968
969
974
973
973
971
969
972
976
975
975
973
974
978
980
983
982
983
986
987
992
997
995
995
999
1004
1010
1013
1013
1015
1019
1022
1024
1026
1022
1016
1016
1017
1014
1011
1009
1002
998
996
994
992
990
989
987
988
991
991
989
988
989
990
995
995
995
995
999
1012
1039
1071
1113
1156
1195
1225
1238
1241
1235
1217
1190
1148
1096
1038
1002
992
992
995
992
987
980
974
972
972
969
969
967
963
961
959
962
961
958
955
953
956
957
957
957
953
950
954
956
957
952
951
954
956
957
955
957
953
953
956
958
959
957
957
956
961
963
964
963
963
964
967
969
970
969
968
972
976
977
982
981
977
980
981
987
991
993
992
990
999
1006
1007
1008
1008
1010
1015
1021
1021
1023
1021
1024
1028
1035
1035
1033
1032
1027
1033
1036
1036
1033
1029
1028
1031
1030
1028
1024
1019
1016
1018
1016
1013
1008
1000
998
997
998
994
991
985
984
984
987
985
979
975
974
976
975
976
973
969
970
974
972
976
975
970
970
974
979
977
975
974
972
978
978
979
978
980
977
984
985
986
985
983
984
987
991
991
990
989
989
990
992
995
991
991
988
991
998
993
994
991
992
993
994
995
991
985
986
990
991
990
984
985
985
986
990
992
988
987
982
988
988
989
986
983
981
984
984
985
986
978
977
978
984
984
979
978
978
981
984
983
979
975
976
978
979
980
976
975
975
978
978
978
975
977
974
976
977
979
977
975
976
976
979
979
976
973
974
978
980
981
980
979
980
982
984
984
983
976
977
983
984
987
987
983
983
986
990
991
993
992
997
1000
1004
1006
1007
1006
1009
1017
1024
1026
1026
1024
1025
1026
1030
1028
1021
1015
1013
1010
1010
1007
1003
997
995
995
997
996
995
992
992
994
998
1000
999
997
999
1002
1006
1009
1013
1029
1054
1091
1127
1169
1196
1213
1220
1223
1215
1196
1163
1116
1062
1022
1000
1002
1002
993
987
986
987
987
979
976
972
972
973
974
969
964
963
965
966
966
962
959
959
960
963
960
961
959
955
956
960
959
960
955
954
955
960
962
962
958
957
961
965
965
968
960
965
966
969
967
966
965
968
971
975
976
977
976
976
978
983
984
983
980
982
985
992
996
994
993
994
1000
1003
1007
1006
1006
1007
1011
1016
1020
1020
1020
1020
1024
1027
1029
1029
1030
1028
1032
1035
1034
1033
1031
1029
1032
1034
1034
1030
1024
1024
1022
1021
1022
1018
1011
1009
1010
1012
1008
1002
998
996
993
995
994
989
986
983
984
984
985
979
978
976
978
979
979
977
974
973
974
978
980
977
974
974
977
980
979
977
977
977
981
984
984
982
979
983
983
986
988
988
985
985
988
992
992
991
989
986
992
994
993
991
