957
956
962
962
963
964
962
962
963
966
961
959
955
955
958
960
960
956
954
951
956
959
958
954
951
950
952
954
952
949
945
949
948
952
949
945
945
947
949
951
950
948
942
943
945
948
947
945
943
946
947
950
948
944
944
943
945
946
945
943
941
940
945
948
947
942
941
941
946
949
948
947
943
945
949
954
953
954
955
963
968
974
973
975
978
982
990
993
999
998
994
994
994
999
994
991
989
987
979
973
970
965
961
958
955
955
952
948
945
946
947
947
949
947
943
945
948
955
954
953
951
953
961
981
1013
1057
1116
1186
1242
1280
1296
1298
1291
1273
1237
1166
1058
958
902
898
915
928
925
918
912
918
922
926
924
916
914
915
922
924
920
911
914
917
920
923
922
916
915
918
920
917
915
919
917
920
923
923
917
917
916
922
923
930
930
930
925
930
934
935
933
931
927
930
932
936
939
938
936
938
943
948
948
947
948
949
953
960
962
962
963
966
971
977
978
979
982
984
987
992
998
1001
1003
1008
1017
1024
1030
1032
1034
1042
1050
1055
1056
1056
1057
1062
1064
1070
1068
1069
1066
1066
1067
1068
1061
1057
1054
1051
1049
1045
1045
1039
1033
1027
1026
1023
1011
1002
996
991
992
990
987
982
975
972
969
969
963
956
953
952
953
955
951
945
945
943
945
942
941
938
931
933
932
935
934
933
929
931
932
936
934
930
926
927
931
932
932
930
932
931
935
939
935
938
936
936
937
937
940
936
933
932
938
944
943
944
943
939
941
942
940
937
937
939
939
943
944
944
940
942
942
942
940
940
937
938
941
941
943
937
937
939
937
938
938
932
932
933
936
941
941
938
935
934
934
937
938
937
935
935
938
941
941
938
936
937
941
944
945
941
944
948
955
957
963
962
962
966
972
982
986
990
987
989
991
989
989
986
982
983
982
976
971
963
955
954
953
951
948
942
937
936
941
943
941
937
938
937
942
946
944
942
941
939
937
944
961
990
1042
1108
1182
1246
1289
1304
1302
1295
1276
1229
1146
1040
948
919
930
944
941
930
926
930
934
933
930
926
922
921
922
925
921
919
917
918
918
923
920
920
918
919
921
926
923
921
919
924
925
927
928
926
925
927
929
931
931
927
926
931
936
938
938
935
937
936
939
946
947
946
944
948
952
958
956
958
958
959
966
971
975
977
977
977
980
983
990
990
993
1000
1004
1010
1014
1015
1018
1024
1031
1038
1045
1049
1052
1056
1066
1071
1074
1073
1074
1077
1081
1084
1084
1084
1079
1079
1079
1080
1074
1063
1057
1054
1054
1051
1044
1036
1030
1028
1024
1020
1015
1004
998
996
996
995
989
982
977
976
973
975
972
967
962
958
959
959
955
953
951
952
954
953
950
944
941
942
941
944
943
941
941
942
943
946
943
942
940
939
943
948
948
947
944
944
948
950
950
949
950
953
954
957
955
952
952
953
955
957
956
952
951
951
953
956
955
948
949
948
948
951
950
947
943
946
946
949
946
943
941
943
944
946
946
943
941
941
945
947
941
938
939
940
944
946
943
940
941
941
945
948
946
941
941
940
943
945
944
943
940
943
944
949
949
949
949
949
955
960
966
967
969
972
978
984
985
988
993
994
996
998
1000
996
991
992
990
990
983
975
972
965
967
967
963
955
952
951
954
954
953
952
952
948
951
955
953
951
952
950
950
949
950
967
997
1054
1117
1182
1238
1268
1284
1285
1283
1263
1221
1150
1063
992
968
968
967
959
950
947
947
948
945
938
932
930
928
931
926
923
921
920
922
925
924
923
920
920
923
925
924
922
920
917
920
925
925
922
922
924
927
930
930
927
927
926
931
932
933
932
930
933
936
937
940
938
937
940
944
947
948
947
947
951
956
960
962
959
963
966
970
978
981
981
985
988
996
1003
1002
1006
1012
1017
1023
1030
1034
1038
1040
1050
1054
1063
1064
1063
1066
1070
1073
1078
1076
1073
1073
1071
1073
1076
1071
1064
1060
1058
1056
1053
1047
1043
1034
1030
1028
1028
1023
1015
1008
1002
1000
1000
996
990
987
986
984
986
980
974
972
972
969
971
966
964
962
962
964
964
961
959
953
956
956
954
957
952
951
950
955
955
954
953
950
951
950
952
952
947
944
947
948
950
950
949
946
945
947
950
949
949
948
948
949
951
950
950
948
947
951
950
951
949
946
949
949
952
950
948
945
946
947
949
948
946
943
944
948
950
948
946
941
944
945
941
944
944
943
942
944
947
943
939
937
939
942
943
941
939
939
939
941
940
942
941
939
939
940
942
941
939
937
937
937
942
943
936
938
938
937
942
941
938
935
934
938
944
943
940
938
941
945
948
950
952
951
954
959
962
964
965
968
975
980
981
982
981
977
978
979
978
975
966
960
959
956
957
953
948
941
937
937
939
941
938
935
936
940
942
942
939
937
938
941
938
934
931
941
967
1004
1058
1124
1184
1235
1268
1286
1287
1276
1251
1202
1126
1041
981
955
954
953
946
943
941
939
936
932
929
929
931
926
923
918
920
921
923
922
920
919
919
923
925
921
917
919
917
918
920
922
921
918
919
922
926
925
925
920
924
928
933
931
926
924
927
934
937
937
932
933
938
941
943
943
941
944
946
949
955
956
954
953
960
966
971
973
970
970
973
982
987
987
992
995
1000
1006
1012
1019
1021
1021
1030
1036
1041
1045
1045
1045
1053
1059
1061
1063
1062
1060
1062
1063
1068
1065
1059
1055
1055
1053
1052
1048
1042
1035
1030
1029
1027
1023
1011
1007
1004
1003
1005
1001
994
988
985
985
985
981
976
973
968
974
975
971
966
964
961
963
965
966
961
958
960
961
962
959
958
953
955
958
957
960
956
954
956
955
961
962
959
958
957
963
963
965
960
961
962
963
967
969
965
965
965
967
971
969
967
967
967
971
974
974
971
969
967
970
972
970
967
966
966
968
970
968
964
964
966
965
971
965
962
963
964
967
967
966
964
960
962
963
963
963
962
960
962
961
966
965
963
959
961
961
964
964
962
961
963
966
968
965
962
962
958
962
963
963
961
961
966
968
970
969
968
972
975
982
985
986
986
987
989
995
1003
1008
1007
1010
1011
1013
1015
1013
1008
1005
1002
1001
998
995
989
981
978
981
978
975
971
967
968
972
974
972
971
967
969
973
976
974
974
971
963
968
976
996
1025
1075
1140
1202
1253
1282
1290
1286
1273
1242
1189
1105
1020
972
968
973
974
968
960
961
961
963
964
960
954
948
950
951
951
952
947
943
940
947
949
948
945
943
941
943
944
947
944
941
942
943
946
947
945
944
945
947
952
950
949
947
945
951
955
954
952
952
951
955
961
960
961
959
961
964
968
970
967
968
971
976
978
979
980
979
984
989
995
996
999
999
1001
1010
1016
1020
1022
1021
1026
1037
1041
1045
1047
1049
1052
1057
1067
1069
1069
1068
1069
1075
1077
1077
1074
1073
1069
1072
1072
1071
1067
1062
1059
1061
1057
1054
1048
1040
1038
1037
1033
1027
1023
1014
1012
1013
1014
1010
1006
998
998
995
994
992
988
983
985
985
985
982
980
976
976
978
976
975
973
969
968
968
973
971
969
964
966
970
969
968
968
966
966
969
972
970
967
966
968
971
972
971
968
967
969
972
976
972
971
971
972
973
979
975
973
972
972
975
975
975
974
973
973
975
976
975
971
970
972
974
974
972
972
969
968
972
973
973
967
966
967
969
971
969
966
966
966
964
967
967
964
961
963
964
967
963
961
957
958
961
962
959
958
956
955
959
959
959
954
952
953
955
959
957
952
952
955
959
960
956
955
954
956
958
963
965
964
964
970
973
977
978
978
976
981
987
996
997
994
993
994
993
995
993
986
982
983
981
980
976
973
966
961
962
960
958
953
950
950
954
954
956
953
950
955
957
960
960
958
954
953
956
970
995
1029
1074
1130
1181
1221
1243
1252
1249
1239
1222
1190
1134
1067
1002
969
964
967
962
954
950
947
948
950
948
943
939
938
937
941
939
935
934
932
936
940
937
934
932
931
934
940
938
935
931
933
935
940
937
937
934
937
938
939
941
938
937
938
941
946
945
943
942
945
949
951
952
952
952
955
957
962
961
962
962
964
971
974
977
975
976
979
985
989
992
989
992
998
1003
1010
1012
1014
1018
1023
1028
1035
1040
1040
1043
1049
1055
1059
1064
1066
1067
1071
1075
1077
1076
1075
1075
1077
1079
1079
1075
1072
1067
1067
1065
1062
1061
1053
1045
1042
1040
1039
1032
1026
1019
1017
1015
1015
1012
1006
999
995
995
998
992
988
980
982
980
982
979
975
970
966
969
971
967
961
958
960
961
960
964
959
957
957
959
960
957
958
955
954
960
963
960
960
956
959
963
966
967
962
961
963
966
969
968
966
965
966
968
971
970
965
963
966
966
970
966
965
963
964
966
971
971
970
966
965
968
970
968
964
964
965
966
970
969
964
961
959
961
963
964
960
959
957
962
961
962
961
957
956
957
960
958
957
955
956
960
961
958
955
955
955
959
961
959
955
953
953
955
961
960
954
952
952
957
961
960
957
958
959
962
960
959
958
956
955
959
962
962
963
963
965
969
973
975
974
975
975
980
984
989
987
990
991
995
995
995
993
993
994
994
991
988
982
978
976
975
977
974
971
963
963
964
967
968
967
964
962
967
971
969
966
965
967
968
966
969
974
987
1016
1057
1112
1162
1205
1233
1252
1263
1260
1252
1230
1189
1131
1066
1015
989
985
982
979
972
972
967
964
958
956
955
953
952
947
942
941
946
947
945
942
939
938
942
941
941
940
937
936
939
942
940
937
935
936
939
942
943
942
936
941
943
946
946
944
942
946
950
954
953
949
949
950
953
955
958
957
957
960
964
964
969
967
965
966
969
977
981
982
981
983
990
996
999
1000
1002
1006
1012
1020
1023
1023
1028
1030
1040
1047
1054
1055
1057
1061
1069
1074
1074
1078
1077
1080
1080
1084
1085
1082
1077
1077
1077
1079
1075
1069
1061
1057
1054
1054
1048
1042
1035
1033
1030
1029
1025
1017
1013
1011
1008
1005
1003
1001
994
994
993
992
990
983
984
981
979
982
981
975
971
969
969
974
967
967
964
965
963
966
966
963
960
958
956
957
955
956
953
951
955
956
954
951
950
950
951
956
952
949
948
947
952
952
953
952
952
950
953
956
955
954
951
955
958
959
957
958
951
954
956
960
958
957
955
957
960
962
959
959
960
961
961
964
963
963
960
962
964
966
962
962
957
957
958
962
962
959
955
956
960
964
965
959
956
956
960
963
963
959
957
957
957
962
965
960
959
957
961
961
961
958
955
959
958
962
959
960
957
958
958
963
962
959
956
957
961
962
963
960
956
956
962
964
965
960
957
958
962
966
964
965
961
964
967
971
974
972
970
974
976
983
983
983
983
983
989
996
997
1001
1001
1003
1006
1008
1007
1006
1001
1002
1002
998
997
992
988
984
986
987
983
979
976
973
974
980
976
977
977
974
978
981
980
978
979
980
983
984
983
982
986
1005
1036
1084
1136
1181
1222
1245
1261
1267
1260
1239
1202
1151
1084
1029
1002
1001
999
990
984
983
981
973
969
969
967
968
963
957
952
953
953
955
952
950
949
950
948
951
951
943
945
946
948
947
951
950
947
946
948
952
952
949
946
949
949
954
955
954
951
950
956
960
960
956
953
959
963
967
967
963
961
963
972
974
977
974
975
977
983
988
987
989
990
992
999
1004
1005
1003
1007
1011
1019
1025
1028
1031
1033
1038
1046
1055
1059
1060
1063
1066
1076
1083
1083
1086
1087
1091
1097
1099
1100
1097
1094
1093
1094
1096
1093
1087
1083
1079
1077
1075
1069
1062
1055
1053
1050
1050
1043
1037
1029
1028
1027
1027
1022
1016
1011
1008
1010
1010
1006
1002
1000
996
995
996
994
988
984
983
986
988
984
982
979
980
982
983
981
977
973
973
972
975
974
973
972
972
974
974
974
972
967
970
973
976
971
970
969
970
974
972
972
972
972
972
976
975
979
974
973
972
976
979
974
974
974
975
978
981
980
976
974
975
977
982
979
975
974
976
978
980
980
976
972
973
975
980
980
976
974
976
978
980
978
976
974
975
975
978
978
973
973
972
974
976
976
971
971
970
974
977
975
973
970
971
972
976
975
973
971
969
975
974
971
971
967
969
972
973
975
970
969
968
971
974
975
972
971
971
972
974
974
972
970
970
975
977
975
974
970
973
974
976
979
977
977
977
981
986
986
987
986
992
994
997
997
998
999
1002
1011
1013
1016
1012
1010
1012
1014
1015
1013
1006
1002
999
999
1001
995
990
987
981
986
986
986
983
979
982
984
990
988
988
984
987
990
993
992
989
991
1002
1029
1067
1111
1156
1196
1229
1247
1259
1254
1244
1224
1190
1136
1075
1022
1000
1000
1002
995
992
986
979
978
975
973
971
969
966
961
960
962
963
961
955
953
954
955
957
957
956
950
951
951
955
958
953
953
952
957
958
957
957
955
958
957
963
962
962
959
958
961
965
966
964
963
965
968
972
975
974
971
973
976
979
982
985
984
986
993
998
999
999
999
1007
1011
1015
1018
1018
1021
1024
1031
1037
1038
1040
1042
1047
1054
1064
1066
1068
1072
1076
1082
1086
1092
1092
1090
1095
1097
1098
1099
1098
1095
1095
1096
1095
1093
1088
1081
1080
1076
1076
1074
1067
1061
1056
1056
1052
1046
1044
1035
1033
1035
1034
1027
1023
1018
1017
1017
1017
1014
1010
1006
1006
1006
1007
1006
997
996
996
995
997
996
994
990
990
996
998
997
991
988
988
993
995
993
992
989
991
994
995
995
993
990
992
994
998
996
995
992
993
997
1000
1000
996
995
996
999
1003
1000
999
995
996
997
1000
1000
997
994
995
997
999
998
996
992
992
993
997
996
991
991
988
991
993
993
989
987
989
989
988
990
988
983
986
986
988
988
984
983
984
986
988
989
986
982
983
984
988
988
984
980
982
984
988
988
987
982
982
986
987
986
985
983
980
985
987
989
987
986
984
987
991
990
988
988
992
994
996
1000
1000
1001
1002
1006
1011
1014
1016
1017
1019
1024
1027
1029
1025
1023
1022
1022
1024
1020
1018
1012
1008
1006
1009
1006
1003
999
996
999
1001
1001
999
997
1000
1001
1004
1006
1005
1002
1006
1009
1009
1009
1012
1023
1045
1084
1130
1172
1208
1231
1248
1256
1256
1242
1213
1165
1103
1046
1018
1013
1015
1008
1001
1000
998
998
992
989
987
987
987
982
980
975
976
977
976
975
970
970
966
971
974
973
971
968
968
968
974
973
969
966
969
969
976
971
973
970
972
975
977
975
978
973
973
974
983
981
981
980
983
986
987
990
990
989
990
995
1001
1002
1000
1000
1004
1010
1015
1012
1015
1017
1020
1026
1033
1033
1035
1039
1044
1048
1055
1061
1063
1063
1069
1072
1079
1082
1084
1085
1085
1090
1097
1097
1094
1091
1091
1093
1095
1094
1086
1082
1077
1080
1077
1072
1067
1059
1056
1051
1052
1047
1040
1034
1032
1030
1030
1023
1017
1011
1010
1009
1009
1005
1002
996
992
994
997
994
990
985
985
986
988
987
982
980
976
980
981
980
977
974
974
977
979
978
977
974
971
975
978
977
975
973
972
976
980
980
975
973
974
978
981
981
978
976
977
974
980
980
979
977
978
978
981
980
977
974
976
977
979
979
977
973
971
978
979
976
974
973
972
976
976
974
972
968
968
970
969
973
969
968
966
969
973
972
968
965
967
969
972
971
969
965
964
967
969
970
967
966
966
966
971
972
971
965
965
968
971
970
967
966
966
967
971
971
966
968
964
966
967
970
968
967
968
972
974
973
971
970
969
971
974
972
971
968
971
976
977
977
974
972
977
980
985
985
986
984
987
990
994
996
996
999
1002
1010
1012
1011
1012
1009
1010
1007
1011
1009
1000
997
997
997
995
994
986
984
985
985
988
985
984
982
981
986
989
990
990
988
991
992
994
993
993
1006
1032
1069
1115
1160
1197
1220
1229
1231
1226
1209
1171
1113
1051
1011
1004
1005
1000
991
986
984
984
981
975
970
969
967
969
965
962
956
958
959
960
958
957
952
953
955
957
957
954
948
948
952
957
955
955
954
954
956
958
958
956
952
955
958
960
962
958
959
959
965
969
967
967
965
964
969
973
975
973
971
973
976
983
985
985
982
984
988
995
996
998
998
1001
1005
1011
1015
1018
1020
1022
1026
1033
1038
1038
1042
1046
1053
1058
1060
1060
1058
1059
1067
1071
1070
1068
1067
1068
1068
1071
1067
1064
1058
1057
1055
1055
1055
1048
1041
1038
1033
1031
1026
1023
1017
1011
1012
1010
1005
999
996
993
992
993
988
985
979
978
979
980
979
971
968
967
968
969
965
962
962
961
959
962
962
960
958
956
959
962
961
957
955
955
958
959
958
955
953
954
958
957
957
955
953
953
959
962
962
959
958
957
963
964
962
960
958
957
960
964
961
961
960
961
962
967
962
961
960
961
960
965
962
964
959
960
961
963
962
959
957
955
957
960
959
959
952
957
959
961
961
958
956
956
958
958
959
960
957
957
960
962
962
955
956
952
954
961
959
954
953
955
957
960
961
957
955
956
956
961
961
960
954
956
957
961
960
958
958
957
961
965
962
957
959
957
961
965
962
960
956
957
959
960
961
960
957
956
963
965
961
964
961
964
965
966
963
964
964
962
965
970
969
968
966
970
969
971
974
974
973
973
982
983
987
986
983
990
990
996
1000
997
998
1002
1008
1012
1014
1009
1007
1006
1004
1005
1001
997
992
991
991
992
991
988
986
983
985
989
988
989
987
988
991
993
996
993
992
991
993
1003
1012
1036
1066
1107
1154
1191
1214
1226
1221
1221
1212
1196
1162
1106
1046
1015
1006
1012
1009
1001
