962
962
962
962
962
962
962
962
966
967
965
961
963
964
968
969
969
970
972
976
979
981
983
980
983
990
994
993
996
998
1001
1009
1014
1012
1014
1016
1021
1025
1030
1033
1038
1040
1045
1050
1061
1069
1075
1078
1085
1093
1104
1110
1116
1116
1119
1128
1135
1141
1139
1139
1137
1138
1136
1134
1130
1121
1120
1117
1116
1108
1101
1095
1085
1081
1075
1066
1057
1048
1045
1041
1039
1032
1025
1016
1015
1013
1016
1010
1004
999
997
996
993
986
986
985
983
984
981
974
967
965
966
967
971
970
967
958
954
954
962
964
963
958
954
956
957
957
958
956
955
957
957
958
959
956
956
957
961
962
961
958
960
961
968
969
968
968
969
974
978
978
975
972
974
977
981
982
974
967
968
975
977
977
972
973
972
975
981
978
975
969
965
968
973
974
971
964
966
966
972
971
969
968
967
971
976
971
965
958
956
965
967
965
958
955
955
960
962
957
956
954
956
954
961
957
955
959
960
964
963
963
959
953
950
954
955
959
953
951
953
951
954
955
956
953
954
956
955
955
952
952
953
956
958
956
954
950
952
955
952
950
950
950
949
952
953
953
951
946
946
948
951
947
948
949
949
953
956
957
957
954
951
949
951
950
949
945
944
948
954
955
955
954
952
953
955
951
945
944
945
954
959
957
954
947
950
952
955
958
957
956
952
956
957
955
946
944
945
952
955
955
955
956
954
961
966
964
960
959
963
962
968
971
975
977
987
1004
1023
1031
1026
1018
1010
1006
1004
1001
997
992
987
988
987
979
977
972
966
963
961
952
947
947
948
953
957
960
960
957
958
957
958
956
950
939
931
932
960
1017
1104
1203
1291
1361
1404
1426
1420
1387
1318
1212
1084
956
871
879
914
934
935
932
933
937
941
946
945
941
937
934
936
941
943
941
939
938
938
937
939
940
940
941
942
942
946
946
941
938
933
942
947
948
946
947
948
947
953
953
954
954
952
955
961
966
966
960
964
969
973
975
973
974
979
981
980
986
992
1001
1009
1010
1007
1005
1005
1010
1020
1026
1031
1027
1027
1032
1044
1053
1063
1071
1074
1078
1084
1095
1108
1117
1123
1127
1129
1135
1144
1152
1154
1149
1147
1145
1153
1152
1144
1131
1129
1134
1137
1132
1128
1122
1114
1107
1097
1083
1076
1073
1067
1057
1054
1047
1041
1036
1029
1030
1030
1024
1016
1012
1005
1009
1010
1009
1003
998
996
994
997
990
985
982
982
985
982
982
979
975
972
974
976
976
975
974
973
974
978
979
979
983
984
981
974
967
969
973
975
980
982
977
972
971
972
978
987
992
986
986
989
992
995
995
993
992
994
996
997
998
996
993
990
992
993
991
990
990
991
993
999
998
990
983
980
982
985
983
982
982
987
989
988
985
984
981
977
979
982
979
975
975
974
973
975
970
970
974
973
975
981
981
975
970
966
967
976
977
973
969
960
963
971
973
972
966
957
962
971
970
963
957
957
961
965
966
964
962
962
964
965
967
966
962
960
964
967
965
964
960
955
964
965
964
963
963
961
962
965
966
960
962
961
967
970
971
969
968
964
957
959
959
959
958
956
962
965
966
966
968
969
970
972
970
965
962
962
965
969
967
961
961
962
965
968
968
967
966
965
967
967
972
969
966
968
967
977
982
987
989
994
1002
1007
1019
1029
1036
1034
1030
1023
1015
1005
1001
1002
1002
1006
1004
997
988
979
976
978
973
967
962
962
968
972
970
967
960
960
964
972
971
964
950
941
934
937
955
998
1080
1182
1282
1354
1397
1423
1430
1418
1385
1312
1184
1056
928
876
917
953
958
952
946
951
956
965
960
951
940
939
942
945
945
943
941
940
942
945
943
943
941
944
950
952
953
951
946
946
949
957
959
956
951
950
956
961
964
962
963
964
966
971
973
972
972
973
969
973
976
975
980
984
992
994
994
995
997
1001
1004
1008
1015
1019
1022
1027
1034
1043
1048
1049
1050
1057
1068
1079
1086
1094
1099
1103
1109
1120
1133
1139
1138
1139
1144
1152
1151
1147
1147
1145
1146
1144
1139
1127
1123
1112
1112
1113
1106
1092
1077
1073
1070
1067
1059
1049
1035
1031
1027
1026
1021
1016
1015
1010
1013
1012
1006
999
991
982
984
984
983
980
973
973
970
971
973
974
969
967
965
966
969
968
964
962
961
960
967
959
956
953
954
956
957
957
955
959
958
955
955
952
958
960
958
959
958
957
961
962
964
970
970
969
966
965
964
968
965
967
965
968
972
970
967
964
966
966
966
969
964
963
966
966
968
968
970
965
963
960
960
964
966
967
964
963
963
964
961
960
961
959
963
970
969
966
960
960
967
972
964
957
953
956
962
965
965
962
958
953
958
959
961
958
956
956
964
969
965
958
951
952
958
961
962
961
957
956
959
960
962
960
963
962
962
961
961
959
958
955
960
964
964
963
960
960
963
962
956
951
951
956
959
959
962
961
963
966
967
967
962
960
964
966
967
958
954
953
956
960
960
961
958
958
959
965
966
965
968
958
958
958
964
966
966
965
961
959
967
968
972
971
974
983
991
996
997
996
1003
1009
1026
1031
1031
1029
1022
1018
1010
1003
1001
999
992
991
990
987
982
974
971
969
969
963
967
969
974
975
972
965
963
959
956
955
952
946
937
938
967
1028
1118
1225
1318
1378
1414
1430
1426
1397
1331
1214
1086
958
874
901
941
953
947
943
951
958
957
954
946
942
942
941
946
946
948
947
948
945
941
937
939
943
947
946
945
944
943
946
949
947
950
952
953
957
961
958
952
953
954
955
963
965
972
965
964
966
971
973
976
974
974
977
980
987
991
994
993
998
1000
1003
1005
1012
1016
1024
1028
1030
1034
1036
1043
1049
1058
1064
1073
1075
1081
1090
1099
1104
1108
1108
1115
1124
1132
1136
1136
1140
1140
1141
1143
1141
1136
1129
1122
1119
1115
1111
1106
1095
1081
1073
1065
1059
1054
1053
1048
1036
1030
1023
1014
1011
1012
1011
1008
1005
999
994
992
992
992
987
980
974
975
975
975
971
970
969
972
973
972
964
957
955
959
961
966
966
962
958
956
957
960
960
958
957
956
960
967
971
968
966
961
963
968
966
964
963
966
969
970
968
965
961
968
976
979
975
973
972
971
970
974
975
974
974
973
973
979
981
974
973
973
975
978
979
977
975
976
974
971
969
966
965
962
964
966
967
966
963
964
966
965
963
962
961
960
967
969
968
965
964
962
965
966
963
960
957
960
962
963
964
961
958
955
957
960
962
959
955
950
955
959
959
959
957
957
961
964
961
962
961
958
960
964
961
959
957
959
961
961
962
954
952
955
960
965
966
965
960
959
959
960
956
958
958
957
963
962
965
959
956
956
961
963
962
960
958
959
962
966
965
962
963
963
965
967
966
967
965
962
961
961
958
959
957
960
964
969
972
971
965
964
966
977
979
986
986
993
1007
1020
1035
1038
1029
1025
1020
1012
1008
1007
1001
997
996
989
982
977
971
967
965
963
958
959
959
958
962
962
961
955
954
957
961
962
959
946
928
924
935
971
1028
1115
1212
1308
1370
1408
1426
1422
1389
1320
1214
1086
958
873
884
922
940
942
941
946
943
943
939
942
942
942
939
937
938
939
938
937
934
931
935
937
938
934
931
930
933
940
940
942
939
941
945
949
946
943
944
944
945
943
948
954
955
955
960
964
960
956
953
954
958
967
971
968
967
969
975
981
983
984
987
988
992
996
999
1001
1003
1004
1008
1015
1015
1018
1025
1031
1042
1050
1059
1060
1062
1071
1077
1093
1102
1103
1103
1107
1114
1123
1130
1131
1134
1132
1133
1134
1136
1133
1131
1127
1122
1119
1110
1103
1095
1086
1080
1075
1069
1059
1054
1048
1045
1044
1034
1029
1022
1020
1017
1013
1008
1006
998
993
987
988
986
984
979
975
976
975
974
968
964
959
958
961
957
954
950
952
954
958
959
958
951
946
945
946
951
950
949
948
951
955
953
951
950
946
950
953
954
952
949
950
950
954
955
955
951
954
955
957
958
957
960
961
963
965
963
962
963
965
966
965
962
959
957
960
966
965
964
962
960
961
967
972
969
964
961
962
964
966
964
961
961
961
961
962
961
961
956
953
955
958
959
961
954
955
956
957
956
953
949
951
954
957
954
952
950
950
950
953
953
950
947
949
951
956
955
952
950
951
952
951
954
953
948
946
946
951
954
952
944
941
945
947
947
950
947
949
949
951
954
948
946
947
944
951
949
946
942
945
944
944
943
944
947
948
951
946
945
941
938
940
943
946
950
948
948
945
944
945
947
945
943
945
944
947
950
946
945
945
946
948
945
940
941
947
953
953
953
951
948
949
949
951
950
950
946
947
951
958
960
964
962
966
973
981
996
1008
1011
1012
1007
1005
999
989
986
981
980
984
983
976
966
966
963
962
952
941
933
935
937
942
944
942
939
937
942
946
950
947
943
938
930
922
918
923
943
994
1081
1190
1290
1359
1394
1412
1415
1396
1343
1244
1116
988
860
858
894
916
916
915
918
924
923
924
918
922
923
925
928
922
919
920
923
927
925
921
918
917
919
924
927
920
923
923
927
929
931
929
927
927
932
932
926
924
924
929
933
938
943
941
935
930
936
945
943
941
938
940
942
952
957
956
956
958
963
970
967
966
966
971
979
989
994
999
997
998
997
1002
1004
1011
1014
1025
1031
1042
1049
1055
1058
1066
1076
1084
1093
1099
1105
1106
1111
1118
1123
1123
1122
1121
1123
1128
1128
1124
1117
1107
1106
1104
1101
1095
1082
1074
1073
1070
1064
1054
1044
1042
1036
1034
1031
1026
1016
1008
1008
1005
1003
1001
994
989
992
993
991
985
982
978
979
976
973
971
962
960
962
965
964
962
960
958
955
952
955
955
953
954
954
953
956
953
953
952
958
962
960
959
957
954
953
953
958
953
958
957
958
963
968
969
971
970
972
973
973
970
969
971
966
972
975
976
974
973
971
971
969
970
969
970
972
977
975
972
968
968
970
976
975
969
967
970
971
973
968
967
964
964
964
963
958
961
957
956
962
963
961
956
953
956
960
961
957
954
953
957
961
963
955
952
949
951
952
954
956
956
954
957
961
960
961
956
946
947
951
951
952
952
950
951
954
953
953
952
945
944
945
947
949
952
946
944
945
957
958
953
948
945
946
950
954
953
954
949
951
954
958
951
951
952
954
957
957
951
945
947
950
951
950
944
942
946
944
949
950
950
945
948
949
952
953
954
956
957
956
960
962
962
962
966
973
981
987
994
1001
1009
1014
1012
1009
1000
996
988
986
988
987
983
978
973
971
968
965
961
954
951
951
954
953
948
944
944
948
952
953
951
948
949
946
949
945
934
922
928
956
1012
1086
1178
1266
1339
1386
1411
1417
1408
1366
1290
1179
1051
925
866
880
918
936
936
934
936
940
940
938
938
933
935
932
932
930
931
935
935
935
931
932
935
936
931
933
935
938
939
940
942
941
939
941
945
944
942
937
937
944
947
947
945
946
946
952
954
952
947
950
956
959
963
963
965
966
966
969
974
977
975
976
976
984
992
996
997
998
1002
1006
1013
1016
1016
1018
1023
1034
1041
1043
1052
1052
1057
1066
1078
1087
1091
1090
1099
1106
1114
1120
1121
1126
1134
1137
1142
1143
1137
1135
1132
1132
1131
1127
1120
1113
1111
1105
1099
1090
1084
1072
1066
1058
1058
1053
1044
1032
1028
1025
1022
1017
1012
1003
998
998
1000
1000
993
987
985
983
984
979
976
971
967
968
967
970
965
961
958
957
957
955
952
949
949
951
952
955
955
951
950
948
953
959
958
953
951
949
953
954
953
952
955
957
962
959
958
954
956
955
955
955
957
954
952
952
957
958
957
957
958
965
968
964
958
954
958
961
965
961
962
963
965
968
971
973
969
965
959
960
969
971
969
964
961
961
967
972
968
964
959
958
961
959
957
956
954
960
962
963
962
955
959
961
964
963
958
953
958
963
962
961
960
956
953
956
959
961
961
957
957
960
966
974
968
959
958
958
960
961
966
973
974
975
969
970
973
975
982
983
988
991
985
978
973
972
970
972
974
977
979
987
992
999
998
993
988
986
990
993
994
998
1001
1002
1002
999
1000
995
995
1000
1000
1004
1005
1002
997
999
1004
1005
999
994
993
998
1002
1004
1000
1000
1000
1006
1014
1016
1018
1021
1021
1020
1023
1029
1034
1033
1044
1058
1066
1067
1064
1055
1057
1063
1064
1057
1047
1042
1039
1037
1034
1024
1015
1005
1006
1013
1018
1014
1010
1001
993
984
979
980
989
993
994
994
995
991
984
980
977
974
987
1020
1072
1145
1242
1333
1399
1430
1439
1429
1406
1356
1264
1136
1008
922
930
972
994
990
982
986
990
998
996
1000
998
994
989
991
993
992
986
981
981
980
980
976
974
974
978
980
987
991
989
990
994
995
995
986
980
979
980
991
998
995
989
987
990
996
1003
1002
999
995
993
1005
1016
1026
1032
1030
1024
1020
1016
1010
1010
1012
1023
1029
1030
1035
1037
1034
1038
1047
1052
1056
1061
1065
1075
1083
1089
1095
1094
1097
1106
1115
1120
1124
1127
1132
1138
1140
1149
1151
1154
1157
1162
1166
1166
1166
1162
1156
1151
1147
1142
1137
1129
1123
1117
1112
1114
1111
1100
1088
1087
1080
1074
1066
1059
1051
1049
1051
1050
1044
1036
1033
1033
1026
1019
1009
1002
998
996
1002
1008
1008
1001
993
989
993
1002
1003
998
992
986
992
994
991
988
986
990
993
993
995
995
993
991
990
996
993
988
982
983
988
995
994
992
984
982
982
992
996
996
993
995
997
1000
1001
997
994
992
992
993
993
988
985
988
990
996
994
994
990
987
989
990
991
988
981
982
988
989
987
983
986
988
989
982
979
976
974
973
978
979
976
973
973
973
975
974
971
973
965
967
970
972
969
965
960
961
965
968
963
953
944
947
960
970
972
969
962
959
961
967
967
960
953
953
958
962
967
967
965
963
963
965
961
956
950
944
946
949
955
956
953
957
960
963
958
947
945
950
960
969
971
967
960
957
956
957
955
952
950
951
949
946
947
946
944
943
947
952
959
963
961
965
970
973
982
987
988
997
1006
1022
1032
1039
1034
1025
1016
1013
1003
991
979
983
991
995
986
968
951
941
945
949
941
932
928
932
935
937
934
940
940
938
925
923
925
925
911
899
901
925
974
1049
1140
1238
1316
1365
1393
1404
1390
1349
1259
1131
1003
875
817
865
905
910
903
900
906
911
914
914
916
916
918
919
918
914
908
908
902
899
896
895
891
883
879
882
890
895
901
906
913
914
908
904
897
897
896
899
900
902
902
902
905
909
916
918
918
919
919
924
926
925
927
931
929
933
937
948
956
953
942
940
945
956
965
971
974
979
982
984
988
995
1002
1017
1027
1033
1039
1045
1052
1058
1064
1070
1077
1083
1087
1093
1099
1105
1106
1100
1095
1089
1085
1077
1069
1063
1058
1054
1049
1040
1032
1026
1022
1016
1006
998
995
984
975
970
969
964
962
958
954
950
946
944
939
932
929
930
931
930
930
927
920
915
912
912
911
910
911
911
912
914
918
919
914
913
912
918
919
921
920
921
922
920
921
924
924
928
931
933
929
926
925
925
927
931
938
940
942
939
934
932
934
938
938
941
942
939
936
931
930
931
936
944
949
944
936
932
932
935
932
938
933
931
933
938
942
937
929
925
930
935
937
936
934
929
927
930
923
922
917
915
918
921
924
926
927
927
927
926
926
921
923
924
928
931
929
930
929
930
929
928
933
927
919
917
921
922
927
925
925
927
925
928
927
925
922
923
932
935
936
933
925
926
927
935
939
937
934
934
945
952
954
955
949
953
954
956
959
970
980
994
1004
1008
1007
1002
990
987
983
980
979
969
960
952
948
946
947
948
942
933
928
930
929
931
926
925
927
931
934
935
929
926
924
916
908
905
920
958
1026
1125
1230
1318
1368
1395
1407
1401
1371
1294
1166
1038
910
814
848
889
899
897
899
906
909
912
911
909
912
909
910
908
907
909
913
912
910
905
900
903
904
909
911
913
910
909
913
916
919
918
914
914
917
917
919
923
918
915
918
921
926
928
929
929
931
935
943
947
947
942
939
941
941
946
951
954
960
966
969
967
962
967
973
985
993
1000
999
1004
1011
1025
1035
1040
1045
1044
1043
1047
1063
1070
1081
1085
1093
1102
1110
1113
1112
1115
1117
1119
1120
1114
1110
1102
1098
1095
1092
1086
1079
1074
1069
1068
1061
1051
1041
1037
1032
1029
1018
1006
997
997
993
993
989
980
974
970
973
973
970
966
963
957
959
958
952
948
950
953
954
952
948
942
936
937
935
930
926
921
922
925
929
932
935
934
931
925
929
932
935
937
933
935
936
943
941
941
937
934
938
944
944
943
940
940
941
943
946
944
946
949
951
955
956
953
947
948
949
950
953
955
948
946
949
952
953
951
951
953
956
954
950
947
939
943
940
945
946
946
945
942
946
950
948
942
936
933
937
942
942
942
937
933
930
935
940
943
939
935
935
936
939
935
935
938
939
939
936
933
931
928
926
931
934
934
931
933
936
942
937
933
933
932
932
933
929
929
925
925
928
932
936
936
931
930
929
934
933
935
932
930
925
929
935
937
931
930
935
936
932
928
929
931
936
945
946
948
949
956
961
971
975
984
994
1001
1004
1004
1004
1005
1004
995
994
994
987
973
957
950
950
952
953
947
937
932
928
928
934
936
937
932
932
934
934
929
925
922
922
920
911
903
901
916
956
1018
1112
1214
1294
1350
1382
1398
1393
1374
1324
1234
1106
978
867
853
882
907
906
907
910
915
918
917
915
914
911
906
906
905
906
908
910
909
910
910
