989
989
994
995
994
995
992
993
995
995
991
988
989
992
994
998
999
994
990
988
985
987
985
982
978
980
984
987
986
982
980
983
985
983
980
976
976
980
982
980
978
976
976
977
981
976
975
969
971
973
976
976
973
970
970
973
976
978
978
974
968
973
974
971
965
963
963
970
977
978
977
971
968
971
974
976
974
971
969
970
976
975
975
970
973
976
982
985
988
992
997
1003
1006
1003
998
997
1008
1027
1041
1045
1041
1038
1037
1038
1042
1035
1028
1017
1002
999
997
993
986
973
974
974
977
975
973
972
974
980
983
981
970
954
945
945
958
993
1055
1154
1264
1362
1422
1452
1455
1439
1390
1302
1182
1054
926
900
934
962
965
965
964
966
963
962
963
959
954
946
946
951
953
954
953
951
949
954
960
958
957
954
954
954
960
961
958
956
956
960
963
960
958
960
961
964
968
968
969
969
968
970
976
975
975
974
976
979
985
985
984
983
983
991
995
996
997
997
1000
1006
1012
1014
1012
1011
1015
1021
1029
1029
1027
1030
1032
1035
1042
1047
1049
1050
1054
1055
1062
1066
1064
1062
1063
1068
1072
1071
1063
1058
1060
1060
1060
1062
1051
1044
1043
1042
1040
1037
1028
1023
1024
1023
1024
1019
1013
1005
1006
1008
1010
1005
997
995
993
996
999
996
992
989
991
994
998
999
997
993
994
996
1001
999
999
997
998
1000
1002
1003
1003
997
1000
1002
1007
1006
1002
999
1000
1001
1003
1005
1005
1004
1004
1006
1011
1013
1010
1007
1005
1008
1009
1010
1007
1003
1004
1008
1009
1005
1002
1000
999
998
1005
1002
1001
1000
1002
999
1003
999
998
997
994
996
996
996
998
996
993
992
997
994
992
989
990
992
995
992
992
988
985
986
992
992
985
984
987
990
990
989
988
985
985
988
991
991
992
988
986
989
994
996
996
996
1000
1008
1013
1018
1015
1015
1018
1026
1042
1051
1054
1050
1050
1055
1059
1059
1056
1048
1041
1029
1022
1017
1007
1001
993
988
988
987
984
982
979
979
987
986
986
980
979
975
975
962
945
940
955
1003
1084
1194
1309
1392
1442
1464
1463
1449
1410
1321
1193
1065
937
902
938
965
970
969
968
973
972
965
962
963
964
961
956
954
954
959
960
958
956
955
955
959
958
960
954
950
948
952
958
961
958
955
956
960
964
966
966
961
963
964
968
973
973
970
972
976
980
982
983
982
983
984
990
990
992
991
990
995
1000
1004
1003
1006
1009
1015
1019
1023
1021
1021
1024
1028
1035
1038
1038
1039
1045
1049
1051
1056
1053
1054
1057
1061
1066
1070
1065
1065
1065
1067
1069
1063
1064
1055
1052
1053
1053
1050
1047
1039
1038
1038
1035
1029
1020
1019
1019
1019
1018
1013
1007
1001
1000
1000
1004
999
1003
999
998
999
1000
999
997
994
995
997
999
1000
999
999
1002
1002
1003
1007
1004
998
1000
1002
1008
1008
1008
1003
1004
1007
1007
1004
1004
1003
1004
1008
1011
1009
1008
1006
1008
1007
1007
1008
1007
1005
1003
1004
1006
1007
1006
1002
1001
1003
1004
1002
998
993
995
996
1000
1001
997
992
993
992
996
994
992
987
983
983
990
992
988
984
985
986
988
987
983
980
979
981
985
986
982
978
981
981
984
982
978
976
977
977
982
982
980
977
975
977
980
979
980
980
982
988
990
995
995
995
998
1005
1010
1014
1015
1018
1029
1039
1046
1046
1042
1036
1036
1042
1045
1039
1023
1008
1000
995
995
988
978
970
967
970
973
971
968
964
963
964
968
969
967
963
959
950
939
923
918
929
967
1032
1127
1238
1333
1402
1434
1447
1440
1419
1364
1261
1133
1005
886
891
930
952
950
946
947
952
944
940
938
934
937
936
933
933
930
933
935
935
932
929
928
932
936
937
935
933
933
935
935
936
935
930
933
937
940
942
939
938
937
941
944
946
942
939
941
946
951
951
954
955
956
959
964
968
965
963
967
967
972
976
977
976
979
986
989
993
993
988
992
1000
1006
1013
1010
1007
1005
1008
1017
1021
1022
1019
1023
1029
1030
1031
1034
1031
1030
1032
1035
1034
1031
1023
1027
1022
1020
1020
1015
1011
1009
1007
1006
1003
998
994
992
990
992
988
982
980
980
981
982
982
978
974
973
975
980
981
981
976
975
980
983
987
984
979
983
985
991
992
985
983
983
984
985
987
983
983
985
989
992
992
985
982
979
982
987
989
989
986
986
987
988
990
988
983
984
986
987
984
981
979
977
979
983
980
980
975
975
977
978
975
975
971
972
975
975
976
972
971
970
972
975
979
976
973
965
963
967
972
974
971
969
966
970
973
971
969
966
967
969
963
964
962
965
968
971
972
968
964
967
968
971
973
970
965
966
970
974
976
975
977
985
989
994
998
1000
997
998
1007
1018
1032
1039
1037
1036
1036
1039
1040
1037
1033
1026
1018
1009
1002
996
990
983
977
976
970
960
951
950
961
963
964
961
955
957
958
957
956
950
936
928
919
923
943
982
1045
1137
1242
1331
1392
1423
1432
1427
1415
1381
1308
1195
1067
951
893
900
928
944
944
947
951
956
956
952
948
943
942
945
942
938
932
930
938
947
950
948
939
938
940
944
948
947
944
946
947
949
953
950
949
947
948
948
947
943
941
947
955
961
957
955
956
954
959
961
961
961
958
960
964
970
970
972
976
976
980
981
979
976
976
977
977
987
990
991
992
991
995
996
999
998
997
1000
1005
1008
1010
1011
1013
1017
1021
1026
1031
1031
1028
1027
1023
1019
1016
1017
1025
1025
1028
1028
1028
1023
1023
1022
1020
1021
1017
1016
1012
1013
1011
1012
1011
1007
1004
1000
999
996
994
988
981
978
977
982
983
981
978
976
982
984
982
982
979
982
984
984
983
983
972
972
980
989
989
986
979
984
985
989
988
986
987
988
987
988
991
990
989
990
993
994
993
988
989
988
991
993
997
996
991
988
988
989
986
989
984
985
986
987
987
981
979
981
982
984
981
981
976
975
977
981
977
975
973
970
973
975
973
970
969
968
970
971
970
968
965
964
966
967
968
966
963
960
965
968
968
970
966
965
965
967
967
963
962
962
962
964
966
963
960
962
966
970
972
976
979
982
986
988
991
990
989
1001
1015
1029
1035
1035
1030
1031
1035
1037
1034
1029
1016
1004
998
996
992
987
975
964
958
955
955
956
952
951
955
960
958
952
947
948
949
951
945
931
916
916
936
977
1044
1139
1238
1323
1385
1418
1431
1429
1417
1384
1325
1218
1090
962
852
851
890
920
932
936
936
938
936
942
941
936
930
929
927
931
933
932
929
930
930
932
934
931
926
927
932
937
938
936
932
932
937
939
937
937
936
936
941
944
948
947
944
946
947
953
952
952
948
950
954
957
959
955
953
954
955
964
963
961
962
969
979
984
982
980
976
976
976
986
991
991
987
989
995
1000
1005
1004
998
1000
1006
1015
1019
1019
1015
1013
1016
1018
1025
1031
1032
1034
1032
1034
1032
1032
1030
1027
1031
1035
1033
1032
1030
1024
1023
1022
1024
1022
1019
1017
1013
1013
1007
1004
999
997
999
996
996
994
994
993
995
999
999
997
991
988
990
991
991
988
988
990
993
996
996
996
994
993
991
996
999
997
994
998
1001
1002
1001
1001
998
996
996
1000
1004
1001
1001
1001
1004
1006
1005
1006
1003
1000
999
1001
1000
999
1001
1002
1004
1000
993
984
984
992
997
1001
999
994
985
978
977
982
984
983
977
976
978
981
979
978
976
975
975
978
977
976
973
968
969
972
967
968
963
966
967
974
970
970
970
967
970
968
966
965
966
966
968
973
978
976
975
974
976
979
981
981
982
985
988
992
1000
1010
1018
1023
1029
1031
1032
1033
1031
1031
1026
1020
1013
999
988
984
976
974
966
961
952
952
952
958
956
954
951
949
951
954
956
952
943
932
924
931
959
1007
1082
1186
1292
1371
1410
1422
1410
1386
1330
1227
1099
971
847
844
878
908
919
920
919
925
929
934
932
925
924
921
921
926
925
924
920
914
918
924
926
925
919
918
920
921
923
924
921
923
923
928
926
926
922
923
924
928
929
930
927
930
931
935
936
932
931
931
932
941
941
945
942
943
944
950
953
952
951
951
955
960
964
966
963
962
966
969
971
973
974
977
983
984
986
985
985
990
993
997
1002
1002
1001
1002
1002
1008
1007
1007
1007
1007
1005
1009
1006
1001
997
995
997
997
995
990
986
983
981
979
978
973
967
966
963
965
963
959
955
955
953
954
957
952
947
946
949
953
952
952
946
947
948
956
954
954
954
952
954
957
958
954
953
955
957
960
963
960
956
957
961
962
964
962
959
957
962
964
964
961
961
960
960
965
964
962
960
958
961
960
959
957
955
953
953
954
959
957
952
950
952
951
949
948
944
942
946
948
947
944
941
943
941
944
946
944
939
939
941
940
941
940
938
936
938
942
942
940
940
937
942
945
949
951
951
954
962
968
970
971
975
985
1002
1012
1013
1011
1010
1012
1014
1016
1007
999
987
983
977
968
953
936
929
931
940
945
952
943
935
922
917
915
925
929
928
926
921
913
903
901
912
948
1011
1105
1214
1308
1371
1400
1408
1401
1361
1279
1159
1031
903
853
878
903
910
908
911
913
921
921
916
915
914
914
916
910
906
908
910
911
915
915
913
914
914
915
916
918
915
913
916
916
919
918
915
914
919
924
926
925
922
923
924
929
931
931
929
929
931
937
937
934
932
937
940
945
948
947
942
939
943
948
954
956
953
956
961
963
963
965
965
970
974
980
981
978
980
984
988
990
994
995
996
996
997
1004
1006
1002
997
999
1001
1001
1000
1000
996
995
995
995
993
989
983
979
978
978
973
969
963
959
960
953
950
951
946
945
946
947
943
939
938
935
942
945
943
944
943
942
945
948
948
948
941
945
947
951
955
953
946
949
954
958
958
958
954
953
957
963
959
961
956
954
956
963
965
963
960
957
963
963
963
962
958
956
957
961
962
960
956
953
957
959
959
953
950
950
951
956
953
953
950
949
952
952
953
950
948
950
951
954
956
955
959
961
968
970
974
975
974
983
994
1005
1013
1014
1013
1012
1013
1018
1019
1012
1000
989
980
977
973
966
957
949
948
947
946
945
940
935
937
944
944
941
939
937
939
940
936
929
929
947
985
1051
1137
1239
1320
1371
1396
1398
1377
1321
1219
1091
963
869
866
894
911
911
910
916
922
925
923
921
922
923
923
923
917
917
919
922
925
923
921
919
922
924
926
927
923
922
921
927
930
930
924
924
928
931
931
931
930
932
937
939
941
941
938
939
942
945
950
948
946
948
953
956
954
961
957
962
964
970
975
977
975
977
982
986
990
990
990
992
997
1005
1008
1008
1005
1009
1014
1018
1023
1025
1023
1023
1025
1027
1026
1028
1026
1024
1020
1018
1018
1018
1018
1012
1011
1013
1010
1005
997
990
987
985
981
975
968
965
965
968
966
963
958
955
954
959
960
956
953
953
954
956
958
953
953
953
954
956
959
956
954
953
960
963
964
965
961
961
964
967
969
971
971
969
969
973
975
975
974
972
974
975
977
978
974
976
975
981
981
977
978
976
978
980
980
976
973
971
974
976
975
972
969
967
968
969
971
970
966
965
965
968
968
967
965
962
963
967
972
974
976
980
985
991
993
991
991
996
1004
1020
1030
1033
1030
1025
1027
1031
1031
1023
1008
994
988
983
983
971
960
953
953
953
950
949
945
945
946
951
950
948
945
942
939
932
922
908
906
931
978
1057
1168
1277
1357
1406
1428
1427
1410
1356
1258
1130
1002
874
877
918
937
940
932
933
935
932
926
918
921
924
922
920
918
911
918
918
918
916
912
910
913
916
918
918
914
914
915
918
918
919
921
919
925
926
926
922
923
922
924
930
931
932
931
929
931
938
940
942
942
941
943
947
950
950
947
951
954
958
963
963
960
964
967
971
973
976
977
980
984
989
993
996
996
996
1002
1008
1011
1011
1013
1013
1017
1020
1023
1021
1015
1014
1017
1020
1020
1020
1013
1010
1008
1007
1006
1004
996
989
988
988
985
981
977
971
970
970
967
960
955
955
955
959
959
954
950
950
947
954
959
956
949
948
951
949
952
955
954
951
949
952
956
953
953
952
956
960
960
957
955
960
963
966
965
962
959
957
957
960
967
969
968
963
960
963
966
967
961
962
962
965
967
966
963
962
964
965
965
966
959
958
957
961
960
961
960
960
959
960
959
958
954
953
955
958
958
959
957
958
962
969
973
974
974
976
979
986
992
996
1004
1009
1019
1026
1025
1020
1019
1021
1021
1018
1011
997
984
979
975
968
964
956
947
942
943
943
948
946
940
940
942
944
946
943
938
936
932
926
913
901
902
928
987
1079
1196
1304
1377
1412
1427
1425
1403
1340
1228
1100
972
861
882
920
931
926
922
925
927
928
920
913
913
918
918
916
909
907
909
909
910
909
907
907
907
910
911
910
912
908
911
915
915
915
909
909
911
914
919
918
918
917
917
919
922
921
921
919
923
926
925
927
926
928
932
935
935
936
937
936
940
944
947
949
949
952
953
960
964
966
964
968
973
977
982
981
980
985
991
996
997
1000
999
1002
1006
1010
1011
1011
1008
1004
1005
1007
1006
999
1000
995
996
995
991
986
981
975
974
972
970
964
961
959
956
954
951
948
942
941
940
942
940
938
935
934
935
938
937
933
932
931
932
936
937
935
934
931
933
936
939
936
937
933
935
939
942
942
941
940
941
943
946
945
942
940
941
946
948
947
945
945
950
946
950
948
946
947
947
949
948
946
944
940
945
947
949
948
945
944
945
948
950
946
945
944
944
945
945
945
937
941
943
943
943
941
938
937
940
943
942
939
935
933
937
939
942
940
939
935
941
942
945
942
941
943
945
948
956
960
960
962
965
970
974
978
982
994
1006
1013
1018
1014
1009
1012
1015
1018
1011
999
981
973
970
963
959
947
939
932
935
936
936
935
932
931
933
933
935
934
931
931
927
919
911
913
927
969
1042
1144
1251
1334
1384
1407
1417
1411
1372
1294
1172
1044
916
855
874
908
921
917
918
921
926
927
922
919
918
922
918
921
916
914
916
916
915
916
918
916
919
922
923
921
918
918
917
919
923
924
921
920
924
929
930
928
926
926
929
938
938
940
939
937
938
944
946
944
939
942
945
951
954
957
956
956
960
963
967
968
966
969
974
979
981
984
982
984
989
997
1004
1003
1004
1007
1009
1016
1021
1022
1023
1029
1032
1038
1042
1042
1039
1041
1042
1044
1046
1045
1042
1039
1039
1040
1041
1038
1033
1029
1029
1025
1019
1012
1008
1004
1006
1003
999
995
988
984
980
980
975
973
966
963
962
966
963
959
955
953
955
956
953
953
948
947
949
949
949
945
938
941
940
944
946
944
941
943
945
949
950
948
945
944
946
948
950
950
948
947
951
953
956
955
954
952
955
958
960
959
956
957
960
962
959
962
956
957
960
961
960
956
956
954
955
957
955
952
947
946
946
949
951
946
943
940
940
938
942
940
936
936
933
935
937
934
934
934
933
935
935
931
929
930
931
938
938
940
937
939
942
948
953
954
952
954
959
964
971
980
986
990
994
999
997
992
995
995
992
987
978
967
957
949
949
944
938
931
927
924
922
922
923
923
918
917
919
921
921
919
915
908
904
898
892
897
914
954
1020
1111
1213
1300
1358
1394
1414
1412
1386
1323
1217
1089
961
844
847
879
895
894
892
895
902
903
900
899
897
898
895
894
892
891
892
894
896
894
892
890
892
894
895
892
890
891
894
897
901
898
898
896
898
901
902
899
898
898
903
903
908
910
907
906
910
915
917
916
916
918
917
924
924
927
925
926
931
934
939
941
941
940
947
950
958
960
963
966
971
974
980
986
989
990
996
1005
1009
1013
1013
1015
1021
1026
1031
1033
1030
1033
1034
1038
1040
1037
1031
1030
1030
1030
1029
1026
1020
1011
1009
1008
1005
1001
996
991
988
988
987
984
977
974
974
975
974
973
968
965
965
968
967
966
962
960
962
959
964
958
958
962
958
961
962
962
960
958
962
967
970
965
966
965
968
971
974
972
970
974
978
980
982
981
980
981
983
985
987
986
985
984
985
986
989
988
984
983
987
990
990
987
985
984
982
984
985
984
981
980
983
986
986
981
980
978
975
977
980
979
975
970
975
975
977
974
970
968
969
974
974
968
969
964
969
973
978
976
978
984
988
994
997
998
998
999
1008
1017
1025
1029
1025
1023
1023
1024
1027
1022
1016
1002
996
990
986
980
973
961
961
959
955
952
950
949
948
951
953
949
948
946
948
949
950
946
939
927
922
927
949
986
1047
1139
1242
1328
1389
1419
1423
1412
1382
1325
1224
1096
968
889
891
923
938
936
932
929
930
933
938
932
926
923
922
926
924
923
920
917
920
922
925
922
923
920
920
922
923
926
922
922
927
930
931
928
926
925
927
932
932
931
928
928
929
935
936
934
934
935
939
941
943
942
943
942
950
952
954
955
953
954
958
963
967
963
967
969
974
977
981
983
984
987
993
998
1004
1007
1010
1012
1016
1022
1026
1029
1031
1032
1035
1040
1045
1045
1039
1039
1042
1044
1045
1041
1037
1030
1027
1029
1024
1020
1015
1010
1006
1003
1002
995
989
984
982
980
977
970
967
967
964
967
964
960
952
952
952
952
952
952
949
947
945
947
950
945
942
938
942
945
949
950
946
947
946
949
949
951
946
950
952
955
956
957
952
952
954
957
960
957
956
954
958
959
963
964
962
961
960
964
966
966
965
963
962
966
965
967
964
962
962
966
969
966
961
959
963
965
965
962
960
957
957
960
958
960
956
952
952
953
954
954
954
951
950
951
952
952
951
951
952
951
951
947
949
