976
973
970
973
975
974
973
971
970
972
973
969
968
966
965
967
967
967
967
962
962
964
966
969
966
962
961
962
964
963
961
956
958
962
962
964
961
960
959
960
964
963
962
960
959
958
960
964
964
960
960
962
964
964
961
960
956
960
964
965
962
959
959
960
959
963
962
957
957
958
962
964
965
962
962
964
967
970
966
966
967
968
972
976
977
976
979
985
986
992
992
992
995
1003
1013
1016
1019
1019
1019
1022
1023
1026
1023
1019
1013
1008
1004
1000
994
986
981
978
975
974
972
965
965
966
968
970
970
968
968
971
974
976
972
969
973
982
1003
1035
1078
1129
1190
1240
1274
1293
1295
1286
1273
1240
1188
1118
1032
975
957
963
974
971
966
959
958
956
957
954
951
946
946
943
947
946
947
942
939
940
942
944
941
939
940
942
942
945
942
941
940
940
946
947
944
942
942
943
946
949
949
947
948
950
955
956
956
954
957
961
962
963
964
962
963
968
974
973
973
976
975
977
984
988
989
986
990
992
1000
1004
1005
1004
1004
1010
1011
1018
1021
1021
1026
1031
1036
1039
1040
1044
1046
1052
1057
1056
1057
1053
1056
1059
1064
1065
1063
1056
1058
1056
1059
1055
1052
1047
1042
1038
1039
1034
1027
1019
1017
1016
1014
1010
1002
1001
996
995
992
994
987
982
983
981
982
984
977
974
970
971
970
969
969
965
967
966
967
966
966
962
959
966
966
969
966
964
963
963
967
969
969
964
964
966
971
971
971
970
968
970
971
975
973
971
971
973
976
978
976
975
975
977
982
981
977
977
977
979
983
981
978
978
978
980
983
977
977
977
976
979
980
980
978
973
972
973
975
976
974
970
971
969
971
972
969
968
966
966
966
966
965
961
959
960
962
965
964
962
961
964
965
967
964
960
961
961
966
966
965
963
961
961
963
960
959
959
959
962
966
960
958
958
958
958
959
961
961
957
959
958
962
962
960
958
956
957
960
963
957
958
956
960
962
959
961
956
956
958
960
963
960
957
958
961
965
961
960
958
955
957
960
962
956
957
956
960
964
962
962
961
960
965
967
968
969
966
968
972
977
980
984
980
985
990
996
998
1004
1004
1011
1019
1027
1028
1027
1024
1020
1020
1017
1016
1010
1000
996
992
990
987
981
976
971
974
974
972
966
966
969
967
972
972
968
969
968
973
975
976
974
972
984
1007
1045
1091
1144
1199
1243
1277
1297
1297
1290
1268
1226
1165
1092
1020
974
964
969
971
968
966
964
959
959
956
954
952
951
947
944
945
949
947
944
939
937
938
943
942
942
938
935
941
943
945
942
941
940
943
948
947
948
944
945
948
951
953
948
947
950
953
957
959
959
957
958
962
966
965
965
963
964
965
971
974
973
973
974
978
982
984
984
984
987
993
997
1001
1002
1005
1007
1012
1015
1016
1019
1021
1025
1031
1032
1036
1042
1040
1044
1046
1052
1053
1053
1052
1053
1056
1058
1060
1058
1054
1053
1050
1051
1050
1044
1037
1034
1034
1034
1031
1025
1017
1014
1009
1011
1007
1002
995
991
989
986
984
983
977
974
976
976
975
971
965
964
966
969
969
963
962
960
962
963
964
961
956
959
961
961
963
961
959
958
960
962
963
966
963
964
962
968
971
967
963
963
968
972
973
973
967
968
972
976
976
972
967
971
972
975
979
976
973
974
974
974
975
979
973
973
976
976
978
976
969
969
973
974
973
971
966
967
968
971
969
967
965
964
965
968
967
964
959
958
961
961
962
961
957
960
959
961
962
960
959
958
960
963
964
962
960
958
959
960
961
961
956
953
957
957
961
961
956
952
955
956
955
957
956
957
958
960
958
961
953
954
955
957
958
956
956
951
953
958
958
958
958
955
956
958
958
958
955
953
957
962
962
958
954
955
958
959
962
959
955
956
957
959
961
959
956
955
958
960
961
959
958
957
958
963
961
962
959
959
957
963
964
962
958
960
964
965
969
968
969
970
974
976
980
982
980
986
991
998
1003
1006
1012
1019
1027
1033
1034
1026
1020
1016
1012
1012
1010
1008
997
996
993
990
988
982
974
971
972
973
971
969
966
965
968
970
971
970
969
968
971
972
970
967
967
983
1011
1054
1108
1174
1229
1276
1305
1320
1318
1304
1276
1222
1151
1068
995
960
958
965
966
964
962
961
958
956
954
957
953
948
943
941
940
941
943
943
940
939
941
944
943
944
939
938
940
944
945
944
942
941
943
943
945
945
945
945
944
950
950
950
948
948
950
955
955
956
955
954
960
965
968
968
966
963
966
972
974
974
973
977
979
984
987
988
987
989
995
998
1001
1001
1005
1008
1014
1021
1024
1024
1023
1027
1033
1039
1042
1044
1046
1046
1051
1054
1058
1056
1054
1050
1056
1058
1057
1050
1046
1042
1042
1044
1040
1036
1030
1023
1025
1021
1019
1014
1006
1002
999
997
998
992
985
982
977
982
978
975
972
972
970
969
967
964
958
956
959
963
966
960
958
956
958
960
964
960
954
956
959
961
962
961
958
959
962
966
967
967
964
961
966
969
970
970
965
966
967
969
973
970
971
971
974
977
979
979
976
976
976
979
978
978
973
973
974
978
975
975
970
972
970
972
972
971
966
964
969
970
971
970
966
963
965
965
964
962
962
958
961
963
961
959
956
957
958
962
963
960
959
957
958
958
960
957
952
951
949
952
956
954
955
951
953
956
955
952
952
950
954
954
958
955
952
952
954
954
956
956
949
951
952
955
956
956
951
949
953
951
955
955
951
949
952
956
952
953
948
949
950
953
955
950
947
949
952
953
952
952
951
951
951
954
953
953
948
952
955
957
956
955
952
953
953
958
958
957
954
954
954
958
958
955
956
954
957
957
962
960
963
961
964
966
972
972
970
975
983
990
992
992
995
1000
1009
1020
1024
1022
1018
1013
1010
1007
1007
1004
1000
995
991
991
987
983
977
969
968
967
968
969
965
965
965
968
971
968
966
969
971
973
974
971
972
982
1013
1057
1117
1180
1233
1275
1300
1313
1308
1287
1242
1167
1077
997
955
952
961
962
963
960
956
956
952
949
947
950
949
948
944
943
942
944
945
945
942
940
943
946
946
947
941
941
943
948
948
949
945
944
948
952
954
952
950
951
954
958
957
956
957
955
960
963
966
963
964
964
970
972
975
973
969
972
977
981
987
988
988
989
993
994
999
1004
1003
1006
1010
1016
1020
1024
1026
1027
1033
1042
1047
1049
1048
1052
1058
1064
1067
1067
1066
1064
1071
1073
1075
1071
1067
1063
1064
1068
1067
1060
1053
1051
1049
1047
1043
1037
1028
1023
1021
1019
1015
1010
1006
1003
999
999
996
993
991
986
985
984
982
978
975
974
976
976
973
973
968
967
970
971
973
974
969
970
972
974
974
974
973
971
975
975
983
979
977
976
978
983
983
984
981
984
982
986
990
988
989
990
992
992
993
996
994
991
992
997
997
996
994
991
992
994
995
993
988
987
989
993
993
992
985
986
984
988
987
980
978
975
977
983
983
982
978
977
977
980
982
977
974
975
976
978
977
974
972
970
971
972
972
970
967
967
968
971
973
971
965
967
969
969
971
970
967
965
967
968
970
963
965
961
966
970
970
968
965
964
965
967
969
966
962
963
965
964
964
963
964
962
964
968
970
966
963
962
966
967
968
968
964
964
966
969
965
961
958
959
965
970
969
966
964
966
964
965
966
967
965
960
961
968
968
967
964
963
966
968
971
969
970
971
975
979
981
982
981
985
989
997
1000
1002
1004
1008
1015
1027
1035
1031
1026
1018
1013
1012
1011
1012
1005
998
993
993
988
982
976
972
971
969
969
969
965
963
968
972
972
969
969
970
968
966
966
966
979
1010
1063
1133
1212
1273
1312
1331
1338
1329
1302
1248
1165
1061
980
953
966
973
973
965
964
965
964
960
953
950
951
951
950
949
944
941
943
948
947
945
942
941
944
948
949
947
942
943
947
950
952
950
946
947
950
949
952
952
951
954
956
959
962
962
961
962
964
967
970
970
969
970
976
976
982
982
979
981
986
993
996
995
996
1000
1003
1008
1015
1018
1019
1020
1024
1031
1034
1042
1041
1043
1048
1050
1059
1062
1061
1061
1065
1070
1071
1069
1066
1059
1064
1064
1067
1059
1056
1050
1049
1049
1047
1042
1035
1028
1025
1020
1020
1013
1008
1002
1001
1000
997
991
988
984
982
983
983
983
978
974
973
974
977
972
969
964
965
968
968
967
964
963
964
969
969
967
967
966
967
974
975
974
971
969
974
975
977
978
975
974
976
979
978
981
979
977
979
980
983
982
979
981
983
983
986
983
981
982
984
986
986
984
980
979
982
983
983
983
978
975
979
982
982
980
975
973
974
974
974
973
969
968
966
968
966
963
962
961
961
962
963
960
957
956
955
959
959
954
950
950
950
951
951
950
947
947
947
950
948
947
942
941
941
943
941
942
940
941
943
943
944
941
935
934
938
941
941
941
936
935
936
938
938
937
935
935
932
933
937
936
935
932
934
936
936
934
934
931
935
937
936
939
935
935
935
938
942
942
937
937
938
943
944
942
940
937
941
947
949
946
945
943
947
949
951
951
946
944
950
955
955
959
958
957
961
963
968
973
970
970
977
982
988
991
997
1008
1014
1015
1013
1009
1003
997
998
995
996
993
984
979
978
981
975
975
969
969
970
975
977
974
969
972
975
977
984
983
980
981
987
997
1028
1073
1133
1203
1270
1317
1345
1351
1340
1312
1262
1181
1076
980
933
938
957
967
964
961
961
961
964
966
967
963
958
954
957
961
965
965
962
956
956
960
966
964
957
962
964
967
970
969
965
961
963
969
972
970
970
970
971
975
978
977
976
975
978
984
983
984
982
980
987
989
994
993
991
992
993
996
1000
999
999
1003
1004
1010
1014
1014
1016
1015
1024
1028
1030
1033
1031
1034
1041
1047
1052
1053
1055
1057
1062
1069
1073
1073
1074
1076
1079
1086
1088
1087
1085
1084
1086
1086
1085
1081
1075
1068
1071
1072
1067
1064
1054
1051
1049
1044
1042
1033
1028
1024
1023
1020
1018
1012
1006
1002
1001
1001
999
994
988
987
987
986
986
986
980
975
976
979
983
978
976
974
973
973
977
977
974
969
973
979
978
979
977
980
984
985
988
988
989
984
990
994
994
995
993
995
996
1001
1002
1004
1000
999
1000
1004
1006
1005
1004
1002
1004
1003
1002
1003
1000
997
998
1003
1002
1002
996
994
997
998
997
997
993
993
994
994
996
994
990
987
992
991
992
990
984
985
989
988
988
989
985
984
984
986
987
980
981
978
980
984
985
984
981
978
980
981
980
976
978
975
976
982
982
983
975
975
973
976
977
976
974
976
974
977
977
976
974
972
975
975
979
978
974
972
973
976
980
977
972
975
976
979
974
976
975
974
973
979
979
976
974
974
976
979
983
983
984
987
990
994
999
1001
1003
1002
1005
1009
1013
1015
1021
1030
1036
1037
1035
1030
1022
1017
1015
1015
1013
1006
998
993
991
992
991
987
978
977
978
980
984
981
978
975
980
980
982
981
975
971
971
970
967
971
991
1027
1088
1167
1246
1310
1346
1366
1373
1365
1338
1286
1203
1102
1008
957
956
975
981
980
979
981
981
980
972
967
968
966
970
970
963
962
964
965
966
967
965
961
967
967
970
966
965
965
968
971
970
965
967
963
968
972
972
974
971
969
971
972
972
972
972
971
974
981
982
983
979
981
981
988
992
994
992
990
995
998
1000
1004
1001
1001
1009
1012
1017
1019
1018
1020
1023
1024
1029
1034
1035
1037
1040
1048
1053
1055
1053
1056
1059
1067
1067
1070
1069
1070
1075
1076
1078
1078
1075
1073
1073
1075
1074
1071
1065
1059
1057
1058
1053
1050
1044
1040
1037
1034
1029
1026
1017
1017
1013
1010
1006
1004
997
995
994
996
996
994
990
985
985
985
986
982
979
975
976
982
982
981
975
972
975
977
976
978
976
974
976
980
982
980
976
979
981
987
987
985
984
983
987
988
991
990
990
992
993
996
995
997
993
994
995
1000
999
999
995
997
999
1003
1006
1004
1000
998
1000
999
1004
1003
1001
999
999
1003
1002
1001
999
995
996
999
998
994
993
990
991
994
992
994
987
985
988
991
993
992
989
984
988
988
988
986
983
978
983
984
985
985
981
977
982
986
983
983
981
979
982
985
985
980
980
979
980
982
981
980
980
978
979
979
983
982
980
978
975
981
981
980
979
976
979
982
982
981
977
977
976
978
980
980
977
977
979
984
981
981
975
976
977
981
981
980
978
977
978
987
992
992
994
994
996
1001
1005
1008
1009
1015
1026
1037
1041
1043
1040
1038
1038
1039
1041
1033
1023
1014
1009
1003
998
993
988
984
980
979
977
975
973
972
971
974
974
974
971
971
972
971
970
964
955
949
958
979
1015
1070
1139
1218
1290
1341
1368
1375
1372
1352
1315
1249
1152
1040
956
924
934
952
960
955
952
952
958
957
959
953
948
946
949
949
950
948
946
944
946
949
953
951
949
950
950
952
951
950
946
945
947
950
950
951
949
949
947
954
957
955
953
952
954
958
957
958
960
959
960
963
966
965
964
965
965
971
973
973
969
970
971
978
979
983
981
978
985
990
994
996
996
997
1001
1005
1008
1011
1012
1012
1018
1021
1025
1030
1030
1034
1035
1040
1047
1048
1050
1053
1056
1060
1066
1064
1066
1064
1067
1069
1068
1067
1065
1062
1061
1060
1061
1054
1048
1046
1045
1043
1038
1032
1030
1020
1018
1019
1017
1013
1007
1002
1002
1000
999
991
989
987
987
990
988
984
982
980
981
982
984
981
978
977
974
973
974
971
968
972
975
978
979
976
973
971
973
976
978
978
974
974
978
983
985
983
982
980
981
986
990
992
990
990
990
993
994
993
996
995
995
999
1001
998
992
992
995
996
1000
999
997
994
994
998
999
998
995
990
991
994
994
993
985
987
988
989
990
987
983
979
983
986
984
979
974
975
975
982
981
981
975
974
975
980
979
974
973
971
972
977
975
974
965
967
971
974
977
973
970
971
972
967
969
968
968
967
967
971
971
970
969
967
969
971
972
972
968
966
966
969
965
970
967
962
965
967
967
970
967
968
967
968
971
971
969
966
967
970
972
971
969
969
970
974
973
974
969
971
968
976
978
976
974
975
981
983
989
993
993
994
1002
1002
1007
1007
1015
1024
1033
1042
1045
1045
1041
1039
1042
1040
1033
1022
1009
1006
1002
998
990
983
974
971
973
973
974
971
970
968
968
971
976
969
967
961
953
945
937
940
960
1002
1073
1168
1261
1335
1375
1394
1403
1397
1375
1321
1227
1100
982
922
926
954
963
960
956
961
963
964
958
955
955
952
952
951
948
945
946
949
952
952
951
945
945
948
951
951
947
946
948
950
953
953
950
949
950
952
956
952
951
950
954
956
959
957
956
957
959
965
967
966
965
965
967
967
973
971
969
968
973
979
980
982
980
979
987
992
993
993
994
998
1001
1008
1010
1009
1014
1015
1019
1023
1030
1033
1034
1036
1038
1044
1051
1053
1051
1053
1058
1063
1067
1066
1064
1063
1066
1066
1066
1065
1060
1059
1058
1059
1057
1049
1042
1038
1034
1031
1029
1024
1016
1009
1010
1010
1007
1004
1000
993
988
985
986
981
977
977
975
978
979
975
972
971
971
973
973
971
967
966
966
968
971
973
967
967
969
972
973
973
971
968
969
975
982
983
978
976
981
984
988
986
985
985
984
984
987
987
987
987
990
993
996
998
995
993
996
997
997
995
992
992
993
996
998
998
994
995
995
999
996
994
990
985
991
991
991
989
986
985
983
987
985
988
982
982
986
988
989
988
982
978
978
981
986
984
981
980
978
980
981
973
967
968
972
976
977
978
974
972
974
977
975
973
971
971
972
975
973
971
968
969
971
974
972
970
966
964
966
968
974
972
967
965
967
970
970
972
967
966
966
969
971
969
966
966
967
969
970
968
966
968
974
975
973
975
967
962
966
973
976
974
972
971
975
980
983
986
990
989
993
1000
1004
1009
1020
1026
1034
1037
1040
1038
1033
1029
1028
1021
1012
1003
993
986
981
980
973
967
962
955
959
961
962
958
953
954
955
956
957
952
944
932
927
937
971
1031
1116
1217
1309
1370
1397
1398
1384
1346
1270
1156
1028
904
877
899
922
926
929
934
938
939
937
931
929
930
927
922
921
922
923
922
920
919
920
919
921
922
922
919
917
919
920
919
917
915
910
916
919
917
914
917
920
926
927
924
924
922
926
928
928
932
929
930
933
939
938
939
941
942
946
951
954
952
951
953
956
960
967
971
971
975
979
986
993
993
998
1000
1005
1014
1021
1024
1022
1030
1036
1041
1045
1048
1051
1052
1057
1062
1061
1058
1056
1055
1057
1056
1054
1051
1043
1042
1039
1036
1030
1025
1017
1011
1011
1011
1006
999
988
983
981
982
983
976
974
971
967
963
961
956
952
951
954
958
956
954
949
946
951
958
958
955
952
951
955
956
962
958
959
957
962
964
964
962
962
961
965
969
976
976
975
974
978
981
982
982
982
976
978
983
986
984
981
982
986
986
987
986
983
981
981
981
982
983
981
976
974
975
977
975
973
971
973
972
971
968
966
964
966
970
968
963
966
961
961
963
964
962
958
956
957
961
960
959
958
957
958
958
960
959
953
952
953
957
957
956
953
952
954
954
957
955
951
951
952
955
953
956
950
952
954
958
958
959
956
953
956
957
961
961
956
960
962
963
966
969
968
973
976
978
983
989
996
1006
1015
1020
1021
1020
1019
1016
1020
1023
1021
1012
1001
990
980
979
975
965
957
949
949
951
950
951
947
943
945
946
950
947
943
934
926
921
925
948
994
1075
1187
1289
1361
