978
980
980
982
986
985
987
985
986
989
992
990
986
985
986
989
990
989
986
983
986
985
987
984
979
978
976
981
983
981
979
976
976
977
975
976
972
967
972
971
973
969
971
970
972
969
968
963
958
955
959
961
961
959
957
953
955
956
958
956
955
950
951
953
953
953
951
950
954
953
953
949
946
944
947
954
957
954
951
951
951
952
954
951
947
946
950
955
958
950
942
943
942
948
953
955
953
949
954
954
963
968
971
972
978
984
993
1003
1008
1015
1021
1020
1023
1025
1022
1019
1019
1017
1011
1002
989
981
975
971
968
960
953
947
946
947
947
949
946
944
941
946
948
948
945
937
930
921
917
922
951
1007
1098
1212
1307
1375
1413
1432
1433
1406
1346
1243
1118
990
891
871
898
927
927
925
927
933
939
935
928
927
927
927
928
928
925
921
923
926
928
929
926
924
927
930
934
932
926
927
925
931
935
933
931
929
928
934
933
934
930
930
933
937
942
942
940
936
940
941
944
947
948
947
948
950
954
956
956
954
958
963
968
967
963
966
970
978
982
986
985
989
994
992
998
1004
1008
1010
1016
1023
1029
1033
1036
1035
1041
1046
1049
1049
1050
1053
1055
1062
1061
1058
1053
1051
1046
1046
1047
1044
1044
1038
1033
1026
1023
1020
1017
1011
1006
999
993
984
973
969
967
964
963
958
954
948
947
952
955
949
949
950
951
953
953
949
943
939
937
941
942
938
931
931
936
942
946
944
940
938
940
940
945
945
943
940
943
944
947
946
943
944
946
949
950
948
950
949
946
950
951
950
950
952
950
954
958
960
957
951
951
954
956
956
953
953
952
953
953
949
949
946
946
948
951
948
946
946
946
946
948
945
939
943
944
948
947
948
944
940
939
943
943
938
936
936
935
939
940
938
935
933
933
936
936
935
935
936
937
938
935
931
928
925
926
928
930
929
927
926
928
932
935
934
929
924
928
934
939
942
940
933
928
931
937
941
942
936
940
942
945
944
942
939
941
939
939
937
939
936
941
942
947
952
955
959
967
978
991
1002
1004
1001
999
1003
1008
1008
1006
997
992
986
978
971
962
954
948
943
943
941
937
932
930
931
932
934
934
933
932
932
930
924
915
905
899
903
925
963
1031
1123
1229
1320
1377
1415
1424
1407
1363
1283
1174
1046
918
847
850
879
897
896
894
897
908
915
918
915
910
908
909
913
916
916
913
910
913
914
917
913
909
905
908
912
913
913
913
912
913
914
917
916
914
914
920
925
929
930
928
924
927
931
937
932
928
929
932
934
932
931
933
932
937
941
945
940
947
948
956
963
968
967
963
958
960
968
976
980
984
988
992
993
996
1003
1008
1010
1018
1027
1035
1037
1041
1044
1046
1052
1054
1061
1061
1061
1066
1070
1068
1061
1056
1053
1050
1050
1048
1039
1032
1028
1028
1027
1022
1016
1011
1006
1002
1006
1006
1002
993
988
984
984
986
985
980
976
970
969
966
964
961
958
958
962
965
960
958
956
959
964
968
966
965
959
959
961
963
965
959
966
969
974
979
980
976
977
974
977
976
979
976
974
972
979
986
988
986
985
991
997
1002
1000
995
991
995
997
998
996
994
994
996
997
997
999
995
993
990
990
994
991
989
984
984
988
991
990
987
985
988
987
991
989
986
981
980
980
979
982
978
974
977
981
978
975
977
976
976
975
979
977
974
972
970
974
979
977
976
974
974
974
978
982
980
977
973
975
979
982
977
972
975
974
974
979
973
974
975
979
981
980
975
968
972
978
984
985
984
987
992
1000
1003
1007
1008
1010
1026
1038
1050
1052
1048
1046
1046
1050
1051
1049
1044
1034
1024
1014
1008
1002
997
994
985
981
978
972
971
969
970
973
973
972
967
967
969
967
972
963
956
944
937
937
955
995
1059
1151
1250
1338
1402
1439
1462
1462
1442
1391
1306
1185
1057
932
888
908
935
942
938
935
942
949
952
950
944
939
942
941
943
942
940
939
939
940
942
942
940
939
940
943
943
941
942
940
942
943
950
949
943
942
946
950
953
952
950
953
959
965
967
966
968
967
966
968
967
961
957
961
966
967
970
973
973
972
977
980
984
986
987
985
991
996
1003
1007
1007
1010
1016
1020
1026
1025
1026
1024
1030
1037
1043
1049
1050
1052
1057
1063
1069
1071
1068
1067
1068
1071
1078
1080
1076
1070
1071
1068
1069
1066
1059
1054
1048
1045
1048
1043
1038
1030
1026
1025
1023
1016
1011
1007
1002
1004
1003
998
992
990
985
988
988
988
983
978
979
980
983
982
978
976
976
978
979
981
977
980
980
984
987
987
984
981
981
982
983
983
980
980
984
989
990
993
988
989
988
992
993
996
993
992
995
999
1000
1000
1000
997
996
999
1002
1000
1002
998
1002
1004
1005
1005
1001
998
1000
1003
1004
1006
1003
999
1002
1003
1004
1003
996
993
991
995
996
997
991
989
989
989
989
990
986
984
987
992
991
990
988
983
985
986
986
982
982
982
983
985
987
985
983
978
982
987
985
988
985
983
986
986
985
983
980
976
983
982
984
984
981
982
983
984
987
985
984
977
980
983
987
987
984
982
980
988
990
991
988
994
999
1007
1012
1013
1012
1013
1022
1034
1051
1060
1062
1062
1061
1062
1064
1062
1059
1055
1050
1040
1035
1025
1016
1009
1002
1001
993
989
981
976
979
981
981
980
980
977
979
981
982
979
974
965
951
943
942
951
977
1029
1117
1227
1328
1402
1446
1463
1462
1439
1382
1288
1164
1036
934
912
933
954
957
950
954
961
967
965
956
955
958
958
959
958
958
956
956
958
959
957
955
952
952
955
960
960
955
954
954
959
960
961
960
958
958
963
966
966
962
961
964
966
972
971
973
972
969
978
981
980
975
975
972
978
984
984
983
984
989
995
997
1001
1004
1008
1015
1018
1014
1020
1015
1013
1012
1016
1021
1025
1027
1030
1037
1043
1046
1051
1052
1053
1056
1060
1065
1068
1068
1069
1072
1072
1072
1069
1066
1064
1064
1063
1065
1059
1051
1046
1045
1043
1042
1035
1027
1023
1020
1018
1016
1010
1006
1000
998
1001
1003
999
993
990
988
990
992
990
987
982
982
985
985
984
983
977
978
983
984
982
983
983
981
983
987
988
986
985
986
988
991
990
989
988
991
993
998
994
995
994
995
999
998
1002
997
994
998
1002
1004
1003
1001
997
997
997
1001
1000
1000
998
999
998
1001
994
992
987
991
995
998
996
988
988
986
987
991
987
984
982
980
984
987
981
978
975
978
978
980
980
976
976
976
975
978
978
976
971
971
971
973
974
975
970
970
971
972
973
971
968
968
971
972
972
968
968
971
974
975
975
971
966
967
970
972
973
973
971
969
970
972
972
968
970
969
969
973
973
969
970
970
975
979
979
977
977
982
989
993
995
994
996
1003
1014
1029
1042
1042
1042
1039
1041
1045
1049
1044
1034
1025
1016
1012
1003
994
986
980
975
975
974
972
966
972
971
975
975
970
970
968
962
959
949
946
956
994
1058
1156
1259
1342
1395
1429
1446
1437
1395
1311
1191
1063
936
886
897
922
931
934
936
942
947
947
948
949
948
951
951
946
943
941
945
949
950
948
944
949
951
954
951
950
943
949
953
955
955
952
950
953
954
957
956
955
954
957
959
964
966
960
957
959
965
966
971
971
971
975
980
985
985
985
982
984
992
994
995
996
998
1003
1008
1013
1016
1017
1019
1025
1030
1038
1041
1042
1042
1050
1054
1060
1062
1062
1067
1070
1076
1082
1080
1079
1076
1079
1082
1084
1080
1074
1072
1069
1070
1068
1061
1056
1050
1045
1044
1043
1037
1028
1023
1021
1016
1018
1015
1009
1002
998
1000
1002
999
997
991
992
994
993
992
990
987
988
988
991
991
987
984
985
984
988
991
989
988
991
993
995
994
995
995
998
1000
1004
1003
1005
1005
1007
1010
1013
1011
1012
1011
1013
1018
1020
1019
1019
1016
1021
1025
1028
1028
1020
1021
1016
1021
1022
1021
1019
1019
1016
1018
1019
1016
1013
1009
1010
1014
1013
1015
1009
1006
1005
1009
1012
1010
1005
998
1003
1005
1008
1005
1002
998
998
1001
1002
1000
994
993
992
996
999
1000
997
995
995
998
1000
998
992
988
989
996
998
998
996
993
993
997
997
998
994
995
995
995
995
993
991
993
995
997
1001
998
991
995
994
998
1001
1001
997
997
997
1002
1007
1009
1008
1008
1017
1024
1023
1023
1025
1038
1052
1069
1074
1073
1069
1067
1067
1072
1070
1059
1045
1031
1028
1027
1021
1013
1002
994
993
995
993
991
988
987
988
991
993
991
984
976
964
960
964
996
1056
1152
1260
1359
1427
1464
1472
1453
1405
1317
1197
1069
946
901
922
952
967
965
964
967
973
975
977
974
970
963
963
966
969
967
964
962
961
965
970
969
967
965
963
963
966
965
962
963
967
970
974
971
968
966
969
976
976
975
975
974
976
980
985
983
981
979
982
987
991
992
990
988
990
996
1000
1005
1006
1006
1008
1010
1017
1017
1018
1017
1018
1023
1032
1037
1042
1042
1048
1057
1063
1065
1068
1069
1075
1078
1082
1080
1081
1083
1079
1088
1088
1085
1081
1076
1075
1073
1072
1068
1062
1055
1049
1049
1046
1042
1034
1031
1024
1022
1020
1015
1011
1009
1005
1008
1008
1006
998
999
994
996
1000
1000
992
993
993
994
996
994
990
990
993
995
997
997
993
995
996
998
1005
1003
1000
999
1003
1001
1005
1005
1002
1003
1005
1006
1011
1011
1008
1009
1010
1012
1018
1016
1015
1012
1010
1017
1020
1021
1018
1017
1020
1019
1020
1019
1014
1015
1016
1020
1018
1016
1012
1009
1011
1012
1014
1009
1007
1004
1005
1008
1008
1006
1005
1002
1005
1005
1008
1004
997
1000
1000
1002
1005
1004
1001
1000
1000
999
1002
1001
1000
1001
999
1000
1000
998
997
998
996
996
1002
998
997
993
995
996
998
998
995
992
996
997
997
996
994
992
994
997
997
997
995
991
994
995
997
994
990
991
992
994
996
994
989
987
993
996
999
997
992
990
996
999
1003
1004
1001
997
1003
1013
1020
1022
1020
1020
1020
1036
1051
1065
1072
1076
1075
1072
1070
1067
1061
1050
1041
1033
1029
1019
1014
1005
1004
998
1001
998
995
993
993
993
996
994
991
991
985
981
977
963
950
955
985
1044
1143
1261
1366
1439
1479
1493
1477
1428
1340
1213
1085
957
920
944
972
978
976
975
983
985
980
975
974
973
976
974
968
963
966
970
971
970
971
967
965
967
970
973
972
969
970
973
975
977
974
969
973
976
984
982
980
977
979
980
985
986
983
979
983
985
990
990
990
989
992
994
1000
1001
1000
998
1004
1008
1011
1013
1011
1014
1018
1024
1029
1030
1029
1029
1038
1044
1049
1053
1056
1059
1064
1068
1075
1076
1077
1080
1080
1086
1090
1092
1088
1089
1090
1088
1090
1086
1080
1075
1073
1074
1073
1068
1063
1057
1053
1051
1050
1044
1038
1030
1028
1027
1026
1019
1015
1011
1011
1011
1010
1009
1005
1001
1003
1005
1005
1005
1000
1000
1001
1002
1002
1002
1000
998
997
1002
1005
1004
1004
1004
1002
1005
1008
1005
1004
1001
1005
1009
1010
1013
1012
1010
1011
1009
1009
1011
1011
1009
1012
1015
1021
1022
1021
1016
1016
1020
1019
1017
1016
1014
1016
1020
1021
1020
1016
1014
1011
1010
1016
1017
1014
1009
1009
1011
1013
1012
1008
1008
1005
1008
1010
1009
1005
1002
999
1003
1001
997
999
995
996
1000
1002
1000
996
992
990
993
994
994
992
986
993
993
995
994
991
985
989
989
990
988
984
980
985
985
988
989
985
983
982
985
989
985
987
982
981
986
988
987
985
986
985
986
991
987
984
981
981
987
989
987
984
982
981
986
985
986
986
981
982
982
983
982
979
977
979
983
985
986
981
978
981
983
987
986
985
981
984
989
988
986
985
982
986
990
993
995
993
993
996
1003
1009
1009
1003
1005
1011
1021
1037
1051
1058
1053
1052
1050
1046
1043
1039
1033
1028
1026
1021
1014
1005
1001
996
993
990
984
980
980
979
982
989
984
982
978
983
982
978
972
958
949
953
977
1019
1090
1187
1286
1366
1416
1449
1460
1446
1404
1327
1221
1093
965
890
901
934
948
954
956
960
962
966
968
967
966
960
959
962
964
966
963
964
959
960
964
965
964
961
960
964
965
965
963
961
960
964
966
971
971
967
965
967
973
972
974
974
976
978
980
982
984
982
980
980
981
987
991
990
986
990
994
1000
1000
999
999
1003
1009
1013
1013
1013
1016
1020
1020
1027
1029
1033
1039
1046
1051
1054
1057
1056
1054
1067
1072
1078
1081
1082
1082
1086
1091
1094
1096
1094
1090
1090
1089
1092
1087
1086
1083
1081
1078
1076
1073
1067
1064
1062
1060
1058
1050
1043
1039
1032
1032
1034
1031
1023
1020
1019
1021
1021
1021
1017
1014
1013
1012
1015
1014
1011
1005
1006
1009
1012
1007
1005
1003
1004
1008
1009
1009
1007
1007
1005
1012
1015
1015
1013
1010
1010
1010
1015
1016
1018
1015
1015
1019
1023
1025
1023
1023
1024
1025
1029
1029
1027
1027
1029
1035
1038
1034
1031
1033
1034
1035
1039
1038
1036
1032
1033
1037
1038
1036
1032
1029
1029
1032
1033
1032
1029
1023
1025
1026
1027
1022
1022
1018
1012
1016
1019
1014
1015
1016
1014
1017
1017
1022
1017
1014
1013
1011
1010
1007
1004
1001
1004
1007
1006
1008
1001
1002
1000
1001
1008
1007
1004
1003
1002
1006
1008
1007
1003
998
1000
1006
1009
1009
1007
1002
1005
1007
1006
1005
1000
997
998
1005
1006
1003
1003
1000
1001
1001
1002
999
994
993
993
997
995
996
994
992
994
997
999
1000
998
995
997
1000
1002
1003
1003
1001
1006
1011
1016
1016
1017
1015
1019
1022
1031
1044
1055
1062
1067
1068
1065
1059
1054
1046
1045
1043
1039
1031
1023
1016
1009
1009
1008
1001
989
982
982
985
987
987
986
982
984
987
987
987
980
974
972
964
955
949
950
973
1019
1094
1191
1288
1358
1410
1439
1446
1433
1390
1314
1208
1082
966
902
904
934
948
951
954
960
963
958
958
957
957
959
956
951
948
953
958
959
955
950
947
950
951
957
958
952
952
953
949
956
956
952
951
953
956
961
957
957
955
958
956
961
958
956
956
960
963
967
968
965
963
967
971
974
975
970
972
972
976
980
981
978
980
983
988
991
993
991
994
996
1003
1009
1009
1010
1007
1017
1020
1025
1028
1026
1028
1033
1039
1044
1049
1047
1049
1050
1059
1061
1059
1055
1047
1054
1055
1056
1054
1046
1036
1040
1038
1036
1031
1026
1023
1019
1018
1017
1010
1004
997
995
993
990
988
982
977
976
974
977
975
969
965
965
970
972
966
961
957
957
957
963
964
964
961
964
963
965
964
959
958
961
962
967
966
965
963
963
970
973
971
969
969
970
975
977
980
980
975
977
982
986
988
987
986
987
989
992
990
989
986
988
990
992
989
989
986
985
989
991
989
983
983
983
988
988
984
982
981
980
985
985
984
979
977
976
977
982
980
976
973
974
976
976
975
970
970
972
975
976
974
969
966
967
965
969
969
965
962
962
961
967
967
965
962
965
969
969
969
962
960
961
964
967
966
964
961
964
965
967
965
963
962
962
963
964
961
960
960
963
966
968
964
964
961
961
962
961
965
962
958
962
963
965
963
959
962
963
965
970
967
966
964
966
971
973
971
971
973
972
977
984
986
988
988
989
991
997
1004
1019
1031
1041
1043
1042
1035
1023
1018
1018
1018
1016
1007
998
991
985
984
982
974
968
964
965
968
971
967
965
958
960
965
968
967
962
954
944
935
927
924
937
971
1037
1127
1228
1321
1384
1427
1448
1454
1437
1387
1299
1179
1051
930
890
906
934
942
944
948
953
955
952
947
942
942
944
944
938
937
934
939
940
941
940
937
938
939
939
940
940
935
935
937
941
940
940
936
937
940
945
943
943
940
946
945
950
950
949
948
949
954
957
958
959
955
959
959
963
962
964
966
967
968
973
972
971
974
978
983
985
982
985
984
988
992
999
1000
1001
1002
1010
1014
1019
1022
1022
1024
1030
1038
1044
1045
1046
1046
1050
1056
1060
1059
1060
1057
1057
1058
1060
1058
1051
1047
1045
1045
1043
1041
1036
1030
1027
1025
1025
1021
1014
1008
1003
1005
1005
1000
992
987
987
986
987
983
981
974
977
977
978
977
976
972
973
974
979
979
975
974
975
978
980
978
975
977
976
980
984
982
982
979
981
983
984
985
985
985
986
989
990
990
990
990
994
995
997
995
991
995
997
997
998
996
993
990
990
994
995
996
995
990
992
997
1001
998
995
992
993
997
999
998
994
992
994
993
995
994
989
986
987
987
989
985
981
976
981
986
987
985
980
978
981
984
986
982
980
977
978
982
979
983
980
978
978
982
985
983
982
978
977
984
985
982
978
976
975
978
978
976
976
971
975
976
978
977
974
972
976
978
979
977
974
969
970
972
978
976
973
970
974
978
980
978
977
973
974
977
979
977
975
974
976
980
982
981
978
976
975
978
983
983
980
979
983
986
993
993
992
993
997
998
1004
1005
1007
1011
1020
1038
1051
1052
1046
1037
1032
1029
1030
1027
1024
1013
1007
999
999
995
987
980
978
977
978
977
973
971
974
976
978
974
972
971
971
968
964
959
957
972
1004
1065
1152
1251
1329
1384
1417
1432
1427
1393
1319
1211
1085
968
893
887
915
936
938
941
946
949
948
952
951
953
955
952
951
948
949
952
953
952
949
946
950
953
955
955
951
947
951
954
958
955
955
951
954
954
961
962
959
957
958
960
965
966
963
965
967
968
971
968
968
968
971
974
979
984
977
977
978
981
986
988
990
990
995
1002
1008
1010
1008
1010
1016
1019
1025
1029
1032
1033
1040
1046
1054
1055
1058
1060
1064
1069
1074
1077
1079
1077
1078
1079
1081
1080
1076
1076
1072
1070
1068
1063
1058
1054
1049
1046
1040
1035
1032
1029
1025
1022
1018
1014
1007
1003
1002
1002
999
999
995
988
988
990
989
991
985
981
981
984
986
984
981
980
979
981
986
986
984
983
985
988
992
991
989
988
988
995
998
1000
999
1000
1002
1004
1006
1006
1006
1004
1008
1012
1019
1017
1017
1015
1011
1017
1024
1023
1020
1016
1016
1021
1021
1019
1016
1014
1013
1014
1014
1012
1009
1004
1005
1009
1011
1010
1006
1003
1000
1001
1004
1004
1001
997
997
998
1002
999
