984
988
986
975
971
967
971
977
978
973
965
964
965
971
974
974
974
972
973
975
974
966
960
959
961
967
967
965
963
962
959
963
965
966
967
967
966
961
957
954
956
956
957
961
963
960
957
958
959
964
962
957
956
957
963
967
967
965
960
961
962
974
974
974
975
983
990
995
995
994
997
1005
1024
1033
1033
1034
1028
1031
1031
1035
1037
1035
1028
1017
1005
1000
994
987
979
977
976
976
967
958
948
946
951
956
958
957
953
951
951
954
952
948
943
937
929
931
947
985
1052
1146
1247
1332
1387
1419
1435
1436
1417
1363
1257
1129
1001
873
874
919
945
939
930
933
940
943
935
935
938
943
948
947
939
929
919
921
927
933
933
931
931
933
938
941
940
940
938
938
941
946
944
939
940
937
933
930
932
940
943
944
945
949
950
951
947
947
947
948
951
951
952
954
961
966
966
970
972
972
974
978
977
980
981
982
986
986
992
993
996
1004
1007
1013
1019
1020
1020
1025
1033
1041
1046
1047
1050
1058
1064
1069
1068
1061
1060
1064
1076
1083
1083
1077
1072
1073
1072
1069
1065
1064
1062
1057
1055
1059
1049
1039
1030
1024
1026
1027
1023
1015
1006
1001
998
999
998
993
988
989
990
985
982
980
975
971
971
969
962
960
959
964
963
961
959
959
956
956
960
966
966
957
953
948
957
963
963
961
962
965
967
974
975
971
967
970
970
975
974
971
968
970
976
976
979
979
982
985
990
992
993
987
985
982
984
992
998
997
993
993
993
993
985
975
973
978
982
983
984
979
972
974
984
984
977
961
961
971
980
984
980
971
968
969
972
972
969
966
963
963
960
966
968
967
965
966
962
956
956
955
958
960
964
971
974
973
973
969
965
957
952
952
953
956
958
963
969
968
963
964
968
972
969
958
949
951
956
959
951
945
949
955
959
961
959
955
957
961
966
968
962
956
953
958
968
974
977
971
964
956
950
950
956
961
957
954
952
955
950
950
953
952
953
955
961
963
964
972
974
973
968
957
953
959
966
974
983
989
989
990
989
997
1010
1021
1030
1030
1027
1030
1030
1029
1030
1037
1042
1038
1025
1010
991
980
982
986
989
985
973
960
953
955
962
960
952
948
951
956
957
955
952
954
955
955
944
938
944
970
1017
1093
1183
1279
1360
1418
1444
1449
1438
1405
1334
1219
1091
963
896
911
940
949
943
943
954
956
956
954
945
931
920
926
932
933
935
936
938
941
941
940
942
939
934
929
927
925
930
944
947
945
937
935
937
931
924
921
923
927
925
922
924
934
947
953
949
943
929
924
935
950
958
963
962
960
954
946
941
947
955
963
965
968
976
976
975
973
965
959
967
981
991
994
997
1001
1006
1007
1001
1000
1000
1008
1024
1040
1040
1041
1035
1033
1041
1061
1070
1066
1049
1044
1058
1077
1084
1075
1070
1067
1066
1064
1069
1066
1060
1054
1049
1042
1038
1041
1049
1049
1042
1023
1002
988
992
1004
1006
1004
995
984
987
994
997
986
969
958
955
961
965
970
963
952
950
963
971
965
952
942
937
946
950
954
949
944
941
945
949
952
956
956
950
949
951
955
957
951
949
952
948
954
959
958
953
950
957
960
955
956
963
967
963
961
958
960
955
954
959
966
970
967
963
955
953
951
952
954
960
963
969
971
967
960
949
948
952
953
949
955
963
967
955
950
949
952
951
958
963
965
955
942
938
934
936
943
957
969
962
947
936
939
944
945
944
939
937
942
946
947
948
944
938
932
935
946
953
948
943
944
954
957
942
926
923
936
950
949
948
950
953
954
949
939
937
939
946
951
947
938
929
936
944
947
942
940
950
958
955
947
940
943
944
932
921
928
943
953
948
944
944
947
946
943
945
947
958
961
953
943
942
954
966
971
965
961
968
979
987
987
988
994
1003
1013
1022
1028
1027
1021
1018
1021
1024
1026
1019
1007
986
976
967
962
956
958
960
957
955
952
946
941
942
950
948
948
951
945
937
935
938
940
932
931
937
954
992
1070
1171
1271
1343
1401
1438
1457
1453
1434
1392
1317
1203
1075
947
857
892
935
950
942
934
934
938
946
947
943
931
922
920
925
937
935
926
924
924
930
938
942
937
933
931
934
941
946
943
940
934
932
937
946
945
940
942
946
938
922
914
923
937
947
947
954
957
955
947
946
952
973
975
956
932
924
942
960
974
975
966
955
957
969
977
974
971
978
991
1001
994
983
980
974
982
999
1009
1015
1017
1024
1033
1037
1036
1035
1032
1030
1034
1040
1046
1058
1069
1072
1072
1071
1064
1059
1066
1076
1079
1079
1066
1051
1045
1048
1052
1053
1047
1038
1028
1025
1022
1021
1021
1025
1026
1023
1015
1005
992
980
971
976
979
987
988
984
978
973
967
960
961
971
981
982
975
958
945
942
953
967
972
974
975
973
964
962
964
969
970
965
960
962
964
970
974
976
973
963
967
981
989
986
976
980
982
979
970
966
966
972
987
993
986
978
979
986
995
996
989
980
963
966
983
996
996
986
975
974
980
974
958
952
958
967
973
976
982
986
982
970
963
970
978
968
953
952
949
948
953
961
965
960
951
949
951
957
961
964
967
967
967
963
961
964
958
957
961
962
954
951
958
954
954
952
952
961
973
977
970
960
946
944
961
973
974
960
948
948
962
974
977
968
974
980
976
964
940
932
945
963
973
970
971
974
976
974
970
971
982
974
959
951
962
983
999
1001
994
996
1008
1029
1039
1041
1032
1028
1043
1053
1053
1045
1043
1047
1050
1052
1041
1020
992
971
981
997
994
973
964
975
989
994
978
957
951
966
982
981
971
959
953
946
945
941
954
993
1069
1178
1286
1362
1413
1438
1445
1439
1409
1339
1223
1095
967
905
923
958
981
983
977
967
961
956
957
959
949
944
950
961
966
966
955
948
947
952
963
958
954
949
944
941
943
942
943
945
951
955
956
957
959
958
953
962
975
976
969
962
968
974
969
968
970
977
978
976
977
981
983
975
969
971
974
975
982
989
994
1001
1007
1003
998
989
983
986
1004
1019
1017
1011
1017
1027
1032
1032
1033
1038
1035
1037
1042
1058
1068
1076
1078
1073
1070
1079
1091
1098
1087
1064
1048
1054
1076
1083
1085
1082
1080
1072
1063
1059
1057
1050
1041
1033
1026
1021
1018
1019
1020
1018
1019
1015
1008
1006
1005
1000
996
996
1002
1005
1003
995
1000
1005
1003
994
985
988
992
989
989
993
994
984
970
973
982
981
978
978
983
987
987
981
974
976
989
998
1002
1002
995
985
977
967
970
987
999
999
994
999
1005
1001
994
994
998
1004
996
978
963
969
983
985
984
992
995
993
987
988
993
984
975
976
987
996
998
994
979
965
960
960
957
959
962
960
955
962
961
953
950
955
963
961
955
945
941
951
954
956
959
966
967
962
956
949
937
938
944
954
944
938
939
952
961
955
941
928
927
943
948
947
940
939
941
945
943
942
945
943
933
922
926
935
939
941
945
946
938
935
936
942
950
954
960
961
961
969
976
984
992
1001
1004
1007
1009
1011
1014
1009
1004
1003
1000
995
981
971
958
954
952
951
955
956
952
939
925
922
927
928
927
926
927
927
927
927
920
911
914
949
1011
1099
1205
1303
1368
1396
1405
1396
1367
1298
1180
1052
924
829
859
895
903
895
887
886
886
887
890
897
897
896
890
887
889
897
896
885
881
877
879
885
891
890
890
892
896
900
895
886
886
889
890
889
894
901
902
903
899
893
889
889
886
889
897
903
905
904
903
906
910
917
920
923
923
924
926
926
923
922
924
930
940
945
945
944
943
946
950
957
967
978
979
976
973
972
976
990
1000
1005
1006
1010
1013
1018
1020
1019
1021
1028
1029
1024
1015
1017
1021
1021
1014
1006
999
997
1001
1001
999
988
971
960
958
957
959
959
956
951
937
930
928
934
936
938
939
933
924
914
913
918
924
927
923
920
924
928
927
920
918
925
924
916
912
920
931
933
928
919
914
921
929
932
934
936
941
943
941
939
939
947
954
959
954
948
942
941
945
954
951
947
943
946
954
961
958
944
925
918
929
940
942
940
936
932
932
928
929
929
925
924
923
931
931
931
931
931
939
947
946
937
921
917
919
928
928
927
927
926
931
933
935
933
932
935
938
942
940
933
928
932
937
942
938
937
935
934
929
930
934
936
932
926
928
928
930
931
938
945
950
952
947
941
937
948
961
970
975
973
975
988
1000
1005
1002
999
999
995
998
993
985
976
965
962
963
958
948
939
929
927
928
929
929
930
928
928
930
935
932
927
920
914
911
915
930
963
1026
1113
1217
1310
1373
1404
1413
1410
1385
1328
1222
1094
966
859
869
912
928
912
900
901
913
918
910
906
902
907
917
922
925
920
914
911
920
929
933
931
927
919
916
924
922
913
907
908
916
924
922
926
926
927
929
933
934
928
926
925
932
935
936
931
932
936
942
949
947
949
945
943
947
952
952
955
953
956
957
964
965
967
968
972
977
987
990
991
992
993
998
1003
1010
1013
1014
1018
1025
1028
1033
1038
1039
1043
1049
1049
1050
1049
1054
1056
1061
1066
1069
1071
1064
1048
1039
1037
1039
1039
1032
1028
1026
1025
1023
1014
1011
1011
1008
1002
995
989
982
977
975
974
973
969
962
959
962
966
967
961
957
958
958
961
959
956
950
946
947
949
947
949
946
948
956
962
959
961
961
965
968
968
971
967
966
967
968
969
970
972
971
973
977
981
979
978
969
963
965
978
982
979
975
978
977
980
981
978
971
969
974
978
980
976
965
960
962
963
964
961
958
952
959
962
960
957
956
956
958
959
961
957
949
948
947
948
949
950
952
953
950
944
942
942
943
946
944
942
942
940
936
937
936
940
942
941
938
937
935
940
939
938
937
938
942
944
942
934
935
939
944
943
940
936
937
941
946
950
955
959
961
965
968
969
975
984
987
998
1005
1011
1011
1008
1007
1009
1011
1011
1003
987
976
966
961
958
950
941
936
933
930
929
925
925
923
925
932
933
932
931
925
922
919
913
896
883
889
919
986
1086
1197
1290
1361
1399
1420
1423
1400
1339
1231
1103
975
848
851
888
910
903
901
902
908
909
909
906
898
895
894
896
901
902
902
906
905
903
899
894
889
885
885
883
878
884
889
898
900
901
900
894
891
893
898
897
900
902
902
896
896
893
896
902
908
911
909
904
900
903
908
911
909
913
910
914
920
923
923
921
926
931
938
947
952
951
939
933
935
943
953
958
962
967
972
979
982
986
988
993
999
1008
1012
1013
1013
1010
1013
1023
1027
1029
1024
1024
1025
1026
1027
1024
1021
1018
1016
1016
1006
1001
993
991
989
989
986
982
975
967
961
954
945
941
933
934
938
940
938
936
933
929
929
925
924
921
919
919
920
921
919
917
916
917
921
923
923
920
919
918
919
925
923
925
924
926
930
933
929
928
934
938
937
937
934
932
930
928
926
935
939
937
934
931
934
939
941
941
939
938
939
944
940
937
935
936
934
938
938
933
934
931
929
929
930
927
924
927
934
934
925
919
916
916
924
925
922
921
920
922
926
925
925
920
916
913
915
915
915
916
915
916
919
918
922
920
915
911
912
912
913
916
917
921
920
923
922
922
919
921
928
936
943
942
947
950
957
965
974
978
979
981
985
986
987
985
981
977
970
963
957
949
945
943
938
934
928
922
915
912
913
918
922
920
916
912
915
919
919
915
907
900
895
894
900
917
943
999
1083
1181
1272
1337
1377
1400
1416
1413
1384
1323
1223
1095
967
859
839
871
898
902
896
890
892
898
901
901
903
904
904
902
899
900
903
904
901
898
896
899
901
903
904
900
899
897
898
899
901
899
900
898
903
907
907
906
906
908
910
912
912
911
908
909
910
916
916
917
915
917
919
923
925
925
925
924
928
931
932
930
928
930
931
937
940
944
947
948
956
960
961
962
960
961
967
977
979
982
982
981
987
995
1003
1006
1006
1008
1012
1020
1026
1029
1031
1035
1038
1040
1040
1039
1039
1042
1044
1046
1045
1043
1038
1033
1032
1036
1031
1019
1009
1007
1005
1003
999
994
988
986
984
984
980
975
965
965
964
961
957
954
949
950
952
956
954
946
937
934
935
938
938
935
933
936
938
938
941
937
934
931
930
934
938
938
936
937
945
947
949
949
945
944
947
951
955
954
955
957
960
966
966
965
960
963
966
970
973
971
970
968
972
975
973
972
967
966
966
969
969
966
963
959
962
962
964
961
956
954
954
956
958
959
955
957
956
956
955
953
950
950
954
956
953
948
945
943
944
947
948
949
950
950
951
951
942
931
924
928
938
942
939
938
939
939
942
949
947
943
935
935
940
947
946
944
940
941
942
945
947
948
951
955
955
958
960
960
957
962
969
980
998
1012
1020
1018
1012
1010
1008
1010
1010
1013
1007
1000
987
973
964
958
959
957
948
940
935
933
935
939
941
940
935
937
941
941
940
939
933
922
913
909
902
908
936
993
1082
1194
1295
1369
1410
1431
1432
1422
1380
1301
1181
1053
925
847
866
908
921
917
916
917
919
916
914
914
910
914
913
908
907
907
910
911
909
909
908
907
910
910
912
907
904
901
901
909
912
912
911
911
910
911
915
912
913
916
916
922
916
910
912
917
921
926
924
924
922
922
924
924
924
925
924
927
931
935
938
934
937
939
944
949
952
954
954
955
960
969
972
971
971
973
980
988
991
990
992
995
1003
1013
1015
1018
1021
1025
1031
1038
1039
1040
1039
1043
1045
1050
1048
1041
1037
1038
1036
1036
1034
1026
1018
1020
1017
1016
1010
1006
1001
999
996
997
991
980
973
968
969
968
967
965
958
959
956
959
960
959
953
949
949
950
948
947
940
938
939
944
945
939
939
940
946
949
949
947
941
939
939
943
947
945
942
945
946
951
953
953
952
955
954
956
954
955
954
952
953
957
957
956
954
955
959
961
961
962
958
959
963
967
964
962
962
962
961
957
955
955
954
957
956
959
958
952
946
950
951
956
954
950
946
947
951
954
955
948
937
936
940
945
943
940
940
933
937
942
943
943
939
938
935
938
937
938
938
940
942
942
942
942
945
945
942
940
937
932
925
932
940
943
940
936
933
936
935
942
939
936
935
935
939
942
941
938
935
938
940
940
941
940
943
946
950
956
956
959
960
962
970
983
995
1003
1012
1014
1014
1012
1014
1020
1022
1022
1020
1018
1011
1000
988
976
973
970
966
957
949
943
937
940
938
939
934
936
935
935
934
935
931
932
933
934
927
918
902
900
918
962
1033
1136
1240
1332
1396
1429
1437
1430
1394
1318
1192
1064
936
856
883
915
926
922
916
915
915
916
917
919
915
912
908
908
910
913
914
910
907
907
908
911
912
912
910
908
909
912
911
908
908
909
910
914
911
910
909
908
916
918
917
916
913
912
919
924
927
928
924
920
917
916
918
916
917
921
928
934
935
931
932
932
938
943
947
947
946
949
959
967
973
980
982
979
977
972
973
981
988
992
994
1003
1011
1016
1017
1018
1026
1032
1032
1032
1033
1035
1037
1043
1049
1041
1027
1020
1021
1033
1035
1031
1018
1011
1009
1005
999
990
988
989
992
991
988
978
968
960
962
962
958
948
944
951
961
962
958
956
956
959
955
944
933
915
902
902
910
912
913
917
919
919
923
930
933
934
925
922
919
920
922
921
919
919
927
937
938
931
927
922
923
918
916
915
918
922
925
925
933
938
937
942
948
951
947
941
938
928
922
927
939
946
946
949
953
946
939
941
941
937
935
915
900
903
915
923
927
927
923
914
913
911
915
916
908
903
909
914
916
916
912
902
903
915
925
928
920
917
911
904
891
880
882
898
908
913
907
912
915
918
912
894
887
888
900
906
902
888
882
886
898
899
900
904
906
923
926
912
890
884
901
924
931
931
921
910
907
912
922
927
935
948
961
972
976
975
974
974
976
979
978
975
965
953
944
941
942
942
935
919
902
891
892
890
889
893
900
901
908
921
927
915
896
887
889
895
897
899
923
980
1077
1197
1297
1369
1407
1420
1404
1362
1272
1144
1016
888
826
858
870
865
867
882
887
884
882
887
893
891
890
885
883
883
878
880
877
869
862
863
868
879
885
883
880
873
880
886
889
888
882
871
876
887
895
894
892
884
877
883
889
891
888
893
903
903
899
896
895
895
907
914
913
903
895
898
903
910
922
930
931
927
927
933
941
949
947
945
944
948
950
949
955
964
972
980
991
999
997
993
991
992
988
982
979
987
997
991
986
987
991
997
998
987
986
994
997
985
969
967
966
961
954
952
954
966
978
979
970
959
950
930
900
891
897
915
926
938
939
923
908
904
919
944
964
963
934
899
885
900
920
914
904
891
893
901
909
910
911
912
921
930
935
935
928
929
929
931
940
947
946
943
942
949
949
943
940
941
944
943
945
950
950
945
938
924
921
930
938
945
949
950
949
944
942
938
934
931
931
934
927
926
930
934
939
935
929
933
937
931
919
919
929
937
942
936
933
927
921
918
920
928
933
931
929
936
943
945
931
913
907
917
936
937
920
914
916
924
925
925
928
935
934
928
924
918
911
917
925
926
920
926
934
941
937
940
940
936
925
917
930
944
948
941
944
950
956
950
952
968
978
982
981
984
990
990
982
974
972
977
983
991
996
1006
1001
994
987
978
972
966
965
966
964
953
941
937
935
936
937
940
938
933
933
935
