1026
1021
1019
1017
1015
1011
1005
1000
994
999
998
995
993
987
987
991
993
994
992
992
992
994
999
998
997
993
992
996
1008
1023
1045
1081
1122
1166
1204
1224
1232
1229
1226
1215
1195
1154
1102
1050
1011
999
1004
1003
998
987
987
987
987
981
979
973
972
972
973
970
967
964
963
962
962
965
962
958
957
959
962
964
961
958
958
960
962
963
961
961
961
965
964
967
961
963
964
965
967
967
966
963
962
969
970
971
973
972
972
974
976
980
976
978
978
979
987
987
989
987
986
993
997
999
999
996
998
1003
1007
1009
1010
1009
1010
1014
1021
1022
1024
1023
1025
1029
1034
1036
1036
1034
1032
1038
1041
1040
1038
1037
1036
1039
1043
1039
1037
1033
1031
1031
1031
1030
1024
1020
1019
1017
1016
1013
1011
1005
1001
1004
1005
1001
998
994
991
992
992
993
991
987
986
988
990
989
985
981
982
985
986
984
979
978
980
983
987
984
982
980
981
985
988
989
986
985
985
987
992
989
989
989
990
992
996
995
994
991
990
994
998
999
997
996
998
999
1003
1002
1000
998
995
1001
1005
1005
1003
1003
1004
1005
1009
1010
1007
1005
1003
1005
1009
1007
1004
1005
1001
1003
1005
1004
1004
1000
998
999
1004
1000
998
997
996
998
1002
1001
998
995
994
995
998
997
995
992
994
996
997
998
994
994
991
992
994
994
989
988
988
989
994
995
992
989
988
993
995
994
990
989
986
991
993
992
991
988
986
988
996
992
988
984
982
989
995
992
987
986
988
986
992
991
990
986
987
986
992
994
988
985
983
988
992
990
988
988
985
987
990
990
987
985
982
985
987
988
987
983
984
987
991
989
985
984
985
986
990
990
989
983
984
987
991
991
987
986
989
989
995
994
993
991
998
1002
1008
1009
1009
1010
1012
1017
1023
1027
1030
1034
1036
1039
1046
1041
1037
1036
1033
1029
1027
1021
1017
1014
1011
1009
1008
1006
1001
999
998
1001
1004
1002
999
998
999
1001
1005
1005
1002
1001
999
1001
1011
1029
1061
1098
1151
1198
1234
1255
1261
1258
1247
1226
1193
1135
1062
1007
987
999
1009
1004
997
990
989
987
986
985
979
975
972
974
975
973
968
967
969
968
971
969
967
963
963
964
967
965
963
964
963
965
970
967
968
967
965
965
971
972
972
971
970
972
974
975
974
971
971
978
979
979
980
979
979
983
986
988
985
988
989
992
997
997
997
997
999
1003
1009
1010
1010
1009
1013
1018
1021
1025
1022
1022
1024
1029
1035
1037
1037
1036
1035
1037
1040
1041
1040
1037
1037
1040
1039
1041
1035
1030
1030
1033
1034
1029
1026
1021
1018
1016
1015
1014
1007
1004
999
1001
1001
998
995
991
987
988
988
988
984
977
979
981
982
982
976
973
974
975
975
978
975
971
973
973
979
977
973
972
968
972
976
975
975
974
974
978
981
981
980
979
979
983
986
987
983
982
983
985
988
992
991
987
989
991
992
994
992
992
989
991
994
994
993
991
990
992
993
992
987
986
985
984
988
989
988
984
981
984
985
984
984
982
980
980
986
984
982
980
978
978
982
977
977
973
970
971
978
980
974
971
971
970
974
976
972
971
972
971
974
975
973
970
973
972
978
976
975
971
973
973
973
973
973
970
968
974
974
973
972
967
968
970
972
972
967
965
966
965
970
970
970
969
969
972
973
976
972
969
968
972
973
974
972
966
967
970
971
973
972
967
967
969
971
975
971
969
969
967
974
973
971
969
970
971
975
973
972
972
972
973
976
978
978
974
975
982
984
987
985
985
987
992
999
1000
1001
999
1003
1016
1022
1025
1027
1024
1020
1021
1019
1017
1013
1007
1007
1004
1001
1001
995
991
987
987
989
988
985
982
983
986
992
991
991
989
991
991
994
993
995
1005
1032
1073
1125
1175
1213
1236
1250
1246
1240
1213
1162
1095
1027
992
982
989
986
984
979
976
977
975
974
966
965
965
965
965
961
956
956
957
956
955
955
956
953
956
962
961
959
958
958
959
964
963
960
959
959
963
966
966
965
958
960
963
971
971
969
966
966
968
974
974
973
972
972
975
977
978
977
977
976
980
986
989
990
989
992
997
1001
1001
1005
1004
1005
1008
1014
1017
1021
1019
1020
1023
1029
1030
1030
1028
1026
1035
1035
1034
1032
1030
1025
1028
1027
1027
1022
1017
1016
1016
1013
1010
1004
996
996
997
995
991
986
982
976
974
977
974
967
965
962
963
966
963
960
957
954
955
957
957
956
953
951
955
953
956
954
949
952
953
956
954
955
956
955
958
963
965
963
960
962
965
967
967
964
964
963
961
966
965
964
962
966
969
971
972
968
967
968
969
972
973
968
967
968
967
970
970
966
963
963
965
967
965
965
962
961
962
963
962
960
956
954
956
959
958
958
955
954
957
956
956
955
949
947
953
956
955
952
951
950
952
953
951
952
950
947
950
952
952
952
950
948
951
954
954
949
949
952
951
952
953
951
950
946
951
955
954
953
951
952
951
954
956
952
946
950
951
953
953
951
948
950
954
955
953
951
948
949
952
954
953
954
954
952
956
960
961
959
956
959
961
965
964
968
969
970
975
980
981
980
980
983
987
997
1003
1004
1003
999
1000
1003
1003
999
997
991
993
992
989
987
982
981
982
981
978
976
973
975
977
981
979
980
979
981
987
989
987
987
992
1008
1036
1077
1128
1177
1215
1239
1250
1252
1239
1210
1165
1101
1036
999
985
990
990
986
985
989
988
983
978
979
980
981
979
978
975
973
974
977
975
973
968
970
971
976
972
968
966
965
968
971
968
965
963
965
968
971
969
972
970
970
972
977
979
976
974
978
979
985
985
985
982
981
982
986
990
988
990
991
993
999
1000
1000
1000
1000
1005
1007
1011
1013
1011
1016
1020
1030
1032
1032
1031
1036
1041
1045
1048
1044
1045
1046
1050
1053
1055
1052
1050
1049
1049
1050
1048
1048
1043
1038
1039
1038
1035
1030
1022
1019
1020
1020
1018
1011
1006
999
1000
997
997
992
989
982
983
984
982
980
975
971
974
976
975
972
965
965
965
969
967
963
963
961
965
969
967
963
961
960
961
963
965
967
964
967
965
969
971
968
969
970
974
978
978
978
976
977
977
982
981
983
982
982
984
988
986
985
983
985
985
991
987
987
987
987
985
989
989
987
984
983
981
988
985
984
979
978
980
982
985
981
978
978
980
980
981
979
977
976
981
985
984
981
978
976
975
976
975
973
972
972
972
972
970
970
968
971
968
975
975
974
969
972
975
977
976
975
967
964
963
967
961
960
960
960
962
967
967
966
964
964
966
969
968
964
961
961
962
962
964
961
959
961
963
965
967
961
961
964
966
968
967
963
963
965
969
971
974
974
974
975
981
984
982
982
985
988
993
998
1003
1005
1009
1009
1010
1014
1011
1008
1003
1001
1001
1001
997
991
989
984
983
984
981
975
972
972
974
976
977
973
974
974
980
983
984
984
980
979
982
992
1009
1039
1079
1134
1183
1222
1241
1246
1245
1233
1213
1175
1117
1047
990
972
984
993
991
981
977
976
976
975
971
968
963
963
966
964
964
959
958
957
956
958
959
957
955
955
959
959
958
955
950
948
953
958
956
953
952
954
959
961
961
959
956
953
952
962
961
960
958
959
961
965
967
965
966
969
973
979
979
976
969
971
976
979
980
984
985
987
989
993
994
992
992
998
1004
1008
1010
1014
1013
1015
1017
1026
1027
1029
1027
1030
1038
1043
1047
1042
1041
1040
1042
1045
1046
1038
1037
1035
1034
1034
1030
1026
1021
1013
1014
1014
1009
1004
999
996
995
997
994
986
974
969
967
973
973
969
964
965
961
960
957
957
953
955
957
958
958
955
951
949
951
955
955
955
951
949
948
951
950
948
945
947
949
952
954
952
948
948
952
953
953
951
952
952
955
954
957
958
956
956
959
961
962
961
959
962
965
968
965
961
961
961
965
969
969
968
964
960
960
968
971
967
960
961
964
969
970
964
957
956
959
964
967
963
960
958
960
964
962
960
957
957
961
962
963
960
958
959
957
958
958
958
956
959
957
957
956
959
958
957
957
958
959
959
955
955
960
962
962
962
957
955
954
958
959
957
958
957
957
960
960
959
958
956
960
965
963
965
958
960
963
966
964
966
963
964
967
965
963
964
962
963
968
970
972
968
968
970
975
979
979
975
970
966
971
979
978
976
975
978
984
986
988
989
987
993
997
1002
1003
1003
1002
1007
1013
1021
1028
1030
1030
1032
1033
1034
1029
1021
1018
1020
1017
1016
1011
1007
1004
1002
1000
1001
998
993
990
993
994
998
998
998
998
996
995
999
1000
1000
999
998
1009
1026
1050
1081
1120
1165
1208
1240
1258
1263
1258
1249
1229
1197
1140
1074
1014
986
988
995
997
989
985
984
984
984
982
977
974
972
970
971
970
966
964
962
963
967
966
965
960
962
964
967
967
965
962
963
967
968
968
965
964
964
968
969
969
967
966
966
967
972
973
973
971
973
974
974
976
977
975
976
976
982
985
984
981
980
983
986
991
991
990
989
994
999
1002
1002
999
1000
1002
1010
1014
1015
1015
1017
1022
1027
1028
1028
1028
1031
1038
1042
1042
1039
1037
1041
1044
1043
1044
1043
1041
1041
1041
1041
1040
1037
1032
1028
1029
1029
1027
1022
1016
1013
1011
1012
1008
1002
997
993
992
994
991
986
981
979
979
979
977
974
972
968
967
969
967
964
960
960
963
966
964
963
960
959
957
963
965
962
958
961
963
964
964
963
962
960
962
967
966
965
962
962
964
969
970
967
968
968
969
973
973
972
968
970
971
973
974
974
972
969
973
975
974
970
970
969
969
972
970
966
964
964
964
966
966
961
960
957
961
963
963
958
955
954
956
961
958
955
955
952
954
955
955
951
949
950
948
948
948
949
947
947
949
950
950
945
944
942
946
947
949
944
944
942
942
945
947
943
940
940
942
943
944
943
940
938
940
941
943
939
937
934
939
941
942
941
935
937
940
939
939
939
937
934
941
943
940
941
938
936
936
940
940
936
934
934
934
938
939
937
934
931
933
936
938
936
935
934
936
941
939
939
938
938
943
945
947
946
943
946
955
960
964
965
966
968
976
985
990
991
989
988
989
988
984
980
973
973
969
966
964
959
949
946
950
950
945
944
940
940
942
945
946
946
946
946
944
949
947
947
947
948
951
960
977
1003
1033
1083
1136
1183
1218
1237
1244
1242
1231
1205
1161
1096
1021
963
937
936
940
937
930
929
927
930
931
930
924
921
919
923
921
917
911
908
909
909
912
911
907
907
910
915
914
911
909
912
915
919
918
917
913
915
919
920
923
922
919
919
919
927
926
923
921
924
926
929
929
928
926
929
933
937
937
937
935
937
940
944
948
945
947
948
950
958
961
961
962
962
967
968
974
971
978
981
987
991
995
996
995
996
1004
1012
1013
1011
1017
1019
1024
1029
1032
1029
1028
1030
1028
1033
1031
1032
1027
1023
1023
1022
1019
1014
1012
1008
1008
1006
1003
997
989
986
983
981
979
971
969
967
963
964
964
957
954
952
949
953
953
948
944
942
943
946
942
939
936
938
940
942
944
943
938
936
939
943
941
940
938
943
945
948
946
945
946
945
949
951
953
951
946
948
953
957
957
957
953
955
959
960
960
957
954
957
959
961
961
955
954
958
962
963
963
960
956
956
956
957
958
958
951
955
953
958
955
954
946
946
946
948
954
952
949
949
950
952
953
946
944
944
948
949
946
940
935
937
940
943
944
943
939
939
942
945
943
944
939
942
943
946
945
942
938
937
942
943
947
945
941
943
942
946
946
944
943
941
944
947
948
948
946
946
949
952
952
949
943
947
948
954
954
949
950
948
952
957
960
960
961
961
966
972
972
975
975
977
985
990
998
1001
1002
1002
1007
1010
1011
1002
997
994
991
989
985
980
974
971
967
967
964
961
958
957
958
960
958
957
958
959
962
965
965
964
962
963
971
988
1011
1047
1093
1150
1199
1234
1254
1261
1254
1241
1217
1169
1104
1026
967
947
953
963
958
955
951
949
950
951
946
940
937
932
935
934
934
933
930
928
929
935
934
933
929
930
931
932
934
932
930
930
934
935
936
936
933
932
932
938
937
939
935
936
941
940
943
942
943
943
946
952
951
954
948
950
954
960
964
963
962
965
970
973
973
975
976
979
986
989
993
993
994
994
1001
1005
1009
1010
1011
1017
1021
1028
1033
1033
1032
1037
1042
1045
1048
1049
1047
1047
1050
1052
1052
1048
1044
1044
1043
1043
1039
1033
1026
1024
1022
1021
1016
1010
1006
1001
997
999
995
989
984
982
983
982
977
975
971
970
972
972
970
967
960
959
960
965
964
962
959
956
958
962
962
962
959
958
960
963
965
965
961
959
963
967
969
967
965
968
971
974
976
971
970
968
970
974
977
973
972
970
972
977
980
980
977
975
979
981
978
979
973
975
979
977
979
978
974
976
975
977
980
979
970
971
973
976
977
975
972
972
972
975
971
969
965
965
966
970
967
968
965
964
965
965
965
966
964
962
966
966
968
964
964
962
961
965
964
964
963
959
961
965
969
966
961
959
961
961
964
960
959
958
962
965
965
960
958
960
963
965
966
964
960
959
962
964
969
965
963
967
970
976
978
977
977
974
983
991
992
993
993
1000
1006
1016
1020
1021
1018
1016
1022
1021
1019
1013
1004
998
994
992
989
983
976
973
972
971
973
971
969
969
971
973
976
975
973
973
973
975
977
987
1008
1048
1107
1168
1222
1256
1274
1279
1273
1252
1208
1145
1064
996
965
968
976
975
965
963
963
965
965
956
953
947
949
951
946
945
941
942
942
945
944
942
941
938
939
943
945
944
938
936
941
947
945
945
942
942
945
948
951
952
948
949
953
954
957
956
954
957
959
962
965
967
961
961
970
975
976
975
974
975
980
982
986
985
986
988
995
999
1000
1004
1006
1012
1017
1019
1023
1024
1024
1030
1033
1040
1043
1041
1042
1044
1045
1048
1050
1051
1048
1048
1048
1050
1048
1043
1036
1031
1032
1033
1030
1027
1022
1016
1013
1013
1009
1002
997
992
992
992
989
983
978
975
976
976
975
972
967
966
968
966
967
965
961
962
964
963
962
960
958
955
960
960
964
961
958
961
964
963
966
966
961
965
966
966
970
966
967
967
970
972
974
973
971
971
973
976
977
976
974
972
974
977
977
973
972
972
972
978
978
978
972
971
971
977
978
975
972
970
971
971
973
972
969
967
968
966
965
964
964
961
963
966
965
965
962
964
963
964
969
964
959
959
965
966
967
963
958
959
962
963
963
963
960
956
957
962
959
959
957
958
959
959
960
960
957
954
958
960
963
959
957
957
958
963
962
960
956
955
956
960
963
958
953
954
957
963
963
960
958
957
961
964
964
961
961
959
963
965
969
971
970
972
976
983
987
988
984
988
998
1003
1009
1013
1015
1015
1020
1024
1025
1021
1016
1012
1011
1005
999
993
986
979
976
975
971
969
967
967
969
971
970
970
968
964
969
971
969
968
966
971
977
1003
1034
1075
1128
1184
1231
1262
1279
1280
1268
1247
1205
1143
1061
989
952
956
965
968
968
960
955
957
956
955
952
947
944
940
943
944
943
941
938
938
937
942
942
939
934
935
939
942
942
942
939
939
943
945
948
944
942
942
944
944
948
947
945
947
951
952
951
950
951
951
953
959
960
961
958
960
962
969
969
970
967
970
974
979
983
984
984
986
989
994
1000
1002
1002
1005
1010
1018
1020
1022
1019
1024
1030
1033
1034
1037
1036
1041
1046
1048
1048
1044
1046
1044
1047
1050
1047
1047
1041
1038
1037
1035
1033
1027
1022
1018
1017
1011
1011
1005
997
996
992
994
991
986
981
977
977
979
975
971
969
967
970
970
969
966
959
957
959
960
962
961
959
957
957
957
961
961
956
960
962
964
963
963
961
963
966
968
970
966
966
964
967
970
973
972
970
967
972
972
976
974
971
972
974
975
975
974
972
971
975
977
974
973
968
971
973
974
975
972
970
969
970
971
971
966
962
963
966
967
967
965
965
963
962
963
962
958
958
959
963
962
962
959
957
957
957
961
960
958
954
951
953
956
955
956
953
950
955
958
958
955
954
954
952
957
957
956
952
951
952
955
957
953
951
950
955
955
957
956
952
950
954
956
957
953
951
948
953
958
958
955
952
953
955
955
954
957
954
950
957
962
961
961
958
959
961
966
968
969
968
971
976
984
988
988
988
990
1000
1006
1009
1011
1010
1009
1014
1016
1015
1006
1000
993
987
986
985
977
972
964
967
968
969
966
960
963
964
966
968
968
966
965
968
970
977
988
1011
1052
1107
1168
1219
1262
1281
1294
1289
1273
1231
1156
1066
985
948
953
963
962
954
948
948
954
952
947
942
940
940
942
939
940
935
935
936
939
937
935
934
935
937
939
940
941
937
938
940
941
941
941
940
936
941
943
945
946
941
938
946
949
951
952
948
949
952
956
962
959
960
961
962
967
967
969
968
969
974
980
979
981
984
984
990
995
1000
1002
1002
1007
1012
1018
1022
1025
1026
1029
1036
1040
1045
1044
1046
1049
1053
1054
1056
1055
1053
1055
1055
1054
1054
1051
1046
1043
1041
1041
1038
1031
1025
1020
1020
1016
1014
1008
1002
996
996
993
992
986
981
979
979
978
976
972
968
965
966
965
962
960
961
957
962
962
963
959
956
955
955
962
963
960
961
960
962
966
965
965
965
964
964
968
968
969
966
966
969
973
978
976
974
975
977
982
981
980
979
979
977
984
984
981
980
980
981
984
983
981
977
979
981
984
985
981
978
977
977
979
979
