993
990
990
989
984
977
972
969
967
970
968
964
960
960
960
962
961
960
959
957
959
961
960
957
954
958
959
961
961
956
955
955
959
962
962
958
957
955
959
965
965
964
963
963
966
971
967
966
968
968
971
976
979
977
976
979
981
987
988
990
986
991
996
1000
1003
1003
1003
1009
1012
1018
1021
1025
1027
1029
1036
1043
1045
1044
1047
1053
1056
1064
1067
1065
1067
1069
1073
1077
1077
1075
1077
1073
1075
1079
1078
1072
1066
1062
1064
1066
1061
1056
1050
1048
1047
1045
1042
1037
1030
1022
1022
1021
1018
1011
1008
1001
1005
1006
1004
998
995
989
989
990
990
986
983
981
983
983
982
977
975
974
975
978
977
972
971
973
973
973
975
971
969
969
967
969
971
968
969
968
970
973
972
969
965
970
970
972
972
968
966
969
973
976
975
973
967
969
972
975
973
971
968
970
973
976
974
973
969
968
971
974
973
969
965
966
969
972
969
969
965
965
966
972
969
964
961
962
965
970
966
967
963
963
964
964
964
963
958
962
964
965
967
964
962
962
965
966
967
966
961
963
964
966
967
964
962
963
963
968
967
965
964
961
963
970
967
966
966
965
965
970
969
967
964
963
969
970
970
968
965
967
970
973
973
970
966
969
969
974
974
971
972
972
975
978
979
977
975
973
978
983
981
975
975
977
981
982
984
981
978
983
983
987
985
983
981
985
989
991
994
992
991
994
999
1005
1005
1004
1006
1007
1013
1020
1021
1021
1019
1020
1022
1023
1022
1020
1018
1015
1016
1016
1013
1009
1005
1005
1006
1008
1009
1002
1000
999
999
1003
1004
1003
999
1004
1006
1010
1012
1011
1010
1011
1016
1022
1029
1043
1062
1096
1134
1171
1196
1214
1219
1222
1215
1200
1170
1122
1069
1025
1009
1010
1008
1001
993
990
991
994
992
989
987
985
982
984
983
981
976
978
980
981
979
977
973
974
977
980
978
973
973
974
976
979
978
976
975
974
977
980
978
974
975
977
979
982
984
983
980
981
983
986
988
984
985
985
986
992
989
990
992
993
994
1000
1002
1000
1001
999
1005
1010
1007
1010
1011
1011
1015
1021
1022
1024
1021
1025
1031
1036
1038
1037
1039
1043
1046
1052
1055
1054
1057
1061
1065
1069
1068
1074
1073
1075
1079
1081
1083
1082
1081
1082
1081
1083
1081
1082
1078
1076
1078
1079
1075
1070
1066
1062
1063
1064
1059
1052
1045
1043
1043
1041
1035
1034
1026
1026
1025
1026
1020
1019
1013
1012
1012
1014
1011
1006
1003
1002
1003
1006
1001
999
994
994
998
999
998
996
993
992
994
998
995
995
990
991
992
998
998
995
991
994
998
1001
1000
998
996
996
999
1002
1003
999
998
1001
1002
1007
1002
1000
1001
1001
1004
1005
1006
1002
999
1001
1002
1004
1002
999
998
998
1000
1003
1001
998
994
992
995
997
997
994
992
991
995
992
989
989
990
989
989
990
989
986
988
984
985
990
989
984
984
984
985
987
987
984
982
982
984
984
985
982
978
979
978
981
981
981
978
978
982
984
984
981
977
979
981
983
980
981
977
975
980
982
982
980
976
976
978
982
981
980
978
978
980
982
980
980
977
979
980
982
982
980
978
976
977
982
981
977
977
976
979
983
983
980
978
980
979
982
981
983
979
981
981
986
985
983
980
982
984
988
986
985
985
986
991
991
996
993
993
996
998
1006
1007
1005
1004
1006
1015
1021
1023
1021
1019
1019
1018
1021
1018
1015
1011
1008
1006
1010
1006
1004
1000
998
999
1001
998
994
995
995
999
1002
1002
1000
1000
998
1002
1004
1005
1000
997
1003
1019
1044
1081
1122
1161
1195
1224
1242
1248
1244
1234
1217
1187
1143
1081
1031
1011
1010
1014
1011
1004
999
996
994
993
993
987
983
981
980
979
980
979
975
967
971
972
977
972
970
967
970
968
973
972
971
968
969
971
975
972
969
967
968
971
973
974
970
968
969
974
975
976
972
971
975
978
980
982
979
979
979
981
988
989
987
986
988
992
996
999
997
997
1001
1004
1009
1012
1011
1012
1015
1020
1024
1025
1031
1029
1030
1036
1044
1048
1047
1049
1052
1061
1065
1067
1068
1070
1073
1075
1082
1081
1082
1079
1082
1084
1088
1082
1081
1079
1076
1073
1077
1072
1068
1063
1055
1055
1056
1050
1045
1041
1037
1032
1035
1031
1025
1022
1017
1016
1018
1013
1009
1003
1002
1003
1004
1003
997
994
992
993
992
993
989
986
984
986
987
988
983
981
979
981
984
984
982
981
979
982
984
980
981
979
977
983
985
984
983
978
977
982
983
983
981
979
981
984
985
985
983
979
980
984
987
982
983
980
983
987
989
986
983
983
981
984
986
984
979
980
979
980
984
984
982
979
977
980
982
981
979
976
975
978
982
980
976
972
975
976
979
978
975
973
972
974
977
978
974
969
970
974
976
976
977
973
970
972
977
975
970
969
971
973
975
973
972
971
969
973
978
975
974
972
972
972
976
975
973
969
970
972
975
975
971
970
971
973
977
974
971
971
970
973
975
974
973
970
970
971
974
974
972
969
970
970
977
973
971
970
971
973
975
974
971
970
971
974
975
976
975
972
973
977
978
978
979
975
981
981
985
985
985
983
986
990
996
995
993
996
999
1004
1012
1014
1014
1009
1007
1009
1011
1007
1005
1001
998
998
999
997
994
991
989
990
990
991
986
986
986
989
992
994
994
992
993
995
999
995
992
990
1002
1018
1053
1096
1138
1176
1206
1224
1233
1228
1213
1185
1141
1083
1034
1007
1004
1000
995
994
993
986
984
980
976
973
976
975
969
966
966
967
965
965
963
959
960
961
962
960
960
956
956
960
964
963
961
957
959
960
964
965
964
961
963
965
967
967
966
962
963
968
971
969
969
969
970
974
977
979
978
977
977
979
983
986
986
987
990
992
1000
998
999
998
1004
1009
1015
1015
1020
1019
1024
1029
1034
1036
1039
1041
1043
1048
1059
1060
1061
1062
1063
1068
1071
1073
1074
1070
1070
1075
1076
1075
1074
1069
1066
1065
1065
1063
1056
1053
1047
1045
1046
1040
1034
1030
1026
1025
1026
1017
1012
1007
1007
1005
1005
1003
998
994
991
992
995
993
988
983
984
983
984
983
982
976
977
978
979
978
978
976
976
977
980
979
975
973
972
977
979
976
973
974
975
976
980
980
977
973
975
977
980
981
979
977
976
980
981
982
979
975
976
978
982
982
981
977
980
976
981
983
979
977
977
978
976
976
976
975
977
976
977
980
974
971
969
972
976
975
971
969
970
971
970
971
970
967
968
971
970
969
968
966
965
968
971
970
968
964
966
966
971
969
969
963
962
963
966
968
965
964
966
967
969
968
968
966
966
967
970
970
969
966
967
966
968
967
962
962
964
965
966
968
969
968
966
968
970
971
969
968
969
972
972
973
969
967
968
970
974
974
971
970
970
972
977
976
975
971
972
975
977
976
976
977
977
982
988
987
986
987
991
995
1000
1001
1000
1002
1008
1015
1020
1021
1017
1013
1014
1014
1014
1012
1013
1007
1004
1005
1008
1004
1002
996
994
996
1001
1000
1002
1000
1001
1004
1010
1012
1010
1010
1011
1012
1018
1022
1032
1053
1087
1129
1169
1202
1218
1225
1229
1224
1213
1185
1142
1087
1039
1015
1017
1016
1011
1005
999
1000
1003
1000
993
992
990
989
994
992
989
986
985
984
987
988
985
984
981
984
986
987
985
982
982
984
987
986
984
983
982
984
986
989
989
988
989
990
991
992
992
988
994
997
1001
999
999
998
999
1004
1006
1003
1005
1006
1007
1013
1017
1021
1019
1019
1017
1026
1031
1033
1030
1031
1036
1041
1047
1049
1051
1052
1057
1063
1067
1072
1072
1073
1074
1079
1085
1087
1085
1087
1085
1089
1092
1090
1088
1085
1084
1084
1084
1081
1079
1074
1069
1068
1067
1063
1058
1049
1046
1045
1046
1041
1034
1028
1024
1025
1023
1020
1019
1015
1012
1014
1014
1009
1006
1005
1000
1000
1004
1002
1000
997
995
997
999
998
996
994
993
994
998
999
997
993
993
995
997
998
999
994
994
997
998
1004
1000
999
998
1002
1005
1007
1001
997
996
1001
1003
1005
1004
1001
1001
1003
1005
1004
1004
1000
997
1001
1003
1001
1000
996
997
997
1000
998
997
994
991
993
996
993
993
989
989
992
990
990
989
985
986
986
990
990
987
986
983
985
989
985
985
983
980
983
988
982
983
981
981
981
984
983
981
979
977
981
982
982
981
978
978
981
983
983
981
977
977
978
983
984
980
978
979
982
985
984
980
978
979
981
984
984
981
979
978
980
985
983
981
980
982
980
986
988
983
981
980
982
983
987
986
984
987
987
993
994
994
995
995
999
1004
1006
1005
1006
1009
1016
1022
1022
1022
1019
1016
1017
1021
1017
1016
1011
1008
1009
1008
1006
1002
999
999
1001
1002
1004
1003
999
999
1002
1005
1005
1005
1003
1001
1001
1005
1010
1020
1040
1076
1119
1164
1197
1216
1225
1225
1223
1214
1189
1143
1085
1034
1017
1019
1017
1011
1005
1001
1000
1000
997
990
984
982
983
985
984
980
975
975
975
979
977
975
972
968
971
978
974
971
968
968
968
973
972
972
973
971
973
975
978
976
974
974
976
979
980
979
976
978
982
985
984
985
984
984
988
992
991
990
991
997
1000
1003
1003
1004
1006
1006
1013
1020
1021
1018
1023
1026
1033
1040
1038
1040
1042
1048
1056
1060
1064
1066
1064
1068
1076
1078
1080
1081
1082
1082
1082
1087
1085
1084
1080
1079
1080
1077
1078
1072
1067
1063
1062
1061
1057
1052
1047
1044
1041
1039
1037
1028
1025
1021
1022
1023
1021
1014
1010
1007
1006
1008
1004
1003
1001
998
997
998
998
993
990
988
990
994
992
989
988
987
986
990
988
985
982
978
984
985
984
984
981
982
983
988
987
984
982
981
985
987
990
987
983
985
987
991
989
988
986
986
991
991
992
989
987
990
991
992
990
990
988
986
990
993
990
987
987
984
985
990
989
987
984
984
986
990
988
986
985
984
987
988
988
987
984
983
985
984
988
986
985
983
985
987
983
979
978
979
978
984
982
981
978
978
980
982
982
979
980
980
982
984
984
982
980
978
979
983
984
982
980
980
979
981
981
979
977
979
980
982
981
976
977
978
981
983
983
980
979
977
979
982
982
982
980
980
982
983
985
981
980
980
983
987
984
984
979
982
984
987
987
984
983
985
988
991
987
991
988
987
991
995
994
994
994
997
1002
1007
1006
1007
1007
1003
1011
1019
1022
1022
1022
1018
1022
1023
1022
1019
1012
1012
1013
1014
1012
1006
1001
1003
1005
1006
1007
1001
1000
1002
1006
1009
1008
1006
1005
1007
1008
1007
1009
1007
1007
1018
1046
1082
1123
1163
1195
1219
1233
1240
1238
1228
1212
1180
1142
1089
1044
1021
1021
1019
1014
1013
1008
1003
1001
996
994
996
991
986
978
976
980
982
979
977
974
974
976
977
977
973
972
972
972
975
975
974
971
970
974
976
977
974
971
971
975
978
978
974
973
976
979
982
981
980
980
980
985
987
989
990
989
988
989
994
996
995
993
995
1002
1006
1010
1004
1005
1009
1012
1019
1020
1021
1021
1024
1030
1035
1038
1039
1041
1042
1050
1054
1059
1060
1061
1065
1071
1076
1079
1081
1081
1084
1086
1091
1095
1092
1088
1088
1091
1094
1093
1091
1085
1083
1083
1080
1078
1075
1070
1067
1066
1064
1059
1055
1050
1048
1046
1045
1043
1037
1029
1026
1028
1028
1023
1020
1016
1014
1016
1011
1011
1006
1004
1003
1003
1006
1004
1000
995
994
996
997
996
993
992
988
991
993
992
986
983
987
985
990
989
987
983
984
986
988
987
984
983
983
985
989
989
984
982
982
984
987
987
984
984
985
986
989
987
989
981
986
989
990
991
989
986
986
989
990
987
988
985
983
983
988
986
984
982
982
983
987
985
985
979
981
986
988
985
981
981
981
984
985
986
984
979
979
980
983
984
982
977
976
978
981
981
979
976
974
976
981
980
978
974
974
977
979
980
976
976
975
977
980
978
978
977
975
976
979
979
977
975
972
974
980
979
978
975
976
977
981
979
978
974
975
975
976
977
975
971
974
973
978
979
975
973
975
975
978
979
977
974
975
977
980
977
975
975
975
978
979
978
977
973
974
973
980
981
978
976
977
979
979
979
975
974
973
979
980
980
979
977
977
979
983
983
984
980
980
984
986
986
985
981
981
988
991
990
987
988
990
996
1000
1003
1004
1003
1005
1010
1017
1018
1019
1017
1013
1016
1019
1018
1012
1009
1008
1007
1010
1006
1003
999
996
1001
1000
1001
999
998
997
999
1002
1003
999
999
1001
1006
1008
1006
1003
1001
1002
1011
1026
1053
1086
1125
1165
1199
1219
1228
1226
1223
1212
1188
1150
1091
1032
1002
1002
1005
1006
996
993
987
988
990
991
988
986
980
979
980
982
980
976
974
974
976
978
979
975
973
972
974
979
981
975
974
976
979
980
980
977
977
978
980
985
982
983
981
982
984
989
989
988
986
988
991
994
997
992
992
992
997
1000
1001
1000
998
1000
1006
1011
1014
1012
1010
1013
1019
1024
1026
1028
1029
1032
1035
1042
1045
1045
1044
1050
1053
1059
1063
1065
1065
1067
1073
1076
1082
1083
1080
1083
1089
1091
1093
1093
1092
1092
1094
1096
1095
1093
1086
1087
1086
1089
1084
1079
1073
1069
1068
1067
1062
1056
1051
1047
1043
1042
1039
1032
1028
1026
1024
1023
1021
1016
1011
1010
1011
1010
1008
1003
999
998
997
998
998
992
993
988
989
993
989
989
985
987
987
990
989
988
986
984
986
990
991
990
986
990
990
995
994
993
991
988
997
999
1001
999
995
997
999
1000
1002
999
996
997
999
1004
1004
1000
997
994
998
1002
1000
998
996
996
996
999
996
992
992
993
992
996
995
992
990
987
990
989
988
988
983
987
988
989
988
989
985
983
982
986
987
982
981
982
983
987
983
981
981
981
980
981
984
979
977
977
981
983
984
979
976
977
977
982
980
979
974
976
978
981
980
979
972
973
977
977
978
977
978
974
977
977
979
975
974
974
977
979
977
973
974
972
977
981
978
978
974
973
977
980
974
974
973
973
976
980
980
976
975
975
978
980
980
977
977
978
980
981
979
980
980
975
981
984
985
985
982
982
987
991
992
993
993
996
1000
1004
1004
1005
1003
1004
1010
1014
1016
1013
1009
1009
1008
1013
1013
1009
1003
1004
1003
1004
1001
998
995
991
992
994
995
994
994
992
994
995
997
996
994
996
998
1002
999
995
992
995
1004
1025
1050
1088
1126
1166
1196
1219
1225
1226
1218
1207
1192
1168
1113
1054
1014
1001
1006
1008
1003
995
991
986
988
987
984
977
974
970
971
973
968
966
963
960
963
967
962
959
957
957
959
963
961
959
953
955
958
963
960
957
959
958
960
963
964
960
960
961
964
968
970
965
960
966
967
973
972
971
969
970
974
976
975
974
973
976
980
984
985
985
983
988
991
994
996
999
996
1001
1005
1011
1015
1016
1018
1020
1022
1030
1034
1037
1036
1040
1047
1053
1058
1058
1058
1062
1066
1070
1073
1073
1073
1074
1076
1081
1080
1078
1075
1073
1071
1074
1069
1066
1060
1057
1056
1054
1050
1043
1038
1034
1033
1030
1028
1024
1017
1013
1014
1012
1009
1004
1000
996
997
997
995
991
986
983
982
987
983
980
975
974
976
979
976
974
968
969
969
972
970
969
963
966
966
970
969
966
964
963
966
966
966
964
963
962
965
967
967
965
965
965
967
971
970
970
967
969
969
973
972
969
969
969
971
974
973
974
971
970
971
974
973
972
969
969
971
974
973
971
969
970
967
973
970
969
965
966
968
972
969
970
965
965
968
971
970
971
966
964
967
969
967
968
964
963
966
967
965
967
965
967
966
970
967
966
963
964
966
970
968
964
964
966
969
972
972
970
967
967
968
971
972
969
965
963
965
969
968
967
966
967
968
968
969
964
964
966
966
969
969
968
966
967
967
972
971
970
967
967
969
970
972
973
969
967
969
972
972
970
966
967
969
972
970
970
967
967
971
973
974
972
970
970
976
975
977
976
972
973
975
977
981
980
976
979
982
988
989
989
986
988
988
994
996
997
997
1000
1008
1006
1006
1004
1001
1000
1001
1003
1000
995
994
993
992
992
992
990
986
985
985
989
990
989
984
983
987
992
992
991
986
988
992
992
993
1001
1016
1047
1089
1134
1169
1193
1208
1211
1213
1206
1189
1159
1109
1055
1018
1006
1003
1004
998
992
990
991
987
983
975
971
973
973
972
965
961
957
960
964
960
960
956
956
955
958
955
955
954
950
954
959
959
957
952
953
958
961
959
961
956
956
960
960
962
960
959
960
964
966
968
966
964
966
969
970
973
970
971
972
973
978
981
977
979
982
987
993
993
993
992
997
1001
1008
1007
1009
1009
1014
1019
1027
1026
1027
1029
1031
1039
1046
1048
1050
1052
1053
1058
1063
1067
1068
1067
1068
1072
1075
1077
1074
1068
1066
1067
1068
1064
1060
1054
1053
1049
1049
1047
1040
1031
1029
1029
1028
1022
1019
1014
1011
1010
1009
1006
1003
995
997
992
995
992
989
986
985
985
983
983
982
981
977
978
978
977
973
970
968
970
973
972
968
968
965
964
969
970
967
965
965
966
969
967
963
961
958
963
966
968
965
962
962
964
968
967
967
962
964
967
970
970
967
967
965
967
971
970
969
967
967
968
971
970
971
967
966
966
969
970
964
964
964
966
968
967
967
964
963
965
969
964
963
961
960
965
966
966
963
960
960
962
966
966
962
960
959
961
965
964
960
960
960
960
963
963
958
957
959
962
964
962
962
957
957
959
964
963
962
959
959
961
963
962
960
960
959
959
963
963
960
960
960
962
966
965
961
959
958
961
965
965
961
959
960
962
964
965
962
958
959
963
965
965
965
959
960
963
967
967
963
964
962
964
967
964
965
963
965
965
970
970
970
965
967
970
974
973
975
973
972
975
978
980
981
976
980
985
990
994
993
992
995
998
1002
1004
1003
1001
1001
1002
1004
1004
998
995
993
992
990
992
987
985
980
984
985
986
984
981
979
983
984
988
986
986
986
988
991
987
984
