1399
1410
1403
1385
1344
1255
1127
999
882
874
909
931
934
925
928
932
935
935
929
925
922
923
924
926
927
925
924
926
925
925
923
920
920
923
923
925
925
926
925
926
928
932
932
932
929
930
935
938
937
934
933
937
941
944
944
944
944
944
946
950
951
951
951
956
963
968
968
967
965
966
970
977
981
981
983
991
997
1003
1006
1009
1010
1016
1022
1027
1031
1034
1037
1044
1048
1055
1055
1057
1058
1062
1067
1069
1066
1062
1058
1059
1059
1058
1053
1045
1036
1033
1030
1028
1025
1019
1013
1008
1005
1000
993
983
984
981
980
979
972
970
966
966
968
968
964
963
956
955
954
955
955
953
951
953
955
958
954
950
950
950
950
953
953
953
954
955
956
960
960
958
960
962
964
967
964
960
960
963
964
969
968
965
970
972
977
974
974
973
972
973
974
972
975
972
970
971
974
977
975
972
968
966
966
969
969
968
967
965
967
967
963
956
954
960
961
963
962
961
959
965
968
969
966
960
956
956
955
955
951
950
949
950
952
956
957
953
953
955
959
961
955
951
949
948
952
954
954
954
949
950
953
954
952
953
950
952
955
957
956
957
955
956
956
958
959
958
957
961
963
967
966
964
966
970
976
982
984
985
988
991
998
1005
1017
1022
1027
1029
1029
1026
1028
1024
1026
1021
1013
1001
989
985
981
976
967
963
959
956
954
956
956
957
958
952
951
952
954
954
944
933
925
931
952
995
1065
1158
1255
1336
1385
1407
1407
1384
1333
1231
1103
975
873
885
924
942
941
938
937
938
936
933
937
936
935
929
924
927
931
933
931
926
927
926
929
932
929
929
932
936
936
934
927
923
926
933
939
940
938
935
934
933
938
939
941
940
944
948
953
958
955
948
947
953
960
964
964
966
965
965
968
972
971
972
978
980
986
988
989
989
993
1002
1011
1016
1016
1014
1018
1026
1030
1036
1034
1038
1044
1050
1058
1058
1059
1059
1061
1064
1062
1060
1059
1058
1052
1048
1047
1044
1039
1031
1024
1022
1021
1014
1009
1003
1000
999
994
991
987
982
979
981
981
983
980
982
984
983
974
965
958
954
956
955
959
959
958
952
950
951
951
954
953
949
949
950
957
963
968
966
959
955
954
955
957
956
958
962
966
969
966
960
962
962
966
970
965
963
964
963
967
969
968
967
967
967
972
975
972
969
970
971
973
974
971
968
967
967
969
970
970
967
964
963
966
965
965
960
962
966
970
973
969
967
967
965
968
969
965
964
961
961
964
966
966
964
958
956
958
963
961
960
959
959
957
959
958
957
955
953
951
953
956
959
960
961
963
968
965
959
949
945
946
950
954
958
958
965
977
996
1007
1006
989
958
926
909
915
928
937
948
954
960
970
979
990
1002
1009
1013
1011
1010
1013
1023
1034
1034
1020
997
968
953
949
951
950
945
933
929
925
926
925
927
927
930
934
935
932
926
921
913
903
904
923
963
1035
1130
1224
1300
1354
1381
1387
1380
1346
1276
1159
1031
915
870
888
921
922
915
910
915
922
930
928
924
917
910
911
913
910
895
888
888
892
898
899
896
896
901
909
920
930
932
921
910
899
907
919
922
927
927
923
918
903
898
914
936
948
943
942
941
930
901
876
868
877
881
881
878
881
888
896
900
903
908
915
922
930
939
944
952
966
994
1012
1000
962
924
920
942
972
983
967
939
921
925
939
960
970
973
981
993
1000
1000
999
1006
1012
1014
1013
1008
1008
1011
1017
1013
1014
1009
1008
1013
1023
1039
1048
1045
1024
991
969
961
959
956
944
933
925
925
930
938
941
935
935
938
959
968
964
957
958
969
978
973
956
938
929
927
922
904
874
872
893
915
924
923
922
927
935
938
939
938
938
939
946
950
950
955
968
978
982
970
951
936
933
939
950
955
954
956
965
971
974
978
979
973
948
925
921
926
933
941
941
950
958
960
962
962
963
966
968
964
964
971
968
964
954
951
944
942
943
950
958
966
970
970
971
967
951
932
926
932
942
953
963
970
968
959
945
941
947
961
961
946
936
939
945
951
948
948
951
954
958
958
954
949
945
950
950
952
955
956
960
965
971
977
981
985
984
985
995
1009
1022
1024
1008
984
964
964
972
983
994
1000
1013
1019
1013
1004
998
996
986
975
970
975
979
982
970
954
933
935
941
946
948
949
953
954
950
944
943
946
938
922
911
912
940
992
1071
1161
1250
1324
1377
1402
1407
1391
1353
1290
1195
1070
947
879
882
912
930
926
910
910
917
926
930
929
930
924
925
931
946
960
956
941
930
918
910
908
909
910
910
914
914
912
909
910
914
921
923
927
930
930
928
928
929
936
938
941
945
951
958
958
943
924
916
924
937
948
951
949
955
972
980
974
959
948
948
952
956
960
968
972
970
978
989
990
964
944
943
961
978
989
995
1001
1006
1011
1006
1002
1002
1008
1018
1024
1029
1034
1036
1028
1019
1023
1040
1056
1058
1055
1054
1051
1041
1042
1048
1052
1043
1033
1020
1020
1016
1009
1004
1006
1009
1003
997
989
987
989
992
988
984
979
972
978
986
991
987
968
953
948
952
964
968
959
953
957
961
955
942
933
934
939
942
944
944
946
946
944
942
943
943
944
945
949
952
957
958
962
963
963
953
953
955
959
961
970
977
986
990
979
960
951
954
968
978
972
962
961
968
973
976
973
971
971
977
976
973
974
968
970
971
972
973
971
968
967
972
972
970
965
963
965
968
966
966
966
966
968
975
980
987
986
974
957
949
949
947
947
950
951
953
954
955
952
952
957
958
959
956
949
949
951
952
957
957
954
950
950
955
959
954
954
951
954
958
962
952
952
947
947
954
959
963
962
963
963
969
972
973
974
977
985
993
1004
1010
1008
1010
1011
1014
1020
1018
1013
1003
996
987
986
980
974
961
959
958
958
953
953
953
957
964
966
961
951
944
943
943
944
944
943
937
944
962
994
1037
1096
1167
1240
1302
1338
1354
1352
1335
1297
1235
1150
1048
954
901
900
926
944
945
940
938
935
944
950
945
931
919
916
919
918
923
919
924
925
927
925
926
926
929
932
933
937
931
916
909
911
921
925
924
916
914
917
921
926
926
926
931
931
932
933
924
925
931
937
944
949
952
945
938
930
932
944
954
955
953
951
948
950
951
955
958
966
976
984
986
985
980
979
981
989
994
996
1001
1014
1024
1030
1029
1023
1022
1030
1040
1042
1034
1027
1033
1038
1034
1025
1020
1021
1026
1027
1026
1032
1030
1025
1014
1009
1010
1009
1005
1003
1000
1000
999
1000
990
979
976
974
977
970
962
958
961
961
956
955
957
960
958
954
950
945
937
936
940
945
949
951
952
950
951
956
961
967
963
954
953
951
955
962
966
964
958
953
949
944
943
942
946
950
955
960
963
963
965
967
969
972
972
970
967
964
971
978
982
982
978
982
984
978
965
951
944
950
959
968
970
967
966
962
965
969
970
972
964
959
955
954
958
960
963
961
965
966
967
964
957
954
954
957
957
959
959
958
955
955
950
946
943
948
952
958
960
957
952
942
941
943
943
945
945
949
951
956
957
957
956
958
966
972
972
961
945
936
937
940
947
947
952
955
959
967
969
971
971
978
987
995
989
985
991
1000
1011
1018
1018
1014
1014
1018
1021
1016
999
983
975
976
975
968
953
941
937
942
950
956
958
958
958
957
956
957
960
961
958
954
945
939
936
942
954
985
1035
1113
1196
1269
1312
1334
1342
1336
1309
1262
1184
1086
992
931
917
922
924
929
934
933
933
931
935
941
937
926
915
908
901
906
911
917
916
915
913
914
912
911
912
911
913
916
920
922
921
920
920
924
925
927
929
927
925
925
929
934
936
935
932
933
938
936
928
921
921
929
942
947
949
945
947
951
951
945
938
940
944
948
956
963
967
969
969
973
979
986
989
994
996
998
1000
1004
1003
1003
1007
1018
1025
1025
1017
1016
1020
1028
1031
1034
1027
1026
1026
1027
1020
1013
1008
1007
1005
1005
1008
1005
1002
995
991
985
984
986
984
984
978
966
956
950
944
948
948
951
949
943
939
935
940
943
938
930
923
922
924
925
929
934
934
928
924
921
930
934
938
932
931
934
933
936
937
935
937
942
942
941
927
926
926
935
946
952
942
931
926
932
939
946
950
948
945
944
946
948
951
946
935
936
940
946
940
932
928
934
942
945
944
940
937
935
940
944
945
941
939
941
945
949
944
940
937
946
954
955
946
930
919
915
917
921
925
928
927
929
930
935
935
934
934
936
934
938
933
928
921
919
927
930
934
932
930
931
934
934
933
937
937
937
938
933
931
933
943
953
960
955
945
944
952
967
975
981
981
977
976
974
978
989
991
985
980
975
968
961
955
951
950
946
944
945
940
938
935
933
938
940
944
942
926
918
922
932
938
941
937
943
954
979
1011
1062
1135
1216
1281
1315
1328
1321
1305
1263
1198
1105
1000
916
878
870
873
882
895
903
906
908
911
918
919
920
921
925
929
924
922
918
914
911
917
924
923
917
917
924
926
917
903
895
902
913
918
922
927
930
930
930
930
932
931
923
920
923
929
931
934
931
935
939
942
948
946
950
953
957
964
969
968
972
973
972
968
964
967
971
977
984
990
999
1004
1006
1003
1001
1007
1011
1021
1028
1034
1036
1043
1047
1053
1055
1055
1060
1064
1067
1071
1073
1073
1075
1076
1074
1066
1062
1065
1064
1059
1044
1022
1015
1015
1019
1020
1017
1017
1013
1009
1008
1005
987
974
972
978
984
983
979
970
962
958
958
957
958
957
960
961
960
958
959
963
961
955
956
959
961
958
958
962
960
959
959
965
969
968
968
973
981
987
987
981
981
988
996
997
988
988
998
991
982
983
982
971
963
962
961
961
968
977
980
985
985
985
979
975
975
984
986
984
978
980
978
968
964
964
969
969
964
957
959
966
969
963
954
958
958
954
956
957
956
954
946
942
947
951
952
953
954
951
946
951
957
955
957
950
946
948
950
954
954
944
936
933
941
950
955
954
954
955
960
962
960
957
962
963
968
972
977
984
993
1002
1006
1006
1002
999
999
1001
1004
999
993
985
974
967
963
965
962
954
941
938
946
958
956
945
942
942
943
942
940
940
941
938
936
936
942
951
964
997
1058
1154
1250
1319
1359
1381
1386
1374
1329
1243
1131
1007
911
887
903
917
918
910
903
905
909
919
921
922
922
919
924
926
930
931
932
927
919
911
913
919
928
932
932
930
928
919
912
909
921
926
928
936
941
934
929
929
935
939
944
940
939
932
928
921
931
946
954
947
941
943
950
956
952
950
954
962
960
964
970
971
969
963
964
975
988
1000
1002
995
999
1007
1014
1019
1025
1031
1034
1033
1037
1040
1043
1052
1063
1069
1069
1062
1057
1061
1063
1069
1071
1068
1059
1055
1053
1059
1056
1046
1033
1024
1027
1026
1017
1003
996
997
1000
1001
998
993
987
986
978
973
972
973
970
965
963
960
958
953
948
944
946
951
956
956
950
946
948
954
956
958
958
960
962
965
962
951
943
946
949
951
953
956
956
961
965
970
973
976
978
977
977
975
978
981
977
976
979
986
992
990
986
977
975
978
978
978
971
968
972
974
973
972
979
984
981
977
977
980
983
984
977
975
976
973
970
969
971
975
979
982
978
969
966
971
982
985
983
976
970
972
989
995
982
971
965
974
983
989
990
982
985
996
1015
1026
1033
1035
1035
1037
1035
1032
1033
1039
1039
1033
1025
1014
1007
1004
1001
995
991
983
973
975
975
974
970
970
973
975
976
975
978
980
975
965
956
949
951
958
984
1033
1116
1224
1325
1394
1424
1427
1417
1378
1295
1167
1039
914
896
930
950
949
945
949
957
953
957
966
966
966
963
948
939
951
960
960
955
957
965
962
952
953
961
960
948
945
954
961
962
964
970
963
960
960
967
972
965
960
960
966
966
967
968
966
961
967
981
993
994
982
968
965
976
991
1004
1002
993
987
992
1004
1009
1008
1006
1010
1017
1027
1030
1030
1036
1038
1040
1042
1047
1056
1063
1061
1059
1074
1093
1097
1095
1095
1098
1100
1101
1099
1093
1088
1091
1092
1096
1090
1084
1074
1072
1066
1063
1061
1057
1052
1049
1044
1042
1033
1024
1021
1018
1017
1013
1009
1006
1004
1003
1000
999
995
993
987
985
983
985
983
975
973
972
970
972
969
965
966
970
973
970
969
965
964
964
967
969
967
962
959
963
966
969
968
968
977
986
979
974
971
972
975
980
982
986
982
984
979
976
981
990
996
989
983
983
986
992
992
989
983
975
980
988
990
981
974
975
978
982
983
981
980
981
980
980
978
970
972
972
971
975
977
980
975
971
972
974
968
963
965
972
975
977
979
978
978
977
981
983
987
989
986
989
1003
1012
1015
1017
1028
1041
1044
1039
1033
1027
1023
1031
1033
1029
1019
1002
983
977
984
984
977
973
966
963
967
971
961
950
947
953
956
963
969
973
970
963
953
936
930
927
936
964
1013
1097
1202
1301
1369
1408
1421
1416
1394
1341
1243
1115
987
862
869
907
924
922
919
922
927
932
936
939
940
936
936
930
927
928
931
934
934
932
927
927
927
932
937
935
931
935
939
938
928
927
930
934
937
934
938
939
932
923
930
940
942
948
946
944
948
949
952
951
946
942
944
960
965
963
960
964
972
978
977
972
973
978
987
994
996
994
996
1011
1023
1022
1020
1021
1033
1045
1060
1071
1067
1065
1067
1070
1071
1068
1073
1082
1086
1089
1089
1089
1080
1070
1057
1054
1063
1074
1060
1033
1026
1046
1054
1029
996
986
1001
1011
1004
1004
989
965
940
930
954
987
994
980
970
965
957
950
939
932
941
958
958
948
936
924
931
949
950
943
929
930
936
941
933
927
923
927
935
940
934
928
929
939
946
958
962
950
942
933
937
955
973
973
965
962
960
956
956
970
987
989
975
960
952
952
960
981
990
985
970
962
955
950
959
977
981
979
983
991
985
969
956
950
968
996
1009
983
945
919
923
962
992
983
969
946
945
979
1001
998
980
951
924
924
957
985
982
987
1003
1029
1035
1039
1044
1040
1035
1025
1019
1016
1018
1015
999
977
969
976
967
956
965
972
969
960
962
972
974
968
966
967
966
958
947
941
948
961
952
931
920
932
955
998
1059
1140
1229
1313
1358
1383
1398
1399
1382
1336
1239
1115
987
881
845
859
893
915
912
903
903
914
929
935
927
908
896
910
951
980
977
955
927
900
886
907
955
985
985
987
970
939
921
923
928
931
924
930
934
945
957
944
913
901
927
959
966
961
962
968
963
937
910
903
907
913
921
938
956
957
942
950
993
1023
1022
1005
975
964
981
999
999
977
976
996
1020
1030
1038
1034
1029
1030
1036
1034
1030
1032
1050
1083
1110
1109
1098
1090
1090
1088
1094
1097
1094
1105
1113
1103
1093
1087
1091
1083
1069
1055
1046
1051
1059
1070
1060
1038
1024
1023
1021
1016
1011
1001
996
988
965
945
947
966
972
974
976
973
968
962
959
956
962
973
960
939
929
943
961
964
943
915
903
914
924
927
935
951
952
951
952
952
941
932
930
927
919
917
923
928
933
935
938
923
906
908
923
929
921
920
924
934
951
967
966
952
932
921
927
936
941
946
951
955
959
951
936
923
920
926
936
939
935
933
934
936
936
941
943
943
939
941
956
966
947
925
919
926
936
941
927
913
913
926
944
950
930
904
895
914
933
931
920
922
926
928
934
941
950
955
953
949
945
945
945
953
952
954
968
993
1008
1003
990
986
992
1006
1017
1011
988
967
958
956
954
946
927
916
936
944
928
907
908
920
934
948
947
933
925
927
925
913
898
884
885
897
909
905
895
898
928
991
1083
1184
1274
1334
1369
1394
1407
1401
1379
1318
1214
1086
958
838
845
880
900
893
883
886
896
901
900
908
909
902
892
884
886
890
896
899
899
903
902
901
895
889
894
895
894
896
897
899
903
907
909
914
918
920
916
908
902
909
916
921
911
899
894
902
912
915
919
918
918
918
923
929
934
936
940
947
950
947
940
938
942
946
950
955
960
961
958
963
970
984
987
990
992
998
1008
1015
1019
1022
1030
1036
1043
1051
1058
1061
1064
1070
1077
1087
1087
1087
1098
1097
1092
1084
1074
1074
1072
1068
1066
1061
1058
1048
1045
1041
1038
1039
1029
1021
1015
1011
1011
1008
1004
995
985
980
980
982
981
980
975
978
975
963
950
946
951
953
958
962
954
945
938
941
946
946
943
935
933
939
943
936
930
932
934
934
933
933
932
932
933
933
928
927
927
927
926
922
920
919
922
919
923
925
925
931
932
932
934
938
944
943
939
933
925
925
931
937
938
937
937
941
940
940
936
938
941
948
952
953
946
939
934
935
939
943
944
938
935
938
944
944
944
940
941
941
945
948
946
941
936
938
937
938
935
934
934
938
940
941
940
937
937
936
938
941
935
933
931
932
933
934
935
932
934
935
935
940
943
942
940
937
935
933
932
933
932
931
925
926
927
930
930
933
940
942
942
947
955
960
959
954
948
949
958
972
984
994
1001
1005
1000
997
996
996
1001
998
992
989
981
973
968
961
953
953
951
950
946
939
937
940
940
938
932
929
930
933
934
932
927
921
911
902
897
911
939
989
1071
1173
1269
1337
1381
1402
1408
1402
1370
1305
1192
1064
936
858
870
902
915
909
900
906
917
926
925
920
912
913
916
918
912
914
912
914
917
918
914
919
918
917
914
915
916
920
921
923
923
925
925
928
924
924
923
924
924
921
923
924
930
937
937
937
932
934
936
940
940
941
942
945
948
948
