991
989
988
991
994
993
991
992
993
995
999
998
1000
998
999
1002
1004
1011
1019
1036
1064
1102
1146
1178
1199
1209
1210
1205
1192
1164
1122
1074
1028
1006
1005
1003
1000
994
990
992
994
987
984
981
978
977
977
974
969
969
971
970
969
968
966
965
966
966
968
969
965
962
962
965
968
968
965
964
965
967
970
967
966
966
969
969
971
973
971
970
971
972
977
975
975
974
975
981
984
983
982
982
985
988
993
994
992
991
994
998
1003
1000
1001
1002
1006
1010
1014
1014
1014
1014
1016
1023
1026
1025
1025
1023
1026
1029
1032
1033
1029
1027
1028
1028
1031
1029
1025
1024
1022
1023
1022
1019
1016
1010
1007
1007
1009
1005
1000
996
995
995
995
992
987
985
984
987
988
985
979
978
976
979
978
977
975
972
973
973
976
975
973
974
969
973
974
975
976
972
972
980
980
979
975
976
978
981
984
983
982
981
982
984
984
987
986
983
986
989
990
990
987
986
987
989
990
991
988
987
988
990
993
990
988
985
986
989
991
988
986
985
982
986
987
985
983
982
982
984
986
983
979
979
978
983
986
984
979
978
978
978
982
981
976
974
975
977
982
977
975
973
974
974
980
978
974
972
973
977
979
974
973
970
975
976
977
976
972
974
973
973
979
977
973
972
975
977
979
979
975
973
976
977
980
980
976
977
978
983
985
984
983
984
987
992
992
995
995
995
996
1002
1008
1009
1012
1015
1015
1019
1021
1018
1014
1008
1004
1005
1005
1001
994
989
990
989
993
989
984
983
985
985
985
990
988
987
989
992
995
995
996
996
1008
1031
1062
1098
1134
1165
1185
1195
1195
1185
1161
1126
1080
1038
1008
995
991
988
983
984
985
981
976
970
970
969
969
965
960
958
958
959
959
960
954
951
953
954
957
954
954
951
950
952
954
956
953
952
952
955
959
958
956
954
956
957
960
959
956
957
956
960
964
964
964
960
963
967
970
971
969
969
972
977
980
982
976
975
979
983
987
985
986
983
988
993
998
999
999
998
1002
1006
1009
1011
1012
1011
1013
1013
1016
1018
1013
1014
1017
1017
1019
1018
1015
1013
1011
1011
1013
1010
1005
1000
1000
998
1001
996
993
987
987
986
988
984
981
978
975
978
978
974
972
968
968
969
971
970
968
966
962
963
970
968
966
965
966
967
971
970
967
965
966
970
972
972
969
967
970
970
973
976
974
970
972
974
979
977
976
974
975
979
981
978
977
976
979
976
981
980
977
975
976
978
979
981
975
974
976
978
980
976
974
970
971
976
975
975
972
972
972
973
975
972
970
969
969
971
971
970
967
966
969
969
969
968
963
961
961
962
967
967
965
963
963
967
968
964
964
962
964
966
969
969
965
960
965
967
970
964
964
961
965
964
968
968
966
964
964
968
967
966
965
958
963
965
967
970
967
964
966
971
972
971
971
969
971
973
980
981
981
981
982
985
992
990
990
994
998
1006
1011
1011
1012
1009
1011
1013
1015
1010
1004
1001
997
997
995
990
984
981
983
982
987
985
982
978
981
986
989
988
988
985
987
988
990
992
996
1010
1034
1065
1106
1144
1174
1188
1196
1196
1189
1165
1129
1081
1033
999
991
991
989
982
979
980
981
978
972
969
967
966
969
965
959
958
958
957
958
952
954
951
954
953
958
956
952
951
953
955
954
954
951
950
947
954
957
956
953
949
951
952
960
957
957
955
957
961
960
963
963
960
960
965
967
968
967
965
966
969
974
972
971
970
973
977
980
983
982
981
984
984
989
990
989
990
992
995
1000
999
1000
1000
1001
1002
1009
1011
1009
1008
1010
1013
1014
1017
1015
1014
1014
1018
1019
1017
1013
1013
1011
1011
1010
1009
1006
1002
998
1001
1003
999
996
990
991
988
990
989
987
982
984
985
984
981
979
978
977
979
981
976
977
973
969
975
976
975
971
970
973
976
978
976
975
975
979
979
982
978
977
975
979
982
984
981
982
979
983
987
990
989
987
983
985
989
991
987
987
985
984
990
994
994
991
987
990
992
994
992
992
990
989
995
998
996
994
988
989
992
994
992
991
991
991
990
994
988
991
985
985
990
992
991
987
987
986
989
990
987
986
989
987
987
993
990
988
987
987
990
992
989
983
984
987
989
992
990
987
985
985
986
988
989
988
987
989
987
995
993
993
988
988
992
996
996
993
991
992
994
998
998
996
994
993
996
1002
1001
1000
1000
998
1003
1008
1010
1009
1005
1011
1017
1020
1021
1022
1026
1031
1036
1043
1040
1040
1039
1039
1040
1044
1040
1033
1028
1026
1024
1023
1021
1014
1015
1010
1011
1011
1010
1006
1004
1007
1009
1012
1014
1010
1010
1009
1012
1016
1015
1015
1017
1025
1047
1073
1110
1144
1180
1209
1227
1238
1238
1229
1209
1181
1139
1084
1035
1001
993
998
1002
1003
999
994
992
991
991
993
988
985
980
978
978
977
979
977
974
973
973
976
976
973
972
971
972
978
975
972
971
972
973
975
977
974
972
973
976
978
979
976
971
973
978
979
980
979
976
978
984
987
985
984
982
985
987
991
992
990
988
991
993
999
997
996
998
998
1003
1007
1008
1004
1006
1009
1013
1017
1018
1019
1018
1019
1022
1028
1028
1030
1028
1034
1035
1039
1037
1035
1034
1038
1038
1040
1042
1036
1035
1036
1034
1036
1035
1032
1028
1025
1027
1026
1021
1020
1016
1014
1013
1017
1012
1011
1003
1004
1005
1007
1004
1000
998
999
999
1001
998
993
991
992
998
996
994
991
990
993
996
997
995
994
992
991
994
996
995
995
996
996
1000
1003
1000
1000
1000
1000
1004
1005
1008
1007
1002
1008
1008
1012
1010
1011
1010
1010
1010
1014
1014
1011
1011
1012
1012
1017
1014
1012
1009
1011
1014
1016
1013
1012
1009
1011
1011
1014
1012
1007
1007
1005
1008
1009
1009
1005
1003
1003
1007
1005
1004
1002
1000
999
1003
1005
1003
1000
999
1001
1003
1006
1003
1003
999
1000
1001
1002
1001
997
996
995
997
999
1001
999
995
994
998
1001
1002
1000
999
996
998
1001
1003
996
996
1000
1003
1004
1003
1003
1001
1003
1005
1010
1010
1010
1010
1014
1017
1021
1023
1021
1021
1026
1029
1036
1039
1041
1039
1043
1044
1044
1043
1041
1040
1036
1033
1035
1031
1022
1017
1019
1019
1015
1013
1006
1003
1006
1005
1007
1010
1005
1003
1003
1009
1016
1016
1012
1011
1011
1010
1016
1018
1027
1043
1070
1108
1151
1192
1218
1238
1249
1253
1251
1239
1213
1176
1131
1083
1039
1015
1012
1008
1010
1007
1010
1007
1003
999
995
995
995
990
987
984
981
983
987
984
982
977
979
979
983
982
979
978
979
979
980
980
978
975
977
979
981
983
979
978
980
981
983
982
981
978
975
981
985
986
983
980
983
985
989
991
987
985
988
991
995
998
995
991
994
998
1003
1002
1001
1001
1004
1006
1012
1012
1012
1009
1014
1018
1020
1021
1022
1021
1024
1028
1030
1030
1029
1028
1029
1033
1037
1034
1034
1032
1033
1036
1037
1036
1032
1029
1027
1027
1026
1026
1020
1019
1017
1019
1018
1013
1011
1006
1002
1005
1005
1002
999
998
998
998
1000
997
993
993
991
994
996
993
991
994
992
993
998
995
995
992
992
994
999
1000
994
992
994
1000
1002
1000
1000
997
1000
998
1001
1003
1003
1000
1000
998
1003
1003
1004
1004
1005
1007
1009
1011
1008
1008
1003
1009
1011
1010
1006
1004
1006
1012
1013
1014
1011
1008
1007
1011
1009
1011
1009
1004
1007
1007
1012
1008
1004
1005
1003
1004
1005
1005
1005
1001
1004
1004
1007
1007
1001
998
999
999
1004
1003
999
998
998
1002
1004
1003
1002
998
997
1000
1002
1000
1000
996
997
1000
1001
999
999
997
999
998
1002
1002
1000
1000
1001
1003
1006
1006
1001
997
1001
1004
1008
1006
1008
1009
1011
1014
1020
1021
1020
1023
1021
1029
1035
1041
1040
1042
1043
1047
1050
1049
1045
1039
1041
1039
1037
1032
1023
1023
1020
1020
1020
1017
1015
1010
1012
1015
1019
1017
1015
1010
1013
1017
1021
1021
1021
1020
1019
1022
1032
1044
1062
1093
1134
1176
1213
1233
1238
1239
1239
1228
1207
1168
1115
1060
1032
1028
1032
1032
1027
1022
1020
1021
1023
1019
1017
1009
1007
1007
1008
1001
1002
997
997
997
997
998
993
994
993
994
994
994
990
989
990
995
996
994
992
990
992
991
996
991
993
989
989
994
1000
998
997
993
992
996
1001
1001
999
998
999
1003
1004
1005
1005
1005
1008
1012
1014
1014
1011
1008
1013
1014
1019
1019
1019
1017
1020
1023
1025
1028
1024
1022
1027
1032
1036
1037
1037
1036
1037
1041
1044
1044
1043
1043
1041
1047
1050
1049
1049
1044
1043
1044
1048
1047
1045
1042
1038
1040
1044
1042
1036
1034
1034
1033
1034
1032
1028
1025
1021
1024
1027
1026
1022
1018
1019
1019
1022
1021
1019
1016
1019
1023
1023
1019
1016
1014
1016
1019
1022
1020
1018
1017
1018
1021
1023
1026
1023
1021
1019
1023
1027
1025
1023
1022
1022
1026
1029
1029
1025
1019
1023
1026
1030
1028
1028
1022
1022
1026
1029
1031
1029
1023
1027
1028
1033
1031
1029
1025
1024
1023
1029
1028
1027
1025
1023
1025
1028
1027
1024
1022
1023
1025
1027
1024
1021
1020
1022
1023
1021
1024
1020
1019
1017
1019
1022
1021
1020
1016
1016
1018
1021
1020
1018
1015
1017
1019
1022
1021
1021
1017
1017
1020
1022
1022
1023
1019
1019
1021
1026
1023
1023
1021
1022
1026
1032
1032
1033
1032
1035
1039
1045
1047
1046
1046
1055
1061
1066
1066
1064
1062
1061
1065
1062
1058
1051
1046
1042
1040
1038
1035
1027
1022
1023
1021
1026
1022
1019
1014
1019
1019
1024
1023
1023
1019
1021
1023
1025
1026
1027
1034
1046
1071
1102
1137
1173
1199
1215
1224
1223
1207
1180
1141
1097
1055
1030
1016
1012
1011
1010
1010
1007
1006
1002
998
995
994
997
995
988
984
983
985
989
986
984
983
980
984
985
981
982
978
980
982
985
983
982
980
979
982
986
983
981
978
980
984
987
987
985
985
987
990
992
993
994
991
992
998
1002
1002
1000
998
1001
1005
1007
1010
1006
1005
1005
1009
1015
1014
1014
1013
1014
1020
1024
1023
1025
1021
1023
1026
1031
1029
1028
1027
1030
1035
1038
1036
1037
1031
1033
1034
1037
1039
1035
1033
1034
1035
1036
1036
1035
1030
1031
1027
1028
1027
1023
1019
1022
1023
1026
1021
1016
1012
1012
1009
1018
1015
1013
1011
1011
1010
1015
1014
1011
1010
1010
1012
1016
1015
1010
1011
1010
1014
1019
1016
1015
1014
1015
1018
1019
1020
1018
1018
1020
1021
1022
1023
1021
1019
1019
1023
1026
1027
1025
1024
1025
1027
1027
1027
1021
1022
1022
1024
1027
1026
1022
1021
1019
1022
1024
1023
1018
1016
1015
1018
1020
1017
1016
1013
1013
1015
1015
1016
1009
1008
1009
1011
1014
1013
1010
1007
1006
1009
1013
1011
1008
1005
1007
1007
1009
1010
1010
1007
1007
1010
1014
1014
1015
1012
1012
1013
1017
1016
1014
1012
1017
1024
1029
1027
1031
1034
1039
1043
1047
1047
1045
1045
1046
1045
1045
1041
1034
1026
1024
1022
1021
1019
1012
1009
1009
1011
1014
1014
1010
1005
1008
1012
1013
1017
1016
1010
1016
1019
1022
1032
1048
1075
1113
1160
1197
1218
1224
1222
1211
1194
1163
1111
1056
1016
1007
1010
1015
1011
1004
998
997
998
997
994
991
984
986
984
988
985
982
980
980
978
982
982
981
977
977
979
981
981
979
977
976
979
980
982
978
977
974
979
985
985
982
982
983
986
989
990
988
987
989
993
995
996
995
992
996
1000
1005
1002
1000
1003
1005
1007
1011
1012
1012
1012
1010
1014
1020
1017
1018
1020
1020
1023
1028
1030
1030
1026
1031
1035
1038
1040
1036
1034
1037
1038
1040
1038
1037
1035
1031
1035
1037
1036
1029
1026
1024
1026
1027
1024
1022
1019
1018
1018
1018
1017
1012
1006
1006
1005
1008
1006
1001
998
995
999
999
999
995
991
991
994
998
997
993
990
992
996
998
999
996
995
996
999
1002
1001
999
998
999
1002
1002
1002
1003
999
996
1002
1007
1006
1005
1004
1001
1005
1009
1007
1005
1006
1004
1005
1010
1010
1005
1004
1006
1008
1009
1009
1005
1005
1004
1006
1009
1006
1005
1002
999
1002
1006
1006
1001
998
999
1001
998
999
994
994
994
995
999
997
994
991
990
992
998
997
994
989
989
991
995
996
993
991
995
996
1002
1001
998
997
1000
1004
1006
1010
1010
1009
1012
1016
1023
1024
1029
1028
1029
1033
1036
1033
1032
1029
1026
1025
1021
1014
1011
1006
1001
1001
1002
999
995
991
994
995
996
993
994
991
994
999
1001
1000
998
994
995
997
1005
1015
1034
1064
1107
1152
1191
1212
1221
1217
1207
1185
1148
1091
1036
1001
995
996
998
998
990
986
987
984
983
979
974
970
970
971
973
972
966
966
965
968
970
969
966
961
964
966
968
969
962
965
965
968
970
968
966
967
966
971
973
973
971
968
972
976
977
977
980
976
976
980
983
984
982
980
983
989
990
992
992
989
992
997
1000
1001
999
998
1002
1006
1009
1010
1011
1010
1012
1019
1020
1023
1020
1020
1020
1023
1029
1028
1025
1024
1025
1024
1030
1030
1025
1021
1018
1018
1023
1019
1021
1014
1013
1012
1014
1007
1005
1001
1001
1001
1001
997
994
991
991
990
993
990
986
983
984
986
988
984
982
980
982
983
986
988
987
984
986
989
991
989
988
988
983
988
992
992
993
990
989
993
999
995
995
993
994
998
1001
1001
1001
998
998
1000
1006
1008
1001
1002
1002
1005
1008
1009
1004
1001
1002
1004
1005
1002
998
999
997
1001
1004
1001
999
1000
1001
1001
1005
1002
1000
997
996
1001
1003
1001
999
995
994
994
1001
998
993
992
993
993
995
996
993
992
992
995
995
997
992
991
993
994
996
995
994
993
995
996
999
998
995
994
994
999
1001
1002
1000
999
1002
1007
1013
1013
1013
1012
1016
1020
1029
1030
1032
1035
1035
1039
1042
1042
1040
1037
1035
1034
1031
1025
1018
1013
1010
1011
1010
1006
1001
1001
999
1002
1005
1003
1002
994
997
999
1003
1002
1004
1004
1003
1005
1006
1009
1012
1028
1059
1097
1145
1187
1218
1230
1237
1239
1228
1208
1163
1104
1047
1013
1009
1012
1010
1002
999
997
1000
996
993
986
984
983
985
982
980
975
975
975
980
977
973
969
972
974
976
972
973
968
971
973
974
973
973
971
973
974
974
976
973
971
974
974
977
977
978
974
979
982
983
981
979
980
982
983
989
989
989
986
990
992
996
997
995
995
997
1002
1005
1002
1001
1005
1006
1012
1016
1016
1014
1013
1014
1018
1023
1026
1025
1025
1027
1029
1033
1032
1031
1029
1033
1030
1036
1033
1029
1027
1026
1026
1028
1023
1018
1014
1013
1011
1011
1010
1004
998
1000
1000
999
996
993
989
990
989
990
987
982
982
977
980
980
980
978
972
974
973
977
977
974
972
974
972
977
979
975
973
975
974
980
982
980
977
976
977
981
981
980
980
982
982
989
991
987
985
987
987
992
989
985
989
986
988
992
992
989
989
990
994
994
990
990
989
986
990
992
991
989
986
984
988
989
986
986
983
983
986
987
984
983
980
980
979
984
982
983
981
979
982
983
982
981
979
978
981
986
984
980
976
976
979
981
983
981
978
978
982
981
983
979
979
979
982
980
983
982
981
981
983
988
988
983
979
981
986
990
992
993
994
995
999
1003
1003
1004
1004
1007
1014
1021
1027
1027
1025
1027
1030
1029
1027
1030
1027
1024
1023
1022
1018
1014
1009
1003
1005
1003
997
997
995
995
999
1002
1003
1000
997
999
1005
1006
1007
1007
1006
1007
1010
1019
1033
1057
1091
1133
1180
1218
1238
1250
1249
1242
1230
1203
1154
1091
1036
1012
1010
1019
1015
1007
1003
1001
1003
1003
1001
996
991
990
990
992
989
989
988
989
990
993
990
988
986
985
987
989
986
988
985
984
987
992
991
993
986
989
993
996
997
994
991
994
996
1000
999
998
997
996
1002
1006
1005
1003
1001
1005
1007
1010
1010
1013
1010
1012
1015
1020
1022
1022
1019
1020
1026
1028
1030
1031
1030
1030
1037
1041
1041
1041
1041
1045
1049
1052
1053
1053
1053
1056
1061
1062
1065
1063
1061
1060
1062
1068
1067
1064
1060
1061
1058
1063
1060
1058
1055
1052
1054
1054
1053
1047
1042
1040
1038
1040
1034
1031
1028
1027
1027
1029
1025
1020
1016
1013
1015
1016
1014
1010
1006
1006
1008
1008
1008
1001
1000
999
999
1006
1004
1002
999
997
1000
1003
1002
998
994
994
998
999
999
998
997
998
1000
1003
1005
1004
1001
1003
1002
1009
1008
1006
1005
1006
1010
1014
1014
1013
1012
1012
1016
1019
1016
1016
1014
1017
1019
1023
1020
1017
1014
1014
1017
1020
1017
1016
1012
1010
1014
1016
1017
1014
1012
1010
1011
1017
1016
1010
1006
1006
1005
1010
1011
1008
1004
1001
1007
1007
1006
1003
1001
999
1003
1005
1004
1001
998
997
997
999
997
993
994
994
996
1001
998
995
993
989
993
996
996
994
989
991
994
1000
997
995
991
996
996
998
998
998
994
994
1000
1005
1009
1007
1008
1010
1015
1019
1019
1018
1018
1021
1030
1036
1036
1035
1032
1031
1033
1035
1036
1031
1027
1023
1015
1016
1013
1011
1001
998
1001
1003
1000
998
995
996
996
1002
1001
997
997
998
999
1004
1000
1000
994
998
1010
1027
1053
1087
1124
1167
1205
1229
1238
1238
1228
1214
1187
1150
1096
1039
1009
1003
1008
1012
1005
999
992
987
987
986
980
981
970
971
970
974
971
966
964
963
965
967
966
963
960
960
963
965
963
960
956
960
960
962
965
959
960
960
963
966
966
960
962
961
966
969
969
964
964
966
971
974
974
972
972
974
979
983
981
979
979
980
984
990
989
990
989
992
995
999
999
1000
999
1000
1008
1011
1012
1011
1012
1016
1020
1025
1026
1027
1025
1027
1033
1035
1035
1034
1033
1032
1034
1040
1038
1035
1033
1033
1033
1031
1033
1026
1020
1017
1019
1020
1017
1012
1007
1004
1003
1004
1003
999
995
993
993
994
992
989
986
984
985
986
984
981
980
979
979
985
982
978
977
977
980
981
978
974
973
971
978
980
981
975
974
972
974
977
979
976
972
973
977
981
980
978
976
975
975
982
980
979
978
977
979
983
985
983
980
979
982
988
987
986
982
982
986
988
987
984
982
982
985
990
990
986
983
985
985
989
989
986
984
985
986
989
990
985
983
982
984
984
983
983
980
978
981
983
984
980
978
978
980
982
982
979
977
977
978
977
979
977
975
974
978
979
979
978
973
975
977
978
980
977
975
975
977
978
977
979
976
974
978
982
983
979
975
974
975
980
980
980
978
978
978
982
981
980
977
977
979
982
983
983
978
980
980
983
984
984
982
980
985
990
990
990
989
992
997
1002
999
1002
1003
1005
1010
1020
1024
1025
1021
1023
1024
1029
1028
