913
917
922
920
917
912
910
910
912
913
915
913
920
923
923
920
917
920
922
926
927
925
928
930
935
940
941
937
935
934
939
943
942
943
942
948
949
954
955
954
951
949
958
966
972
974
974
977
985
988
995
998
1002
1004
1010
1016
1023
1028
1030
1034
1039
1046
1056
1065
1070
1073
1079
1089
1091
1099
1102
1109
1115
1122
1122
1113
1097
1091
1094
1098
1098
1092
1087
1084
1079
1074
1067
1058
1048
1041
1039
1035
1031
1023
1015
1009
1007
1003
995
989
985
983
982
984
981
977
969
961
956
954
948
944
940
938
940
943
937
931
924
925
931
929
931
930
925
923
923
924
923
922
920
923
924
925
925
926
920
921
918
922
922
922
920
922
929
931
929
930
930
925
922
922
922
918
921
924
925
924
925
927
928
925
927
928
932
931
936
942
946
942
930
913
901
897
903
908
910
913
911
912
919
931
941
941
923
904
901
916
933
948
942
928
919
927
933
915
890
882
891
893
878
862
868
890
896
892
885
876
878
884
889
890
892
892
890
890
889
890
894
897
893
889
891
894
897
892
887
887
890
891
891
889
886
885
888
890
894
891
887
887
891
896
891
884
876
881
888
892
895
893
890
888
889
888
888
889
887
890
885
886
889
892
887
887
889
891
892
891
889
889
890
894
897
896
895
892
894
899
902
902
907
908
915
921
929
938
946
955
959
961
962
959
954
951
951
955
950
940
928
922
922
921
916
912
909
908
909
904
903
895
891
888
893
896
897
901
900
898
898
894
887
878
885
911
964
1041
1139
1235
1306
1358
1392
1410
1405
1374
1303
1190
1062
934
829
819
844
866
870
874
873
875
875
881
886
892
887
886
889
890
892
889
892
890
881
876
879
888
898
901
894
893
888
886
893
892
889
890
894
900
901
897
894
898
902
910
912
907
904
909
915
920
921
915
919
921
923
929
934
933
929
926
929
938
943
944
946
943
950
954
959
958
958
958
966
972
979
979
982
985
991
999
1006
1007
1004
1010
1022
1034
1042
1041
1044
1048
1059
1064
1070
1075
1075
1077
1079
1087
1088
1089
1086
1086
1082
1088
1088
1086
1080
1070
1058
1051
1051
1055
1053
1047
1034
1019
1001
993
989
986
984
985
982
974
970
964
963
962
963
958
951
948
950
951
952
945
939
935
935
938
934
933
933
930
931
931
934
932
929
928
931
935
936
932
925
925
929
933
935
936
933
930
930
935
941
940
936
933
938
941
941
940
939
941
948
951
950
953
950
951
953
955
957
956
956
955
957
960
962
960
954
950
953
957
959
955
954
952
951
950
946
950
951
951
950
951
950
951
949
945
946
950
951
949
944
943
944
947
948
944
938
941
940
939
942
942
937
936
940
944
942
937
935
931
934
937
941
941
935
931
932
939
941
939
932
933
937
939
941
940
934
932
935
941
944
942
938
934
930
930
934
940
939
935
936
941
943
938
937
937
938
942
940
944
944
944
941
944
946
943
934
936
942
947
946
942
937
937
945
951
954
958
955
957
960
970
977
980
978
983
990
1000
1012
1017
1013
1012
1014
1015
1014
1014
1005
997
989
983
979
974
966
963
963
962
958
957
951
949
952
954
957
955
948
944
945
948
949
943
934
926
918
928
960
1013
1093
1191
1284
1358
1403
1434
1443
1430
1395
1325
1214
1086
958
873
889
931
951
945
936
930
934
945
944
945
941
939
937
937
942
938
938
939
944
945
946
938
927
934
944
953
950
943
940
941
946
950
952
954
953
947
942
944
951
956
956
954
957
955
955
959
962
964
965
966
972
974
973
970
972
972
977
981
983
981
981
985
988
992
994
996
1002
1007
1006
1012
1015
1017
1021
1033
1037
1042
1046
1048
1057
1067
1074
1081
1086
1088
1094
1106
1114
1118
1121
1124
1132
1138
1142
1143
1138
1134
1138
1140
1141
1141
1137
1131
1131
1128
1127
1116
1107
1097
1091
1086
1079
1075
1065
1059
1054
1051
1048
1038
1038
1033
1032
1027
1020
1018
1019
1012
1010
1010
1005
1001
998
997
998
1001
1000
997
990
988
988
990
994
993
985
980
980
985
986
982
978
978
981
984
981
979
970
968
969
976
979
976
970
972
973
975
976
973
969
968
974
975
973
971
971
971
975
979
979
977
975
975
975
980
979
981
978
981
982
985
985
983
977
975
980
984
984
982
980
978
976
983
982
982
974
973
971
974
978
981
981
977
970
970
977
983
983
980
972
967
964
967
967
964
971
974
972
971
975
974
970
972
974
976
975
970
966
961
961
961
964
965
961
956
958
963
967
967
965
965
969
972
971
969
971
972
969
967
959
960
964
966
965
962
962
964
964
970
972
970
973
975
978
982
990
993
999
999
1009
1019
1028
1033
1034
1029
1030
1038
1045
1040
1032
1028
1025
1021
1012
1001
992
985
984
982
978
972
964
959
951
960
966
967
964
957
959
957
956
957
955
948
935
935
938
957
1000
1073
1179
1281
1364
1414
1435
1437
1418
1374
1279
1151
1023
895
869
904
935
941
930
927
936
937
941
942
937
933
934
936
937
935
935
932
933
938
938
934
930
929
934
941
943
936
921
916
933
940
941
939
936
936
939
941
942
943
942
940
943
946
953
953
950
948
954
958
950
945
948
963
974
971
966
965
960
958
977
981
969
972
978
981
981
993
999
1003
1003
1006
1012
1019
1025
1032
1032
1040
1048
1052
1060
1066
1070
1077
1082
1088
1096
1098
1102
1108
1113
1116
1121
1121
1114
1111
1114
1115
1111
1108
1101
1098
1091
1087
1085
1078
1068
1059
1050
1046
1043
1039
1032
1019
1010
1012
1013
1008
994
990
994
992
992
987
980
976
983
984
973
964
961
966
962
956
955
958
958
954
953
955
956
954
951
952
954
957
956
954
950
946
949
952
957
952
952
951
957
959
957
955
953
955
952
954
960
962
963
967
970
971
975
976
976
975
972
974
974
976
970
965
967
972
975
974
968
965
966
969
970
965
961
963
965
970
972
969
966
965
959
962
963
962
962
962
963
961
957
956
952
956
960
960
960
953
952
953
957
957
956
956
954
951
952
955
955
954
948
946
947
952
953
948
947
947
946
943
945
947
951
943
936
941
951
954
944
939
940
945
946
944
942
943
943
943
942
942
943
941
941
941
941
941
938
934
935
941
943
946
940
937
936
940
948
948
944
940
942
947
953
958
959
961
967
972
978
989
1000
1003
1003
1003
1006
1007
1001
999
993
984
977
964
957
952
947
946
942
934
927
922
925
927
930
930
927
923
924
926
926
922
910
898
892
892
911
961
1041
1155
1268
1356
1409
1433
1429
1408
1345
1237
1109
981
853
862
898
913
908
905
904
908
910
907
905
901
899
899
898
902
903
902
898
895
898
899
902
901
898
894
896
900
905
901
902
905
909
912
911
909
906
906
908
910
914
913
911
909
911
917
922
922
920
922
924
925
929
933
932
937
938
941
946
949
951
954
956
962
966
971
973
977
986
992
997
1002
1001
1005
1016
1025
1029
1034
1038
1043
1051
1059
1066
1068
1069
1067
1074
1078
1083
1081
1075
1068
1068
1075
1074
1067
1057
1050
1048
1045
1040
1035
1021
1013
1007
1006
1006
997
988
980
977
977
973
965
957
953
957
953
951
946
942
937
937
942
945
939
933
932
931
934
932
933
933
930
932
932
933
930
931
930
933
936
934
932
929
930
932
935
937
937
935
936
935
938
942
941
940
937
940
944
946
944
944
942
944
946
948
945
944
944
950
955
954
946
946
949
950
954
953
952
948
945
947
951
951
949
948
947
948
949
950
949
948
943
946
948
954
949
946
945
946
947
949
948
944
943
945
949
953
952
948
943
948
952
953
954
951
945
946
949
954
954
953
952
951
949
951
955
955
952
953
955
957
958
956
949
952
957
960
958
954
957
956
961
967
969
965
965
969
978
981
982
986
987
989
993
1000
1014
1024
1027
1029
1031
1034
1034
1029
1025
1024
1018
1009
1000
993
990
989
985
978
970
963
962
966
967
965
962
959
958
960
960
966
966
959
954
950
949
954
967
998
1063
1162
1267
1357
1411
1438
1444
1434
1403
1330
1212
1084
956
874
903
945
953
946
936
942
947
952
951
944
944
946
947
951
950
944
939
945
949
950
950
949
947
951
953
953
950
951
953
953
954
958
960
955
954
955
957
962
963
963
961
963
967
972
970
968
969
971
975
977
978
978
978
982
987
991
991
991
991
996
1001
1008
1012
1018
1022
1031
1035
1031
1027
1031
1043
1053
1061
1066
1072
1076
1081
1089
1098
1106
1111
1111
1114
1119
1121
1126
1124
1124
1124
1131
1128
1122
1111
1108
1102
1102
1100
1094
1087
1079
1072
1066
1063
1061
1048
1038
1029
1027
1027
1025
1016
1008
1004
1003
1002
1003
999
990
984
984
983
986
980
971
965
968
970
973
972
966
962
964
969
970
966
965
961
961
967
969
967
967
966
967
970
972
971
969
970
972
975
977
980
977
980
981
985
985
983
984
983
985
986
984
982
983
979
979
982
985
985
981
978
977
980
983
981
979
973
977
978
976
976
975
972
971
972
974
972
967
965
965
969
971
970
967
966
965
967
971
970
967
967
970
970
966
958
957
960
965
963
966
965
963
959
960
960
963
963
958
957
955
959
961
962
959
953
957
960
962
960
957
956
957
958
962
959
955
955
957
962
966
969
970
966
976
984
985
989
991
996
1007
1013
1018
1021
1022
1018
1019
1020
1025
1023
1011
995
985
980
980
979
969
958
956
954
956
955
954
948
946
946
946
949
948
945
945
943
940
928
913
906
918
948
1010
1103
1215
1319
1398
1442
1455
1448
1418
1356
1250
1122
994
880
887
926
943
941
938
939
936
932
931
928
933
932
928
926
927
925
928
929
924
922
920
922
926
927
926
926
925
929
931
926
924
923
924
932
937
937
935
930
930
936
944
944
938
936
939
944
949
947
946
948
951
955
958
960
957
961
961
962
969
972
969
971
976
981
984
993
993
994
996
1004
1007
1014
1017
1021
1027
1034
1039
1045
1046
1051
1056
1061
1067
1070
1070
1073
1076
1079
1084
1083
1080
1081
1080
1082
1080
1074
1070
1064
1064
1061
1059
1051
1045
1036
1033
1028
1024
1018
1010
1004
999
994
995
991
984
977
978
980
982
978
974
968
966
965
968
970
965
960
959
962
965
966
961
957
962
962
964
967
963
965
961
963
968
968
968
968
967
968
972
971
968
968
971
973
978
975
974
971
972
975
978
976
975
977
976
976
980
977
975
971
974
978
979
982
979
976
974
976
977
978
979
979
979
980
977
973
967
967
970
970
966
966
965
960
959
960
967
966
960
960
963
963
964
965
961
960
961
963
968
966
969
967
968
969
968
967
964
960
960
962
965
965
970
967
960
960
961
965
966
963
963
964
967
969
968
970
966
966
968
968
967
963
961
968
980
983
983
982
987
992
998
1002
1006
1020
1029
1033
1034
1031
1031
1027
1030
1030
1031
1020
1007
999
991
991
988
978
971
961
956
961
964
960
955
955
953
957
964
964
960
956
950
946
935
924
922
939
983
1058
1161
1268
1353
1408
1436
1447
1438
1406
1342
1231
1103
975
888
898
928
943
941
939
944
944
944
938
935
935
939
938
936
934
935
935
936
935
932
932
933
935
938
939
938
934
934
936
938
939
939
933
936
935
940
941
941
940
941
943
946
946
945
946
947
950
952
953
953
949
952
951
956
961
960
961
965
967
973
973
970
969
973
976
982
984
987
988
990
997
1003
1003
1005
1002
1009
1020
1022
1027
1027
1028
1033
1041
1050
1051
1053
1056
1060
1065
1072
1072
1074
1072
1075
1079
1086
1086
1082
1079
1080
1082
1083
1076
1073
1062
1055
1047
1047
1048
1048
1039
1036
1036
1037
1026
1013
999
996
1002
1009
1004
994
988
988
992
992
988
984
975
974
976
981
979
975
970
967
967
971
970
967
968
969
968
965
966
973
972
975
974
971
970
969
970
970
970
971
975
979
977
976
981
986
984
983
980
977
980
983
984
980
979
979
983
986
986
982
978
981
983
985
983
983
978
979
982
981
982
977
977
974
978
976
975
974
969
970
974
975
974
967
966
969
970
972
969
962
963
966
970
971
964
958
960
964
968
966
963
957
953
955
961
965
964
959
957
955
962
966
964
958
955
957
960
962
960
960
958
956
959
962
959
960
958
959
963
964
965
964
961
963
968
974
978
979
980
980
988
995
1001
1008
1018
1024
1031
1032
1031
1030
1032
1036
1033
1025
1007
989
984
985
981
978
972
965
954
950
952
955
955
953
951
953
952
956
956
953
948
941
933
922
918
929
958
1011
1101
1207
1307
1375
1417
1435
1437
1421
1374
1284
1156
1028
902
884
912
933
936
936
941
947
947
943
941
936
935
939
939
936
929
931
935
944
944
938
925
922
930
943
945
940
937
935
937
938
933
931
931
935
935
936
939
940
940
941
941
942
943
942
939
942
945
949
949
950
948
952
954
959
960
957
955
955
962
967
970
968
974
979
984
991
993
992
984
983
989
997
1002
1001
998
1003
1008
1017
1022
1019
1022
1031
1036
1044
1047
1045
1048
1053
1060
1062
1064
1059
1059
1061
1062
1065
1061
1056
1053
1054
1056
1052
1047
1039
1031
1031
1029
1024
1019
1017
1011
1008
1006
1005
1001
995
989
986
984
977
973
971
970
971
967
970
962
957
955
958
963
963
963
965
963
960
961
961
962
961
953
954
957
962
964
962
956
959
960
963
962
961
961
959
963
967
966
965
964
963
968
975
969
960
960
966
969
970
967
966
966
964
967
970
970
969
962
965
966
966
965
963
958
953
954
961
962
962
962
963
962
964
962
957
950
950
956
954
951
951
949
948
954
958
957
954
951
953
959
957
955
952
951
953
958
955
952
953
954
957
957
960
956
947
942
945
950
954
958
954
949
951
953
958
962
963
962
964
968
980
986
985
982
977
984
1001
1013
1015
1009
1010
1012
1017
1013
1008
999
994
990
986
978
974
968
964
958
959
957
953
947
948
952
955
953
945
937
940
947
951
947
944
937
938
944
960
986
1035
1109
1204
1287
1354
1394
1409
1404
1384
1336
1247
1124
996
891
868
886
911
919
912
911
916
924
932
937
933
929
923
923
927
929
927
925
925
930
935
937
938
937
934
931
929
931
935
935
932
932
939
939
941
938
938
936
935
939
941
940
934
936
941
950
950
946
946
951
954
954
953
953
955
958
961
960
957
956
961
968
976
977
974
974
980
981
982
983
984
985
990
995
1003
998
998
999
1007
1012
1015
1021
1025
1032
1042
1053
1056
1058
1051
1054
1058
1059
1061
1066
1068
1066
1070
1073
1077
1077
1074
1067
1068
1069
1066
1062
1056
1049
1046
1046
1042
1038
1028
1020
1018
1016
1012
1011
1009
1002
1000
999
998
994
989
990
990
987
987
984
977
972
974
972
977
978
973
968
968
972
976
980
977
970
970
973
977
976
967
970
971
978
985
984
982
978
975
976
983
983
983
983
983
988
992
991
987
984
986
993
1000
997
987
982
985
988
990
990
987
984
983
986
990
989
985
982
985
988
986
984
983
979
981
982
983
979
973
974
976
979
980
976
974
972
970
969
973
971
971
966
970
970
978
977
974
970
973
978
981
979
978
978
985
990
992
992
991
988
994
999
1010
1017
1024
1020
1017
1020
1030
1036
1038
1034
1031
1023
1021
1014
1005
994
991
989
982
977
971
967
965
965
969
966
963
964
964
969
974
974
970
968
968
967
966
960
962
978
1010
1060
1125
1212
1289
1345
1386
1404
1402
1377
1321
1232
1121
1005
921
894
909
924
929
930
936
941
948
947
949
952
952
956
952
951
956
955
949
944
942
948
952
951
950
952
953
957
951
949
952
955
954
953
957
961
961
960
962
963
963
956
951
954
959
957
960
967
974
977
971
967
964
968
973
979
981
975
976
980
987
990
991
989
995
997
999
997
1000
998
999
1001
1005
1005
1007
1009
1015
1026
1034
1039
1039
1037
1037
1044
1051
1050
1048
1048
1052
1053
1050
1051
1052
1055
1058
1061
1058
1052
1048
1045
1046
1045
1043
1034
1028
1025
1024
1019
1011
1005
1006
1006
1004
995
991
990
989
979
974
973
976
975
970
965
967
967
972
972
969
967
966
972
975
969
964
967
969
972
976
979
980
977
977
981
983
984
986
986
988
992
994
995
995
994
995
997
998
995
997
993
994
998
997
993
992
994
995
1003
1003
995
983
977
983
990
992
992
989
986
984
984
985
983
977
979
978
975
980
981
980
979
977
972
968
966
964
965
966
968
975
975
974
960
957
957
962
965
962
959
961
966
969
971
970
967
965
961
966
967
961
958
960
966
966
961
962
964
958
963
972
976
972
980
984
990
995
998
996
997
1004
1013
1024
1032
1033
1029
1026
1023
1019
1013
1005
1000
991
987
985
977
971
959
953
952
957
958
956
957
957
958
960
957
951
949
949
948
945
939
940
949
968
1019
1104
1208
1294
1356
1396
1417
1411
1370
1294
1186
1059
940
879
889
920
936
938
938
939
944
941
939
934
937
938
936
929
922
927
932
934
934
934
930
935
936
938
938
936
931
933
936
939
937
936
935
938
942
948
948
948
943
940
940
945
947
946
939
939
942
949
952
949
950
952
956
962
961
962
962
964
967
978
980
974
971
971
977
987
988
991
993
995
1002
1007
1007
1011
1010
1012
1014
1021
1024
1025
1027
1029
1037
1042
1046
1041
1039
1043
1051
1055
1048
1046
1042
1038
1040
1042
1041
1034
1027
1020
1024
1024
1021
1014
1009
1007
1007
1006
1001
995
990
990
992
991
992
987
982
985
987
982
981
981
978
980
982
984
983
984
981
984
989
996
998
990
985
984
987
990
991
991
989
988
990
997
998
996
993
