989
990
990
995
995
993
989
990
991
993
992
991
988
988
988
993
989
989
987
984
986
988
989
986
981
980
984
983
985
982
981
979
979
982
983
979
978
976
978
979
981
978
975
975
976
979
979
975
973
970
974
974
977
975
974
971
977
978
977
978
973
969
971
974
975
974
973
973
973
975
975
975
973
973
975
978
978
975
969
972
974
978
977
978
973
971
974
976
978
975
974
974
977
980
978
978
975
974
979
980
981
979
979
977
980
985
986
988
985
986
990
994
993
996
994
999
1002
1009
1011
1013
1013
1018
1023
1029
1031
1030
1029
1026
1030
1028
1027
1020
1014
1009
1008
1009
1006
1001
996
993
995
996
997
995
991
995
995
999
1002
1000
995
1000
1002
1006
1006
1009
1015
1034
1066
1104
1146
1181
1205
1220
1228
1229
1219
1196
1160
1110
1062
1023
1004
1002
1000
996
994
993
993
990
984
982
981
981
977
973
968
966
968
970
971
970
966
963
966
967
970
966
963
965
964
970
968
968
965
965
970
967
970
969
965
965
967
972
972
969
969
967
970
973
977
974
969
972
975
974
981
981
980
979
985
986
988
988
986
986
991
995
998
998
997
999
1001
1004
1009
1011
1007
1009
1013
1019
1020
1020
1019
1022
1027
1030
1033
1034
1033
1031
1035
1041
1044
1043
1041
1042
1043
1047
1046
1043
1041
1041
1041
1039
1043
1040
1036
1033
1031
1034
1034
1028
1024
1021
1019
1021
1019
1011
1006
1004
1005
1007
1004
1000
998
994
994
994
995
994
990
989
987
992
990
987
983
984
986
986
986
986
982
984
988
988
988
988
986
985
986
992
993
994
992
991
995
992
994
992
990
993
996
998
997
995
995
999
1000
1004
1004
1006
1002
1002
1004
1007
1007
1006
1003
1002
1005
1008
1007
1006
1003
1001
1003
1006
1006
1005
1001
1000
1001
1004
1002
998
995
995
995
999
998
997
994
993
994
996
997
994
990
988
990
994
992
989
986
983
988
990
989
990
985
983
983
985
989
988
982
982
984
988
988
985
982
982
982
983
986
985
981
977
980
983
983
985
978
978
978
981
980
982
979
978
980
982
981
981
978
979
979
982
983
983
976
976
978
981
981
979
979
980
983
987
988
986
985
987
985
988
993
993
991
995
998
1003
1004
1006
1002
1009
1012
1020
1024
1026
1025
1026
1029
1031
1030
1029
1025
1021
1018
1016
1013
1010
1005
1000
998
997
997
993
990
989
993
995
996
997
994
996
997
1002
1004
1003
1000
1003
1012
1028
1049
1073
1109
1146
1184
1208
1218
1220
1212
1200
1179
1140
1093
1041
1003
995
999
1001
998
992
986
985
983
983
980
978
973
968
967
971
969
968
963
961
962
965
965
963
961
958
962
965
964
963
958
956
961
963
964
961
962
961
963
967
966
967
962
962
967
970
967
970
967
968
972
976
977
976
974
974
977
980
983
984
982
984
986
991
990
990
989
990
996
999
1005
1006
1004
1006
1009
1015
1019
1016
1016
1022
1026
1032
1032
1035
1035
1035
1037
1042
1045
1044
1043
1043
1046
1048
1050
1047
1044
1041
1041
1043
1043
1037
1034
1031
1032
1032
1030
1022
1019
1017
1015
1017
1013
1009
1003
1001
999
1000
998
993
987
985
986
987
988
984
982
979
979
980
979
978
976
974
975
975
979
975
973
971
973
975
977
972
974
972
973
977
980
979
978
977
976
981
982
980
980
978
981
984
984
985
984
982
986
988
989
988
986
987
989
988
991
991
987
985
989
991
992
989
985
987
989
991
990
987
983
983
985
987
990
986
983
983
984
986
986
984
982
982
982
983
981
983
979
980
979
981
981
979
977
976
974
978
979
976
973
971
974
977
977
975
972
970
971
974
975
973
971
968
970
975
973
975
971
968
969
973
976
975
971
971
972
974
975
975
973
971
974
975
977
975
973
970
975
977
976
976
973
973
975
979
983
983
978
977
981
986
987
989
989
990
995
999
1002
1000
1006
1003
1010
1014
1019
1017
1016
1019
1024
1025
1023
1019
1011
1006
1007
1006
999
1000
995
995
993
993
993
992
989
988
990
993
995
991
993
993
999
1003
1006
1008
1006
1017
1034
1062
1097
1135
1165
1188
1203
1208
1205
1190
1161
1122
1075
1028
1000
995
991
992
988
986
987
985
981
979
975
975
975
973
968
968
967
971
967
969
965
964
964
964
968
965
964
961
962
963
965
966
963
964
964
967
967
967
965
966
968
971
970
971
969
969
971
974
977
976
975
977
979
982
986
984
983
984
989
989
992
991
991
993
998
1002
1004
1004
1001
1002
1008
1014
1014
1019
1018
1020
1025
1027
1031
1032
1031
1032
1040
1044
1047
1047
1048
1049
1053
1056
1057
1057
1055
1054
1057
1057
1058
1054
1051
1046
1045
1045
1045
1041
1036
1035
1033
1031
1029
1028
1020
1019
1019
1019
1016
1012
1007
1004
1002
1002
1004
999
995
993
994
996
995
993
991
988
987
990
989
987
984
983
985
989
992
989
986
983
984
990
991
992
988
990
989
993
994
993
991
994
995
995
998
998
996
996
998
1002
1001
1003
998
1001
1002
1007
1008
1008
1001
1003
1006
1005
1008
1004
1003
1003
1004
1006
1007
1004
1000
1000
1002
1005
1004
1000
998
1000
999
1003
1003
1000
998
997
997
1000
999
999
994
992
994
995
996
995
992
988
990
992
995
991
989
987
987
989
991
991
987
985
989
989
989
988
984
985
984
987
990
989
986
982
986
988
987
987
984
983
982
986
988
982
983
984
984
986
990
984
982
983
984
987
987
987
987
986
986
989
988
988
986
987
985
988
989
992
988
990
993
997
998
997
996
997
1002
1008
1010
1010
1011
1009
1016
1023
1030
1030
1029
1030
1032
1034
1033
1030
1028
1024
1022
1022
1020
1014
1009
1005
1004
1005
1006
1004
1003
1001
1004
1008
1006
1008
1006
1007
1010
1014
1017
1016
1014
1020
1042
1067
1099
1133
1165
1188
1206
1213
1212
1204
1184
1151
1111
1067
1030
1013
1009
1007
1009
1007
1002
1001
993
989
988
985
984
984
978
972
974
975
976
974
974
971
972
975
976
972
968
968
969
971
975
972
968
968
968
972
975
975
971
971
970
976
975
974
974
971
979
981
981
982
978
977
982
981
986
987
987
985
989
990
991
995
992
993
994
1001
1000
1005
1004
1005
1008
1015
1017
1018
1018
1020
1024
1027
1032
1033
1033
1029
1037
1042
1044
1044
1045
1046
1050
1053
1053
1054
1053
1049
1052
1052
1053
1050
1046
1042
1040
1041
1038
1037
1030
1027
1026
1027
1025
1022
1015
1013
1010
1011
1009
1006
1001
998
998
999
997
996
993
988
990
992
992
988
984
984
984
986
984
986
982
981
982
987
988
984
981
980
982
985
987
984
979
983
986
988
988
989
988
986
989
990
994
993
991
991
993
994
997
995
992
991
995
997
995
995
991
994
995
997
998
997
992
992
993
998
997
996
993
988
992
993
989
990
989
986
989
990
991
988
984
984
983
988
987
986
982
982
982
987
987
986
982
982
979
983
984
982
979
978
981
981
983
980
977
974
976
977
981
980
978
977
978
978
981
977
975
977
978
981
980
983
979
978
977
981
983
981
974
976
978
979
982
981
978
977
979
978
981
981
978
977
979
980
983
982
979
980
980
981
984
980
978
978
981
984
985
984
984
983
984
988
988
990
987
988
990
996
1000
997
1000
1000
1003
1009
1012
1011
1015
1017
1024
1031
1034
1031
1028
1026
1024
1025
1023
1021
1014
1009
1008
1007
1005
998
993
990
991
995
993
994
994
995
995
998
1001
999
1000
1001
1003
1007
1017
1032
1052
1085
1132
1175
1203
1220
1221
1219
1209
1189
1148
1090
1034
1001
994
998
1006
996
993
987
987
987
986
980
974
972
970
971
970
967
965
965
963
967
966
962
960
959
963
966
964
966
962
962
961
965
969
966
963
961
963
967
971
967
966
966
968
971
973
972
969
970
971
979
980
980
977
977
985
986
989
988
990
988
994
998
1002
1002
1002
1003
1006
1010
1015
1016
1015
1018
1023
1025
1026
1032
1032
1033
1037
1041
1042
1045
1040
1043
1045
1047
1046
1049
1042
1042
1045
1048
1046
1041
1034
1031
1033
1033
1030
1027
1022
1016
1015
1014
1012
1007
1004
999
998
997
997
990
983
982
981
984
984
982
978
976
976
975
974
973
973
970
970
972
974
973
969
966
970
972
973
973
971
968
971
973
976
975
973
968
974
976
975
977
976
972
975
978
981
980
981
978
981
984
986
984
981
980
980
983
985
983
979
979
980
982
980
982
977
978
978
980
981
977
977
974
975
978
978
975
974
972
972
975
975
975
969
968
969
972
972
970
966
964
967
968
969
967
963
962
964
964
968
966
962
961
963
963
963
963
960
961
960
963
965
964
958
961
961
963
964
964
962
960
959
961
962
963
959
959
960
959
961
961
956
957
959
960
963
961
959
959
959
959
963
959
956
954
961
961
961
961
959
958
961
963
965
961
960
958
959
964
963
962
962
960
962
964
966
965
965
964
964
966
969
968
967
967
966
973
977
977
976
974
977
982
984
986
986
987
992
997
1004
1007
1007
1004
1003
1002
1002
1001
997
992
994
992
993
990
985
981
981
981
978
980
976
979
978
984
986
986
983
985
989
990
994
994
995
1001
1020
1048
1087
1125
1160
1189
1205
1208
1203
1184
1149
1097
1033
995
979
986
986
981
977
977
977
973
967
962
960
965
963
962
956
954
956
958
958
955
951
950
952
953
958
954
951
951
952
955
958
956
952
953
956
958
958
956
955
953
958
961
963
961
961
962
964
968
970
970
967
969
967
973
974
977
977
975
979
983
986
986
988
986
990
997
1001
1000
999
1002
1008
1012
1015
1017
1016
1018
1023
1027
1034
1034
1035
1036
1039
1045
1045
1044
1045
1045
1045
1051
1048
1047
1045
1040
1039
1042
1041
1040
1033
1030
1024
1024
1023
1022
1014
1009
1008
1007
1005
1002
996
991
993
989
991
988
982
979
979
979
982
978
975
971
972
975
974
973
970
967
969
969
972
973
971
970
970
972
973
972
972
972
972
972
979
979
976
975
977
981
983
982
979
981
985
987
988
987
984
985
987
989
990
990
988
986
985
988
990
990
986
985
986
989
990
987
984
980
983
983
986
984
979
979
978
977
981
979
976
974
975
976
978
976
973
971
972
974
976
974
971
971
970
975
974
971
971
968
970
971
971
970
969
965
968
970
971
970
966
964
965
969
971
968
966
964
963
966
969
965
965
964
965
968
968
966
965
962
965
966
968
966
965
965
966
964
966
968
962
964
966
966
965
967
965
963
962
966
967
967
963
963
963
968
968
968
964
962
961
963
969
967
964
963
965
969
970
969
966
965
967
970
971
972
966
968
968
970
972
973
970
968
970
972
974
974
971
974
976
981
982
983
982
983
987
992
994
995
992
994
999
1005
1012
1014
1009
1011
1007
1008
1005
1005
1001
998
999
999
996
993
987
983
983
983
987
986
983
983
984
987
989
989
987
988
991
994
997
998
997
1001
1015
1036
1067
1101
1136
1168
1189
1202
1200
1194
1173
1140
1096
1047
1010
993
994
995
990
989
987
981
977
973
971
967
972
967
960
960
958
959
961
960
955
954
955
959
959
957
954
953
953
955
957
956
951
952
954
956
956
957
955
954
956
960
962
962
960
956
959
963
966
963
962
963
966
970
973
972
973
971
974
976
982
979
981
981
981
987
991
994
991
993
996
1002
1007
1008
1006
1007
1012
1016
1020
1023
1020
1022
1025
1031
1032
1037
1035
1032
1034
1038
1043
1042
1038
1038
1038
1040
1040
1039
1035
1033
1033
1034
1031
1026
1025
1016
1017
1016
1016
1009
1005
1000
1000
1001
996
995
988
986
986
984
986
980
975
972
975
973
975
970
967
970
971
970
972
969
967
964
965
967
968
969
964
963
964
967
970
969
966
967
969
972
974
972
970
968
970
974
974
970
969
971
971
975
976
975
977
973
974
977
981
980
976
975
979
979
979
980
978
976
976
982
984
981
979
976
977
980
980
980
977
973
973
976
977
977
972
970
971
972
973
972
971
968
970
972
973
971
966
965
966
968
970
966
963
963
964
967
968
966
964
962
959
964
967
966
962
961
962
966
964
963
961
959
961
962
963
961
959
958
959
959
962
961
956
956
957
957
961
962
956
954
957
960
960
958
956
953
955
960
959
959
955
950
953
954
961
958
957
951
954
955
958
955
954
951
951
956
956
954
952
950
950
952
954
952
950
947
950
953
953
951
947
945
946
951
947
948
946
943
945
945
946
942
941
941
938
939
940
940
936
936
937
940
941
940
936
936
939
940
941
941
939
938
939
943
943
941
938
939
941
947
950
950
948
947
950
957
962
959
957
960
963
969
974
980
977
979
980
981
979
976
973
972
973
975
971
972
965
961
963
963
966
965
962
960
966
969
970
970
968
972
971
977
981
983
982
982
987
997
1012
1029
1055
1090
1126
1159
1183
1192
1197
1190
1182
1161
1125
1079
1028
996
985
988
991
986
979
976
975
976
977
969
970
966
968
969
969
964
963
961
963
966
966
965
960
960
962
965
967
966
963
963
965
968
971
968
967
963
969
972
972
972
971
972
972
977
979
978
976
977
979
981
985
985
984
982
987
993
994
995
994
992
998
1003
1004
1004
1003
1003
1007
1011
1014
1015
1016
1018
1018
1025
1028
1030
1031
1028
1034
1042
1044
1047
1048
1048
1049
1054
1060
1061
1061
1061
1062
1064
1065
1067
1066
1061
1064
1064
1064
1066
1058
1051
1051
1052
1050
1049
1043
1038
1037
1032
1036
1030
1026
1023
1019
1020
1018
1013
1011
1007
1007
1006
1005
1004
998
998
998
996
994
995
992
987
987
994
993
990
987
985
985
991
990
988
988
985
984
989
991
991
988
986
988
992
992
992
993
991
995
997
998
998
997
996
996
1001
1003
1000
999
996
999
1002
1004
1003
1003
999
1002
1006
1007
1008
1003
1000
1001
1005
1006
1007
1002
1002
1001
1003
1002
1002
999
997
996
998
999
998
996
993
994
995
995
993
988
987
989
990
992
990
988
984
984
988
990
989
987
985
986
985
990
988
985
981
981
981
984
985
979
979
981
982
984
984
977
974
976
980
982
980
978
977
978
980
982
980
976
977
976
978
980
980
977
975
977
980
980
979
975
974
977
979
979
977
975
974
975
979
981
979
977
975
975
980
981
978
976
974
977
978
982
980
977
977
978
981
983
984
982
979
979
981
983
982
981
985
987
991
994
993
994
993
997
1002
1006
1006
1004
1005
1009
1013
1014
1013
1008
1006
1004
1005
1005
1003
998
993
993
994
995
990
986
986
987
988
991
990
986
982
985
987
988
988
990
990
994
995
997
1001
1009
1023
1048
1083
1123
1158
1180
1192
1197
1198
1191
1175
1144
1101
1055
1015
1001
999
998
994
990
987
985
982
978
971
970
969
969
967
962
962
958
961
961
959
954
953
958
959
960
956
952
952
953
956
956
954
955
954
953
954
956
956
955
955
952
954
960
957
956
952
955
957
960
961
961
961
960
960
966
964
964
964
966
971
974
972
971
972
973
978
981
981
981
982
986
988
993
993
992
991
999
1005
1010
1008
1006
1008
1011
1015
1020
1020
1021
1019
1022
1024
1027
1027
1025
1023
1024
1022
1024
1022
1020
1016
1014
1014
1015
1010
1004
1000
998
997
997
991
988
981
979
982
981
976
969
969
962
967
965
963
960
956
956
955
958
958
952
951
949
954
952
951
947
944
949
948
951
948
946
946
946
948
950
950
948
946
947
950
949
949
947
945
946
949
952
951
950
952
952
952
956
956
955
954
957
960
962
960
960
960
956
962
964
962
962
960
964
965
966
965
962
963
964
966
967
969
967
965
967
966
970
970
968
964
966
966
968
969
967
965
966
969
970
970
965
964
967
967
970
969
965
962
966
967
969
968
967
966
964
968
970
970
967
968
966
969
969
970
967
965
963
968
967
969
967
966
967
966
970
970
963
961
963
966
970
966
963
961
964
964
968
965
965
964
967
971
968
967
965
965
965
969
972
970
968
967
967
971
974
971
970
967
968
970
974
974
971
969
973
975
978
980
979
978
978
984
987
990
989
987
992
997
1001
1000
999
1004
1005
1009
1011
1009
1004
1001
1002
1004
1002
1000
994
991
991
990
992
989
983
979
983
986
988
986
983
985
985
987
994
992
991
989
989
997
1003
1015
1030
1055
1094
1134
1169
1192
1200
1202
1195
1183
1159
1117
1065
1015
988
986
990
991
981
978
976
978
975
971
970
966
965
967
967
965
962
960
960
958
962
960
956
952
953
956
959
957
955
954
954
955
960
958
956
954
958
958
958
960
958
955
956
962
963
964
961
958
959
965
968
967
965
967
969
971
975
977
972
972
974
977
984
984
983
983
986
989
992
992
994
993
998
1003
1006
1006
1007
1003
1009
1012
1014
1020
1019
1019
1021
1024
1029
1028
1026
1027
1028
1030
1030
1031
1027
1022
1021
1023
1026
1021
1019
1013
1013
1011
1014
1009
1004
998
999
993
995
994
990
986
985
986
986
982
980
973
974
978
977
977
971
969
966
973
974
971
968
966
965
968
971
973
968
967
969
970
970
969
969
968
969
975
975
975
972
976
976
978
979
980
979
977
976
979
985
984
982
977
983
984
985
986
982
983
985
988
992
987
986
985
985
984
986
983
978
977
981
984
987
985
981
980
981
982
983
984
982
980
979
980
982
978
975
974
974
977
979
973
973
973
974
976
981
978
974
969
968
972
977
974
972
967
971
971
976
971
973
972
968
972
975
975
970
968
971
975
976
971
971
970
969
973
974
972
972
970
970
973
978
975
975
973
973
975
979
978
977
974
973
979
982
981
978
975
979
983
983
984
982
982
984
990
993
993
991
993
994
998
1004
1002
1001
1002
1008
1017
1022
1021
1018
1011
1008
1013
1014
1010
1006
1002
1000
997
1001
996
