1006
1010
1017
1024
1027
1027
1025
1028
1039
1050
1062
1068
1065
1061
1059
1052
1053
1048
1049
1046
1041
1031
1024
1017
1011
1007
1002
1000
996
996
991
986
988
995
998
997
997
998
997
998
999
994
985
975
974
985
1007
1048
1109
1197
1290
1366
1417
1450
1462
1450
1417
1362
1272
1164
1046
952
921
945
974
986
985
984
988
995
995
989
990
988
984
986
989
987
986
988
991
994
993
989
984
984
986
991
994
994
993
992
991
993
994
990
990
988
989
990
990
995
994
994
995
998
1002
1000
996
996
1001
1004
1009
1007
1005
1004
1009
1012
1016
1016
1016
1019
1019
1024
1028
1026
1026
1028
1032
1035
1038
1036
1038
1041
1046
1051
1057
1060
1061
1065
1068
1076
1081
1083
1087
1090
1094
1103
1108
1108
1111
1112
1114
1117
1121
1120
1115
1115
1114
1116
1114
1109
1107
1104
1101
1093
1092
1083
1075
1073
1072
1071
1067
1060
1050
1042
1041
1040
1040
1035
1028
1026
1027
1026
1023
1021
1016
1013
1015
1014
1014
1014
1010
1011
1012
1011
1006
1007
1004
1002
1008
1012
1013
1014
1010
1008
1012
1013
1012
1009
1010
1011
1012
1017
1020
1017
1015
1014
1017
1020
1024
1023
1020
1020
1023
1026
1031
1030
1027
1025
1025
1030
1032
1035
1035
1033
1031
1034
1035
1035
1033
1032
1034
1035
1036
1035
1035
1032
1034
1030
1032
1032
1027
1027
1028
1034
1032
1029
1024
1025
1028
1028
1029
1027
1024
1019
1019
1022
1022
1022
1019
1017
1018
1020
1019
1017
1015
1014
1015
1016
1011
1012
1009
1011
1012
1014
1012
1011
1009
1010
1008
1010
1013
1009
1008
1005
1008
1008
1009
1005
1004
1005
1008
1011
1012
1007
1002
1002
1004
1010
1009
1008
1003
1004
1008
1010
1011
1011
1009
1007
1010
1013
1019
1020
1021
1020
1026
1031
1036
1038
1039
1042
1049
1058
1070
1082
1093
1102
1101
1093
1080
1068
1059
1054
1057
1053
1050
1041
1032
1022
1015
1014
1009
1007
1005
1000
1001
1003
1006
1004
1000
999
998
1001
997
993
984
970
965
969
994
1043
1123
1231
1336
1413
1454
1471
1462
1440
1378
1275
1147
1019
905
909
947
972
977
973
971
977
983
985
984
979
977
973
973
978
978
979
974
973
975
977
978
976
969
970
975
981
984
979
978
976
978
980
984
984
978
981
983
984
986
985
984
983
988
990
995
992
988
988
994
998
1001
1001
1003
1005
1005
1009
1011
1011
1016
1017
1018
1028
1026
1027
1029
1030
1033
1042
1050
1053
1055
1056
1058
1065
1073
1077
1080
1080
1088
1095
1098
1102
1105
1108
1109
1115
1118
1116
1114
1115
1118
1123
1121
1116
1109
1106
1106
1106
1103
1094
1090
1085
1083
1080
1075
1069
1058
1054
1054
1051
1050
1046
1036
1031
1029
1031
1030
1026
1022
1019
1018
1018
1012
1014
1008
1009
1010
1013
1010
1010
1003
1003
1004
1008
1009
1007
1004
1001
1001
1004
1009
1008
1008
1008
1012
1014
1015
1013
1014
1010
1015
1022
1024
1022
1023
1022
1021
1030
1029
1031
1028
1026
1029
1032
1032
1032
1030
1028
1031
1033
1032
1033
1029
1028
1030
1029
1032
1031
1029
1029
1025
1026
1023
1024
1020
1019
1021
1023
1020
1020
1016
1012
1011
1013
1010
1010
1005
1006
1006
1009
1009
1009
1004
1002
1003
1004
1003
1001
998
1000
1000
998
1000
997
993
991
994
996
998
994
989
990
990
994
992
991
986
985
986
992
992
991
988
985
986
991
992
991
989
984
983
986
989
989
985
984
987
986
988
988
985
985
981
988
987
986
985
987
987
991
997
999
999
999
1004
1013
1018
1018
1018
1023
1037
1055
1068
1074
1072
1069
1068
1063
1057
1047
1043
1036
1028
1020
1014
1008
999
990
987
986
988
990
984
985
987
988
990
988
981
973
964
958
963
985
1024
1093
1193
1290
1362
1406
1428
1433
1414
1367
1274
1154
1026
908
866
891
931
945
946
944
949
955
960
962
956
955
954
958
962
958
954
956
959
959
961
957
956
949
955
958
961
961
955
949
953
958
963
963
960
957
962
964
964
961
958
959
962
968
968
966
962
964
968
967
972
975
980
983
984
987
987
990
991
992
998
1004
1008
1009
1010
1012
1017
1024
1027
1029
1032
1039
1049
1056
1064
1068
1070
1066
1074
1081
1086
1090
1088
1091
1093
1097
1097
1094
1087
1085
1088
1090
1082
1074
1070
1069
1068
1064
1060
1053
1044
1041
1038
1039
1034
1026
1027
1020
1017
1019
1014
1006
998
993
993
992
992
991
987
985
981
984
982
981
975
971
972
973
977
980
979
977
981
981
982
987
989
993
993
989
980
975
976
979
981
985
986
990
988
990
996
998
1000
1002
1001
1003
1003
1001
1004
1009
1011
1012
1014
1013
1007
1001
1001
1001
1001
999
999
1002
1000
995
995
998
1000
999
996
992
989
993
991
984
985
983
986
986
985
981
979
978
982
984
983
979
977
976
974
979
978
974
971
966
970
970
967
967
964
964
967
969
969
966
965
965
963
969
973
972
969
962
965
966
964
963
959
962
958
961
963
962
959
960
962
961
966
964
963
962
969
975
980
979
981
981
991
999
1002
1009
1014
1025
1040
1049
1052
1052
1047
1047
1042
1038
1028
1018
1006
999
996
995
988
984
978
975
971
972
974
974
970
972
970
974
976
974
970
967
962
962
964
981
1010
1066
1155
1254
1338
1388
1414
1421
1413
1377
1300
1177
1049
921
862
880
918
931
928
928
938
945
950
951
948
946
943
950
953
951
947
945
950
953
954
955
950
951
951
956
955
952
952
951
955
956
960
958
955
955
956
962
964
965
963
960
963
968
974
972
970
970
972
978
980
981
979
980
986
989
993
995
994
999
1006
1011
1015
1018
1018
1021
1026
1030
1038
1042
1045
1049
1058
1065
1069
1074
1074
1079
1086
1093
1099
1096
1094
1094
1094
1097
1095
1091
1087
1084
1082
1077
1075
1069
1061
1054
1048
1045
1043
1037
1030
1026
1023
1022
1020
1014
1005
1002
1002
1003
999
997
990
988
989
992
991
986
982
981
980
980
978
978
974
972
972
978
980
974
974
975
976
979
981
980
979
978
982
989
991
989
989
991
995
998
1002
1000
998
996
1003
1005
1006
1008
1005
1012
1014
1017
1018
1016
1013
1014
1012
1016
1016
1011
1009
1009
1012
1010
1012
1008
1006
1004
1005
1007
1007
1006
1004
1000
998
1002
1003
1000
996
992
992
991
991
995
991
990
993
994
994
993
991
990
991
992
991
987
984
984
987
989
987
985
983
983
980
979
979
982
980
979
981
982
983
980
979
977
979
979
980
977
973
974
974
976
979
975
975
973
974
979
977
978
974
972
974
979
983
981
978
976
977
978
981
980
979
982
986
995
1000
1004
1007
1007
1011
1019
1028
1046
1056
1065
1065
1068
1067
1061
1054
1047
1039
1030
1026
1019
1006
999
991
989
988
982
978
974
973
976
975
975
971
970
972
974
971
968
954
942
939
954
990
1053
1136
1237
1329
1397
1436
1453
1448
1419
1354
1253
1125
997
883
881
919
945
947
941
942
948
954
956
955
951
948
950
949
951
951
948
948
949
951
949
950
948
943
947
953
957
956
956
957
949
949
943
949
955
959
956
957
961
962
960
955
953
956
967
968
967
965
966
969
972
972
973
971
971
974
977
983
985
982
988
995
998
1003
1006
1008
1013
1018
1027
1031
1031
1033
1037
1043
1052
1057
1063
1068
1071
1079
1085
1094
1094
1093
1092
1095
1101
1101
1100
1100
1097
1095
1097
1097
1089
1078
1070
1072
1069
1065
1058
1049
1044
1039
1037
1030
1024
1019
1015
1013
1011
1010
1008
1002
999
998
997
994
992
987
982
982
981
983
985
982
979
980
981
980
977
974
974
976
982
983
984
983
984
986
986
988
985
983
984
987
993
992
994
989
986
991
996
1000
998
995
997
999
1003
1004
1000
997
1000
1005
1010
1010
1006
1004
1006
1009
1010
1008
1005
1002
1000
1000
1002
1000
1001
995
995
996
1002
1003
999
998
998
996
998
997
995
990
986
990
993
989
987
982
984
984
988
986
981
978
976
975
975
977
975
971
972
975
974
977
975
972
972
969
974
975
973
969
963
962
966
967
966
965
964
964
964
964
965
961
960
960
963
964
966
963
960
961
964
965
963
961
960
963
965
966
965
964
965
971
976
980
983
984
986
989
995
1007
1016
1028
1027
1029
1033
1037
1033
1033
1025
1027
1025
1021
1007
998
990
989
986
983
975
967
962
961
964
967
967
967
964
963
967
969
966
959
955
950
948
941
943
949
975
1023
1101
1197
1286
1347
1386
1407
1415
1392
1342
1256
1143
1019
912
864
872
897
913
916
917
924
929
931
933
935
944
944
940
936
936
938
939
941
938
935
935
940
941
939
940
939
936
941
944
948
946
943
940
940
943
947
944
940
943
945
951
952
951
951
949
951
954
952
950
948
947
946
953
957
959
956
959
962
966
968
969
968
969
973
978
980
982
980
986
988
992
994
999
999
1000
1007
1013
1014
1018
1020
1021
1026
1032
1040
1043
1045
1049
1053
1059
1064
1067
1067
1066
1071
1078
1081
1079
1077
1077
1078
1079
1078
1075
1069
1066
1062
1064
1058
1051
1047
1041
1038
1036
1033
1027
1021
1017
1010
1014
1008
1004
1000
996
993
991
989
987
984
982
983
982
983
978
977
974
975
980
979
977
974
971
974
977
979
978
978
978
980
981
981
983
981
982
983
988
987
985
986
984
986
991
994
993
990
990
993
1000
1003
1003
1005
1007
1010
1009
1012
1004
1004
1010
1014
1017
1016
1016
1017
1015
1015
1017
1018
1014
1012
1009
1010
1012
1013
1011
1008
1008
1007
1008
1005
1001
999
998
1001
1004
1004
1002
999
994
994
991
996
992
992
989
990
992
993
989
987
986
987
987
986
982
977
977
979
981
983
981
978
976
976
979
981
979
976
974
975
980
981
982
980
977
975
977
978
979
974
975
979
982
984
980
978
977
979
983
984
980
977
977
982
985
986
986
990
993
996
1003
1008
1008
1008
1010
1019
1034
1050
1051
1051
1046
1052
1052
1052
1052
1047
1039
1034
1027
1020
1009
1000
993
987
982
977
975
971
968
970
972
974
976
973
970
970
968
969
965
957
949
945
949
971
1006
1062
1145
1237
1316
1375
1411
1428
1434
1414
1368
1282
1169
1041
937
895
914
943
948
942
937
944
955
961
958
953
948
946
947
949
950
949
947
946
948
947
945
944
945
948
953
955
950
950
949
948
950
956
953
951
949
955
956
958
958
955
955
954
960
961
965
964
967
971
974
976
976
976
976
980
987
988
992
988
992
991
997
999
1004
1008
1013
1020
1021
1023
1024
1027
1026
1026
1032
1043
1048
1051
1055
1061
1067
1075
1073
1074
1077
1088
1098
1103
1105
1103
1108
1114
1115
1113
1112
1111
1108
1114
1115
1117
1115
1109
1107
1101
1096
1091
1087
1078
1069
1066
1064
1065
1059
1051
1045
1041
1039
1036
1030
1024
1020
1020
1021
1019
1014
1009
1008
1008
1010
1011
1002
1001
996
994
996
1000
998
993
989
989
994
994
994
992
990
990
991
991
993
990
990
993
997
1000
998
997
996
999
1000
998
1002
999
1001
1003
1005
1010
1008
1005
1004
1004
1008
1011
1008
1005
1006
1008
1009
1008
1007
1004
1003
1004
1006
1007
1002
1003
1002
1002
1001
1003
1001
999
999
999
1000
999
997
993
995
998
998
1000
998
993
991
991
992
992
988
987
984
984
988
990
988
982
983
984
986
987
985
981
977
978
980
981
983
979
979
982
983
985
983
979
976
979
981
983
982
979
976
976
980
984
978
973
974
977
982
981
978
977
978
978
978
981
981
978
979
983
989
994
994
993
995
999
1004
1012
1019
1028
1037
1044
1044
1042
1040
1038
1036
1038
1035
1032
1022
1008
1001
995
993
993
988
977
972
971
972
971
963
959
962
969
974
971
967
964
965
970
983
1001
1021
1053
1098
1163
1232
1284
1302
1296
1267
1227
1195
1142
1062
964
872
827
839
875
901
910
914
919
929
939
944
945
953
950
958
962
959
954
955
959
962
965
963
965
963
964
969
972
975
975
971
973
975
977
979
976
972
973
977
976
977
977
978
983
986
987
985
984
982
985
989
996
992
996
999
1004
1006
1008
1009
1006
1007
1010
1016
1022
1025
1028
1030
1027
1030
1034
1034
1035
1045
1059
1073
1090
1094
1096
1100
1108
1114
1118
1121
1120
1123
1127
1130
1130
1130
1127
1124
1122
1120
1116
1110
1105
1099
1105
1106
1103
1093
1084
1078
1074
1072
1068
1061
1050
1044
1041
1040
1044
1039
1033
1027
1022
1022
1019
1013
1008
1006
1004
1004
1003
1001
997
996
1000
1000
1002
997
994
992
992
992
992
991
990
994
1002
1007
1010
1008
1004
1003
1006
1010
1015
1016
1016
1016
1018
1022
1024
1024
1023
1022
1023
1025
1027
1032
1032
1035
1037
1035
1037
1041
1036
1035
1032
1033
1034
1032
1030
1030
1029
1034
1036
1034
1028
1023
1025
1024
1024
1020
1013
1011
1014
1016
1016
1015
1011
1008
1007
1009
1010
1011
1011
1006
1004
1006
1006
1003
1000
1001
1003
1004
1002
999
994
988
989
994
996
992
989
987
986
986
991
995
993
992
990
991
994
990
987
984
987
988
992
992
991
992
996
999
1006
1012
1010
1016
1017
1027
1037
1045
1054
1053
1055
1053
1057
1056
1051
1050
1048
1042
1036
1024
1014
1010
1004
1002
996
992
983
979
983
984
983
981
978
980
985
984
982
976
970
966
963
970
998
1031
1093
1175
1262
1330
1376
1403
1413
1398
1353
1279
1174
1048
927
869
883
923
945
945
938
937
947
958
967
969
969
963
951
950
957
963
965
959
954
950
952
959
960
959
964
961
962
962
960
959
962
966
960
965
964
961
963
966
968
966
965
963
968
970
974
976
975
971
973
973
978
980
976
979
981
988
996
1003
1001
1005
1006
1006
1010
1012
1013
1017
1022
1023
1028
1037
1045
1050
1055
1058
1066
1072
1074
1077
1081
1087
1093
1096
1099
1094
1100
1102
1106
1102
1096
1091
1093
1091
1091
1085
1074
1068
1064
1063
1059
1048
1041
1036
1035
1029
1026
1018
1011
1005
1004
1005
1004
999
994
992
992
989
990
986
983
978
978
982
979
979
974
971
969
969
973
970
966
962
965
968
970
969
969
969
970
974
974
975
970
969
972
977
978
981
977
980
983
988
994
991
987
987
990
995
998
995
988
987
992
1000
1005
1002
998
1001
1002
1001
998
993
992
995
997
996
999
991
984
979
979
989
993
989
983
980
981
986
987
986
982
978
980
980
981
979
977
974
978
977
978
974
973
970
970
974
973
973
969
966
966
968
968
969
967
964
962
965
969
967
965
959
963
966
968
969
965
963
965
967
969
970
969
969
977
984
989
995
996
999
1007
1016
1030
1038
1035
1033
1026
1030
1032
1031
1028
1021
1016
1007
1002
993
981
974
970
965
962
957
953
949
950
954
952
954
950
947
951
951
950
945
931
921
923
944
983
1044
1126
1220
1308
1368
1404
1418
1405
1364
1283
1166
1038
910
861
883
917
929
926
924
925
926
926
930
934
929
923
923
927
927
930
931
928
930
931
935
934
934
928
928
929
934
937
935
934
932
934
936
937
936
935
934
935
938
940
941
941
942
945
948
951
948
947
946
949
954
962
963
962
960
968
974
980
979
979
982
984
994
999
1001
1001
1005
1016
1023
1029
1030
1035
1040
1046
1055
1063
1067
1071
1070
1074
1078
1082
1083
1079
1076
1077
1077
1076
1073
1067
1059
1056
1054
1050
1046
1039
1027
1023
1022
1021
1009
1005
1003
999
997
994
987
981
977
978
975
975
970
965
966
965
965
965
960
951
954
953
954
952
950
951
946
949
951
950
950
948
948
947
953
954
950
948
949
952
953
956
952
952
950
953
952
958
956
952
951
954
957
961
960
957
957
961
963
963
964
958
960
963
967
969
964
961
954
956
960
964
958
955
956
952
956
956
955
949
948
950
946
950
948
945
946
945
946
944
942
943
939
941
941
944
941
939
936
937
940
943
939
937
936
938
939
942
939
937
935
934
935
937
935
935
932
937
937
940
940
934
931
934
936
936
935
929
930
935
938
940
942
945
947
954
955
962
965
969
977
991
1006
1014
1013
1008
1007
1007
1012
1012
1010
1000
989
980
974
971
964
951
945
941
938
939
933
929
929
931
933
933
932
930
927
925
922
911
902
898
912
953
1025
1126
1226
1311
1372
1406
1420
1411
1373
1293
1179
1051
923
856
863
887
902
902
905
910
915
916
917
917
917
918
917
913
913
915
917
918
919
914
914
916
919
920
920
917
916
916
920
920
922
921
919
920
927
925
923
918
920
919
926
929
929
926
928
929
933
938
939
934
932
935
943
948
949
949
949
946
953
959
959
962
961
969
974
982
983
983
991
997
1004
1013
1017
1022
1025
1034
1044
1053
1057
1058
1062
1067
1073
1079
1080
1077
1076
1074
1076
1081
1079
1075
1067
1063
1063
1063
1055
1049
1039
1035
1030
1026
1023
1016
1009
1004
1002
1003
1000
996
989
985
986
988
985
980
977
974
974
980
977
969
962
958
962
963
965
959
951
951
957
962
962
962
957
956
955
963
961
961
960
960
966
970
969
969
970
972
977
981
979
978
978
980
984
991
987
982
982
984
985
987
985
982
983
983
985
988
982
973
969
971
975
980
982
978
974
973
976
979
976
975
970
973
973
973
971
964
964
964
966
968
963
958
956
958
961
961
959
959
955
957
959
962
962
962
959
955
957
958
959
956
955
955
961
960
958
955
956
960
964
964
960
957
955
959
962
967
969
974
975
978
981
987
991
996
1006
1016
1030
1034
1030
1025
1026
1025
1030
1029
1022
1015
1004
998
992
988
981
974
965
963
961
960
958
957
954
956
957
958
957
951
950
951
955
951
946
941
945
967
1011
1079
1171
1261
1329
1371
1398
1410
1399
1358
1277
1160
1032
914
865
879
910
929
931
935
938
943
941
940
944
944
941
937
932
937
939
943
942
936
934
935
940
944
939
939
937
938
942
943
946
941
940
942
944
948
947
944
944
943
948
951
952
950
949
951
958
958
956
955
955
959
958
962
967
966
966
970
975
979
983
985
983
991
998
1004
1006
1008
1012
1015
1021
1025
1028
1033
1037
1041
1046
1051
1053
1056
1062
1067
1072
1079
1084
1084
1082
1083
1089
1090
1088
1086
1082
1080
1081
1082
1074
1069
1066
1062
1056
1053
1048
1044
1038
1031
1028
1024
1017
1012
1005
1003
1001
999
991
986
981
983
983
982
980
975
970
972
975
976
975
968
964
965
965
968
961
961
961
961
965
968
967
966
964
969
967
973
975
970
971
969
972
973
971
971
969
973
979
979
982
