978
977
981
983
981
982
977
974
978
979
977
977
972
972
974
977
974
974
968
972
974
978
978
973
967
970
971
974
975
972
970
967
969
972
973
972
969
972
969
974
976
974
971
971
971
971
974
970
967
964
968
972
974
971
967
964
971
971
973
973
970
968
970
971
972
967
969
968
968
973
974
971
970
970
972
973
975
975
970
970
972
975
976
973
969
970
972
977
979
976
976
974
976
979
983
981
978
978
980
987
990
990
990
991
994
999
1002
1002
1006
1009
1012
1014
1016
1012
1007
1005
1004
1005
1008
1005
1000
995
992
996
996
989
990
986
985
990
988
985
984
984
986
992
994
991
987
986
990
992
989
985
988
1002
1031
1075
1123
1176
1216
1249
1268
1276
1278
1270
1254
1226
1176
1111
1044
1006
1001
1003
1003
999
994
988
985
983
981
978
978
974
968
966
965
967
963
963
960
960
962
964
964
960
956
955
956
959
960
959
957
955
957
961
962
961
959
957
961
963
965
966
964
960
963
965
968
968
966
966
970
972
973
972
971
972
978
980
982
984
978
983
985
990
995
995
997
998
1001
1006
1008
1010
1011
1013
1017
1024
1031
1030
1035
1039
1043
1046
1052
1059
1060
1065
1070
1076
1082
1082
1081
1085
1091
1095
1099
1098
1097
1096
1095
1099
1098
1095
1089
1086
1083
1081
1081
1075
1068
1064
1061
1054
1055
1048
1040
1037
1033
1028
1028
1025
1014
1010
1011
1011
1007
1003
999
998
995
997
995
991
986
983
985
984
983
982
979
976
976
976
978
973
971
971
972
972
973
970
966
965
965
969
969
967
966
962
965
968
968
969
964
962
965
964
972
968
967
969
968
973
974
970
966
970
968
971
977
975
974
971
972
976
975
976
973
972
973
974
974
977
973
972
971
974
976
976
972
971
972
970
976
975
972
971
971
974
974
972
970
968
969
972
970
972
968
964
969
970
971
970
968
966
967
970
968
968
967
965
967
970
970
969
965
963
965
967
971
969
966
966
966
968
967
966
962
962
966
969
970
967
965
966
968
968
972
969
966
963
966
968
968
966
966
966
968
970
969
969
969
967
969
970
973
971
970
968
971
973
970
971
967
968
970
973
972
972
970
970
972
971
975
974
970
971
969
971
976
973
972
970
974
976
977
976
974
971
974
977
976
977
974
974
976
980
982
980
982
980
982
984
986
990
984
991
994
1001
1003
1005
1002
1005
1010
1018
1020
1017
1017
1013
1013
1013
1012
1013
1005
1004
1000
1001
1003
1000
996
992
992
992
995
993
986
988
990
993
994
995
993
992
992
994
989
988
986
1002
1028
1078
1133
1187
1232
1260
1277
1285
1280
1263
1231
1176
1101
1037
1012
1012
1012
1005
1000
995
996
993
986
979
978
976
976
972
971
967
967
965
964
965
963
962
961
966
967
962
962
960
963
964
965
965
961
961
961
961
966
965
963
964
964
966
969
967
967
968
972
974
978
977
976
978
978
982
980
980
981
982
986
993
995
996
996
995
997
1003
1007
1005
1009
1009
1018
1021
1030
1031
1032
1033
1042
1052
1056
1061
1057
1063
1068
1075
1083
1084
1085
1086
1091
1094
1100
1103
1100
1096
1100
1102
1100
1100
1094
1089
1085
1088
1085
1078
1071
1063
1061
1059
1058
1050
1041
1033
1030
1031
1027
1024
1019
1016
1009
1014
1012
1009
1003
999
999
1000
1001
996
992
989
988
990
990
988
983
983
981
983
983
983
979
978
979
980
982
981
978
973
976
978
979
977
975
973
974
978
979
976
976
977
973
981
979
980
978
974
975
978
978
979
976
977
982
985
985
984
979
981
982
985
984
986
984
982
981
983
985
986
982
980
981
983
986
983
981
981
984
985
985
981
977
980
981
983
984
983
980
976
977
978
983
980
976
976
975
979
981
980
977
977
978
980
979
982
978
976
976
980
982
980
976
975
978
979
980
982
977
975
978
978
979
977
977
977
978
977
980
982
979
974
976
978
978
979
977
974
976
981
980
981
979
977
979
984
984
981
980
977
980
983
984
981
980
976
979
982
981
983
979
980
980
981
985
984
980
979
978
984
985
984
981
979
982
985
987
987
984
981
985
987
987
986
985
983
985
988
990
985
983
985
985
989
990
989
985
984
989
991
994
992
991
991
992
999
1000
1002
1000
998
1004
1008
1013
1016
1014
1015
1022
1024
1031
1032
1027
1020
1019
1024
1023
1021
1018
1014
1010
1011
1009
1005
1001
996
999
997
999
998
996
994
999
1002
1005
1004
998
999
996
997
997
997
1002
1026
1065
1117
1171
1219
1255
1275
1280
1284
1278
1258
1222
1158
1081
1027
1012
1017
1012
1005
999
997
996
994
989
982
982
981
981
977
974
969
971
975
973
972
971
966
968
971
974
973
971
969
967
973
976
974
972
971
973
975
975
977
974
973
974
979
983
981
980
978
982
985
991
989
986
987
990
996
997
997
995
996
1000
1006
1008
1006
1009
1011
1015
1021
1022
1026
1027
1028
1033
1038
1044
1047
1050
1050
1056
1065
1069
1070
1072
1076
1080
1091
1097
1102
1100
1104
1109
1113
1116
1115
1117
1114
1115
1116
1119
1115
1113
1109
1107
1104
1102
1099
1091
1085
1084
1083
1080
1074
1063
1056
1055
1052
1053
1049
1043
1038
1034
1033
1035
1030
1027
1022
1020
1022
1021
1019
1012
1009
1008
1009
1010
1008
1004
1001
999
1007
1006
1004
1001
997
999
1001
1000
1000
999
995
998
1002
1004
1000
998
998
999
1001
1003
1001
999
999
999
1003
1005
1004
1000
1001
1003
1006
1006
1004
1001
1003
1003
1007
1008
1004
1002
1001
1004
1006
1008
1006
1003
1001
1002
1004
1005
1003
998
997
999
1001
1002
999
997
997
997
1001
1000
996
992
992
993
995
997
996
993
990
991
992
993
993
990
987
989
988
991
992
988
988
988
987
992
989
984
984
984
990
989
988
986
984
986
989
991
991
986
985
986
986
989
988
983
983
985
987
987
983
982
981
983
987
988
986
984
981
984
984
986
985
983
983
981
984
987
988
982
982
982
985
985
985
982
979
985
984
987
986
985
984
980
986
988
987
980
980
983
988
988
987
982
982
984
985
987
986
985
982
985
988
990
989
984
985
986
989
993
995
992
994
993
1000
1003
1004
1000
1000
1007
1011
1016
1022
1023
1022
1023
1023
1026
1020
1016
1015
1016
1016
1014
1010
1003
1001
1001
1001
1002
999
994
992
994
994
997
998
995
994
996
997
1001
998
993
987
991
1002
1028
1064
1112
1165
1212
1252
1277
1283
1278
1264
1248
1207
1141
1060
1005
993
999
1005
1002
993
989
989
987
985
987
983
976
971
973
972
971
971
968
967
967
971
970
970
966
963
964
967
969
971
966
964
964
966
968
971
969
967
968
971
974
973
972
971
971
975
979
981
977
975
978
983
982
981
984
984
985
989
992
993
988
991
994
998
1001
1003
1003
1006
1007
1014
1017
1018
1019
1021
1027
1032
1039
1039
1042
1046
1049
1057
1067
1067
1071
1072
1079
1084
1090
1092
1093
1091
1094
1098
1100
1100
1099
1095
1096
1094
1092
1094
1083
1080
1078
1074
1075
1070
1061
1054
1050
1047
1046
1040
1032
1027
1026
1024
1024
1018
1013
1008
1006
1004
1006
1001
996
991
991
991
992
990
987
983
983
983
984
979
977
974
972
977
979
977
974
972
973
976
975
975
974
971
973
975
975
976
975
970
971
975
977
976
974
972
974
977
979
980
978
975
976
978
983
979
979
978
976
982
982
979
979
977
978
978
982
980
975
977
976
979
981
978
976
973
975
977
978
977
975
973
975
975
976
976
973
973
971
972
977
972
971
969
969
972
973
972
970
968
970
970
970
968
966
966
963
969
970
968
964
963
965
966
968
968
964
965
964
967
969
969
966
963
962
968
971
971
965
963
963
966
968
967
965
962
961
966
965
965
962
962
960
961
967
965
964
962
961
965
964
964
962
960
962
962
966
964
963
958
960
962
967
964
963
960
961
966
968
965
963
959
962
964
967
965
964
963
963
966
966
968
965
959
963
966
965
968
965
963
965
970
972
972
970
969
972
974
977
979
979
978
981
987
989
992
991
990
997
1005
1009
1009
1006
1002
1001
1000
1003
997
997
992
993
993
992
988
984
978
976
978
979
977
974
972
973
978
982
978
979
977
975
981
982
979
974
972
968
976
992
1018
1051
1103
1157
1203
1240
1258
1265
1263
1257
1242
1209
1148
1071
1011
984
989
992
989
981
976
971
973
973
970
963
959
957
957
957
954
953
948
946
948
952
951
949
947
946
946
948
947
947
945
943
947
948
950
946
946
946
950
950
946
950
948
949
949
953
953
954
951
953
955
960
959
957
956
959
961
966
967
965
962
966
971
973
972
974
973
976
979
987
985
985
985
992
995
1000
1002
1003
1002
1008
1015
1021
1023
1024
1027
1034
1040
1045
1047
1048
1050
1056
1065
1068
1070
1069
1072
1076
1081
1084
1085
1081
1080
1082
1083
1084
1080
1074
1072
1069
1067
1067
1061
1052
1048
1044
1041
1040
1035
1031
1024
1021
1021
1019
1013
1009
1004
1003
998
1001
997
992
987
986
986
988
986
976
973
973
973
973
975
969
966
962
968
968
965
964
961
963
965
965
963
962
959
960
965
965
963
961
955
961
962
963
964
962
960
959
960
964
964
962
963
962
967
966
965
966
963
964
966
969
968
967
965
965
966
967
968
966
965
965
968
968
968
965
962
964
967
968
969
962
958
960
962
966
966
964
961
963
963
968
964
961
961
963
963
966
964
962
958
958
961
965
964
958
958
957
958
961
960
958
956
956
960
962
958
957
955
957
961
962
961
956
954
956
959
960
959
956
957
955
959
962
960
959
955
957
959
961
960
958
958
959
962
959
961
957
954
954
957
962
960
959
955
957
960
961
962
954
955
955
959
961
961
957
956
957
960
963
961
958
958
956
962
964
962
961
959
961
962
966
965
960
960
961
961
964
964
962
958
963
963
966
966
964
961
964
966
970
967
965
961
963
969
972
973
971
969
971
975
978
978
979
980
984
988
992
992
993
999
1002
1010
1013
1012
1003
999
999
1003
1006
1004
997
994
991
992
991
988
984
978
975
976
982
980
976
973
973
977
980
982
978
977
980
982
984
984
978
974
980
992
1020
1053
1095
1141
1192
1230
1253
1263
1261
1254
1242
1216
1171
1102
1036
998
992
998
997
989
979
973
973
970
971
968
961
956
956
953
954
955
951
947
948
953
950
950
946
944
947
949
950
949
947
946
945
950
950
952
949
947
947
950
952
951
950
948
950
953
955
955
956
953
955
958
961
962
961
962
962
966
965
967
967
968
970
973
978
976
974
972
977
982
986
987
989
987
992
997
1001
1005
1007
1004
1010
1015
1022
1023
1025
1026
1030
1039
1050
1050
1051
1052
1058
1064
1070
1071
1069
1072
1078
1081
1085
1085
1085
1081
1081
1083
1084
1083
1076
1075
1072
1070
1071
1063
1058
1053
1049
1046
1048
1042
1034
1031
1026
1020
1024
1019
1011
1008
1007
1004
1005
1002
998
991
992
987
990
988
985
978
980
980
981
980
976
970
972
974
974
973
967
964
965
967
968
966
965
962
960
965
967
967
964
962
962
964
968
967
967
963
967
969
973
971
969
969
967
970
972
975
972
970
970
973
975
978
975
971
973
977
977
980
976
974
974
976
980
979
974
975
974
978
980
977
972
972
972
974
977
973
975
969
971
973
975
975
971
968
969
970
975
972
972
969
967
968
970
972
969
966
968
971
974
970
968
967
967
968
972
972
967
966
967
971
974
974
972
969
969
971
974
972
969
969
972
974
975
974
970
967
973
974
971
975
974
970
970
973
977
976
973
969
976
974
978
977
975
972
971
975
978
976
975
972
972
973
976
977
974
973
974
976
979
979
978
974
976
977
982
982
981
980
981
982
987
990
989
988
989
992
998
1001
1000
1002
1007
1013
1019
1023
1023
1018
1014
1019
1018
1017
1013
1010
1010
1005
1008
1002
994
993
992
992
994
988
987
985
985
988
992
992
989
989
989
992
996
995
993
988
987
989
995
1008
1030
1062
1108
1163
1214
1251
1274
1279
1285
1280
1268
1239
1183
1107
1028
985
981
986
986
979
975
975
976
978
975
969
969
968
971
966
962
963
963
964
966
967
962
960
962
963
964
962
962
961
960
963
965
962
959
960
962
966
967
966
964
962
963
967
970
970
967
966
967
969
971
971
970
972
972
976
976
975
980
977
981
983
986
987
987
988
988
992
997
998
999
999
1001
1007
1012
1014
1016
1016
1019
1023
1031
1034
1034
1035
1040
1049
1056
1058
1058
1060
1064
1068
1077
1080
1081
1081
1086
1090
1095
1095
1094
1092
1093
1090
1092
1094
1090
1084
1081
1080
1078
1074
1066
1060
1053
1052
1047
1046
1038
1029
1027
1025
1022
1019
1012
1006
1003
1001
1001
995
992
988
986
988
986
985
980
976
976
975
976
977
974
970
970
970
973
973
969
967
968
971
974
971
970
969
971
974
973
974
971
966
971
973
979
978
975
973
972
976
978
978
978
975
977
978
982
981
982
978
980
980
985
983
981
979
981
981
984
984
977
975
977
977
978
980
977
971
973
974
977
975
971
967
968
967
973
974
971
964
966
966
971
968
967
963
964
964
968
965
962
961
958
963
965
966
960
957
961
962
965
963
961
960
959
961
962
963
959
958
958
961
963
961
957
958
954
960
960
961
958
955
958
959
962
962
961
956
955
960
961
961
957
955
958
958
963
962
960
957
958
961
962
962
959
958
958
962
964
963
961
957
959
962
963
964
962
958
959
963
967
966
966
966
966
970
972
975
974
974
978
982
988
991
992
993
1001
1009
1013
1011
1006
1001
1000
998
998
997
992
986
984
983
984
983
977
973
968
969
973
969
969
969
968
972
975
975
973
971
971
973
972
967
964
974
1000
1045
1100
1161
1211
1246
1268
1279
1280
1270
1247
1209
1141
1058
999
980
982
984
981
976
975
972
967
959
954
954
954
951
945
941
940
942
944
944
944
942
941
943
946
945
942
939
941
944
945
946
943
944
943
946
948
948
944
948
946
947
952
950
953
949
950
953
958
957
957
957
959
959
964
965
962
962
964
967
974
974
975
976
979
981
986
989
989
990
996
1000
1006
1010
1011
1015
1018
1025
1034
1037
1038
1043
1047
1055
1063
1069
1069
1071
1075
1076
1085
1086
1087
1084
1086
1088
1090
1087
1084
1078
1078
1074
1075
1068
1062
1053
1051
1048
1045
1041
1037
1031
1025
1023
1022
1017
1010
1002
1002
1001
1001
994
992
986
985
984
984
981
977
975
974
972
974
972
967
964
965
964
966
962
961
955
956
957
960
958
953
950
953
956
956
958
953
954
951
954
957
959
954
954
953
957
959
963
961
960
962
963
966
964
964
962
959
960
965
963
964
960
963
963
966
967
964
960
960
960
965
964
964
960
959
966
966
966
963
960
961
963
962
965
962
960
959
960
962
960
960
957
957
959
963
961
958
957
957
960
962
960
958
953
954
955
961
959
958
956
956
957
961
959
956
954
954
956
957
959
960
956
953
955
959
960
956
955
954
955
958
959
956
957
955
958
960
961
960
956
956
959
960
957
958
958
956
955
958
958
958
956
954
957
960
960
955
957
958
959
964
964
959
958
958
962
961
968
963
960
963
966
969
972
972
970
973
977
981
984
984
987
991
996
1005
1010
1007
1004
998
998
1001
997
996
992
989
987
987
983
979
975
975
975
975
975
973
972
972
973
977
977
975
974
975
975
976
972
968
973
996
1034
1090
1147
1201
1240
1268
1282
1287
1276
1256
1221
1161
1086
1023
995
991
990
986
980
976
970
967
967
964
963
964
961
958
952
949
952
955
954
951
949
948
952
952
954
952
951
951
950
955
956
951
950
948
954
954
958
957
954
953
956
962
960
958
958
958
960
965
964
965
963
962
970
973
974
973
970
975
977
982
983
983
983
984
991
995
994
995
996
999
1007
1013
1016
1017
1021
1023
1030
1037
1043
1044
1046
1052
1061
1068
1072
1074
1076
1082
1088
1094
1097
1098
1097
1099
1103
1104
1106
1102
1098
1096
1096
1094
1092
1084
1076
1072
1067
1065
1061
1054
1048
1040
1039
1036
1032
1028
1023
1018
1016
1016
1012
1008
1000
998
999
1001
1000
997
992
990
990
989
988
984
982
979
982
982
981
979
976
978
979
981
981
980
978
976
980
984
982
980
977
979
984
986
986
982
981
979
984
989
987
988
985
985
987
992
993
992
989
989
991
996
992
994
990
992
994
996
996
995
992
994
994
1000
997
995
989
991
993
994
995
993
990
990
992
995
994
990
986
986
991
992
991
986
983
985
986
986
989
987
982
986
986
990
988
983
984
984
988
990
990
987
983
982
982
984
989
984
984
983
986
986
986
983
982
983
985
988
988
985
982
982
985
988
986
985
980
981
984
988
987
985
985
983
986
989
990
988
985
986
989
989
993
990
988
987
990
997
998
994
995
995
1001
1004
1005
1007
1008
1008
1014
1021
1024
1024
1025
1027
1026
1030
1023
1022
1019
1015
1014
1016
1015
1009
1005
1001
1002
1000
999
997
994
994
996
1000
997
994
996
997
1001
1002
1002
999
996
995
993
997
1002
1017
1045
1091
1145
1200
1248
1276
1290
1292
1285
1270
1236
1171
1099
1030
996
996
999
996
986
982
985
985
982
977
974
968
974
975
973
969
965
964
966
967
969
965
963
962
965
968
965
965
964
964
967
965
967
968
963
964
967
970
968
967
964
968
968
971
971
971
969
972
973
981
980
979
975
978
980
986
986
985
986
986
989
992
994
993
989
992
997
1004
1007
1005
1007
1008
1012
1019
1023
1025
1026
1029
1035
1042
1048
1050
1050
1057
1065
1072
1078
1079
1082
1085
1091
1097
1102
1101
1100
1100
1105
1108
1107
1106
1103
1102
1101
1101
1097
1092
1087
1080
1081
1078
1072
1065
1059
1053
1050
1049
1044
1037
1031
1025
1024
1023
1021
