981
981
978
975
976
980
982
980
979
979
978
978
982
983
983
982
979
981
983
981
979
978
979
982
983
982
982
988
990
995
996
992
992
992
994
1002
1011
1011
1013
1012
1014
1021
1023
1022
1022
1023
1023
1026
1028
1022
1012
1002
993
989
987
978
970
966
969
974
977
974
973
971
970
968
971
972
970
968
968
972
978
977
972
969
968
969
970
972
971
969
969
971
974
970
972
969
968
969
969
963
962
965
971
978
988
992
985
967
953
949
950
946
942
935
925
916
913
905
898
884
872
864
860
861
864
870
876
884
898
913
926
931
940
950
961
966
971
973
976
980
979
979
978
981
982
984
983
982
982
983
982
984
983
983
986
987
986
987
990
988
985
984
984
988
989
987
986
989
989
990
995
993
991
992
990
993
994
995
995
996
995
997
997
998
998
999
999
1002
1005
1005
1003
1003
1004
1006
1009
1009
1010
1010
1010
1009
1013
1012
1011
1009
1007
1010
1012
1012
1011
1008
1008
1008
1008
1005
1001
1001
1002
1005
1007
1006
1002
1000
997
997
999
996
995
988
989
991
991
990
987
985
983
987
988
986
985
981
983
987
988
984
984
983
983
983
983
979
979
982
988
989
987
988
985
984
984
984
988
987
984
978
979
978
977
980
979
981
976
978
979
976
976
974
972
971
970
972
971
972
970
973
976
979
975
973
970
971
973
972
969
966
965
969
969
969
968
966
966
966
967
967
966
963
965
967
972
967
966
965
966
967
969
966
965
966
968
968
968
966
966
968
968
970
974
972
969
968
970
972
975
973
971
968
967
969
974
970
969
967
970
976
975
975
975
975
972
973
974
974
971
970
972
973
973
975
973
972
972
971
973
973
974
975
977
976
975
975
976
975
974
971
975
976
979
975
973
978
982
979
977
971
974
980
985
986
990
990
989
992
997
1000
1004
1006
1008
1010
1018
1018
1017
1017
1017
1020
1025
1027
1025
1021
1014
1008
999
993
984
977
969
970
971
974
970
970
968
969
968
966
969
971
972
975
974
973
972
967
969
969
970
975
975
974
972
973
973
973
973
969
971
971
972
974
972
973
970
972
971
971
964
964
965
972
978
980
984
988
985
969
958
953
952
947
946
947
937
926
915
905
899
897
895
887
873
864
862
860
865
871
875
877
882
895
913
927
931
935
943
956
966
974
978
977
980
982
981
978
979
980
984
986
988
987
983
982
984
985
989
987
986
984
984
988
989
989
988
985
984
988
991
987
989
989
990
992
993
992
991
988
988
993
997
997
994
992
995
1001
1006
1002
999
998
998
999
1003
1004
1002
1001
1002
1004
1009
1011
1010
1010
1009
1012
1014
1014
1012
1009
1011
1013
1016
1016
1015
1013
1013
1013
1011
1013
1008
1007
1010
1013
1017
1014
1008
1002
1005
1006
1006
1005
1001
998
998
998
997
998
993
990
991
992
993
992
989
987
988
994
992
993
990
984
980
983
987
989
988
985
981
984
987
988
985
982
981
983
981
979
981
978
982
982
983
983
978
980
980
980
981
977
977
975
976
976
978
981
980
976
971
972
976
978
975
973
974
974
973
973
967
965
966
969
973
972
971
969
969
970
970
969
967
964
964
965
968
967
965
965
967
970
971
971
968
964
965
970
971
967
966
965
967
972
977
978
974
968
971
974
979
978
976
970
968
975
979
977
973
976
980
981
976
977
973
967
970
978
987
984
976
973
976
978
979
978
977
977
978
981
980
981
980
977
981
980
979
980
979
980
980
985
985
986
986
983
983
984
984
988
987
982
980
983
985
986
987
982
980
982
985
985
982
979
980
988
990
990
992
987
992
998
1000
1000
999
1000
1010
1015
1017
1018
1016
1017
1019
1020
1021
1023
1022
1023
1024
1025
1025
1015
1007
999
993
986
980
973
969
970
972
972
975
973
972
970
969
972
972
971
968
968
971
969
968
966
966
968
972
971
971
972
971
971
970
972
971
969
968
969
972
972
973
969
969
968
970
966
962
961
967
975
981
979
982
985
974
958
946
942
943
943
940
939
931
921
918
906
900
895
888
880
871
862
855
854
861
872
882
882
886
897
913
927
936
942
950
956
965
971
976
975
976
975
976
980
981
979
977
974
977
981
984
986
986
981
979
982
983
981
979
978
982
985
986
986
981
980
982
985
984
982
980
981
982
980
979
980
979
979
982
988
990
990
987
987
990
994
995
997
998
996
992
992
993
991
996
999
1005
1002
1001
1001
1003
1000
999
997
1004
1004
1002
998
997
1001
1003
1002
1003
1001
1003
1009
1008
1002
999
994
996
994
999
995
992
986
982
979
982
985
988
982
977
970
968
970
971
968
970
970
971
969
967
964
963
964
967
969
964
960
958
955
960
962
960
956
955
953
954
951
951
950
955
958
959
957
949
943
941
943
947
947
952
951
947
947
949
947
947
947
945
949
952
953
947
944
941
937
940
938
936
931
928
929
931
927
925
926
936
941
944
933
921
912
910
919
925
926
928
928
930
924
916
918
925
923
924
928
933
929
914
898
899
910
922
927
926
921
915
912
918
923
924
923
919
919
917
917
923
930
932
927
923
919
908
904
908
919
923
921
917
912
915
916
920
921
925
929
923
912
908
904
911
915
921
926
921
911
907
911
918
918
923
923
920
916
918
917
916
920
919
913
911
915
925
923
915
909
912
921
928
925
913
908
910
912
915
917
915
909
902
902
912
917
918
916
911
913
915
918
918
911
908
907
909
911
909
911
909
911
911
915
916
908
905
904
907
907
908
906
910
913
913
912
910
910
913
915
918
919
917
915
913
915
920
920
919
917
919
918
920
923
921
915
913
915
923
923
921
916
917
918
923
925
926
922
920
919
923
927
928
927
932
939
941
941
939
940
946
954
955
958
963
960
963
964
968
966
966
967
974
980
982
984
977
964
953
950
948
947
938
934
925
923
923
924
923
920
923
923
928
929
926
927
926
926
925
928
929
928
927
928
929
930
930
930
931
931
930
927
926
925
927
930
928
934
935
931
931
933
936
934
933
929
929
938
947
954
954
955
957
958
945
928
918
912
909
908
908
903
892
886
883
877
871
861
849
836
829
830
830
830
830
834
840
844
851
863
878
886
895
905
914
922
929
935
941
949
952
953
952
948
950
956
959
959
959
958
955
959
963
967
966
962
964
964
966
965
963
962
964
966
970
971
970
968
969
969
970
969
972
972
974
978
981
980
978
975
978
978
980
982
980
980
980
986
986
984
986
986
986
993
992
991
994
989
994
995
999
1000
999
998
998
1000
1000
1000
1002
1005
1008
1008
1005
1003
1001
1001
1003
1009
1011
1008
1005
1005
1005
1004
1003
1003
1002
1000
1000
1000
998
1002
1002
1001
1000
998
997
997
998
995
995
994
991
989
986
986
987
990
990
995
995
992
990
989
992
990
989
988
991
992
993
991
991
988
988
989
990
994
992
990
992
994
997
995
994
991
994
995
997
995
996
992
992
993
993
993
995
994
995
995
992
990
991
988
991
992
991
991
991
988
988
991
996
996
996
992
992
993
993
991
991
987
988
988
992
991
992
987
987
987
989
987
987
983
983
984
989
989
988
985
986
990
992
995
991
987
990
991
995
993
994
991
992
994
999
995
993
995
993
995
997
997
994
992
994
993
997
1000
1000
997
997
997
1002
1001
1001
1001
999
1003
1005
1004
998
999
1002
1003
1006
1006
1005
1004
1004
1007
1007
1008
1005
1001
1000
1007
1012
1012
1005
1002
1004
1007
1010
1012
1011
1011
1010
1011
1009
1010
1009
1009
1008
1006
1010
1011
1011
1013
1013
1014
1014
1016
1012
1010
1009
1011
1012
1013
1012
1012
1014
1013
1015
1015
1013
1010
1011
1013
1013
1015
1014
1012
1011
1016
1018
1017
1018
1015
1016
1016
1015
1016
1015
1014
1015
1020
1020
1019
1018
1015
1017
1019
1020
1019
1018
1013
1014
1017
1023
1021
1020
1019
1018
1020
1020
1018
1019
1020
1023
1022
1023
1022
1021
1019
1021
1019
1021
1022
1020
1015
1017
1021
1027
1029
1026
1022
1024
1027
1027
1026
1024
1022
1023
1024
1023
1023
1024
1023
1023
1024
1027
1025
1024
1022
1023
1028
1029
1028
1028
1023
1024
1029
1033
1037
1040
1037
1038
1041
1042
1043
1050
1049
1055
1059
1060
1064
1065
1066
1068
1069
1072
1075
1075
1073
1073
1070
1060
1052
1044
1039
1032
1027
1020
1017
1015
1019
1021
1023
1024
1024
1022
1013
1015
1018
1023
1023
1023
1021
1021
1021
1021
1019
1021
1020
1022
1021
1022
1022
1020
1020
1019
1020
1022
1021
1018
1019
1019
1021
1021
1022
1024
1020
1015
1019
1022
1029
1031
1032
1038
1041
1039
1017
1002
995
994
1001
1000
990
973
960
955
952
948
942
927
914
907
906
907
912
916
921
928
936
952
968
979
985
991
999
1009
1018
1025
1031
1030
1034
1036
1037
1038
1036
1035
1035
1038
1039
1040
1037
1040
1038
1038
1040
1039
1036
1040
1042
1045
1043
1040
1039
1037
1042
1044
1045
1046
1041
1042
1042
1049
1046
1045
1042
1044
1045
1050
1052
1050
1047
1049
1050
1053
1055
1055
1052
1052
1054
1055
1055
1053
1050
1051
1054
1057
1057
1059
1057
1060
1063
1063
1062
1061
1059
1060
1062
1063
1065
1062
1060
1061
1062
1067
1066
1062
1058
1057
1061
1062
1060
1058
1054
1059
1062
1061
1057
1056
1050
1049
1052
1052
1050
1049
1045
1043
1043
1045
1043
1041
1037
1041
1042
1043
1043
1041
1032
1036
1040
1042
1043
1040
1034
1035
1036
1038
1037
1039
1033
1034
1036
1038
1038
1037
1035
1031
1034
1034
1033
1034
1031
1033
1032
1032
1034
1033
1030
1030
1032
1033
1033
1031
1027
1025
1026
1026
1024
1022
1018
1022
1022
1023
1025
1022
1023
1022
1024
1023
1021
1018
1015
1013
1015
1018
1018
1018
1015
1016
1018
1017
1017
1016
1015
1013
1015
1018
1018
1017
1017
1018
1018
1021
1019
1017
1016
1015
1019
1018
1018
1018
1016
1017
1017
1020
1020
1019
1015
1016
1016
1023
1023
1022
1018
1018
1018
1020
1018
1014
1016
1019
1022
1023
1021
1021
1019
1019
1019
1019
1019
1019
1015
1017
1018
1020
1022
1020
1016
1017
1019
1019
1018
1017
1013
1016
1018
1023
1021
1021
1017
1016
1019
1020
1019
1014
1009
1012
1017
1017
1017
1013
1012
1013
1016
1017
1014
1014
1013
1014
1014
1015
1016
1016
1013
1013
1015
1015
1015
1014
1011
1012
1018
1020
1019
1016
1011
1013
1017
1018
1016
1014
1013
1014
1016
1016
1015
1012
1011
1014
1014
1018
1016
1015
1015
1015
1013
1014
1017
1015
1013
1016
1016
1016
1016
1017
1018
1018
1022
1024
1025
1023
1023
1025
1028
1027
1035
1036
1038
1045
1048
1053
1059
1056
1050
1054
1058
1060
1062
1064
1064
1060
1059
1050
1039
1029
1022
1017
1013
1007
1004
1005
1008
1009
1008
1006
1010
1009
1005
1003
1002
1005
1007
1001
1004
1005
1004
1010
1009
1007
1002
1002
1004
1006
1005
1005
1004
1005
1005
1007
1005
1004
1000
1002
1008
1008
1003
1002
1007
1015
1023
1027
1029
1032
1029
1014
997
987
982
982
979
975
963
958
953
940
929
918
906
898
889
883
884
895
904
907
915
928
945
958
968
977
986
996
997
1002
1005
1007
1009
1011
1011
1012
1015
1015
1014
1014
1012
1011
1013
1017
1015
1014
1013
1015
1019
1019
1015
1013
1014
1016
1020
1018
1020
1017
1018
1018
1018
1023
1023
1022
1020
1020
1023
1023
1026
1025
1023
1024
1024
1028
1030
1030
1027
1027
1030
1030
1031
1030
1030
1031
1033
1036
1038
1035
1032
1036
1035
1038
1040
1038
1037
1039
1037
1035
1032
1032
1033
1038
1039
1038
1037
1035
1035
1031
1032
1033
1031
1031
1026
1026
1026
1028
1025
1022
1018
1017
1017
1016
1020
1017
1015
1012
1014
1014
1016
1011
1012
1014
1013
1012
1010
1009
1008
1008
1010
1012
1013
1011
1010
1010
1011
1013
1014
1012
1008
1007
1009
1011
1011
1010
1006
1006
1006
1009
1008
1008
1005
1006
1008
1010
1008
1008
1006
1007
1009
1010
1005
1005
1000
1004
1003
1002
1002
1002
1002
1006
1005
1005
1003
1001
997
996
998
1004
1003
1002
998
997
1000
999
998
997
996
996
995
997
999
996
993
992
995
1000
995
994
994
998
999
1000
998
995
996
998
999
1000
999
998
999
999
1001
1004
1004
1004
1000
1000
1000
1001
1002
1004
999
999
1002
1004
1004
1003
1001
1001
1000
1002
1004
1003
1001
999
1002
1005
1006
1003
999
1001
1003
1005
1006
1005
1002
1003
1004
1007
1008
1005
1004
1003
1004
1005
1003
1005
1002
1005
1005
1009
1008
1007
1004
1005
1007
1009
1011
1007
1004
1004
1003
1005
1007
1006
1005
1001
1005
1006
1005
1003
1003
1002
1003
1005
1005
1004
1002
1003
1005
1007
1009
1006
1001
1002
1003
1006
1007
1007
1003
1003
1003
1004
1006
1007
1007
1010
1013
1017
1018
1017
1014
1016
1021
1027
1032
1034
1034
1036
1042
1046
1046
1044
1042
1046
1049
1054
1055
1048
1037
1028
1020
1013
1006
999
994
994
997
997
999
997
995
995
996
995
994
993
992
995
997
997
999
998
994
993
995
998
997
996
992
993
997
998
999
997
992
994
995
998
998
997
994
990
992
996
1002
1007
1008
1011
1012
1001
982
968
960
960
960
956
945
931
923
917
914
906
892
881
875
873
873
879
888
896
899
911
928
946
955
963
969
982
993
999
1002
1003
1000
1002
1006
1008
1009
1005
1005
1007
1009
1010
1010
1011
1008
1009
1009
1012
1012
1013
1012
1014
1013
1014
1016
1014
1012
1012
1015
1020
1020
1017
1015
1018
1018
1018
1016
1015
1015
1017
1019
1021
1020
1021
1017
1018
1018
1020
1022
1021
1019
1019
1021
1024
1028
1026
1023
1026
1028
1031
1031
1032
1027
1031
1032
1033
1030
1032
1031
1032
1035
1033
1035
1034
1032
1031
1034
1034
1031
1030
1025
1027
1030
1032
1032
1030
1024
1022
1023
1023
1020
1021
1017
1018
1019
1019
1018
1015
1012
1007
1009
1013
1013
1013
1010
1010
1011
1009
1009
1005
1004
1007
1008
1010
1009
1006
1007
1004
1005
1006
1009
1006
1002
1002
1004
1004
1003
1002
1000
1001
1005
1007
1005
1003
999
1001
1002
1002
1002
1001
999
998
1002
1001
999
1000
999
999
999
1000
997
998
995
997
999
997
994
993
988
991
993
992
994
994
992
991
992
992
994
994
992
992
991
992
992
991
990
993
992
993
990
993
990
990
991
994
996
995
992
995
993
994
995
993
989
992
996
996
996
994
993
994
996
997
995
995
993
993
995
996
997
994
990
991
994
997
999
998
994
994
993
997
1001
997
993
995
997
997
997
996
996
998
999
999
997
996
993
993
993
998
997
996
993
995
998
999
1000
997
996
996
999
1001
998
996
995
996
1000
1001
1001
1002
999
994
996
996
994
995
997
1001
1003
1002
1002
1001
997
997
995
999
1000
998
996
995
1000
1000
1000
999
998
1003
1009
1010
1010
1008
1009
1012
1016
1020
1024
1027
1026
1028
1030
1035
1035
1035
1033
1034
1038
1037
1041
1041
1040
1039
1034
1024
1017
1008
1001
995
991
987
988
988
986
990
990
991
989
988
985
984
983
985
985
984
982
985
986
986
985
984
979
986
986
988
986
986
982
983
983
983
985
983
980
984
985
987
988
986
983
979
981
978
985
994
993
996
998
1003
1000
983
968
960
957
956
956
949
946
937
928
925
919
910
900
894
888
876
867
862
863
867
877
886
890
893
900
913
932
942
951
957
964
973
984
989
990
992
990
990
991
993
992
995
996
997
1003
1008
1009
1006
1000
1000
1002
1004
1005
1004
1000
1000
1000
1003
999
1000
1001
999
1003
1005
1001
998
998
999
1004
1008
1011
1007
1004
1004
1006
1010
1007
1006
1003
1004
1006
1008
1011
1013
1010
1011
1012
1014
1013
1014
1014
1012
1015
1018
1018
1018
1016
1015
1020
1024
1023
1021
1018
1022
1021
1023
1021
1018
1018
1020
1023
1021
1022
1020
1014
1012
1012
1013
1014
1012
1010
1009
1010
1010
1008
1002
1001
1001
1002
1004
999
999
996
996
996
997
997
998
995
998
997
998
996
993
991
993
994
993
992
988
988
990
993
995
995
995
990
992
994
992
993
990
987
986
987
991
990
990
987
989
988
990
991
990
986
985
987
987
988
986
985
983
987
985
984
983
981
979
982
982
983
979
978
978
978
981
977
977
975
977
978
979
978
974
973
974
978
977
973
973
973
978
979
979
976
976
974
974
975
976
975
975
974
975
979
980
978
976
974
975
978
978
977
980
975
976
979
981
978
977
978
978
979
981
979
976
974
978
981
983
982
982
979
977
979
980
980
977
977
980
979
980
982
980
979
977
980
983
983
980
977
980
982
984
982
979
977
979
978
985
986
983
978
978
981
982
982
982
979
981
982
983
980
979
977
980
982
984
982
982
980
978
979
982
981
981
976
981
983
983
980
977
977
981
982
981
983
981
978
979
984
991
994
992
990
991
993
996
998
1002
1005
1009
1010
1013
1015
1015
1016
1018
1022
1022
1021
1022
1021
1021
1015
1012
1002
994
987
982
978
973
968
969
966
969
970
971
970
967
966
966
965
968
968
965
965
967
969
971
971
968
966
968
968
970
970
967
966
968
970
970
967
964
965
964
965
966
969
967
963
960
963
972
976
977
980
984
979
963
950
942
940
943
945
937
924
916
909
899
893
885
873
863
857
854
856
863
871
874
876
888
901
916
925
932
934
944
957
972
977
974
970
972
975
978
982
981
981
981
983
984
981
979
979
982
984
985
983
982
981
980
984
984
984
982
981
980
981
981
984
987
986
985
984
985
984
988
988
989
991
990
986
988
987
988
990
995
996
995
992
992
996
998
996
995
998
998
1002
1002
1000
1002
1000
998
1001
1002
1005
1004
1000
1002
1005
1008
1006
1005
1002
1004
1007
1008
1004
1001
1001
1002
1003
1003
1001
1000
997
995
996
996
992
990
987
986
986
986
990
987
984
981
985
983
982
980
977
977
978
979
979
979
978
978
983
982
982
978
976
974
975
976
974
972
975
978
978
977
976
976
975
974
976
974
975
975
973
973
972
972
972
973
969
970
971
974
974
970
970
967
969
967
966
967
968
971
972
970
969
968
967
966
968
968
967
963
961
963
962
963
965
960
962
962
965
966
962
960
959
962
967
965
964
964
962
963
966
966
968
966
962
963
963
967
965
964
964
965
967
