1019
1020
1020
1023
1023
1021
1019
1020
1023
1023
1022
1022
1018
1018
1022
1022
1020
1020
1018
1022
1018
1021
1020
1022
1021
1020
1019
1021
1023
1022
1018
1019
1020
1022
1023
1020
1016
1016
1020
1021
1020
1017
1016
1015
1016
1020
1017
1016
1014
1016
1017
1019
1019
1017
1016
1016
1019
1019
1019
1017
1016
1017
1016
1015
1016
1019
1021
1023
1024
1027
1030
1027
1027
1030
1031
1036
1040
1040
1044
1047
1052
1055
1055
1053
1054
1059
1063
1065
1063
1059
1047
1039
1033
1026
1019
1009
1005
1001
1005
1008
1006
1006
1002
1007
1005
1008
1007
1003
999
1002
1002
1005
1003
1002
1000
1001
1003
1007
1007
1006
1002
1003
1003
1004
1005
1002
1000
1003
1005
1007
1011
1017
1027
1050
1078
1107
1130
1136
1127
1127
1133
1145
1147
1149
1152
1154
1162
1168
1164
1152
1123
1079
1039
1005
975
949
920
898
894
908
922
933
935
943
949
962
966
969
971
972
975
973
973
972
971
968
972
972
973
973
967
972
972
973
970
971
966
965
963
970
970
968
966
966
963
964
962
961
961
962
966
967
964
963
962
964
968
968
967
967
964
966
967
968
967
965
965
966
968
969
968
965
963
965
967
973
974
970
969
968
974
974
976
976
977
978
977
978
973
973
969
969
974
982
991
994
992
990
991
992
989
988
987
987
993
998
1001
999
998
993
997
1001
1001
998
997
1001
1006
1008
1008
1003
998
999
1004
1005
1007
1007
1005
1005
1005
1006
1004
1004
1002
1003
1004
1008
1007
1006
1002
1002
999
997
998
1000
999
996
995
997
996
998
993
992
992
995
998
996
995
995
994
997
993
992
988
988
990
993
993
990
986
982
987
989
988
988
983
985
987
991
992
988
983
982
985
988
989
991
990
989
987
990
993
992
990
987
990
993
994
992
989
992
993
995
996
995
996
995
995
997
998
998
994
998
1000
1001
997
994
995
997
997
997
997
996
996
995
996
998
998
996
990
992
994
997
994
991
988
990
991
993
990
990
987
988
990
988
986
983
983
987
988
985
983
981
982
983
986
984
983
983
981
981
982
983
981
980
978
980
980
980
982
979
978
978
984
986
986
986
986
986
990
991
995
996
996
998
1003
1004
1004
1003
1006
1011
1012
1014
1014
1011
1000
989
983
979
974
961
952
947
947
948
945
945
946
950
951
951
950
950
943
946
944
944
943
942
940
939
941
942
942
939
935
935
937
941
942
939
935
938
937
939
938
937
934
935
938
941
950
963
979
1000
1020
1038
1044
1039
1033
1038
1051
1058
1062
1063
1064
1067
1073
1080
1082
1081
1071
1051
1020
985
957
932
906
881
859
842
829
831
839
857
866
870
875
880
887
892
897
902
905
907
904
904
906
907
907
907
904
902
904
907
905
904
900
900
901
901
901
900
900
900
902
904
904
901
896
897
898
901
902
902
899
899
900
904
901
898
897
900
903
904
903
902
903
902
905
905
905
905
904
904
903
905
907
908
908
907
908
910
909
910
908
910
915
919
917
916
916
915
918
924
924
924
920
922
928
932
930
932
931
931
933
935
937
937
935
934
935
936
938
940
941
939
942
943
945
940
937
938
941
945
944
941
938
936
938
940
940
936
936
936
937
940
938
938
936
935
937
936
935
932
934
935
933
931
930
928
927
930
928
928
927
923
923
924
924
925
923
917
918
920
923
925
923
919
916
916
918
920
920
920
917
916
917
918
919
919
917
916
917
918
919
921
922
921
922
923
925
924
921
922
922
925
926
927
926
926
930
934
929
931
929
930
933
933
933
932
929
929
931
932
932
931
928
932
934
934
934
933
932
934
934
937
936
933
931
933
938
939
937
935
933
933
936
937
936
936
933
934
938
937
935
935
934
938
938
939
940
938
936
937
938
939
942
941
937
940
940
940
940
942
942
944
946
950
949
953
952
954
956
962
962
961
962
968
973
979
977
978
980
984
983
983
984
984
986
991
991
995
993
989
980
972
965
963
956
948
942
933
934
936
937
937
935
933
935
937
938
937
935
934
936
937
934
934
929
933
934
936
937
934
931
933
935
939
940
937
934
933
935
938
939
937
934
935
938
940
942
939
944
956
976
997
1020
1041
1052
1054
1048
1050
1058
1066
1071
1079
1087
1092
1096
1102
1102
1099
1097
1078
1045
1007
974
948
920
893
867
846
839
842
854
865
868
875
881
895
902
907
905
904
905
908
911
912
911
908
907
907
909
910
910
904
903
902
902
906
903
900
898
898
905
904
902
900
896
898
901
903
902
903
901
902
902
907
905
901
899
898
902
904
904
902
901
902
903
905
904
901
898
899
903
905
903
902
897
899
903
907
910
907
905
907
908
910
908
908
907
909
912
914
913
913
914
916
919
920
921
921
920
923
926
928
928
928
927
930
931
936
937
934
933
934
939
941
943
942
941
941
941
943
940
941
939
942
947
949
947
946
944
944
945
947
947
945
944
945
946
947
947
944
942
942
944
945
944
944
941
939
942
945
940
939
937
937
940
940
937
938
936
936
935
935
934
936
934
934
935
935
935
934
931
932
930
934
931
930
928
928
929
930
930
930
928
929
930
931
925
925
922
925
926
931
929
924
925
928
932
933
932
931
925
927
929
931
934
931
930
930
932
935
936
935
933
933
935
936
937
937
937
941
942
944
940
939
938
938
941
941
941
940
938
938
939
941
941
940
938
941
944
945
943
944
944
941
940
944
942
943
940
943
944
947
944
945
944
946
950
952
949
947
947
947
949
949
950
949
949
950
954
952
954
955
953
956
961
962
963
963
963
966
969
970
976
979
981
983
985
987
990
992
992
996
997
1000
1002
1003
1004
1002
1003
999
989
979
966
963
960
954
950
947
946
951
949
952
951
952
948
947
951
951
950
950
950
951
952
953
953
952
948
951
952
956
953
950
947
950
953
956
953
950
951
952
955
954
954
953
951
955
957
963
974
992
1011
1036
1061
1076
1070
1061
1066
1079
1089
1095
1097
1100
1105
1115
1125
1128
1124
1106
1074
1039
1008
981
955
923
893
872
858
861
872
881
889
895
901
912
924
928
927
932
935
937
936
934
932
935
939
939
939
936
932
932
933
935
935
937
933
931
933
932
934
935
932
932
934
934
931
930
926
929
932
931
932
934
933
935
936
936
936
936
934
936
935
937
937
935
930
935
936
939
938
939
938
939
940
943
943
943
942
943
947
949
950
948
947
949
947
951
953
954
954
954
957
957
959
959
960
961
960
964
966
964
968
971
971
973
972
972
972
973
974
977
976
976
977
977
977
979
980
980
978
977
980
980
981
980
979
979
981
982
982
978
975
974
975
978
977
976
974
976
976
976
978
974
975
975
975
975
975
974
971
968
971
974
972
971
967
968
971
971
970
963
961
963
967
969
966
962
961
962
967
966
965
958
958
961
962
963
962
961
959
956
960
960
960
957
956
959
960
960
963
962
961
962
962
963
958
962
961
965
966
969
968
968
969
971
972
972
970
968
968
970
971
972
971
971
969
973
974
974
973
971
971
969
971
972
971
973
970
973
974
978
978
976
971
970
976
976
975
974
975
974
977
979
979
976
972
975
978
979
977
978
974
975
977
979
979
976
974
976
977
978
980
977
974
975
981
983
982
978
978
977
982
982
983
981
983
989
991
991
992
991
994
996
1000
1000
1004
1008
1007
1012
1014
1019
1021
1020
1019
1023
1027
1030
1029
1027
1025
1017
1010
1005
997
988
981
972
969
970
972
969
964
969
969
970
969
968
967
969
972
970
968
967
965
965
968
970
972
970
970
968
970
973
970
968
967
967
968
969
967
965
968
975
975
978
985
999
1016
1038
1067
1090
1100
1091
1083
1091
1105
1115
1124
1123
1122
1135
1144
1143
1137
1110
1073
1035
1001
968
932
904
882
872
873
888
900
907
911
916
927
933
940
944
944
948
946
948
945
942
939
937
942
944
945
942
939
939
940
940
934
933
933
936
937
940
940
941
936
938
938
937
936
935
935
934
936
936
936
938
936
938
939
939
938
937
936
935
935
938
940
940
935
934
935
939
938
939
938
938
942
943
941
941
940
940
943
945
947
945
944
944
948
952
953
949
948
949
953
956
956
953
955
960
962
965
964
966
963
966
967
969
971
971
970
971
973
973
977
975
974
977
976
979
977
978
977
979
980
979
975
977
976
977
976
981
979
978
976
974
977
978
974
973
975
972
977
977
978
973
969
970
975
975
974
974
969
971
971
970
969
970
967
968
971
971
970
966
964
966
966
965
964
962
960
963
964
961
961
958
957
954
959
960
960
956
957
956
957
956
958
960
957
957
960
961
959
960
957
962
962
964
964
963
961
961
964
967
966
964
963
962
966
969
970
969
965
968
969
970
970
971
967
967
971
973
973
972
970
972
973
977
975
974
970
976
976
977
976
975
974
979
978
979
980
979
975
975
979
980
979
978
977
975
979
978
979
979
978
979
981
981
982
978
977
977
980
981
982
981
977
979
982
983
983
982
981
982
982
983
984
985
987
989
990
995
995
996
996
996
1002
1004
1006
1008
1012
1014
1017
1021
1022
1022
1025
1026
1029
1033
1035
1036
1034
1033
1030
1023
1013
1002
994
991
987
979
972
972
972
974
975
977
974
975
973
975
978
977
974
976
976
975
976
977
976
975
976
978
978
979
978
978
976
976
977
982
983
979
977
974
976
977
977
975
973
976
985
999
1016
1035
1055
1079
1094
1095
1088
1087
1095
1103
1110
1120
1122
1124
1127
1137
1141
1141
1131
1107
1067
1030
1002
982
957
930
903
887
878
884
896
907
914
917
925
931
939
946
951
955
957
956
959
955
954
952
955
957
959
958
954
954
955
956
956
954
952
953
954
953
953
951
950
952
951
953
951
948
947
948
950
951
953
951
949
949
951
953
955
952
949
951
954
953
953
950
950
952
955
958
957
955
952
954
958
960
957
956
957
960
963
963
962
961
960
963
966
968
969
969
966
968
973
974
974
972
970
973
975
979
977
980
979
982
985
986
983
987
988
989
992
993
992
990
988
990
993
996
996
995
990
992
994
996
997
995
996
996
997
997
994
992
990
992
996
996
997
994
991
992
992
997
996
993
991
990
991
991
984
983
983
982
987
985
986
984
982
986
984
983
982
979
978
978
979
977
975
975
971
970
969
974
972
974
972
970
970
970
969
969
967
970
970
973
972
969
967
969
970
971
971
972
970
973
973
973
972
973
973
975
976
975
976
977
976
980
980
981
980
980
978
980
982
979
979
978
976
978
980
982
983
983
980
982
984
984
982
983
981
981
982
986
986
984
983
985
985
987
988
986
983
984
984
985
985
987
988
985
984
985
986
986
984
987
987
990
990
988
984
983
985
989
990
986
984
984
987
991
991
988
987
988
991
989
988
985
981
985
987
992
988
987
982
986
987
988
988
987
982
984
990
990
988
986
986
985
989
989
988
988
984
987
989
987
987
987
990
989
991
991
989
989
984
987
989
990
988
989
987
991
991
990
988
987
987
988
986
989
989
990
989
990
989
990
989
987
984
985
989
987
991
988
988
988
988
990
989
988
986
990
990
996
994
991
993
994
997
997
1000
1000
999
1007
1010
1015
1018
1021
1020
1024
1030
1032
1033
1033
1032
1038
1041
1046
1044
1036
1026
1017
1012
1006
1001
993
983
980
983
982
982
979
980
981
985
983
982
981
979
979
980
984
982
981
979
982
985
987
982
980
979
979
980
984
982
984
984
986
984
984
984
985
984
987
992
1000
1011
1025
1048
1075
1100
1112
1108
1096
1101
1112
1125
1133
1134
1135
1135
1148
1159
1161
1156
1144
1118
1076
1036
1003
969
933
903
885
878
887
899
909
912
920
928
937
948
952
953
954
955
956
955
955
953
955
956
957
955
951
949
950
951
950
949
949
949
950
951
951
948
946
945
948
947
951
950
949
947
949
945
946
946
946
943
949
950
950
947
946
943
950
952
954
954
952
951
953
954
955
955
952
952
954
956
959
956
956
956
960
962
962
960
964
961
965
967
967
967
968
968
972
975
976
977
979
975
981
982
983
983
986
985
987
988
989
990
988
988
989
992
993
993
992
989
991
993
994
994
991
990
991
992
993
990
986
986
989
993
994
995
990
989
989
991
990
987
987
986
986
988
987
985
981
980
981
981
982
982
982
976
974
975
979
979
976
973
966
971
968
971
970
967
966
965
965
964
963
962
964
965
967
964
963
963
965
966
970
965
965
965
968
970
971
969
970
968
973
975
976
975
975
973
973
975
977
975
975
976
980
980
981
979
979
977
977
982
983
984
983
982
982
987
987
985
976
976
982
983
986
985
983
983
983
983
984
981
984
983
984
984
985
986
985
985
989
988
990
992
994
995
995
988
985
979
979
981
986
985
987
986
987
987
987
988
990
990
987
984
989
993
995
993
988
986
987
988
990
990
989
986
992
992
995
994
991
989
990
991
992
991
992
991
991
992
992
990
990
992
993
992
992
990
991
991
994
994
995
996
994
991
992
994
997
996
994
996
999
998
998
995
994
992
994
999
1004
1002
1005
1007
1010
1014
1013
1014
1019
1021
1025
1030
1031
1034
1036
1034
1035
1041
1046
1049
1049
1045
1043
1038
1027
1020
1015
1007
1001
995
989
988
987
986
992
996
993
990
987
989
990
990
992
992
990
991
990
992
991
992
990
990
991
991
994
994
993
993
995
993
994
994
992
992
992
994
994
997
1004
1020
1043
1068
1093
1108
1108
1098
1100
1114
1121
1125
1127
1128
1129
1139
1145
1145
1142
1127
1100
1068
1034
1009
981
953
929
910
895
893
902
917
928
930
936
943
951
960
966
970
967
969
968
967
971
972
970
971
971
967
970
967
971
971
967
964
967
967
968
966
965
962
963
966
968
965
962
961
962
963
965
964
963
961
962
963
965
963
961
960
961
964
964
963
961
962
962
962
965
964
962
962
963
966
967
965
963
964
966
970
971
969
966
968
971
972
974
976
973
974
977
980
979
978
974
973
975
982
982
984
982
981
981
984
984
984
984
986
990
993
995
992
990
988
990
991
991
991
992
993
994
996
995
995
995
994
997
996
993
993
992
989
990
994
995
995
992
988
987
991
993
992
991
987
989
987
989
987
985
984
987
988
988
988
987
984
986
988
986
981
979
978
977
980
981
982
980
972
974
974
974
972
971
971
974
973
973
971
968
969
968
969
968
966
967
963
967
966
967
966
966
961
962
967
970
966
965
965
971
972
967
966
964
963
968
972
976
976
968
962
962
964
965
961
958
957
962
963
964
965
962
962
960
962
962
964
963
958
958
960
962
964
962
960
961
963
964
964
962
957
956
958
958
957
959
960
963
964
961
958
956
956
958
963
964
957
951
951
959
963
963
960
952
947
946
950
951
952
952
952
956
957
956
951
949
948
948
952
953
953
952
951
949
949
950
953
953
951
957
954
954
950
946
945
949
952
955
951
950
947
952
953
953
951
949
948
949
954
957
954
953
951
952
956
959
956
953
950
950
950
953
954
954
958
961
967
966
967
967
967
969
973
978
980
979
978
983
987
993
991
992
993
997
1003
1005
1006
1007
1007
1006
998
986
977
969
965
959
955
950
949
948
950
952
952
951
947
947
947
947
951
952
952
950
947
950
951
950
950
949
948
952
954
954
951
950
951
954
954
959
958
957
958
962
960
962
956
956
956
957
961
969
978
991
1006
1028
1052
1073
1081
1078
1071
1077
1089
1095
1102
1105
1107
1112
1124
1134
1137
1133
1118
1098
1068
1033
1003
969
933
907
888
875
870
869
876
887
895
900
907
913
920
928
932
938
936
940
939
939
941
942
942
941
939
939
940
941
941
939
936
936
936
936
939
939
937
938
939
937
937
936
936
940
942
940
940
941
940
945
944
945
943
941
939
940
944
944
944
942
939
942
945
947
946
946
941
941
944
945
947
949
947
947
948
951
953
951
953
953
955
957
956
958
957
961
962
964
964
962
962
965
969
969
967
968
970
972
975
977
976
978
977
980
982
988
986
987
987
988
993
994
994
992
992
991
995
996
998
996
995
997
999
998
996
999
998
996
1000
1002
1000
999
997
999
998
1000
998
996
993
994
999
998
997
997
995
997
997
998
997
994
992
995
996
994
992
993
991
993
995
993
992
989
986
988
990
989
989
985
985
987
989
986
984
982
981
983
986
986
982
978
978
980
981
983
982
981
980
982
983
984
983
982
981
983
983
983
983
983
981
985
986
990
989
987
986
987
989
988
988
985
983
986
992
989
989
986
986
989
991
991
990
990
987
990
995
993
993
992
990
993
995
993
992
989
990
993
997
997
993
994
992
994
996
997
997
994
993
996
995
995
996
993
991
990
991
996
996
995
994
993
995
994
993
991
992
997
998
996
994
993
993
998
995
993
991
990
989
992
992
993
993
988
988
990
993
993
991
989
986
987
989
990
988
989
987
988
988
987
986
983
982
983
986
989
991
990
987
989
989
992
994
995
991
989
990
992
994
992
991
992
997
1000
1000
1000
999
1004
1004
1008
1010
1013
1014
1018
1024
1024
1025
1026
1026
1031
1037
1040
1040
1038
1039
1040
1036
1031
1019
1011
