999
999
999
999
999
999
999
999
997
999
999
1000
1005
1007
1003
990
979
973
968
965
956
945
942
943
948
950
946
942
939
940
943
950
949
946
942
943
945
949
946
945
945
945
947
948
947
944
943
943
943
941
937
939
939
946
949
951
950
951
948
943
943
946
951
958
960
965
970
968
956
936
922
920
922
922
917
916
907
899
896
894
887
878
868
857
847
841
836
829
828
836
841
845
846
858
872
884
899
908
915
923
927
935
945
950
950
952
952
953
959
961
960
955
955
958
964
967
964
966
965
964
966
968
967
960
960
962
965
967
969
967
966
965
967
967
966
967
969
968
970
972
970
970
969
972
976
979
976
971
968
969
976
980
980
979
976
980
984
986
987
980
975
979
985
987
991
988
986
987
988
991
990
993
992
989
989
995
990
992
991
991
992
993
991
990
986
985
985
988
988
984
984
983
984
986
986
984
978
979
982
981
983
981
978
972
973
974
976
975
974
971
970
973
971
971
970
968
972
973
972
970
969
970
973
973
972
970
969
970
971
973
971
968
967
967
968
972
971
970
968
967
967
972
973
970
969
967
970
969
966
963
960
963
966
969
967
962
959
961
961
964
962
957
956
951
953
957
956
956
949
951
954
956
952
952
949
950
953
954
954
952
950
949
949
954
952
952
948
949
953
955
956
955
953
952
955
957
955
956
956
956
958
958
959
958
957
958
962
965
964
960
958
955
959
961
962
961
955
958
962
966
961
957
957
955
959
963
964
963
963
961
964
966
964
960
959
960
963
963
962
962
962
963
964
968
971
969
968
971
974
977
979
979
978
984
988
993
995
994
994
1000
1003
1005
1007
1006
1005
1005
1009
1013
1014
1011
1002
997
991
987
980
969
960
954
950
954
954
953
952
951
952
955
956
953
950
948
946
952
956
960
956
952
953
955
956
953
954
954
955
954
953
950
950
952
955
958
958
954
952
950
949
947
946
949
955
961
969
974
971
956
939
925
922
925
927
925
918
909
904
898
893
888
879
868
855
844
841
837
837
841
848
853
860
873
887
902
914
922
928
936
946
953
961
964
964
964
964
966
969
971
969
966
964
969
973
975
972
968
969
972
975
976
974
975
972
971
970
976
978
980
979
980
979
979
979
976
976
976
978
984
985
984
981
978
981
988
988
987
985
984
985
989
993
993
989
990
995
996
994
992
993
996
997
1001
1000
1002
1001
1002
1002
1005
1002
1001
998
1000
1003
1004
1002
1001
1000
1003
1007
1006
1004
1001
998
999
1004
1004
1001
998
995
993
992
996
996
995
991
986
985
990
991
988
986
983
984
990
986
983
982
981
981
983
983
981
979
982
984
985
982
979
976
976
976
975
975
978
979
980
979
977
977
972
971
974
977
979
977
974
967
968
972
974
972
970
969
967
971
972
970
964
963
964
962
966
970
964
960
962
963
967
967
965
961
960
960
961
960
961
956
957
961
962
960
957
956
955
958
961
960
959
956
955
956
958
958
962
961
963
962
962
963
961
960
963
964
964
963
963
960
960
962
962
963
965
965
964
965
964
965
963
963
967
969
966
967
967
961
964
966
967
965
964
966
967
971
970
968
966
965
964
967
969
970
970
967
966
968
969
969
969
969
972
979
983
984
983
981
983
984
989
994
1000
1001
1006
1007
1011
1011
1007
1008
1016
1025
1026
1025
1022
1016
1008
1000
997
989
981
971
963
961
961
961
963
960
961
963
966
963
961
959
961
961
963
962
962
961
960
961
963
967
967
962
960
960
962
955
956
954
955
955
960
961
961
955
956
960
961
959
954
956
960
967
970
971
968
954
939
931
930
926
922
918
911
903
899
893
888
883
872
860
852
844
841
839
845
856
861
866
875
890
908
921
929
932
939
945
955
961
965
966
968
968
967
970
972
973
971
971
971
971
971
972
970
967
972
981
986
982
978
973
973
978
977
977
975
978
981
980
980
980
979
978
979
983
986
984
981
978
980
987
990
992
988
984
983
989
997
1002
995
989
988
993
997
999
995
994
996
995
1000
1005
1004
1000
1003
1002
1002
1001
1001
999
1003
1005
1006
1007
1004
998
994
996
1002
1010
1011
1003
997
996
1002
1006
1003
999
998
995
998
994
988
987
986
987
990
989
984
982
981
982
982
979
977
975
974
978
980
979
977
971
973
974
976
976
973
970
969
971
974
971
970
964
969
971
971
972
970
965
965
967
969
969
965
962
959
962
966
966
965
963
961
962
963
966
962
957
955
955
957
958
958
956
954
955
958
958
955
949
952
954
956
955
950
950
952
951
955
953
950
950
949
953
955
956
954
951
950
951
953
951
949
950
951
956
961
957
954
951
954
954
957
956
953
954
957
956
958
954
953
954
959
961
959
956
951
952
956
959
960
958
956
953
958
960
959
957
959
958
959
960
958
956
955
959
962
962
962
962
959
960
963
964
963
957
957
957
963
966
964
961
957
960
963
966
965
964
960
963
967
968
969
971
974
978
980
982
985
986
988
991
997
1002
1006
1005
1004
1002
1001
1006
1009
1009
1010
1013
1016
1011
1001
991
979
975
967
963
954
951
950
953
954
955
955
952
952
954
956
957
953
951
948
950
953
958
956
954
953
953
954
956
955
953
952
954
954
958
957
953
951
953
953
954
955
956
956
954
952
950
948
955
959
968
976
980
975
960
936
921
921
922
924
923
913
904
897
894
889
883
875
867
855
850
844
837
835
842
850
855
860
871
886
902
914
921
929
936
947
950
958
963
968
968
965
963
966
968
966
966
966
967
969
970
967
968
964
964
970
973
972
972
968
970
970
973
970
972
968
969
970
974
976
977
971
971
975
975
976
976
975
977
983
987
984
983
980
981
983
984
984
985
985
987
988
988
990
990
986
985
992
994
997
992
990
992
994
998
998
994
993
992
994
992
992
994
995
994
994
996
993
994
989
988
990
989
988
984
981
981
982
984
982
981
977
975
976
974
973
974
971
972
974
973
976
976
973
971
970
973
973
974
974
973
972
975
974
974
969
971
971
974
973
970
969
970
968
971
971
968
967
966
970
972
969
964
965
969
969
969
969
966
961
963
961
966
967
963
962
960
963
961
962
955
953
954
957
961
961
954
954
957
957
959
959
956
954
953
954
957
957
956
949
950
955
962
963
960
957
958
961
964
966
963
960
962
960
962
961
958
960
960
962
966
963
964
961
961
960
962
963
963
962
965
968
968
966
961
956
956
961
970
972
970
966
967
966
968
968
964
964
962
966
968
967
966
963
962
968
972
973
976
975
977
980
981
982
984
987
990
996
999
1001
1003
1004
1008
1011
1013
1012
1012
1012
1011
1012
1013
1010
1006
995
986
979
970
962
955
952
952
955
960
961
959
956
955
955
956
955
950
951
955
957
961
959
955
950
952
957
956
956
957
952
952
954
958
957
959
957
956
955
959
959
956
949
946
950
958
962
964
966
965
955
935
925
919
918
921
919
916
905
896
886
882
878
872
859
849
841
840
841
848
851
854
857
870
891
907
918
927
933
943
953
959
964
965
964
964
966
969
968
967
967
971
975
975
974
968
964
969
978
981
982
980
976
974
973
975
976
974
975
975
977
978
980
979
978
983
984
986
987
988
985
982
981
986
988
989
987
985
988
992
995
992
991
995
995
998
992
990
987
992
1001
1004
1003
999
997
1003
1010
1015
1015
1004
1001
1003
1005
1010
1009
1006
1001
998
999
1005
1003
995
999
1004
1004
1000
993
991
989
987
990
990
985
977
976
984
991
994
988
983
980
987
990
992
992
986
979
980
984
985
981
986
984
982
981
982
981
980
983
985
989
994
990
984
978
977
979
982
982
981
978
979
980
979
977
976
975
976
975
974
972
969
966
970
978
974
968
963
965
962
958
954
956
955
949
942
955
972
974
964
964
969
975
978
975
968
967
977
985
984
979
976
976
978
979
978
977
975
971
974
980
979
980
976
973
972
977
979
978
975
975
975
978
978
979
975
973
974
977
982
980
973
971
971
972
978
979
979
970
973
971
972
970
974
977
979
974
967
964
970
983
1000
1003
995
995
996
995
994
992
995
1002
1006
1005
1008
1011
1015
1017
1015
1017
1021
1023
1024
1021
1024
1025
1026
1026
1025
1018
1008
998
991
983
974
968
967
969
976
980
975
968
961
958
964
971
974
971
962
951
946
946
952
964
973
970
965
967
963
959
968
978
983
978
973
973
970
964
962
968
971
972
964
947
938
944
952
948
944
939
931
922
912
906
909
906
902
898
889
883
878
877
874
868
856
843
835
833
844
859
872
878
884
897
911
924
934
943
961
977
981
982
985
985
985
979
981
983
989
986
981
977
978
983
986
988
991
994
994
989
981
972
977
987
1001
1009
1011
1004
999
996
991
996
995
997
998
998
999
1000
1002
1002
1002
998
1000
1005
1010
1012
1012
1012
1009
1008
1009
1010
1011
1011
1011
1010
1010
1009
1017
1021
1018
1013
1015
1019
1021
1020
1023
1025
1022
1022
1022
1022
1021
1022
1022
1016
1011
1008
1006
1006
1013
1017
1016
1009
1004
1006
1009
1010
1007
1001
998
999
999
997
992
990
992
992
991
993
990
988
988
989
988
987
985
983
982
981
983
984
982
982
981
979
979
973
974
973
975
974
974
976
981
982
980
978
979
979
975
970
972
973
975
975
971
967
967
966
967
964
962
961
961
963
963
961
956
954
954
958
959
959
957
950
950
950
955
955
954
951
949
951
953
952
952
953
955
951
943
942
951
958
960
958
952
950
950
950
950
950
951
949
950
948
952
955
956
958
957
952
950
954
956
954
950
946
947
952
954
954
954
952
953
956
953
952
949
952
953
951
949
948
950
953
954
954
952
951
949
949
953
954
955
955
951
950
956
963
964
960
956
958
966
972
972
969
967
966
965
970
976
989
994
993
993
996
1000
999
997
999
999
1001
1004
1003
997
989
984
982
977
968
956
946
942
943
947
948
947
945
948
950
951
947
945
944
950
950
950
950
949
947
944
946
952
951
948
945
943
946
951
953
952
948
946
951
955
953
946
935
935
941
947
946
945
939
931
915
902
896
896
894
893
888
880
872
860
852
856
854
844
835
827
824
832
845
853
856
863
875
891
900
911
920
935
944
953
955
957
958
957
956
961
965
967
967
962
959
961
967
969
968
964
961
964
963
967
971
969
968
968
969
968
966
964
962
967
974
980
979
975
971
974
976
979
979
981
979
980
981
984
984
984
983
983
983
986
985
986
983
986
992
997
999
995
993
996
996
998
997
994
993
994
999
1004
1002
1002
996
998
998
1002
998
1000
994
995
997
997
993
989
991
996
997
994
989
984
983
984
986
986
981
981
975
977
975
975
974
973
971
974
978
978
974
972
968
972
971
971
965
961
964
973
979
978
972
967
962
963
968
972
975
974
968
968
967
969
968
968
965
963
967
969
969
965
961
962
966
969
965
962
959
963
964
968
962
960
958
963
962
963
961
955
955
956
958
960
958
955
954
954
955
955
955
950
947
949
954
957
959
955
951
948
947
949
950
951
953
954
955
958
955
952
951
954
954
954
951
949
947
949
954
959
960
959
956
956
957
958
958
961
958
958
959
960
960
958
957
960
959
964
962
961
959
960
962
963
964
962
961
963
964
966
968
964
961
961
963
966
963
963
961
961
962
966
965
962
961
963
965
964
963
966
961
960
964
975
980
982
980
980
982
986
984
990
991
998
1000
1002
1007
1005
1005
1004
1005
1007
1009
1010
1012
1012
1015
1010
1003
992
984
981
974
968
960
957
954
955
958
956
956
952
952
948
952
960
964
961
958
955
954
958
956
952
954
954
955
955
954
952
951
953
956
957
956
956
957
954
954
953
954
954
949
946
949
948
944
940
939
941
941
946
947
937
918
907
902
907
909
903
897
891
884
879
872
866
865
864
854
842
833
831
829
834
842
850
856
862
869
885
901
913
922
927
936
952
957
961
965
967
967
967
969
971
975
973
972
972
976
979
975
974
970
970
974
976
980
975
974
976
978
980
980
980
977
981
981
981
984
981
980
981
979
981
981
980
978
982
985
984
984
987
988
990
988
986
987
989
985
990
991
996
998
998
998
997
998
997
999
1000
1001
1001
998
1001
1001
1002
1001
1007
1010
1008
1008
1003
1001
1001
1001
1000
1000
1000
999
998
998
997
996
993
993
995
995
993
986
983
980
982
981
978
976
975
976
974
973
978
977
974
968
970
971
971
967
969
968
973
972
970
969
966
966
963
961
963
964
964
964
964
968
968
968
964
962
963
964
966
962
955
953
957
961
960
959
956
955
951
953
960
960
956
953
954
958
962
961
957
951
950
953
955
955
948
943
945
946
948
947
946
942
944
944
942
943
945
944
947
946
946
945
942
942
943
948
947
943
942
941
944
945
944
945
945
942
942
944
947
949
949
946
944
947
948
949
946
944
949
950
948
944
944
949
955
958
958
952
946
943
949
954
955
952
953
951
954
957
954
952
952
950
953
956
955
956
954
951
948
950
954
959
958
954
952
954
954
959
962
957
955
954
955
953
954
952
953
955
956
957
955
951
946
948
956
968
972
968
968
969
972
972
970
967
975
978
983
985
987
988
996
998
1003
998
994
995
1000
1003
1010
1008
1007
997
982
974
972
967
961
952
949
947
951
950
950
945
947
950
949
946
945
944
946
947
947
948
944
944
947
949
952
949
946
946
943
944
946
951
947
945
944
945
946
947
947
944
947
949
947
943
934
936
941
945
949
948
945
931
916
904
900
896
893
894
894
888
877
868
860
853
853
846
837
827
821
820
821
827
838
847
848
857
876
893
907
915
919
923
934
946
957
961
962
960
962
964
967
967
967
963
966
968
968
969
968
964
966
969
972
971
970
968
967
967
969
974
974
972
968
971
974
972
973
973
972
975
975
976
978
977
979
979
984
982
979
977
978
979
984
988
987
987
986
984
987
990
992
990
990
993
993
994
994
991
992
994
994
994
994
995
997
995
994
995
994
991
994
998
1000
998
997
995
995
994
993
991
989
984
981
980
983
982
980
978
977
975
977
974
970
970
968
971
973
973
967
966
968
969
970
969
971
969
967
969
971
968
966
965
967
971
970
968
965
963
964
968
967
967
963
961
961
965
965
965
964
962
960
963
964
963
963
958
957
957
961
961
958
953
957
959
959
959
958
953
952
954
954
955
953
948
949
950
951
950
947
943
944
945
950
950
946
942
944
943
947
951
949
945
943
944
948
951
951
947
945
944
947
949
946
948
953
956
952
948
946
948
951
951
953
953
950
949
947
949
949
949
955
955
954
954
954
953
955
953
954
953
953
950
952
951
952
954
955
952
953
949
952
953
952
951
952
951
952
954
956
957
957
954
958
962
960
962
963
960
962
967
969
971
980
986
990
987
989
993
994
993
993
995
1000
1004
1002
996
994
987
982
975
967
959
950
945
944
940
942
941
939
943
943
943
941
939
936
936
942
945
943
938
938
939
943
940
942
943
944
944
944
940
938
936
938
940
939
942
944
940
941
941
942
939
935
929
932
940
948
946
942
943
937
923
903
894
891
891
888
886
885
876
865
855
847
844
841
831
820
810
811
815
823
833
839
841
849
866
885
898
904
909
921
936
945
948
947
947
949
952
956
958
956
954
954
958
959
958
957
957
959
963
965
965
963
960
960
958
962
963
965
962
964
964
966
968
967
966
968
971
974
972
970
968
972
973
970
971
973
975
977
976
978
982
982
980
979
981
983
983
983
982
984
982
986
986
986
984
982
981
989
993
991
987
988
991
994
994
991
988
986
988
987
982
980
977
977
978
979
976
973
971
969
971
970
967
965
962
963
964
963
963
959
951
955
958
961
957
960
954
957
956
958
956
954
953
949
952
957
957
956
952
953
952
955
954
954
951
953
952
955
953
953
951
949
951
954
952
955
950
951
954
956
954
950
947
946
949
951
949
945
943
942
943
944
944
943
939
942
943
947
945
943
942
940
942
942
943
944
942
940
941
941
938
939
938
937
939
941
942
945
942
938
934
940
939
940
937
940
939
940
938
939
939
944
945
943
942
944
945
948
950
949
947
943
942
942
943
946
945
942
940
946
947
948
949
948
945
946
947
946
944
941
944
942
945
944
945
943
945
950
951
952
950
947
945
946
949
951
949
945
946
947
949
951
952
950
948
952
960
966
967
962
962
967
972
976
980
982
983
982
987
994
997
996
992
990
995
998
999
1000
998
996
988
978
970
962
953
942
939
940
942
942
942
943
945
944
944
940
941
941
940
938
936
938
940
941
944
943
942
941
941
942
944
945
943
942
940
941
942
942
944
943
939
943
946
947
946
941
937
938
947
952
951
949
947
940
923
910
900
900
897
897
895
888
879
871
867
860
859
852
845
838
832
828
827
827
836
845
848
854
868
