967
965
962
965
966
967
969
970
970
968
965
967
969
970
971
969
967
967
969
969
970
967
971
971
970
967
968
965
965
968
970
973
971
967
969
969
972
973
968
966
965
967
970
968
965
961
966
972
973
974
971
970
969
970
968
967
971
969
973
972
973
971
973
970
970
970
970
970
970
972
971
973
974
972
969
970
974
979
981
981
983
981
985
985
983
987
989
993
1001
1003
1009
1011
1010
1009
1010
1013
1013
1014
1013
1014
1017
1022
1021
1014
1004
995
993
988
983
974
968
963
965
965
968
968
966
964
966
967
968
963
960
957
960
963
965
963
964
962
962
963
963
965
964
963
963
965
968
967
966
963
964
967
968
967
967
967
966
971
974
971
966
961
966
975
980
982
982
981
984
973
960
947
940
936
938
940
934
921
917
912
908
903
893
882
870
861
857
854
857
864
871
867
870
884
903
916
924
929
939
950
960
967
969
969
972
977
980
981
979
979
979
983
981
985
983
983
984
988
989
986
985
987
987
987
989
988
988
982
983
986
988
990
988
987
990
994
994
991
990
986
988
989
993
989
987
989
992
996
998
994
991
992
993
997
994
995
998
998
998
999
999
999
1000
1000
1003
1004
1003
1004
1000
1002
1002
1002
1006
1008
1007
1004
1004
1007
1011
1010
1004
1003
1000
1006
1007
1004
1000
1002
1001
1001
1001
1002
999
996
996
997
996
996
991
989
988
990
992
992
990
987
983
982
984
987
985
982
979
981
981
982
983
982
982
983
983
984
981
978
980
979
981
979
980
979
979
979
978
977
978
974
974
974
974
977
977
976
977
978
979
978
974
974
977
979
982
980
977
973
973
973
975
978
977
974
974
972
971
972
970
969
970
970
973
969
966
964
963
964
966
965
965
961
963
965
968
965
963
961
964
967
967
967
965
962
966
967
973
969
965
965
967
970
970
967
965
962
965
967
966
968
971
970
972
973
970
971
970
968
969
972
973
974
970
967
970
972
973
972
970
969
973
974
975
972
970
969
973
975
971
973
974
973
971
974
975
974
972
971
973
973
972
973
977
977
976
979
974
974
974
972
974
974
976
975
972
974
977
976
977
972
971
970
973
975
975
973
973
972
975
979
979
976
973
970
971
977
976
978
979
977
982
986
988
986
984
984
991
996
1001
1004
1004
1007
1006
1012
1011
1011
1013
1015
1018
1022
1023
1022
1017
1006
999
993
986
977
969
962
961
962
967
967
965
962
961
965
967
965
964
960
960
965
965
965
965
964
965
967
968
962
963
962
965
966
966
964
965
965
963
965
966
964
963
963
962
958
961
967
973
981
985
992
991
979
961
947
945
943
944
938
931
918
917
910
903
893
881
869
861
855
852
850
855
865
872
877
885
896
910
920
928
938
949
957
963
964
969
975
979
975
973
971
973
977
978
978
979
981
983
983
984
983
978
976
977
978
979
979
979
980
980
982
981
979
981
982
984
987
990
986
985
985
985
986
987
986
988
988
990
990
988
990
990
988
992
993
994
996
995
994
996
999
999
998
994
994
997
1001
1002
1004
1002
999
1001
1003
1003
1003
1001
997
1002
1003
1002
999
993
991
992
997
998
994
991
990
990
992
992
990
986
984
985
983
981
980
979
978
980
979
976
976
977
975
977
977
978
976
974
971
974
977
976
974
973
973
975
977
980
977
975
972
971
976
977
975
972
970
971
976
974
970
970
971
974
971
970
967
968
967
969
969
969
967
968
966
968
964
965
962
961
960
960
962
961
961
960
958
958
960
963
961
959
958
957
955
957
955
956
956
958
959
960
957
953
954
957
959
959
958
955
955
958
963
963
961
958
958
960
960
962
960
962
961
961
960
962
960
960
960
961
962
961
960
961
960
960
962
964
963
962
958
961
963
963
964
963
961
963
965
965
964
963
961
961
963
963
962
961
961
963
963
963
964
962
962
965
965
963
963
964
963
962
964
966
963
962
963
966
967
969
966
964
963
964
967
968
971
971
970
972
977
980
980
980
979
982
987
990
995
999
999
1000
1002
1006
1008
1008
1005
1010
1014
1018
1018
1010
998
988
982
977
971
965
955
957
956
957
958
954
956
959
959
960
957
955
954
955
958
958
957
955
955
957
960
958
957
956
955
958
960
957
956
955
955
957
958
958
958
954
956
957
958
956
956
962
969
973
978
981
978
964
945
936
935
935
931
931
922
913
908
901
896
889
881
869
859
851
846
843
847
854
860
864
871
890
908
919
929
935
941
952
957
964
965
970
968
968
967
971
973
977
977
975
971
972
974
978
976
975
976
976
975
980
981
979
976
977
980
982
983
983
979
980
982
982
984
983
979
981
983
985
984
984
985
988
989
990
990
991
990
994
995
995
996
992
994
996
997
998
998
996
994
999
1001
1000
1002
1002
1001
1003
1002
1003
1006
1002
1001
998
1002
1002
999
998
995
995
993
994
992
990
987
989
989
990
986
982
982
983
983
987
983
980
980
978
982
981
978
978
975
978
977
980
979
978
975
978
978
978
980
980
978
979
978
976
975
973
971
975
977
976
976
976
973
972
973
975
977
976
972
974
976
975
974
974
973
972
973
971
969
971
967
965
968
970
968
967
963
966
966
966
964
962
961
963
966
968
968
964
962
963
964
966
963
965
963
964
965
969
967
966
965
965
963
967
969
967
966
967
969
968
968
965
966
970
973
974
969
966
968
972
971
970
970
970
972
974
973
972
973
969
967
967
969
974
972
973
971
971
974
971
972
970
969
970
972
974
973
974
971
971
973
975
973
971
969
973
975
975
974
973
972
972
974
975
972
972
973
976
975
974
972
973
973
973
975
977
977
974
975
974
977
977
975
973
972
974
977
977
976
974
972
976
977
977
975
975
976
975
980
982
985
985
985
988
988
990
992
993
997
1003
1006
1010
1010
1010
1010
1013
1016
1018
1016
1019
1019
1022
1022
1016
1007
996
990
983
980
973
967
962
962
966
969
967
967
966
964
968
966
968
967
966
965
966
966
966
965
961
961
964
969
971
968
964
965
966
966
967
965
966
965
965
966
963
959
960
968
975
978
980
981
979
964
950
942
939
942
941
933
924
916
909
902
891
880
869
863
856
852
854
863
869
875
886
899
914
922
931
942
952
964
968
970
973
975
976
977
976
974
976
981
981
982
979
978
977
981
981
983
983
982
982
983
981
981
983
982
984
985
985
985
986
979
982
981
985
986
989
989
990
986
987
987
989
986
990
992
994
992
988
989
992
997
999
1002
1000
995
994
997
1000
1000
1001
1003
1004
1006
1008
1009
1005
1001
1004
1006
1009
1008
1008
1006
1005
1008
1006
1003
999
1000
1000
1002
1001
1002
999
998
995
997
996
998
994
992
994
993
989
986
984
983
985
988
988
986
986
984
980
980
981
983
986
983
981
984
985
984
981
979
979
980
983
981
978
978
981
981
982
980
979
975
979
980
979
977
976
975
978
979
978
978
975
972
975
975
976
976
974
972
972
970
971
972
973
971
971
973
973
972
968
966
966
968
969
966
966
964
964
967
968
968
965
961
962
961
960
963
964
962
965
970
971
966
966
966
969
969
969
964
965
966
968
969
970
970
972
969
972
973
974
972
968
969
970
973
974
976
972
969
974
976
980
978
976
973
974
978
976
975
975
975
979
978
979
975
976
977
977
979
980
979
977
974
977
981
981
978
976
975
979
979
982
979
979
977
979
982
984
980
980
981
981
985
985
982
983
977
980
983
984
982
980
981
983
982
981
982
983
980
982
985
984
982
983
982
984
984
984
985
987
984
987
991
992
994
994
996
998
999
1002
1003
1008
1010
1011
1015
1021
1024
1027
1023
1024
1027
1030
1029
1028
1030
1033
1028
1021
1011
1005
997
993
988
983
979
977
975
980
982
981
981
980
980
980
982
982
980
979
977
980
982
982
980
979
978
977
978
978
980
980
978
979
978
981
981
983
982
980
981
984
984
982
980
982
982
978
975
978
988
996
1005
1010
1013
1008
995
984
979
977
976
973
971
970
961
954
951
943
936
925
916
904
892
883
877
879
886
888
887
895
908
925
937
943
952
958
965
975
979
981
987
986
987
990
993
994
993
992
990
992
993
997
999
994
992
996
998
998
998
995
995
997
998
1000
999
1000
1000
999
1000
1001
1002
1000
995
1002
1003
1002
1000
1001
1001
1007
1007
1008
1008
1007
1004
1006
1006
1009
1010
1011
1012
1014
1014
1014
1013
1013
1013
1016
1016
1017
1017
1014
1016
1018
1020
1019
1018
1019
1018
1021
1023
1024
1022
1023
1023
1027
1026
1025
1024
1024
1022
1023
1025
1025
1025
1023
1023
1022
1022
1024
1022
1023
1015
1016
1016
1017
1017
1015
1014
1010
1014
1011
1010
1008
1010
1011
1008
1010
1011
1009
1005
1005
1008
1007
1007
1005
1004
1003
1002
1005
1003
1003
1000
1003
1006
1007
1002
998
995
996
1001
999
1001
999
998
998
1000
998
995
990
993
997
1002
1002
998
998
994
993
997
997
994
995
990
988
989
988
991
992
993
994
992
992
991
988
984
985
986
987
987
986
981
979
985
988
985
980
978
981
987
986
983
979
979
982
988
987
984
985
983
984
984
984
982
983
982
983
986
986
984
985
984
985
985
985
988
986
984
985
986
988
988
986
986
985
987
992
988
987
982
986
988
989
988
988
987
989
991
989
990
985
986
989
990
990
989
986
987
992
992
991
989
987
989
990
993
991
987
984
982
988
992
990
991
989
989
992
991
988
989
989
985
988
990
993
993
990
989
990
991
993
992
991
990
991
993
990
990
995
997
1001
1001
1002
1005
1009
1008
1013
1017
1020
1022
1026
1026
1030
1034
1032
1033
1032
1029
1031
1032
1036
1036
1033
1028
1018
1012
1008
1003
996
989
987
985
985
985
983
981
981
984
985
981
981
977
981
982
982
980
979
977
982
980
981
979
978
977
979
976
982
981
980
979
977
977
978
981
981
980
981
979
980
981
979
974
975
981
988
994
996
1000
1003
1008
999
981
964
957
960
960
959
957
947
934
931
931
923
911
897
881
876
868
862
856
857
865
873
881
894
908
923
932
939
947
956
961
965
971
976
979
983
984
983
983
986
986
989
988
986
987
987
988
988
987
985
984
987
989
988
987
987
987
988
988
989
988
988
989
989
992
991
991
989
987
989
989
991
989
991
990
989
991
993
993
993
994
996
998
995
998
1000
998
1003
1000
996
997
1000
1000
1004
1006
1005
999
998
999
1002
1002
1003
1005
1007
1008
1010
1005
1009
1009
1010
1008
1010
1011
1010
1007
1004
1000
1003
1006
1004
999
996
993
995
998
997
997
997
994
994
993
991
992
989
988
988
989
989
985
982
983
985
985
985
984
981
977
979
979
981
980
983
980
978
982
984
980
978
980
984
986
986
987
984
983
983
983
985
982
979
977
978
980
980
978
977
978
976
975
973
971
971
971
968
967
970
970
966
968
971
973
969
965
961
959
961
960
963
963
963
963
964
964
957
952
954
957
959
957
957
957
955
952
946
951
955
959
958
958
959
962
964
962
960
957
956
958
960
958
957
954
957
961
960
957
955
956
958
958
959
959
957
955
955
958
958
956
958
961
963
963
958
956
953
955
960
964
960
957
959
959
958
955
956
958
958
959
962
962
963
959
959
954
954
957
960
958
953
949
950
956
955
957
952
952
955
958
959
959
956
954
952
953
955
957
951
946
943
946
951
954
955
956
953
951
953
952
948
949
953
955
956
958
959
960
965
969
973
975
976
973
977
977
977
978
983
992
1000
1002
1003
998
998
1000
1003
1002
992
981
970
964
958
950
944
940
939
937
937
935
932
927
923
927
938
946
946
940
938
934
929
931
934
934
933
926
924
926
931
930
928
927
929
931
936
940
947
941
937
928
930
934
939
940
936
937
936
946
954
960
964
970
968
956
943
933
932
930
928
928
917
908
901
897
888
877
861
848
845
844
838
834
834
838
837
834
845
860
878
888
891
896
901
905
913
927
944
956
956
948
942
935
937
937
936
937
940
945
950
948
945
943
940
939
940
940
941
943
943
939
935
937
941
945
938
927
925
926
929
943
953
953
954
955
955
953
951
949
949
950
950
948
945
944
947
954
955
954
950
949
949
953
954
953
958
958
956
952
954
959
957
953
956
961
960
958
953
950
951
961
977
974
968
964
965
965
959
953
948
944
945
940
940
948
953
952
949
954
956
955
952
947
951
954
955
949
945
941
941
942
941
936
937
936
933
927
931
938
938
935
934
934
934
933
933
928
928
927
934
935
934
932
934
934
937
934
930
927
922
926
929
929
929
928
925
926
921
919
915
913
918
926
930
929
922
917
918
926
930
923
919
918
922
924
919
919
915
911
914
919
922
921
915
911
911
916
914
913
910
911
915
913
914
913
910
911
915
915
912
908
910
915
914
911
906
908
908
909
910
913
912
907
914
926
931
927
923
922
921
921
924
923
920
921
918
914
914
918
918
915
916
920
919
920
919
920
916
913
913
912
905
906
917
927
935
934
934
930
920
917
919
923
921
921
915
912
919
927
930
930
922
914
917
923
926
922
919
912
912
920
926
926
923
921
924
929
927
925
924
925
922
922
925
934
938
939
935
934
936
934
933
935
948
959
961
963
953
950
956
965
968
970
974
975
980
980
981
975
968
960
949
941
932
925
915
908
910
921
927
924
918
911
910
913
915
911
908
915
927
931
928
930
937
935
922
913
918
931
939
937
933
928
926
922
926
925
923
919
910
914
920
930
929
925
924
923
933
944
950
955
962
956
944
932
931
929
928
918
908
897
895
890
879
863
849
836
827
822
820
819
824
830
843
860
879
891
895
899
909
915
919
919
922
931
943
949
951
948
943
938
941
945
948
947
940
937
936
937
937
940
943
944
945
943
942
936
927
927
938
953
960
954
943
939
942
952
955
955
953
955
957
955
954
947
945
947
953
959
957
954
953
954
956
961
968
970
967
958
955
960
966
970
963
962
963
960
954
960
975
984
981
973
967
968
967
968
970
975
974
971
969
966
969
971
971
968
963
961
962
963
959
954
956
959
962
957
953
947
946
951
950
951
955
955
952
947
947
957
958
956
953
954
956
955
950
950
953
954
956
953
948
944
942
942
949
955
959
952
940
936
938
939
940
943
946
946
944
943
940
938
932
931
942
945
948
943
943
945
944
944
944
941
938
939
942
944
943
935
933
935
944
945
940
931
926
928
935
941
940
942
941
936
934
938
944
945
945
941
946
946
942
936
934
940
947
956
954
946
941
942
946
945
942
946
950
949
948
953
951
945
937
935
946
959
960
953
940
936
946
961
965
956
947
940
943
951
958
957
952
949
949
951
950
948
953
959
959
958
953
959
959
956
957
956
957
955
946
947
954
965
965
959
948
947
956
962
961
956
954
956
956
952
956
958
962
959
956
956
957
953
951
954
963
970
967
956
951
958
964
968
970
969
970
970
971
975
982
986
989
990
993
998
1002
1003
998
994
1003
1012
1014
1006
994
980
976
978
974
970
960
952
946
948
956
958
952
946
949
951
958
956
947
941
943
947
952
952
950
948
951
956
961
960
956
954
953
948
943
940
946
953
962
964
955
953
953
954
954
954
955
959
963
972
982
978
967
962
964
961
960
954
945
945
939
928
917
911
903
887
870
855
851
855
860
865
872
883
895
909
913
918
921
930
944
952
956
954
958
961
965
966
962
956
955
960
960
960
953
956
960
962
966
971
974
979
978
971
967
965
960
962
966
972
975
972
971
968
968
968
963
963
966
970
974
970
971
974
974
970
967
968
969
967
967
968
973
978
979
979
973
969
971
973
983
986
989
983
983
987
985
989
984
986
989
990
991
989
986
986
983
985
986
988
990
989
986
982
980
979
985
990
994
988
978
976
975
979
982
979
976
979
981
980
979
975
974
973
969
969
982
986
982
979
977
976
975
971
969
973
973
970
970
977
981
977
975
972
970
969
971
971
968
965
970
974
982
976
968
961
959
959
967
972
969
967
964
966
968
968
965
957
958
962
967
965
961
965
966
960
957
951
958
961
961
955
959
969
975
971
963
958
957
959
960
968
969
965
962
964
967
961
960
958
961
967
973
971
971
969
965
959
960
967
973
972
971
970
968
969
972
969
967
967
968
970
970
977
984
984
979
972
969
970
974
978
974
968
966
964
966
972
977
977
978
974
974
980
983
981
983
985
984
980
975
973
974
973
975
978
981
980
981
979
978
982
985
982
977
970
967
972
977
980
980
982
986
983
982
985
991
989
989
992
991
989
985
983
982
984
981
981
983
986
988
993
995
991
986
988
994
998
998
999
1004
1010
1021
1025
1024
1023
1018
1016
1025
1033
1036
1030
1028
1026
1025
1019
1010
999
989
983
978
973
969
970
969
965
968
976
981
983
979
973
974
971
965
963
964
963
966
971
978
977
972
967
967
970
973
975
973
972
982
985
980
970
968
968
977
979
974
971
971
970
968
967
966
967
974
982
997
1012
