932
933
933
935
934
929
927
927
927
933
938
941
943
944
949
963
981
1002
1027
1047
1051
1042
1036
1037
1040
1044
1048
1046
1039
1036
1036
1031
1017
988
947
912
883
861
844
834
834
836
845
853
864
872
879
882
885
891
901
906
914
915
916
913
909
910
916
919
917
917
915
912
912
913
915
915
919
919
917
915
913
912
915
913
912
910
908
907
910
912
913
911
911
909
911
916
919
918
917
917
916
915
918
915
910
910
913
916
919
918
918
913
915
913
917
917
923
922
925
921
921
924
923
921
924
926
928
929
927
924
927
929
929
932
931
930
932
932
934
934
927
923
924
927
931
935
939
942
941
943
942
942
941
940
943
945
945
944
945
942
942
942
942
941
941
941
942
945
945
946
944
943
942
941
942
942
943
943
946
945
944
941
938
938
941
941
941
940
940
938
941
942
941
938
934
933
936
939
940
938
935
933
934
935
935
935
934
933
933
927
929
928
927
927
931
932
930
930
929
927
930
931
934
932
930
927
926
929
934
933
932
927
929
931
930
932
929
929
934
935
934
928
928
929
932
935
937
934
934
932
936
937
937
937
937
935
937
938
939
938
935
936
940
941
941
940
937
935
939
939
943
942
940
937
939
944
944
941
941
937
936
937
941
943
942
942
944
946
947
947
944
940
941
944
947
944
942
941
944
949
949
949
947
943
944
944
945
945
943
942
944
946
946
944
945
945
947
948
949
947
947
946
950
950
953
950
949
951
954
957
959
960
961
961
963
966
968
971
974
980
983
988
990
987
988
986
992
997
1001
1003
1002
997
991
985
977
974
969
959
956
946
946
944
946
944
945
947
946
945
943
941
945
947
946
944
942
944
947
949
946
945
947
946
948
951
950
949
948
946
947
949
952
954
950
948
951
952
955
955
954
952
957
969
981
997
1012
1035
1063
1079
1075
1064
1059
1064
1070
1081
1086
1085
1080
1079
1080
1074
1058
1024
981
947
921
903
882
866
853
852
859
870
884
893
895
903
910
922
931
936
939
938
938
938
938
939
939
939
939
939
940
942
940
938
940
942
940
938
938
937
939
941
941
941
941
939
942
943
944
942
941
940
942
943
943
944
945
944
944
946
947
947
943
943
946
949
946
947
946
946
947
950
953
956
955
949
951
951
953
955
955
954
954
956
959
960
960
961
960
962
964
960
963
962
968
967
971
969
967
968
970
973
975
973
972
975
976
980
979
981
975
974
977
979
981
979
980
979
984
984
980
980
982
979
984
986
985
982
980
979
981
983
983
983
981
980
979
979
980
980
980
978
978
980
978
975
979
975
975
977
976
977
974
973
971
971
972
972
973
970
972
970
972
971
970
968
971
970
969
970
972
971
971
968
966
964
966
966
966
968
968
969
967
964
969
971
970
971
969
972
973
975
972
971
970
970
973
975
976
978
975
975
975
976
974
972
975
975
981
984
984
979
976
977
976
978
982
983
980
979
978
982
984
986
984
984
982
983
985
985
982
976
977
983
984
987
988
988
987
989
987
986
987
983
984
985
985
985
983
983
984
985
988
988
985
986
988
991
992
989
986
987
989
991
991
990
989
987
993
998
999
999
996
995
998
1001
1002
1000
1003
1009
1010
1015
1021
1026
1029
1029
1032
1038
1042
1044
1042
1041
1043
1045
1042
1029
1013
1002
999
997
994
988
981
977
976
985
987
986
983
976
972
969
966
971
975
977
977
975
975
980
988
993
995
990
982
975
966
964
966
974
981
986
991
995
992
992
985
984
987
994
999
1004
1011
1026
1046
1068
1092
1106
1107
1095
1099
1113
1126
1128
1121
1114
1106
1108
1111
1106
1096
1072
1029
988
955
930
907
891
875
871
878
894
914
925
926
921
925
939
957
971
970
960
953
949
954
957
954
949
954
961
970
966
964
963
962
958
954
954
951
950
953
956
955
954
956
957
956
958
955
949
948
950
956
962
960
958
956
954
952
954
961
966
969
962
957
957
962
964
959
951
951
960
963
966
967
971
971
970
966
967
966
963
969
976
976
974
973
974
977
978
975
976
976
976
983
987
993
991
985
977
976
979
987
989
988
978
969
969
976
991
995
990
990
989
991
998
999
995
991
993
996
998
997
991
984
977
979
985
989
986
981
978
976
986
998
1001
994
984
982
981
977
977
979
982
982
980
978
976
975
976
982
986
987
983
973
973
976
979
979
976
976
980
978
977
973
970
973
977
979
975
970
969
976
979
971
963
960
964
976
981
980
970
964
964
978
986
980
976
968
970
977
979
978
978
980
977
974
974
971
978
982
984
984
984
985
985
982
977
978
981
990
992
991
980
977
979
991
994
997
994
992
988
989
989
986
982
984
990
994
994
995
991
993
990
993
994
991
990
990
994
995
994
992
989
990
994
1006
1011
1009
1001
998
999
1003
998
995
994
996
997
997
996
996
998
1006
1008
1011
1008
1004
998
1000
1007
1016
1022
1023
1019
1021
1024
1030
1040
1044
1044
1045
1046
1046
1045
1042
1041
1046
1047
1041
1030
1020
1014
1011
1007
995
987
987
991
991
990
991
999
998
998
996
993
992
997
994
994
989
989
992
997
999
999
997
997
997
996
996
993
995
1000
998
995
1000
1001
1003
999
1001
1006
1013
1020
1034
1054
1071
1090
1103
1099
1087
1081
1082
1085
1084
1084
1082
1080
1087
1082
1068
1048
1019
985
960
935
918
911
911
907
904
909
924
940
950
958
964
968
972
981
989
990
986
984
985
987
988
992
994
994
992
988
988
988
991
994
990
988
987
986
988
988
984
984
987
993
994
992
993
997
997
997
994
994
993
988
994
995
991
987
986
991
1001
1004
1001
995
998
999
996
996
999
1005
1006
1007
1008
1010
1011
1010
1012
1011
1011
1012
1015
1014
1014
1011
1012
1013
1016
1017
1018
1016
1014
1015
1019
1020
1016
1011
1010
1015
1022
1025
1025
1025
1022
1019
1021
1029
1026
1020
1017
1019
1021
1021
1018
1019
1021
1025
1024
1024
1024
1021
1019
1016
1012
1015
1019
1021
1022
1021
1015
1011
1011
1016
1022
1021
1019
1017
1015
1014
1012
1015
1019
1019
1010
1008
1012
1018
1019
1013
1010
1006
1009
1012
1013
1010
1005
1006
1013
1016
1013
1007
1001
997
1000
1002
1002
1002
1003
998
1000
999
1002
1002
997
997
994
989
990
997
1002
1008
1006
1001
999
995
997
995
994
998
1003
1007
1002
995
995
997
997
998
1002
998
989
991
997
1006
1003
996
995
999
1005
1000
995
996
1004
1008
1002
994
1002
1013
1014
1005
992
993
998
1005
1010
1009
1005
1006
1010
1011
1011
1002
995
997
1005
1006
1006
1006
1002
996
996
1004
1013
1014
1007
1001
1002
1006
1004
1004
1002
1006
1008
1010
1012
1016
1023
1025
1021
1017
1015
1015
1019
1026
1035
1039
1039
1042
1042
1042
1042
1039
1042
1048
1050
1048
1049
1051
1057
1051
1041
1029
1023
1015
1008
1005
1004
1002
996
989
996
999
998
994
994
998
1000
1001
1001
1000
997
994
993
995
997
995
995
995
994
996
995
998
998
998
1003
1010
1007
999
994
996
1004
1006
1002
1005
1013
1029
1043
1060
1081
1104
1105
1086
1070
1074
1080
1080
1074
1064
1061
1067
1069
1065
1047
1024
995
966
944
924
917
915
912
903
904
913
927
933
943
951
959
965
970
979
987
992
994
989
985
981
979
981
987
993
993
990
988
983
981
981
980
981
986
991
993
987
986
986
990
992
991
989
985
984
984
982
981
981
985
990
994
991
989
988
990
991
995
996
995
992
989
989
986
990
994
991
988
986
993
998
1001
996
990
989
990
994
1002
1008
1006
1000
998
1002
1004
1001
1002
999
1001
1005
1007
1011
1011
1008
1005
1007
1010
1009
1005
1005
1010
1015
1020
1013
1010
1006
1010
1012
1013
1011
1008
1009
1009
1010
1007
1007
1005
1007
1011
1013
1011
1011
1009
1008
1008
1005
1004
1004
1006
1008
1009
1010
1010
1003
999
1000
1008
1015
1015
1011
1002
1000
998
1001
1005
1006
1002
1002
1004
1007
1007
1003
997
998
1002
1002
999
992
992
995
992
992
992
997
997
987
988
992
997
994
988
984
986
991
998
996
989
983
981
985
988
990
990
988
991
988
991
989
990
987
986
987
988
994
997
997
990
987
987
992
996
996
991
992
991
991
989
987
989
998
1001
997
994
989
987
991
993
999
995
992
992
992
995
991
990
988
989
990
992
994
998
995
995
995
997
995
992
990
993
995
995
995
989
988
989
992
991
992
996
996
993
988
989
995
1003
1004
1000
1000
998
993
992
993
994
994
992
992
995
998
1001
1000
997
994
991
990
999
1007
1011
1008
1002
1000
1007
1014
1015
1011
1009
1015
1028
1031
1030
1031
1026
1024
1025
1026
1030
1037
1037
1036
1036
1040
1038
1035
1031
1028
1031
1028
1015
1005
996
990
984
982
982
986
987
984
985
991
993
991
989
984
986
987
983
981
982
986
991
994
993
988
988
988
987
983
978
979
985
990
992
990
988
986
990
992
997
998
991
988
982
983
992
1009
1026
1043
1057
1076
1089
1091
1074
1063
1060
1061
1059
1057
1057
1054
1054
1049
1048
1044
1039
1026
1006
977
953
928
910
901
900
898
898
898
904
918
928
933
940
946
952
961
967
970
973
975
977
974
971
970
976
979
979
977
975
974
973
976
982
981
982
980
982
981
980
979
978
977
978
979
978
981
980
979
980
977
977
973
974
975
977
982
981
976
971
971
974
981
981
977
977
978
983
985
986
986
984
983
984
987
985
982
982
983
985
987
987
986
983
987
986
990
990
991
993
993
995
995
993
991
987
988
992
995
1000
1001
1001
999
996
992
997
997
998
993
993
992
994
992
994
992
997
1001
1002
996
989
991
999
1005
1003
998
991
987
992
996
995
990
995
997
997
997
994
992
987
989
992
994
991
988
986
989
991
997
993
984
979
979
984
985
986
987
984
985
985
988
982
975
974
975
981
982
978
981
985
976
968
967
968
968
964
965
972
976
973
966
965
967
976
982
977
969
964
966
967
966
962
963
962
961
957
953
947
947
956
967
974
976
973
972
969
962
966
966
968
966
960
964
975
977
969
955
950
954
970
975
976
969
963
963
972
979
981
976
974
972
973
972
970
969
965
964
971
977
972
961
953
961
972
974
976
979
973
970
970
974
972
968
966
968
971
973
976
971
967
967
971
975
975
970
962
964
971
976
973
967
971
976
976
973
970
971
972
971
968
966
964
967
969
964
962
966
972
974
974
970
971
969
969
968
970
973
976
973
969
972
977
979
975
973
971
970
971
975
977
975
969
970
972
972
971
971
975
981
980
974
975
975
974
976
978
977
977
979
981
986
985
983
986
992
994
994
993
995
995
998
1004
1008
1007
1008
1010
1007
1013
1023
1026
1015
1016
1018
1022
1023
1018
1010
1004
998
992
989
979
970
967
971
975
976
975
973
975
974
972
968
964
965
969
970
967
961
957
962
970
970
969
970
978
985
986
984
979
969
963
965
972
980
977
976
969
973
977
979
976
980
984
997
1013
1033
1054
1071
1066
1051
1039
1037
1040
1048
1051
1050
1042
1029
1021
1026
1027
1025
1014
991
960
929
907
889
885
891
898
892
882
873
880
898
913
919
921
927
938
947
951
959
961
959
958
960
962
963
968
967
965
962
959
960
960
961
961
962
961
967
972
967
964
965
966
965
963
962
959
961
960
963
963
965
967
965
963
959
957
960
966
967
965
960
967
968
967
971
972
972
972
967
967
970
965
962
965
970
972
972
971
969
969
973
974
975
975
982
985
985
983
981
979
978
983
988
989
990
989
985
985
979
977
985
989
988
988
988
991
991
995
996
997
995
993
993
994
992
981
976
976
982
993
1001
999
994
991
993
995
994
990
985
986
989
989
990
987
988
989
986
984
986
985
983
982
983
981
981
977
976
979
981
983
986
982
977
976
977
979
979
975
976
979
982
982
978
977
971
971
974
975
974
972
969
966
968
968
970
966
958
958
964
973
975
971
969
965
967
968
976
974
970
969
965
966
967
967
965
969
973
972
967
962
961
967
971
975
974
971
971
974
981
981
981
976
974
975
977
977
975
978
977
982
979
978
975
971
970
971
977
980
979
975
973
977
978
979
977
971
971
972
977
979
982
980
979
979
980
977
974
971
971
974
982
987
986
983
976
979
981
988
985
975
969
971
974
978
984
979
973
968
969
975
978
979
976
977
980
982
980
980
973
973
980
984
987
986
981
981
980
973
968
966
968
975
981
984
983
980
978
977
975
977
981
980
978
976
975
983
991
988
985
983
984
979
973
967
964
967
969
978
987
987
980
977
971
975
979
985
991
991
984
978
974
978
977
983
984
984
978
974
974
976
976
978
977
972
970
971
968
965
967
972
979
979
974
975
982
987
980
976
974
974
976
973
972
975
978
974
970
968
966
972
975
976
972
969
965
967
972
980
980
976
976
977
973
975
976
979
984
987
986
982
983
983
986
996
1002
1003
1002
998
1002
1004
1004
1005
1010
1019
1023
1022
1014
1003
991
992
991
987
978
965
956
954
952
957
963
966
966
966
968
967
966
963
962
961
965
967
966
962
963
964
960
962
963
968
969
969
969
973
974
975
975
970
967
967
970
975
980
990
1010
1032
1056
1076
1080
1070
1067
1081
1094
1096
1089
1084
1080
1080
1084
1084
1082
1068
1038
1002
968
940
918
901
886
881
878
889
899
906
911
919
932
942
953
950
950
953
954
954
951
949
949
954
962
966
962
956
953
956
957
955
954
953
952
954
958
963
958
955
952
955
954
950
949
948
950
953
956
958
957
953
950
952
953
955
957
960
960
959
959
959
959
959
957
960
960
963
963
960
962
965
965
964
964
967
969
970
973
971
970
971
973
974
974
974
973
978
979
985
985
985
987
987
983
983
986
992
993
995
994
995
996
993
993
990
988
988
988
991
994
993
992
994
995
992
990
993
995
997
999
997
994
987
987
992
995
995
993
990
987
989
991
993
993
992
986
985
985
986
986
987
988
991
992
989
987
983
983
985
985
982
979
978
978
981
982
982
979
977
975
976
978
978
977
975
973
972
974
971
968
970
970
972
973
974
972
972
970
974
976
973
971
969
970
974
978
980
975
971
972
975
980
982
980
978
976
978
982
980
979
977
977
977
981
984
983
984
982
988
990
991
989
986
983
988
989
989
988
988
988
990
988
988
985
983
981
984
989
992
994
993
991
992
991
991
989
989
989
990
994
991
985
985
989
997
997
992
987
984
987
994
993
990
990
992
992
989
987
984
994
1000
995
989
983
981
986
988
989
988
989
989
984
982
984
992
994
987
981
979
982
993
999
994
986
977
979
989
999
999
989
984
983
985
987
984
986
990
987
986
989
988
987
988
992
994
988
985
989
993
984
979
979
987
993
986
982
990
1000
1000
992
984
982
992
1004
999
993
987
982
988
997
1002
1001
991
985
990
1011
1024
1021
1014
1019
1025
1033
1031
1027
1026
1028
1038
1046
1039
1029
1014
1006
1008
1005
996
981
971
969
976
977
970
960
954
961
973
982
982
977
967
966
968
973
974
969
961
954
960
967
975
973
972
965
969
972
970
969
974
977
979
979
978
974
971
969
970
979
992
1008
1027
1047
1077
1099
1106
1095
1086
1082
1080
1088
1100
1101
1095
1092
1104
1116
1118
1103
1070
1031
1000
973
947
920
894
876
866
866
877
887
895
899
901
911
924
935
935
936
945
954
955
948
943
942
950
952
951
952
953
947
944
942
942
944
943
941
942
940
941
942
939
940
948
954
950
938
931
939
946
947
942
940
944
944
943
940
940
939
938
941
945
948
947
944
940
939
947
961
963
955
942
936
937
945
951
952
946
940
942
949
951
950
950
948
954
963
965
961
955
955
957
959
959
958
960
957
954
958
968
977
974
967
960
961
971
981
984
980
974
972
976
977
978
975
978
979
976
970
967
966
973
985
989
982
976
974
978
982
984
981
974
972
976
979
977
973
976
978
981
979
973
964
963
968
978
980
973
972
971
976
978
979
977
971
961
954
962
976
985
980
974
970
972
971
966
959
956
964
968
965
961
959
956
954
955
959
963
969
968
967
965
963
960
959
956
958
968
974
970
958
948
947
952
965
969
964
959
961
968
971
975
972
965
959
961
966
972
975
970
969
971
970
961
956
957
965
977
982
979
969
964
968
977
976
971
962
960
969
980
983
978
971
966
964
968
968
972
977
983
981
976
970
964
958
957
963
969
971
971
977
984
986
980
970
973
982
988
980
973
971
974
979
977
972
963
962
966
967
971
973
970
966
973
981
987
979
974
974
977
976
972
964
958
963
973
985
989
984
980
971
969
968
970
974
980
980
975
970
966
963
969
977
981
988
991
986
987
988
985
982
982
995
1008
1017
1012
1006
1002
1010
1022
1029
1030
1026
1021
1021
1027
1035
1030
1022
1012
1007
999
996
990
982
971
971
975
978
974
967
965
963
967
976
979
978
973
968
968
968
971
981
988
986
982
979
979
978
974
975
979
983
977
974
974
981
989
992
987
979
980
981
990
1003
1019
1043
1071
1096
1105
1101
1095
1104
1109
1113
1119
1124
1133
1144
1151
1147
1136
1110
1069
1031
996
968
937
906
885
878
886
899
914
924
926
934
942
949
958
961
958
960
958
957
963
966
966
964
961
958
955
960
962
961
955
947
950
956
960
957
957
957
960
958
950
937
938
941
953
965
975
978
