998
999
1000
997
999
997
1000
1002
1000
997
997
997
998
1001
1001
1001
998
1001
1005
1003
1000
997
998
1002
1005
1005
1003
1003
1003
1007
1006
1006
1005
1004
1006
1009
1010
1008
1007
1007
1008
1011
1016
1018
1017
1017
1017
1025
1025
1026
1028
1031
1036
1041
1045
1046
1047
1048
1049
1049
1057
1059
1057
1055
1053
1047
1040
1029
1021
1011
1002
996
995
996
994
990
992
993
995
994
992
992
992
995
997
996
994
991
991
995
996
994
993
987
990
995
995
996
995
993
992
994
996
993
995
991
995
996
998
1003
1012
1021
1041
1063
1088
1101
1103
1096
1098
1108
1115
1123
1128
1127
1130
1134
1136
1136
1131
1106
1071
1037
1009
979
941
909
893
881
886
900
914
919
925
934
944
955
960
959
962
964
968
967
966
963
961
964
966
965
965
963
962
964
964
965
961
961
959
960
962
962
960
958
960
961
961
962
960
961
960
961
961
963
962
960
958
959
962
962
960
958
959
960
961
960
958
957
958
960
961
962
961
961
962
962
966
965
965
961
964
968
973
971
970
969
971
974
975
976
978
977
978
984
988
989
989
989
989
993
995
999
1000
999
999
1003
1006
1008
1007
1005
1005
1008
1007
1006
1007
1006
1006
1007
1010
1011
1007
1003
1006
1006
1009
1009
1008
1006
1005
1005
1008
1005
1004
1000
999
1000
1004
1000
1003
998
999
1002
1003
1000
995
994
993
994
994
995
993
992
990
991
991
990
986
980
983
982
982
982
978
974
973
976
976
978
972
969
968
967
970
972
970
969
969
969
972
968
968
965
966
970
974
972
972
969
971
973
972
975
973
973
974
975
974
976
976
974
977
978
979
979
979
980
980
981
984
984
982
981
983
984
985
983
984
980
980
983
986
985
983
981
983
985
986
986
984
982
984
986
988
988
986
983
985
987
989
988
986
985
989
993
994
995
994
995
997
1001
1003
1003
1004
1005
1008
1013
1019
1022
1023
1026
1027
1032
1033
1031
1032
1033
1038
1038
1042
1042
1039
1026
1017
1010
1004
1001
995
983
980
978
979
979
979
976
977
976
978
981
978
975
976
977
978
982
978
976
977
979
983
981
980
977
978
979
983
981
978
978
981
983
982
983
982
982
981
981
986
988
998
1012
1035
1062
1083
1096
1092
1085
1086
1098
1106
1111
1116
1120
1124
1125
1133
1135
1137
1139
1130
1108
1075
1045
1016
984
949
917
894
878
867
870
885
900
910
913
917
923
934
945
950
953
953
949
950
953
953
954
950
952
951
953
954
954
949
946
948
947
950
948
945
946
947
950
951
950
947
944
945
946
948
948
947
946
948
948
950
949
948
946
945
948
950
949
949
944
946
950
951
948
949
948
950
952
953
952
952
952
953
956
957
958
954
953
956
959
964
963
965
963
965
969
973
975
974
974
975
980
984
983
984
982
988
991
994
993
989
991
994
996
997
998
995
995
997
995
1000
999
999
994
995
999
1000
998
996
995
997
996
998
998
997
994
993
995
998
997
995
992
994
994
995
993
993
992
990
991
992
991
987
986
983
984
985
986
983
978
978
979
978
978
974
971
971
972
972
972
969
967
966
967
969
966
967
965
965
966
968
967
966
965
966
969
970
972
970
967
969
969
970
971
971
971
970
974
973
975
975
973
973
976
979
978
977
975
978
979
983
982
979
978
980
981
983
982
981
980
980
982
983
984
980
979
979
985
987
986
985
981
984
988
991
992
992
992
993
997
1002
1002
1005
1004
1005
1009
1017
1019
1019
1020
1024
1029
1031
1030
1031
1027
1031
1035
1041
1041
1037
1031
1025
1018
1014
1004
995
986
982
978
979
980
979
975
976
978
980
978
977
975
979
980
980
980
979
977
978
980
981
980
978
979
981
980
984
983
981
980
979
982
983
983
982
979
980
983
983
983
982
983
991
1005
1024
1044
1062
1073
1076
1070
1071
1080
1088
1092
1095
1097
1100
1103
1105
1103
1103
1103
1089
1058
1023
995
975
949
923
900
878
863
870
887
904
913
917
920
929
943
955
959
957
957
958
959
963
962
962
959
958
961
962
964
961
957
958
958
962
960
958
953
954
955
956
956
953
953
952
954
956
957
953
950
952
953
956
955
954
952
953
953
956
952
951
951
955
954
959
955
955
955
954
957
960
960
961
958
961
961
965
964
967
966
965
965
970
971
971
970
972
976
978
977
977
976
979
986
988
990
988
988
988
992
997
997
996
994
996
997
1001
999
1001
998
1000
1001
1001
1002
1001
998
998
1001
1004
1001
1001
996
999
998
1001
999
998
998
998
998
999
1000
998
995
997
996
1000
997
995
993
990
994
995
994
987
989
988
988
990
987
985
983
980
982
981
980
978
976
977
978
979
978
975
971
973
974
975
974
969
965
966
970
970
968
965
962
964
964
967
967
964
963
963
965
968
971
967
965
968
971
971
972
969
969
972
974
975
974
972
974
974
974
976
976
975
971
974
976
982
978
977
975
978
979
982
977
979
977
979
982
982
982
981
981
981
982
984
985
982
978
981
981
980
984
982
981
981
982
983
983
982
983
981
982
988
984
985
982
984
984
988
986
986
983
984
988
989
988
986
983
985
988
991
989
988
988
990
997
1000
999
997
997
999
1003
1008
1013
1016
1018
1022
1023
1027
1028
1026
1026
1030
1035
1037
1042
1040
1037
1032
1024
1017
1009
1001
994
989
983
980
974
974
974
977
978
980
977
976
975
976
977
977
977
977
974
973
975
976
976
976
973
973
976
977
978
977
976
977
979
978
978
976
974
973
978
982
980
980
977
979
981
988
1001
1016
1029
1049
1070
1085
1092
1084
1077
1084
1093
1102
1109
1113
1112
1114
1122
1129
1130
1126
1118
1097
1067
1037
1009
982
946
908
885
872
869
877
888
900
909
914
918
923
933
940
946
947
948
944
942
943
945
948
945
944
942
943
944
943
944
944
942
942
943
944
942
940
937
940
941
945
942
938
937
939
941
944
939
939
935
935
940
940
939
937
937
938
939
941
940
941
936
939
939
941
940
939
938
938
941
942
942
940
940
942
944
944
945
945
943
949
952
952
952
952
951
953
957
960
960
960
958
963
967
972
971
970
968
973
976
981
980
982
983
984
985
986
986
986
987
989
991
993
990
992
990
991
993
996
993
994
989
989
990
991
990
990
987
989
991
990
987
990
989
988
990
989
989
987
987
987
989
987
989
985
984
985
986
985
986
984
982
979
980
980
979
979
973
974
974
974
974
970
969
968
967
967
967
965
965
963
965
965
963
962
958
958
959
960
964
958
956
956
961
962
961
961
958
959
960
962
961
959
958
958
960
962
965
965
963
964
965
969
969
967
966
968
971
971
972
972
969
970
973
976
975
973
972
972
974
976
977
978
976
978
980
982
978
979
978
978
982
984
984
980
977
981
982
983
985
982
980
981
984
986
987
984
984
984
986
989
990
987
985
985
988
989
991
991
991
993
997
998
999
997
1000
1002
1006
1008
1010
1011
1011
1014
1019
1023
1029
1024
1028
1032
1033
1035
1036
1038
1038
1041
1045
1047
1044
1037
1024
1015
1009
1005
999
994
985
981
982
982
983
982
981
983
983
985
987
984
981
984
987
987
986
983
984
985
985
989
988
987
984
984
989
990
990
988
987
989
992
992
992
989
987
990
993
994
995
994
1005
1023
1041
1062
1083
1095
1095
1087
1087
1096
1106
1112
1116
1120
1124
1126
1131
1130
1132
1134
1121
1097
1063
1032
1006
976
945
918
897
884
884
894
913
924
926
932
937
950
960
965
970
968
965
968
969
969
969
969
968
970
972
973
971
969
968
967
970
970
970
967
965
966
965
967
968
965
966
965
967
967
968
966
965
966
967
967
966
965
962
965
969
970
968
968
966
966
969
970
972
970
968
970
972
974
974
974
975
975
978
978
979
979
979
979
983
987
989
987
986
988
993
995
996
999
999
1001
1003
1009
1008
1010
1009
1010
1014
1016
1017
1019
1015
1019
1018
1021
1021
1019
1019
1021
1022
1022
1021
1021
1019
1020
1021
1023
1021
1021
1017
1020
1022
1022
1021
1020
1019
1019
1018
1021
1019
1020
1016
1017
1019
1017
1018
1015
1012
1014
1017
1015
1014
1012
1009
1009
1012
1014
1011
1007
1002
1006
1007
1007
1007
1004
1002
1002
1003
1003
998
997
997
998
999
998
999
994
993
993
997
996
998
997
993
997
999
998
999
996
995
996
999
1000
998
998
999
1000
1002
1002
1004
1004
1001
1004
1005
1008
1008
1004
1003
1007
1009
1010
1010
1009
1007
1010
1009
1013
1011
1011
1009
1010
1011
1012
1011
1009
1006
1012
1013
1016
1016
1012
1010
1011
1012
1014
1014
1016
1014
1014
1016
1020
1019
1018
1019
1021
1026
1030
1031
1031
1032
1036
1037
1040
1047
1051
1051
1053
1057
1058
1059
1059
1058
1057
1063
1066
1068
1067
1061
1058
1052
1045
1037
1027
1019
1017
1012
1009
1008
1007
1005
1008
1009
1010
1009
1006
1005
1008
1008
1010
1007
1009
1004
1006
1010
1010
1011
1007
1008
1009
1012
1013
1013
1011
1007
1012
1014
1015
1013
1011
1011
1011
1015
1012
1012
1013
1023
1042
1060
1080
1096
1099
1093
1091
1099
1108
1113
1114
1116
1118
1121
1125
1126
1125
1124
1114
1086
1055
1030
1005
979
949
926
910
901
907
922
936
946
952
958
970
978
981
986
990
988
989
985
986
990
988
987
987
985
985
987
987
985
984
982
983
983
985
983
982
978
980
981
984
984
981
977
979
980
985
982
979
977
980
979
979
981
978
978
977
980
981
981
980
981
980
982
984
985
985
982
985
984
986
988
988
989
991
992
993
995
995
993
997
1000
1001
1003
1004
1003
1005
1010
1010
1011
1012
1012
1013
1015
1018
1018
1016
1011
1013
1018
1020
1019
1018
1016
1015
1017
1018
1016
1013
1012
1015
1017
1016
1014
1015
1011
1015
1014
1016
1015
1010
1008
1011
1014
1014
1008
1009
1006
1006
1007
1006
1007
1004
1001
1002
1002
1001
999
998
993
994
995
997
993
990
989
987
987
988
987
983
980
981
983
983
982
978
977
981
979
980
978
975
974
974
977
977
974
975
972
976
980
978
981
980
976
977
978
979
980
980
981
982
981
983
982
982
980
981
982
985
982
983
981
984
986
984
985
985
983
985
987
988
985
984
986
987
987
989
987
985
984
984
988
991
989
987
986
987
989
987
988
987
983
986
987
989
989
988
986
988
988
987
986
986
985
987
986
986
984
985
984
986
989
989
987
985
985
986
989
989
988
987
983
986
988
990
989
987
984
985
986
989
994
994
994
997
1002
1003
1002
1001
1000
1005
1012
1018
1020
1020
1020
1021
1023
1030
1030
1029
1030
1033
1034
1034
1026
1016
1005
1001
995
988
980
973
971
975
978
980
976
975
974
975
973
976
979
975
972
973
975
976
975
974
976
976
977
976
975
975
974
972
974
977
978
974
974
974
976
977
982
990
1006
1027
1049
1071
1085
1083
1072
1075
1087
1100
1106
1107
1106
1111
1121
1129
1129
1125
1109
1081
1051
1022
990
956
918
889
870
862
866
880
891
902
905
912
917
926
931
936
940
941
941
939
935
936
941
941
941
939
935
937
935
939
936
933
934
934
937
938
936
935
932
933
935
937
934
932
927
930
933
932
931
929
927
927
931
931
931
931
925
929
929
930
930
928
929
928
932
933
933
931
929
933
933
936
935
937
934
936
938
938
940
940
942
943
946
948
950
948
947
952
955
959
961
960
959
964
969
971
971
971
970
974
980
980
979
979
979
978
981
981
981
982
978
984
986
985
983
982
981
984
986
985
984
980
982
982
985
984
983
983
982
982
985
984
985
982
979
978
982
982
981
982
979
977
979
979
977
973
972
974
973
971
968
969
967
967
967
966
965
963
958
961
959
958
958
956
955
955
954
953
954
953
953
955
957
954
954
952
950
954
956
956
955
955
956
956
956
957
956
955
956
958
960
963
962
963
960
964
967
969
966
965
963
968
971
972
972
967
967
967
969
971
971
970
970
970
969
971
971
972
972
973
974
976
973
977
975
980
981
983
982
984
986
989
994
995
996
996
999
1007
1013
1017
1016
1016
1014
1016
1020
1023
1024
1024
1024
1029
1032
1023
1012
1001
989
984
982
976
970
965
966
968
970
970
971
969
970
968
971
973
972
970
967
968
971
972
971
969
967
972
973
975
974
973
971
971
972
975
974
972
968
970
973
973
973
977
987
1006
1029
1050
1066
1072
1068
1064
1069
1083
1090
1092
1095
1099
1100
1105
1107
1108
1106
1100
1077
1044
1009
986
958
931
902
881
864
861
871
892
903
908
915
921
931
940
946
952
952
951
950
949
952
954
952
950
951
950
953
953
952
952
948
950
949
950
948
950
947
947
948
947
948
946
944
946
948
950
948
947
946
947
947
949
948
948
945
948
949
952
948
948
947
948
952
954
954
952
949
948
953
956
956
953
952
954
957
957
958
959
958
961
962
964
963
964
966
967
969
973
972
971
971
973
980
981
982
984
983
986
989
990
992
990
989
992
994
995
995
996
992
995
996
995
995
994
993
994
998
998
998
996
995
996
996
997
997
996
993
995
997
997
998
995
993
992
994
993
992
991
991
991
991
992
989
990
984
986
986
987
984
980
980
982
982
981
979
979
977
976
974
975
976
973
971
973
972
974
973
972
970
968
972
972
971
968
969
971
972
973
968
968
968
970
974
976
975
972
971
974
977
979
978
975
975
978
980
982
981
982
979
982
982
983
984
983
981
984
983
986
987
986
983
982
986
987
987
986
983
986
987
988
987
988
984
987
989
989
990
988
987
989
987
989
990
989
985
987
988
988
987
988
985
986
987
987
989
987
986
985
987
989
987
988
986
987
988
991
987
988
987
987
990
991
987
985
984
987
989
992
991
989
989
990
991
992
992
991
990
993
995
998
1000
1000
999
1005
1008
1010
1008
1006
1007
1014
1021
1023
1024
1026
1026
1031
1033
1033
1036
1035
1033
1037
1045
1045
1040
1034
1026
1020
1014
1009
1001
993
986
981
979
980
979
980
977
981
983
982
982
980
980
983
984
982
981
982
981
983
985
983
984
980
979
980
984
984
983
983
980
983
984
986
986
982
981
980
983
984
983
984
985
999
1017
1036
1052
1067
1075
1074
1069
1074
1084
1089
1090
1095
1095
1100
1102
1103
1102
1102
1101
1087
1059
1027
998
977
957
929
904
883
868
874
890
903
912
917
919
930
942
951
957
957
958
961
961
962
962
960
959
960
962
963
962
960
959
962
962
963
961
960
957
960
962
959
960
956
956
958
957
958
958
958
956
954
958
955
956
956
956
955
958
958
956
953
952
953
958
954
953
954
953
958
957
960
958
957
957
959
959
962
961
960
961
963
964
967
966
966
966
968
970
971
974
973
973
974
978
978
980
982
979
981
984
986
989
990
988
991
993
995
995
994
993
995
999
999
999
996
997
997
1001
1002
1001
998
994
999
1001
998
999
997
996
998
1001
1000
998
997
994
996
999
996
997
996
992
990
993
991
991
990
989
986
988
988
987
986
982
983
983
982
979
977
976
976
977
977
975
973
970
970
970
969
970
966
962
964
965
963
962
959
958
957
960
959
959
957
956
957
959
960
959
957
956
958
959
963
960
960
959
960
963
964
964
966
964
967
967
967
967
965
965
967
969
969
969
968
968
969
973
972
972
970
968
970
971
972
970
970
971
973
974
973
973
973
972
973
976
974
975
972
973
972
975
977
975
976
975
976
977
978
978
975
975
977
979
978
979
977
979
980
982
981
982
977
976
977
979
980
978
978
976
978
981
981
981
983
984
987
992
993
992
992
992
994
999
1004
1006
1007
1010
1016
1017
1021
1022
1020
1019
1023
1030
1034
1032
1033
1028
1022
1013
1005
997
991
984
980
974
969
966
967
967
969
970
970
969
967
968
969
971
972
969
967
964
968
970
968
968
967
967
969
970
969
968
969
969
967
971
972
973
969
968
968
972
970
968
969
970
971
976
984
997
1011
1032
1056
1077
1083
1080
1071
1076
1087
1096
1101
1108
1109
1108
1114
1121
1123
1122
1114
1091
1063
1032
1006
975
939
902
876
861
857
867
881
892
898
906
913
921
927
933
936
940
942
939
939
939
938
941
944
943
938
934
937
939
938
938
937
934
932
935
937
934
933
931
929
929
932
933
932
930
929
930
931
931
929
926
929
931
932
929
930
928
930
930
931
930
928
929
930
934
933
932
932
930
932
934
936
937
935
934
936
939
941
941
939
942
942
947
948
950
950
950
952
956
959
960
961
962
966
968
971
973
972
970
973
977
978
978
977
979
979
984
982
981
983
979
983
986
987
983
983
981
982
982
983
982
979
978
980
985
985
980
978
976
980
981
980
978
975
975
977
978
979
980
976
972
972
974
972
973
967
967
967
969
970
967
965
962
963
964
964
960
958
956
958
958
956
954
953
952
952
954
952
953
952
951
951
954
954
954
951
952
954
952
954
956
953
954
954
956
957
959
956
955
956
956
960
960
960
959
960
962
966
961
962
959
963
966
965
965
963
965
967
968
969
965
966
964
968
970
971
969
969
966
968
970
971
968
969
967
970
973
974
973
970
970
973
973
976
973
971
970
972
974
975
972
972
971
973
974
975
975
974
973
973
976
976
975
974
973
973
978
977
978
977
981
983
987
988
989
989
989
993
996
1000
1002
1007
1008
1011
1014
1019
1018
1018
1018
1023
1024
1026
1029
1028
1024
1022
1013
1006
1000
990
983
975
970
966
964
964
965
965
968
969
968
966
964
967
968
968
966
965
963
964
967
967
967
964
964
966
969
970
968
968
965
967
970
971
971
970
967
968
970
