1003
989
984
984
980
971
965
961
962
961
963
963
963
960
958
961
964
966
966
961
962
960
965
969
968
964
965
965
966
967
967
962
964
967
967
967
966
964
965
965
967
967
968
964
963
969
974
979
977
976
975
969
953
937
927
923
921
923
917
905
900
893
887
881
869
857
849
842
844
853
861
868
870
879
895
912
924
932
937
943
955
967
972
975
977
977
977
980
981
981
983
980
981
981
982
987
990
989
988
989
992
992
990
987
989
989
991
990
989
987
992
995
995
995
996
993
993
992
993
994
996
996
998
1000
1001
1000
1001
1000
1001
1004
1008
1007
1005
1005
1007
1009
1012
1011
1009
1010
1014
1016
1019
1017
1015
1012
1009
1011
1015
1017
1015
1011
1016
1016
1019
1019
1015
1015
1015
1015
1014
1016
1012
1012
1008
1007
1007
1008
1006
1002
1002
1002
1005
1004
999
996
996
996
998
994
993
994
993
991
993
993
991
989
990
989
992
989
990
986
987
989
990
991
990
990
990
989
989
988
983
983
982
987
989
988
986
984
984
986
989
987
986
984
985
985
984
982
981
982
981
985
984
982
980
979
976
978
980
983
980
978
978
975
974
975
976
974
971
967
964
968
971
974
976
975
975
973
975
971
974
975
974
971
969
965
965
971
977
976
973
970
971
972
975
975
973
971
973
972
973
971
972
971
970
972
975
971
970
971
972
973
974
974
972
967
972
973
976
977
975
973
975
975
974
971
972
970
973
973
975
976
976
974
975
977
976
976
973
970
970
974
977
977
976
974
974
977
977
976
974
972
974
975
977
975
974
972
975
977
975
975
973
970
971
971
970
971
967
966
971
977
980
980
981
975
982
985
986
984
982
983
982
982
982
986
994
992
994
995
998
1000
1003
1005
1008
1016
1020
1020
1018
1015
1020
1020
1025
1027
1024
1021
1010
1003
994
987
977
966
963
967
969
971
966
964
960
961
966
967
971
969
966
969
968
965
967
968
970
973
973
970
967
965
967
964
969
967
965
963
970
972
972
973
971
972
970
966
965
965
973
975
975
975
967
951
931
917
914
918
920
910
899
888
883
878
874
870
861
848
842
838
840
852
863
867
872
883
901
920
933
939
948
958
966
973
976
973
980
982
985
984
984
982
983
983
985
985
987
989
989
990
992
990
989
987
987
987
987
986
985
986
989
989
988
986
986
990
999
1005
1004
1004
1001
999
1000
1002
1003
1000
997
998
1001
1005
1006
1005
1004
1003
1002
1005
1008
1008
1004
1003
1009
1015
1016
1014
1016
1011
1012
1014
1018
1019
1018
1018
1021
1017
1014
1010
1009
1007
1008
1010
1010
1007
1007
1005
1008
1008
1007
1002
996
999
1000
999
998
996
994
991
991
987
989
990
989
986
985
983
986
991
995
993
988
987
990
991
988
986
987
987
988
989
985
983
981
984
986
985
982
979
982
985
988
987
986
983
983
986
988
986
985
980
981
984
984
982
979
975
978
982
982
979
979
978
981
983
982
979
973
968
969
967
967
968
969
968
968
967
969
971
967
963
964
966
966
966
967
966
966
970
976
973
972
969
971
972
975
974
969
964
965
970
969
970
970
971
974
978
977
972
972
974
975
977
979
979
977
974
972
976
976
977
975
972
977
976
976
973
972
977
980
979
979
975
974
974
973
974
976
976
975
973
974
975
977
980
977
973
975
976
977
977
975
972
972
975
974
973
970
970
969
973
975
977
977
975
977
978
976
973
974
972
975
977
978
974
975
973
975
977
980
981
978
974
979
982
986
987
987
986
994
1000
1006
1007
1007
1005
1011
1012
1016
1021
1023
1020
1023
1027
1027
1022
1017
1002
995
990
984
978
970
962
963
972
975
972
970
967
967
968
969
964
961
958
965
968
969
964
965
964
964
965
968
969
966
960
957
959
962
967
970
968
970
969
971
970
969
970
971
969
965
965
969
976
978
980
983
980
965
941
932
929
930
927
922
916
905
899
897
893
887
877
866
858
853
849
843
839
849
866
876
887
901
911
923
931
938
947
955
963
968
975
978
979
977
977
979
984
985
986
985
981
981
982
983
985
985
988
988
992
994
992
989
988
987
988
991
989
987
984
987
991
995
997
998
993
996
996
1001
997
996
995
996
1000
999
999
996
995
995
999
1001
1002
1003
1003
1006
1009
1011
1013
1010
1008
1013
1015
1014
1016
1016
1014
1014
1017
1018
1018
1014
1012
1016
1018
1019
1016
1013
1013
1014
1016
1015
1012
1010
1007
1008
1007
1007
1001
999
998
1001
999
995
991
989
986
990
996
999
992
993
989
989
988
987
984
987
990
994
994
989
985
981
981
985
989
990
988
982
982
983
984
987
988
987
984
984
984
989
989
986
983
985
987
985
983
980
982
982
981
982
984
981
980
982
983
983
980
977
974
973
977
976
975
971
969
968
973
972
973
971
972
976
977
972
970
967
963
963
965
969
969
967
966
964
968
968
966
963
959
962
965
967
966
966
961
962
963
965
962
962
963
967
968
967
967
970
972
974
974
973
972
971
967
966
969
972
972
967
965
968
972
975
974
971
970
971
970
972
972
971
970
972
971
972
970
970
968
971
973
974
973
969
969
971
969
971
974
975
972
970
971
975
975
974
971
971
970
971
970
969
969
967
969
969
970
972
971
972
974
978
978
976
971
970
973
973
973
972
970
977
976
974
975
974
975
976
979
978
981
980
978
981
985
987
989
988
987
987
993
999
1003
1003
1002
1000
1001
1008
1010
1014
1008
1011
1013
1016
1017
1021
1018
1013
1003
996
991
986
979
975
970
963
961
961
962
965
967
968
967
963
963
963
964
965
964
963
958
962
969
969
968
968
964
966
969
968
967
965
963
964
964
963
963
963
962
964
966
968
967
966
964
964
966
963
959
957
959
964
970
970
968
967
953
936
926
926
924
923
922
922
915
904
895
887
878
874
869
861
852
847
840
839
845
853
859
864
874
890
906
917
924
929
935
947
959
967
973
973
974
977
979
980
979
977
980
982
985
987
985
985
984
984
986
986
986
983
983
984
984
986
985
981
980
986
991
996
993
989
985
989
992
992
989
987
992
996
999
999
998
995
991
993
997
996
995
997
995
1000
1005
1005
1006
1007
1005
1005
1008
1008
1011
1010
1012
1010
1014
1015
1018
1014
1010
1013
1014
1017
1016
1015
1011
1009
1012
1012
1010
1009
1007
1012
1016
1017
1015
1012
1006
1005
1008
1006
1005
1004
999
998
997
995
992
989
987
993
997
995
987
981
980
986
996
998
995
987
984
984
983
983
982
985
985
985
987
983
983
984
985
987
987
985
982
981
979
979
982
980
979
975
974
978
980
982
978
978
974
974
974
976
975
974
972
976
978
977
968
967
968
967
971
973
974
974
971
973
972
975
971
971
969
969
973
973
967
965
962
961
965
968
972
970
966
966
968
971
969
967
963
965
968
971
974
972
967
965
963
965
967
973
972
971
970
966
961
964
970
980
980
978
973
973
973
973
969
968
968
968
968
969
970
974
977
974
968
973
971
973
972
968
969
977
984
983
979
977
975
975
979
978
976
975
974
976
978
977
973
976
978
979
982
980
977
974
973
976
979
980
978
977
976
977
979
979
977
977
978
981
980
980
980
980
976
972
974
977
982
981
981
981
983
980
981
983
985
988
987
984
983
981
984
983
992
995
994
993
988
992
999
1001
1009
1011
1013
1015
1015
1013
1016
1021
1023
1027
1032
1032
1030
1026
1026
1028
1027
1024
1017
1011
1005
998
990
983
974
968
970
978
982
982
979
975
973
974
976
977
975
975
976
976
977
976
971
973
972
975
977
974
973
972
970
972
974
970
965
962
966
975
983
979
974
969
967
967
964
957
956
959
961
965
968
963
952
931
921
919
919
919
915
909
895
890
886
883
876
867
857
847
847
846
849
855
863
868
878
896
913
922
929
943
958
970
975
975
979
986
990
992
988
986
985
987
990
992
997
995
991
988
992
993
991
991
995
999
1006
1004
999
995
993
996
998
1000
999
995
994
998
1000
1001
1002
1002
1003
1005
1009
1011
1010
1008
1006
1009
1011
1008
1006
1009
1012
1015
1017
1016
1017
1019
1020
1021
1023
1022
1017
1019
1022
1024
1028
1033
1028
1024
1023
1026
1027
1023
1021
1021
1023
1027
1027
1022
1017
1014
1015
1016
1015
1014
1012
1009
1009
1007
1005
1005
1003
998
993
993
997
1000
1001
999
993
994
995
995
993
993
991
992
992
990
991
991
991
991
993
992
989
988
989
988
989
989
986
985
984
982
982
983
981
979
982
983
986
988
988
984
980
986
987
986
983
979
978
977
978
976
977
975
975
978
977
975
975
971
973
976
977
973
971
970
969
970
969
970
967
968
968
967
969
973
970
970
967
967
972
973
971
969
962
962
967
968
967
966
964
968
976
976
973
970
968
970
972
975
975
974
971
970
973
973
971
971
969
971
976
978
977
973
973
975
979
977
975
973
970
972
972
974
970
968
969
976
981
980
978
977
973
973
970
974
977
981
980
979
977
974
974
973
976
980
980
977
974
977
974
975
978
977
975
974
973
975
976
976
973
974
974
975
975
976
972
972
975
980
981
977
972
967
970
975
980
980
975
975
972
977
978
978
977
979
981
980
986
988
988
987
987
990
996
997
1000
1001
1004
1009
1011
1014
1016
1015
1014
1017
1018
1020
1021
1020
1018
1012
1004
996
985
978
970
967
967
966
964
963
962
963
969
969
969
966
964
964
965
963
962
964
965
965
968
966
962
961
961
962
964
965
963
963
960
962
964
960
959
960
965
966
964
955
953
955
960
965
966
967
963
956
940
932
926
923
921
918
911
903
894
886
877
868
860
849
843
843
839
843
853
864
871
872
880
896
913
926
936
944
952
961
968
973
974
975
973
973
973
977
980
981
978
979
980
983
985
981
984
982
981
980
981
980
981
985
984
987
987
988
988
987
987
989
990
990
992
989
988
990
989
990
990
993
991
991
994
997
1000
999
997
1000
1003
1005
1006
1004
1004
1005
1006
1006
1006
1012
1014
1017
1015
1014
1015
1013
1013
1014
1017
1016
1015
1014
1012
1012
1016
1016
1011
1010
1006
1009
1010
1010
1008
1003
1003
1005
1007
1006
999
996
991
993
995
997
995
992
987
988
990
994
992
988
986
986
987
986
984
983
987
989
989
992
988
985
979
977
978
981
987
987
988
986
987
984
981
980
982
983
983
981
980
978
982
985
987
984
981
976
976
978
977
979
978
977
975
975
976
977
977
972
971
973
972
971
970
969
970
972
973
972
968
965
964
969
973
971
970
966
966
969
970
967
970
968
966
966
968
970
973
974
975
978
981
981
975
973
972
971
971
970
976
975
975
976
981
978
977
975
976
979
979
980
977
976
973
977
980
978
980
977
978
979
983
985
982
982
981
980
980
979
983
981
979
981
984
985
986
984
982
984
985
981
985
984
981
977
976
978
985
987
986
984
984
985
988
989
988
988
987
985
984
981
980
984
983
983
981
982
979
980
984
985
984
981
982
987
987
988
986
986
986
988
988
989
989
990
991
992
994
995
999
1000
1001
1004
1006
1005
1007
1011
1017
1024
1029
1029
1027
1023
1027
1033
1037
1038
1034
1030
1023
1016
1009
1002
992
983
975
975
980
983
980
977
978
977
978
978
974
973
970
973
976
975
977
975
971
971
974
980
981
982
980
980
979
977
976
975
976
974
974
977
981
981
978
978
979
976
973
972
979
985
986
984
984
983
972
953
941
940
937
934
932
931
923
914
906
899
889
882
873
863
859
851
849
861
877
884
886
890
905
921
937
942
947
953
963
977
985
987
992
994
993
992
993
995
997
1001
998
1002
1002
1001
1000
997
995
998
1002
1004
1001
999
1002
1005
1003
1003
1002
1003
1002
1005
1008
1004
1000
1001
1000
1002
1009
1011
1013
1012
1011
1012
1013
1014
1014
1014
1013
1012
1016
1017
1020
1017
1017
1020
1020
1022
1020
1026
1025
1029
1026
1026
1025
1027
1028
1028
1029
1028
1026
1026
1027
1029
1031
1031
1030
1028
1026
1023
1027
1025
1025
1024
1022
1021
1019
1017
1012
1009
1009
1006
1010
1012
1011
1010
1005
1005
1009
1007
1003
1002
1002
1002
1003
1000
998
997
998
1000
1001
1001
1002
1001
1002
1001
999
1000
999
998
996
998
999
997
991
990
996
999
1002
1000
998
994
994
994
996
993
991
988
993
997
996
996
994
991
988
987
984
987
991
992
988
988
987
988
986
987
985
986
985
984
983
983
983
986
985
980
977
972
975
979
982
981
980
982
984
986
984
983
980
979
978
979
979
981
982
984
983
986
985
986
984
985
982
984
985
989
987
988
984
989
991
988
987
983
985
985
991
991
988
988
983
984
984
986
985
985
985
987
990
988
985
983
985
986
989
992
994
992
990
990
991
988
987
985
986
989
992
992
990
990
991
991
992
991
991
991
991
996
994
989
988
990
992
995
996
995
992
989
983
984
989
992
999
999
997
998
999
1001
1000
1000
999
1005
1008
1011
1013
1018
1017
1019
1023
1025
1027
1031
1028
1032
1033
1035
1037
1039
1035
1032
1027
1021
1015
1006
997
986
982
977
974
978
977
978
979
978
981
981
983
982
982
980
977
974
979
980
984
981
977
975
973
973
974
977
979
979
978
979
981
983
980
978
976
972
978
979
976
970
962
967
975
980
981
978
975
966
948
935
932
930
928
927
922
910
902
896
892
892
884
869
859
852
853
859
868
879
881
888
902
922
935
943
952
958
970
983
991
994
994
991
990
997
999
1001
998
998
996
1000
1001
1000
1004
1003
999
999
1004
1006
1005
1001
1002
1004
1005
1003
1002
1005
1008
1013
1013
1010
1007
1007
1007
1013
1014
1016
1012
1009
1008
1011
1015
1014
1014
1017
1018
1018
1018
1019
1021
1022
1022
1020
1024
1024
1027
1026
1025
1025
1027
1030
1033
1032
1031
1030
1032
1029
1033
1032
1030
1030
1030
1032
1029
1025
1025
1022
1023
1023
1020
1020
1019
1017
1014
1012
1014
1013
1009
1010
1007
1003
1001
1002
1001
1002
1005
1005
1001
998
996
999
1002
1000
997
997
996
999
1000
997
998
992
991
996
998
995
991
992
995
995
997
996
994
991
988
989
994
992
992
993
992
994
992
987
983
983
989
993
992
990
985
983
981
978
981
980
984
983
980
980
979
978
978
977
977
979
983
978
973
973
970
974
983
983
983
979
977
974
973
970
972
968
970
971
972
971
971
972
971
972
971
974
975
976
975
977
979
980
975
977
976
977
981
978
978
977
975
974
973
975
975
978
981
980
983
981
979
977
977
978
978
978
981
979
979
976
980
983
981
979
978
977
981
980
978
977
977
979
979
980
978
980
977
979
980
981
980
979
980
979
981
980
978
975
972
975
979
976
977
979
978
985
989
987
985
984
979
982
983
984
984
982
977
982
982
981
985
987
988
994
995
994
994
995
999
1003
1010
1013
1013
1013
1015
1019
1022
1022
1023
1024
1024
1027
1030
1026
1021
1013
1002
993
988
981
971
966
965
969
975
974
970
967
965
967
971
969
970
966
967
971
974
970
967
966
963
968
969
970
970
969
965
967
968
969
969
969
967
965
964
963
964
964
959
958
954
952
955
954
952
952
950
938
923
911
905
904
902
901
898
890
882
873
867
860
856
847
838
836
837
848
861
870
873
878
894
909
922
930
939
947
959
969
973
977
978
981
980
979
980
978
980
984
993
994
990
990
990
993
998
997
994
990
991
989
989
988
989
991
984
982
985
991
1000
1008
1010
1009
1008
1004
1001
996
995
1002
1011
1009
1007
1007
1007
1014
1017
1020
1018
1016
1013
1012
1018
1020
1019
1018
1019
1022
1024
1026
1022
1025
1025
1025
1028
1029
1025
1024
1023
1026
1025
1029
1028
1026
1028
1031
1036
1032
1027
1020
1015
1019
1027
1025
1022
1020
1022
1019
1015
1008
1012
1019
1022
1018
1013
1007
1003
1003
1001
1004
1007
1006
1002
997
999
1003
1004
1000
993
989
991
993
993
991
990
992
994
994
995
995
995
992
990
990
992
990
989
981
980
985
991
983
973
971
978
988
994
999
997
995
987
985
984
985
987
989
985
984
981
981
985
985
985
981
981
980
981
982
978
979
981
982
983
982
976
978
980
980
978
975
976
977
976
977
976
975
974
975
977
979
979
976
972
970
972
974
979
979
979
979
979
975
979
979
979
980
982
978
976
974
972
974
980
984
978
970
970
979
990
989
985
983
984
983
984
983
979
980
980
980
981
978
979
978
976
979
980
978
975
979
985
989
988
986
981
976
976
981
982
980
979
979
984
988
989
985
979
980
976
979
979
979
980
981
978
976
978
981
984
982
983
983
981
977
980
987
992
989
986
982
982
981
981
983
989
989
981
977
980
982
989
991
988
988
990
996
995
993
994
996
999
1001
1007
1012
1009
1006
1011
1018
1023
1022
1016
1014
1019
1029
1035
1035
1031
1025
1014
1010
1004
996
988
981
971
968
967
965
967
965
974
981
984
982
977
972
967
969
971
973
973
968
967
971
974
971
969
969
972
971
971
968
970
973
973
974
970
968
964
957
959
968
981
983
979
967
955
951
952
949
949
949
955
962
962
946
929
917
914
918
918
919
915
903
891
884
879
873
868
860
851
846
847
841
842
845
858
870
874
877
883
900
916
929
934
939
942
950
961
971
979
979
977
979
986
991
997
994
992
989
990
991
989
985
987
990
987
982
977
978
980
980
986
1002
1018
1013
1000
993
993
998
1001
995
995
996
999
1009
1013
1007
996
994
991
993
998
993
993
999
1007
1011
1010
1008
1007
