979
980
980
979
976
977
977
973
973
976
984
986
987
993
996
983
964
945
942
945
945
942
933
919
913
909
903
898
890
874
866
861
860
858
863
872
883
888
896
907
922
931
942
949
957
966
974
978
983
988
990
991
988
990
991
993
996
997
995
995
996
996
1001
1001
997
998
998
999
1000
1004
1004
1001
1001
1002
1003
1001
1000
998
998
1001
1002
1003
1003
1001
1006
1006
1007
1009
1007
1004
1004
1006
1008
1008
1009
1006
1009
1008
1011
1012
1013
1010
1015
1015
1019
1018
1018
1014
1017
1019
1021
1023
1026
1024
1025
1026
1028
1024
1019
1020
1021
1019
1021
1023
1025
1025
1024
1024
1021
1023
1020
1017
1020
1020
1021
1018
1012
1008
1010
1011
1011
1011
1006
1003
1003
1002
1001
1002
1000
997
997
998
1000
999
998
995
996
998
996
996
994
991
992
994
993
994
993
992
992
994
997
996
991
990
987
992
993
995
989
985
985
988
991
991
988
987
987
987
983
981
977
979
982
988
989
985
981
980
982
983
986
981
980
976
979
981
983
981
977
977
978
979
978
977
973
974
974
976
975
973
971
968
969
971
972
971
972
969
973
976
978
979
975
971
972
976
974
974
973
977
981
981
981
980
980
977
978
978
980
981
980
974
977
977
979
980
982
979
978
980
980
976
974
973
979
983
983
983
979
975
975
982
982
985
982
981
982
982
983
982
981
979
981
981
983
981
978
978
979
978
980
980
979
978
984
985
984
981
979
977
979
979
979
981
980
977
979
982
983
982
984
984
984
982
979
980
980
981
981
986
991
990
990
993
999
1003
1004
1000
1000
1004
1009
1013
1018
1021
1023
1026
1026
1024
1025
1026
1028
1029
1037
1038
1035
1025
1013
1004
999
994
990
984
974
972
973
978
978
975
976
975
978
981
982
980
979
976
975
980
982
981
978
976
976
979
981
980
980
976
975
980
982
981
981
980
983
981
983
981
979
977
976
978
978
982
989
990
998
1004
1005
1000
982
961
953
952
950
946
940
930
920
916
912
903
892
879
869
862
855
857
858
866
873
879
887
900
916
923
933
944
959
971
978
984
987
988
990
988
986
983
989
993
994
995
994
996
996
998
1000
998
996
995
998
998
998
997
997
995
997
997
996
997
999
1001
1001
999
999
1001
1002
1001
1003
1005
1003
1007
1008
1004
1005
1007
1007
1012
1012
1013
1008
1012
1014
1013
1012
1011
1014
1014
1015
1018
1020
1018
1021
1021
1023
1022
1019
1018
1021
1027
1025
1026
1022
1022
1022
1024
1023
1022
1018
1018
1017
1016
1016
1013
1014
1010
1011
1011
1010
1008
1002
1001
1002
1001
998
996
997
997
998
997
997
996
995
990
991
995
995
993
993
988
990
990
992
991
989
989
990
991
994
992
988
985
985
988
990
988
988
987
987
988
990
988
985
983
982
980
981
985
984
982
980
979
982
982
983
981
977
980
983
983
980
974
973
975
975
977
976
973
976
974
973
973
972
972
971
972
972
971
971
970
973
973
972
970
969
970
971
974
972
974
973
970
971
973
975
977
976
974
974
978
982
982
977
972
973
976
978
976
976
973
975
979
978
979
979
976
978
980
982
983
981
978
979
982
982
984
981
979
978
979
979
980
981
978
980
982
986
983
980
978
978
979
983
985
983
980
983
984
984
982
981
980
978
983
988
987
986
984
986
985
987
985
981
979
986
983
984
985
985
981
984
986
991
993
992
991
994
995
999
1001
1000
999
1001
1005
1012
1014
1016
1018
1024
1026
1028
1027
1024
1025
1029
1031
1031
1035
1032
1025
1018
1011
1004
999
992
982
974
971
974
977
975
974
973
973
975
974
976
973
977
975
979
974
971
972
973
975
978
976
975
969
974
977
977
976
971
970
975
979
983
980
977
974
974
978
978
977
974
967
969
978
985
987
988
988
985
971
951
937
931
924
927
924
915
904
897
888
881
877
865
859
851
847
847
858
872
880
887
891
910
930
942
948
953
963
973
981
986
986
984
983
987
993
994
991
992
991
993
993
996
995
993
992
996
997
998
998
995
994
996
998
997
998
997
996
999
999
998
998
997
998
997
999
1001
1005
1002
1002
1004
1006
1005
1004
1004
1002
1008
1007
1008
1012
1010
1009
1011
1013
1015
1016
1015
1014
1017
1020
1018
1018
1016
1017
1017
1019
1021
1019
1019
1018
1019
1016
1017
1018
1016
1013
1010
1008
1007
1010
1009
1008
1008
1009
1004
1002
1001
998
998
999
996
996
992
988
992
993
996
994
992
989
987
989
988
990
988
987
987
987
985
985
983
986
988
989
988
985
981
981
981
986
986
989
986
982
983
984
985
982
983
982
984
983
981
980
979
976
975
974
978
978
976
974
975
974
977
975
975
975
973
976
974
973
971
971
971
973
974
971
969
967
967
969
968
966
964
964
965
968
968
965
963
961
962
966
970
968
964
960
962
966
965
963
961
963
966
967
967
970
968
967
965
965
967
968
964
959
963
966
969
967
968
964
966
965
969
968
967
964
968
970
970
968
969
965
967
975
974
976
974
972
974
974
973
972
973
973
974
975
976
974
974
968
969
971
973
974
972
968
973
973
975
975
973
967
971
973
978
975
976
976
974
970
972
973
974
972
974
977
975
973
972
973
974
977
980
978
975
972
973
976
978
979
976
975
973
973
976
978
978
977
978
980
983
980
984
985
987
989
988
985
985
985
993
1001
1007
1012
1012
1012
1009
1008
1014
1015
1018
1019
1023
1024
1022
1017
1005
994
983
981
980
974
970
967
967
965
968
965
965
964
964
964
966
968
966
966
965
964
962
963
967
964
967
968
968
969
970
968
969
968
968
966
967
964
966
962
960
961
967
969
972
968
966
970
978
984
986
987
988
978
961
948
944
940
938
934
927
912
904
907
904
900
893
883
873
864
859
854
850
851
863
871
873
871
880
899
920
932
935
943
946
954
962
972
973
975
971
971
975
978
978
976
976
974
978
985
986
986
980
980
984
984
986
986
985
982
983
985
986
984
981
982
983
988
987
988
984
983
988
992
989
987
985
984
988
988
988
986
985
984
987
993
994
995
990
988
995
997
1000
999
996
996
999
999
998
998
999
1000
1001
1004
1004
1000
1000
999
1000
1004
1003
1004
1002
1001
1002
1004
1005
1004
1003
998
1000
1001
1001
999
999
999
999
1000
1000
1001
998
995
993
994
992
990
988
986
987
989
992
989
985
984
986
988
988
982
979
978
980
981
982
982
981
981
983
986
984
981
983
980
982
982
982
982
982
983
983
982
984
982
978
978
980
980
980
979
979
978
978
980
980
980
981
979
980
979
977
977
974
973
975
976
976
974
970
970
974
976
977
972
968
967
971
972
971
972
968
969
970
974
972
969
965
965
969
972
976
972
969
967
970
971
969
969
968
967
973
971
973
971
969
970
969
971
974
972
974
970
974
976
976
976
973
972
971
974
975
975
974
974
975
980
980
976
978
974
975
976
977
975
974
974
976
977
979
979
976
973
973
973
978
980
977
974
978
976
975
975
975
976
975
976
976
975
972
976
980
978
975
973
975
979
981
981
980
979
977
978
978
981
979
976
973
969
971
977
980
980
977
975
975
977
977
977
977
976
977
981
981
981
983
986
984
983
987
989
990
991
993
995
999
1006
1006
1004
1007
1012
1013
1016
1016
1017
1016
1020
1023
1023
1020
1014
1009
1004
994
989
983
976
967
967
969
969
968
967
968
971
969
968
965
965
968
966
965
965
966
965
968
969
971
971
972
972
972
972
975
972
970
966
968
970
969
969
968
963
966
969
972
975
971
966
962
964
971
979
983
986
991
994
988
971
953
946
946
945
947
940
932
919
912
910
907
900
887
876
865
863
859
856
859
865
873
877
882
894
910
922
933
939
947
952
964
970
974
979
979
983
981
982
983
987
986
985
982
982
984
986
989
988
988
987
989
989
988
988
987
985
988
989
989
986
985
985
985
989
991
990
989
987
985
985
991
996
996
991
990
990
995
994
993
993
993
995
998
1001
999
998
998
999
999
1001
999
1000
999
1002
1004
1004
1005
1005
1008
1006
1006
1006
1003
1002
1004
1007
1008
1011
1009
1005
1005
1009
1009
1007
1006
1004
1005
1005
1007
1002
999
999
1000
997
996
993
993
990
991
992
992
987
986
984
982
983
986
987
984
982
979
979
981
979
978
978
978
980
978
977
977
974
974
975
973
975
971
970
971
971
973
972
971
970
970
973
973
973
967
964
962
962
965
964
963
967
967
968
969
967
963
960
962
964
963
958
955
951
954
958
957
958
955
953
953
953
953
954
953
950
952
951
953
949
950
949
950
953
953
950
945
942
947
953
956
953
950
949
952
953
952
954
954
955
955
955
957
958
955
954
956
956
955
957
957
958
957
958
957
954
955
954
958
959
956
954
955
957
956
954
955
956
955
954
955
958
961
961
962
958
958
959
958
957
956
956
960
962
959
956
956
959
964
965
960
960
959
961
964
966
967
964
961
959
960
963
960
959
957
955
960
963
964
961
959
956
962
964
962
962
962
958
961
965
962
962
960
960
962
965
962
961
963
964
969
973
973
972
973
972
977
979
986
993
994
993
996
1001
1003
1001
1002
1001
1002
1004
1007
1006
1003
1000
999
996
988
979
972
967
959
952
951
953
954
948
950
953
953
951
951
948
949
951
952
951
950
949
951
947
948
949
948
950
952
953
954
954
948
945
947
950
952
951
949
948
947
952
952
951
949
945
946
953
959
965
966
966
971
962
946
934
929
927
927
925
916
904
895
890
888
880
871
856
845
838
833
837
843
847
850
858
876
891
903
908
914
922
935
948
956
957
958
958
960
961
961
963
963
961
965
968
966
965
963
961
959
960
966
967
970
973
973
971
969
970
971
967
969
969
970
968
968
970
971
974
975
973
974
971
974
975
973
973
975
977
982
981
983
985
983
984
988
987
989
988
986
987
990
990
993
992
993
992
993
996
997
995
996
997
997
997
994
993
989
988
989
992
990
991
987
983
982
984
986
983
981
976
978
978
975
972
965
965
975
983
983
978
974
971
973
974
973
972
968
967
969
970
971
970
970
967
967
966
963
962
963
965
966
970
968
967
964
962
967
970
967
968
964
963
962
960
962
960
957
960
962
965
965
960
956
954
955
960
958
958
955
950
950
952
953
952
952
949
952
954
954
952
951
949
948
949
951
951
949
949
950
952
955
954
952
952
952
957
957
955
957
954
956
955
957
956
954
953
957
959
958
956
956
954
956
960
961
959
956
956
960
964
963
962
960
959
958
957
955
955
958
960
966
969
967
964
960
960
962
963
962
960
960
959
956
961
960
962
960
958
958
962
963
962
960
956
958
961
963
963
960
959
962
966
964
963
959
962
963
966
967
966
964
963
964
965
964
964
963
962
964
964
969
975
978
978
981
981
980
980
984
988
993
998
1002
1003
1005
1005
1008
1011
1014
1013
1009
1011
1013
1006
996
988
977
969
963
955
953
953
952
953
953
953
957
959
960
956
958
956
956
955
951
953
954
957
954
953
950
954
956
957
957
953
952
953
954
954
955
953
952
951
952
956
957
957
950
947
950
956
962
964
963
963
958
942
924
913
910
905
905
903
893
882
874
869
860
856
846
836
826
825
829
837
848
856
862
869
889
907
914
921
927
937
950
958
959
962
963
963
964
967
966
967
963
965
967
966
968
969
969
971
973
975
975
973
970
968
970
972
975
972
972
973
975
977
975
976
973
974
976
978
975
976
975
975
980
981
982
982
981
982
983
984
988
989
987
986
991
995
993
990
990
991
993
996
998
998
996
995
997
999
1000
998
996
994
995
999
1000
999
997
998
1001
1003
999
998
996
993
994
993
992
990
986
987
985
985
984
980
980
980
983
985
981
979
976
977
979
978
977
975
974
971
972
972
970
971
971
976
978
976
976
976
974
972
971
970
972
971
968
965
967
968
970
974
969
968
970
970
969
966
968
969
970
972
971
968
966
964
965
966
966
965
965
964
961
961
963
961
959
958
959
960
962
957
955
955
955
959
960
958
954
953
952
955
955
954
953
955
958
960
958
957
956
955
958
960
961
959
960
959
958
961
960
956
953
949
955
963
966
965
960
958
963
967
968
971
969
968
966
963
962
963
960
959
969
975
977
973
968
969
971
974
973
974
970
966
967
968
970
973
971
971
971
975
973
970
969
970
972
977
975
974
971
971
973
974
972
971
969
968
970
973
976
979
976
972
974
976
977
975
974
972
971
969
971
970
970
971
976
975
976
975
973
970
976
976
978
976
975
975
979
983
983
982
983
984
989
993
994
998
1001
1002
1008
1011
1015
1012
1008
1008
1013
1020
1023
1024
1016
1007
1003
997
991
981
971
958
958
962
966
966
964
961
961
966
961
961
961
961
964
963
964
962
955
955
956
962
960
961
958
962
964
964
963
961
956
956
961
961
961
962
958
957
955
953
947
944
948
961
972
976
975
966
947
930
925
922
923
920
916
902
897
888
885
875
865
854
847
846
842
846
852
859
863
870
882
897
907
914
921
935
941
948
957
960
964
965
965
967
969
969
966
964
968
969
965
964
964
968
974
972
972
973
972
977
975
974
971
969
970
973
973
975
977
976
977
978
979
977
975
979
984
983
982
978
978
977
978
980
979
981
983
983
985
985
988
988
988
988
988
991
989
991
988
989
994
996
996
996
995
991
994
999
1000
999
994
996
995
996
995
993
988
987
988
991
990
987
986
983
982
985
985
982
980
975
976
978
976
976
976
973
970
974
975
972
969
967
968
971
971
971
970
968
969
970
972
966
963
963
963
963
965
965
965
964
965
967
967
967
964
963
965
965
963
961
960
960
960
960
963
959
954
953
958
959
961
959
959
960
963
961
960
960
956
954
954
957
956
953
952
954
956
956
956
955
953
949
951
955
956
954
950
949
952
956
957
956
954
951
950
953
955
955
953
953
952
956
956
956
955
954
955
954
954
956
954
955
960
960
962
961
958
954
954
961
961
960
958
959
957
959
959
960
958
956
958
960
963
961
960
957
960
961
962
963
958
958
961
961
961
959
956
956
958
963
964
965
963
959
963
964
964
961
960
959
962
965
962
965
964
964
967
967
967
961
960
959
960
964
963
960
959
959
960
965
964
964
962
961
962
962
964
960
959
958
961
965
965
963
964
965
967
971
974
975
974
972
978
981
983
983
985
990
994
998
1001
1003
1003
1003
1003
1007
1010
1009
1008
1007
1008
1010
1003
992
982
973
967
963
960
960
960
961
961
961
958
957
957
957
958
958
956
956
955
954
956
960
956
957
955
954
958
959
959
959
955
954
957
962
960
958
954
955
958
960
958
954
948
951
960
967
971
974
973
967
956
946
939
935
933
928
926
918
907
900
891
887
878
871
859
852
844
841
846
851
860
866
867
874
890
905
918
924
933
938
947
949
953
957
970
972
974
971
974
973
969
969
971
975
973
974
971
971
973
974
975
972
970
972
977
976
974
972
972
975
978
979
973
971
968
972
979
984
987
985
982
978
978
985
987
987
982
984
985
987
989
987
984
984
986
993
992
991
987
985
992
998
1000
1000
999
997
998
1001
1003
1001
1000
1001
1002
1004
1001
998
995
998
1001
1003
1004
1002
996
994
995
1003
1004
1004
1001
998
996
998
998
997
994
990
987
988
986
983
981
980
982
982
982
980
978
976
976
979
981
979
974
974
975
979
977
975
974
971
972
974
975
974
972
970
971
971
970
969
967
966
970
972
974
971
969
966
966
970
974
974
971
965
968
971
969
963
961
961
964
964
964
960
962
961
964
963
962
958
957
957
956
957
959
955
953
953
953
955
957
954
952
951
954
956
958
956
952
954
956
958
956
955
951
952
958
962
961
959
957
952
954
954
958
960
958
957
956
960
962
960
960
957
960
962
963
962
962
963
962
964
964
963
964
962
964
966
966
963
961
959
963
965
965
961
962
965
968
968
966
965
964
963
966
964
964
962
960
961
964
969
970
968
965
963
963
964
962
962
963
962
965
963
967
965
968
966
966
964
964
965
966
968
971
971
969
966
964
964
966
966
967
966
968
965
965
968
966
965
963
962
967
969
969
968
966
966
968
970
972
973
974
980
984
985
987
988
988
992
996
998
1003
1004
1005
1004
1008
1010
1010
1010
1009
1010
1010
1007
999
988
983
983
985
979
969
959
952
951
955
959
957
955
952
950
951
955
959
960
960
954
954
957
957
956
955
953
956
958
958
957
955
952
954
957
960
961
958
955
955
956
953
955
953
954
955
957
954
951
946
944
949
957
964
964
964
968
970
961
949
939
937
935
935
935
926
913
901
892
891
887
876
864
855
849
845
847
849
857
858
859
866
884
903
914
919
927
936
943
950
954
960
963
962
965
965
963
965
963
964
966
963
962
964
965
969
969
969
968
972
971
971
971
969
972
973
972
974
974
974
973
970
968
969
974
978
979
975
973
976
980
982
982
979
980
981
982
985
987
986
984
985
988
991
990
989
988
989
992
995
997
996
993
994
999
997
997
996
995
