882
884
883
886
886
887
886
882
885
882
882
884
888
893
903
914
929
944
966
991
1015
1035
1048
1053
1042
1022
995
970
942
910
878
850
838
836
841
849
860
869
870
871
866
861
858
858
857
856
856
860
862
861
860
861
861
861
860
859
858
857
854
855
854
856
857
858
857
855
854
854
852
850
849
848
849
850
850
852
852
849
848
848
846
844
844
844
844
845
845
844
845
843
842
840
838
837
837
837
836
836
835
835
834
832
830
828
828
827
826
826
827
831
830
830
833
833
833
833
833
834
834
836
838
841
845
848
850
855
859
862
865
866
869
875
880
885
892
895
898
902
903
903
903
903
902
903
905
906
907
908
908
908
906
904
905
900
900
900
900
901
901
902
902
902
903
899
898
897
895
894
895
894
895
895
898
896
893
894
893
891
891
891
888
888
890
892
893
890
893
892
888
887
886
887
886
888
888
889
891
891
890
888
889
888
891
891
896
899
903
905
908
907
908
910
907
906
904
903
906
909
912
913
916
915
914
909
906
900
896
893
893
895
894
894
893
893
890
883
880
878
875
874
873
874
873
877
875
874
873
873
871
873
872
871
872
875
875
877
877
877
879
876
877
876
878
891
902
920
944
971
995
1020
1035
1036
1022
999
972
947
919
889
862
842
836
834
839
844
849
853
854
854
849
850
850
851
853
854
852
851
852
851
851
848
850
852
852
851
855
855
853
851
849
847
843
845
846
848
850
848
848
848
846
841
841
838
839
838
841
842
842
841
843
840
841
836
832
835
832
832
831
831
833
833
832
833
831
827
826
823
825
824
824
824
824
827
825
826
826
822
822
821
821
823
825
825
828
829
833
834
832
830
833
832
833
836
840
844
849
851
857
862
867
871
871
875
879
880
883
884
889
892
895
897
899
898
895
898
894
898
897
897
899
899
901
897
898
894
892
889
890
887
888
887
887
889
890
890
890
889
887
884
883
883
884
885
886
885
887
886
887
883
881
880
880
881
880
880
882
882
884
882
881
882
880
879
878
877
878
880
882
884
885
884
884
888
887
889
890
891
895
898
900
901
904
899
899
898
897
895
897
897
900
904
904
903
901
895
888
882
884
883
882
881
879
878
878
872
874
869
871
869
865
865
861
863
863
864
865
866
867
865
867
863
863
865
866
864
865
866
867
866
870
869
874
880
889
903
924
946
973
997
1019
1027
1024
1005
979
952
929
906
878
852
831
819
817
822
830
835
836
836
837
836
835
836
839
842
843
845
847
846
843
844
841
838
841
840
840
839
842
842
844
844
842
839
839
836
836
839
836
836
834
837
838
837
837
835
833
832
832
830
829
831
832
832
834
830
831
830
828
826
826
824
823
824
825
824
825
825
823
821
818
817
816
815
817
819
821
821
823
823
824
823
823
822
822
822
826
828
831
834
837
840
841
843
844
845
850
852
858
863
869
873
880
885
884
887
886
889
889
893
893
895
897
897
899
896
895
894
892
890
890
889
887
885
888
887
887
884
886
883
882
881
880
877
878
879
880
880
881
880
878
879
878
877
875
875
874
873
874
875
875
876
875
875
871
869
871
870
872
876
876
877
877
875
873
873
874
874
873
873
873
876
879
882
887
887
889
890
893
893
891
892
891
892
892
893
896
896
895
898
899
898
897
894
889
887
886
885
885
886
881
882
878
877
873
869
866
865
867
866
867
865
863
862
860
860
860
860
861
859
863
865
866
865
864
862
862
861
862
862
860
864
865
868
874
882
891
906
927
951
978
999
1012
1013
1002
980
952
925
896
864
831
808
801
802
806
814
819
826
829
830
831
833
834
836
838
838
838
841
841
842
844
844
841
842
841
836
836
835
836
839
840
840
841
841
839
838
836
837
837
835
833
833
835
835
838
836
835
835
833
831
830
828
827
830
831
830
832
829
830
828
826
826
824
819
820
821
824
821
824
824
823
819
818
816
816
815
816
818
821
821
824
823
824
822
821
820
820
819
821
827
831
834
838
842
840
844
848
850
853
855
863
867
871
874
879
881
883
885
884
888
888
888
889
891
892
893
894
895
891
888
887
886
887
884
884
883
885
886
886
883
880
880
880
878
875
874
874
876
876
875
877
877
876
875
873
871
870
867
867
867
870
872
873
873
872
867
869
865
865
865
863
869
869
870
872
872
871
872
869
867
866
866
866
867
869
871
871
872
873
876
875
876
879
880
883
885
886
887
888
887
887
886
884
885
886
887
889
891
889
886
882
879
877
876
873
872
871
871
870
867
866
864
863
863
859
857
857
853
853
853
853
854
855
855
857
857
856
856
853
854
851
853
853
854
856
857
859
859
860
865
869
879
892
908
930
958
977
997
1008
1004
989
968
943
918
893
862
833
809
799
798
802
806
808
810
809
813
813
818
826
829
833
832
833
834
833
831
830
829
827
824
828
828
826
830
833
832
831
832
828
828
827
826
826
827
828
828
830
829
830
827
826
826
824
822
821
821
822
822
823
823
819
820
817
817
816
816
815
815
813
817
820
819
819
818
817
814
813
811
812
812
814
814
813
815
815
816
816
814
816
814
814
817
819
822
826
828
829
830
833
832
835
836
840
847
851
855
861
863
866
869
871
876
876
881
883
885
886
885
889
889
888
887
886
883
880
881
879
879
880
876
879
877
875
872
873
871
869
866
866
868
871
870
871
871
870
868
867
865
864
862
861
861
865
865
864
865
863
862
864
864
862
861
861
862
865
863
868
868
869
866
865
863
860
861
860
862
865
870
871
872
876
877
875
874
875
873
874
875
879
881
887
888
887
886
885
881
878
875
871
868
868
868
867
866
866
862
857
853
852
851
848
847
848
852
852
853
851
849
846
844
844
845
847
844
845
847
851
852
852
852
850
850
850
851
853
856
862
870
882
897
916
937
960
978
994
1005
1004
993
972
951
925
899
868
831
808
795
795
799
802
805
807
809
816
821
827
829
829
829
824
820
820
820
825
827
830
828
831
830
823
822
822
823
823
825
826
823
825
825
824
824
822
819
820
819
821
822
821
823
822
822
820
817
817
816
816
814
815
816
817
816
819
815
814
815
812
813
812
808
810
810
809
809
812
812
812
810
809
808
808
808
811
810
812
814
817
816
814
817
819
819
820
823
827
831
835
838
840
845
845
847
852
855
857
856
861
867
872
875
876
880
880
881
878
878
876
878
876
875
875
875
874
876
876
873
871
869
864
863
863
864
866
866
866
866
867
864
864
863
860
860
861
860
860
862
863
863
862
860
859
860
859
857
856
857
855
859
861
861
859
856
856
855
856
855
855
857
856
858
859
860
859
859
858
858
859
861
861
863
867
869
872
872
872
871
870
868
868
869
869
869
877
878
880
883
881
875
867
867
864
862
861
863
865
864
864
863
861
854
854
850
847
844
844
844
847
846
846
847
845
846
845
845
841
840
840
843
843
845
846
848
847
848
847
849
849
854
863
878
896
922
948
974
995
1006
1008
995
971
941
915
886
853
820
796
787
790
797
801
800
796
797
798
804
813
817
825
827
829
830
827
823
822
823
824
824
825
827
826
826
825
824
821
820
820
817
818
819
821
819
821
823
822
821
820
819
817
814
815
814
813
815
816
817
816
813
811
807
809
808
808
809
810
811
812
812
811
809
809
805
802
801
804
802
805
808
808
810
810
808
805
804
807
808
808
809
811
814
816
820
823
825
826
829
832
833
835
841
844
852
856
863
862
866
864
866
866
865
870
873
875
878
879
879
877
877
875
873
870
869
870
870
871
872
873
872
871
870
870
865
862
862
863
863
865
864
867
868
869
866
865
862
862
862
861
860
864
864
864
865
864
865
863
859
857
857
860
862
864
865
867
868
867
865
864
864
863
862
866
869
869
874
873
875
875
877
874
872
870
874
875
877
882
887
890
890
887
888
883
879
876
873
874
874
874
871
872
869
865
862
859
855
853
850
850
851
851
851
853
855
852
854
852
848
847
852
850
848
849
852
853
853
855
856
856
853
854
854
859
870
884
899
917
943
971
996
1011
1018
1014
1000
976
953
930
905
882
853
827
808
802
804
810
811
808
806
809
813
817
822
825
829
831
831
829
829
830
831
831
834
834
834
834
832
831
830
827
828
829
831
828
832
831
830
830
828
824
826
826
823
824
825
826
827
826
827
826
824
822
825
821
819
819
819
818
818
820
820
819
816
815
816
809
807
807
806
808
809
808
809
810
809
807
806
804
800
799
803
803
806
807
808
808
808
808
807
807
808
810
811
814
816
821
821
824
827
829
832
835
838
841
848
854
861
867
873
876
878
880
878
879
881
879
879
882
885
887
888
887
886
884
881
878
877
878
880
881
878
882
881
879
880
879
877
876
875
875
875
877
877
877
878
876
875
874
873
873
871
870
870
874
872
872
873
874
872
872
870
866
865
867
870
871
871
872
872
872
873
871
870
870
868
871
871
874
878
878
882
882
887
887
887
886
887
888
889
888
890
892
895
894
896
897
896
897
892
888
887
883
883
879
881
881
879
879
875
873
869
866
864
865
864
861
863
861
859
858
858
858
857
857
855
857
859
861
863
862
861
863
860
859
859
859
861
863
868
872
882
891
904
922
943
969
991
1014
1028
1028
1014
985
954
915
875
838
815
805
807
814
824
835
838
844
843
841
839
835
836
834
836
837
836
839
838
838
839
838
839
834
833
833
832
832
833
833
834
835
836
836
836
834
832
832
831
829
828
830
830
831
831
830
828
822
820
824
822
821
823
823
823
825
822
822
821
819
817
816
815
813
813
812
815
815
814
812
810
809
807
806
807
806
807
806
808
811
814
814
812
815
814
814
817
816
819
822
827
830
835
839
841
845
846
848
853
858
861
867
873
875
882
881
882
884
885
884
884
883
884
885
885
885
887
885
883
882
880
878
880
879
878
878
880
880
881
880
878
875
876
874
875
873
872
872
875
876
877
876
872
872
871
870
869
869
867
868
870
871
872
871
870
870
868
867
864
864
865
868
868
870
868
870
871
870
869
871
871
873
876
879
882
884
888
888
889
887
882
884
883
883
885
889
893
894
896
894
890
888
882
878
875
872
872
874
876
876
876
870
870
862
861
859
857
855
853
853
856
857
858
856
856
855
855
854
854
852
851
853
856
857
860
859
859
858
855
857
857
860
868
882
896
915
940
965
991
1011
1022
1022
1007
982
954
928
901
868
841
817
804
802
807
811
816
822
828
831
831
832
834
833
834
834
834
833
832
833
832
830
832
832
832
833
832
832
829
827
826
827
826
826
827
829
833
829
830
827
827
824
823
822
821
822
823
822
822
819
819
819
816
816
814
813
812
812
811
811
814
813
810
809
808
806
803
803
801
803
804
803
804
805
802
801
799
798
800
798
799
802
803
806
805
808
809
808
808
808
810
811
812
816
820
827
833
835
841
844
847
849
853
857
862
867
871
871
876
878
880
879
874
877
876
876
877
877
877
877
879
876
873
875
873
870
871
869
869
871
871
871
872
873
870
868
867
866
865
865
865
866
866
868
870
869
869
867
864
863
861
860
859
860
863
866
866
867
867
866
865
864
864
864
865
865
868
869
871
873
872
872
874
875
877
879
882
883
885
887
886
886
885
885
889
888
888
887
883
881
879
875
875
876
874
876
872
868
864
860
858
856
855
855
855
854
853
852
851
851
850
849
849
851
850
853
855
856
855
855
853
853
852
850
854
854
858
862
870
883
897
917
939
966
987
1005
1016
1012
996
972
947
919
889
856
824
802
792
792
799
807
818
825
830
830
832
833
831
832
830
831
829
830
832
833
832
834
833
830
826
825
825
825
827
827
829
830
831
829
829
826
825
826
824
819
820
825
825
826
826
826
825
822
820
820
816
815
816
816
816
816
818
818
817
814
812
809
811
809
808
809
810
810
810
811
809
806
805
805
804
804
804
807
807
810
811
814
814
813
813
814
815
816
817
823
825
831
837
839
843
846
845
852
854
857
862
864
868
873
876
879
878
880
879
878
878
879
879
880
882
883
881
879
879
877
876
872
874
873
873
873
873
874
875
875
875
871
870
868
869
870
869
870
870
872
872
872
871
869
867
868
864
865
865
865
866
867
866
868
868
866
866
863
861
862
865
863
864
863
867
868
868
868
870
869
868
869
872
874
877
878
884
884
887
886
880
881
882
881
883
883
886
889
893
894
894
893
890
886
880
877
873
873
873
875
877
874
873
871
867
861
858
855
856
854
855
855
854
855
854
855
853
853
852
848
850
851
851
853
854
854
852
852
850
851
853
852
854
854
858
867
874
887
901
923
946
972
992
1005
1009
995
980
953
929
905
879
846
814
795
788
790
794
801
807
813
822
823
825
828
830
830
834
834
832
833
835
835
835
837
834
835
831
833
828
829
829
830
831
833
834
835
834
833
833
832
827
824
825
827
827
832
832
831
830
829
828
825
823
820
822
821
823
823
824
823
823
820
817
817
816
813
814
813
814
813
815
811
812
811
807
805
806
805
806
806
809
808
812
810
813
815
815
815
815
818
818
820
826
829
831
836
838
840
843
847
850
854
858
864
870
873
874
878
880
880
881
880
879
877
878
879
880
883
883
884
881
881
878
877
875
874
874
874
873
873
872
873
872
873
870
869
866
865
867
869
870
871
872
870
868
867
868
867
864
862
866
864
863
867
866
867
867
866
865
865
864
865
865
865
867
866
866
867
868
871
867
867
865
864
866
872
875
880
885
886
886
888
886
885
882
882
882
881
884
888
892
894
893
890
885
880
875
873
869
870
873
873
873
872
866
863
860
856
852
852
853
853
854
856
858
856
857
856
856
854
854
853
852
849
856
856
858
856
856
856
857
856
856
859
863
871
880
897
917
943
969
994
1006
1013
999
979
953
929
899
874
844
815
799
792
791
795
799
804
806
810
817
822
825
830
834
836
836
835
831
829
832
832
832
833
835
837
835
834
833
831
831
830
828
831
830
832
833
833
834
831
829
828
827
826
824
825
825
826
827
825
825
823
822
822
820
820
819
822
819
819
817
818
815
817
814
814
811
811
811
812
811
812
813
815
811
811
811
808
808
808
810
810
813
815
814
818
819
818
818
819
821
824
828
830
837
842
848
853
856
858
864
865
866
871
873
877
880
880
882
884
885
885
882
882
881
882
881
882
884
883
882
882
882
878
877
876
873
873
870
872
874
873
876
876
877
874
871
871
870
867
867
866
869
869
869
870
870
869
868
868
866
866
865
866
866
868
870
869
869
868
866
864
864
861
862
863
865
868
869
871
869
868
866
865
864
865
869
871
876
880
882
881
883
881
884
882
881
881
880
883
884
886
890
892
890
887
883
881
876
871
868
871
873
874
873
872
870
864
858
856
849
848
850
851
850
851
852
855
853
853
851
850
852
850
851
853
854
854
857
854
853
855
853
853
850
854
855
859
869
882
901
923
949
970
990
999
999
982
957
928
900
872
842
815
797
790
789
791
798
799
805
809
814
820
825
830
835
836
832
829
827
828
828
829
833
832
834
837
836
835
833
831
830
829
829
829
829
831
826
831
831
829
829
826
825
823
825
827
826
826
826
827
826
826
824
820
818
816
814
815
815
817
820
819
816
814
811
813
811
810
810
807
808
808
810
809
810
805
806
806
804
806
804
805
809
811
812
813
813
812
813
813
813
816
817
821
826
829
836
840
845
847
850
853
856
860
861
866
870
874
876
879
877
880
880
879
879
874
876
876
877
875
876
877
877
876
874
873
868
867
867
868
869
865
866
866
866
865
863
861
861
859
859
861
860
863
864
864
864
861
863
860
860
859
859
858
860
860
860
861
858
857
858
858
856
856
857
857
857
859
860
864
861
860
858
860
857
859
862
863
867
870
871
876
876
877
876
877
873
873
875
875
878
879
879
884
883
886
883
874
870
867
864
863
863
866
868
868
864
862
856
852
847
846
844
844
845
847
848
847
848
847
847
842
842
843
844
845
843
848
850
849
852
851
850
849
847
846
845
845
850
856
868
880
895
914
936
958
977
991
997
990
971
948
925
900
873
844
810
790
781
781
787
789
796
804
803
808
811
813
815
819
819
823
826
826
827
829
828
828
829
828
826
824
822
821
821
822
822
824
825
824
824
823
819
821
820
817
816
816
821
821
822
824
820
820
818
816
815
813
810
813
814
814
814
816
816
815
813
809
807
807
807
806
802
803
805
808
806
806
804
802
801
