814
815
812
811
810
807
807
804
804
805
807
808
810
810
809
810
808
803
804
804
805
804
807
810
811
814
818
825
841
854
875
900
929
952
968
973
963
938
908
878
845
813
780
748
728
721
725
734
743
751
756
763
766
770
775
777
781
785
787
787
787
787
785
784
780
780
778
779
781
782
783
782
782
784
783
779
778
777
773
772
771
775
776
776
777
777
776
773
772
772
772
769
770
771
771
771
771
772
771
769
769
767
761
761
761
762
762
763
764
765
764
763
759
761
758
758
754
757
759
760
761
762
761
760
760
760
761
759
761
763
766
770
774
779
782
783
784
790
792
795
800
804
810
815
822
824
826
827
829
827
826
827
830
831
833
834
837
836
835
835
833
830
829
827
825
825
825
827
830
826
825
825
821
820
818
816
815
818
817
817
818
819
818
817
815
814
811
813
812
812
817
816
817
817
815
814
812
811
809
810
811
812
815
811
813
817
815
816
815
812
813
812
813
813
816
818
823
825
826
826
827
828
826
829
830
832
833
835
835
836
837
838
838
838
835
833
831
829
828
828
826
826
824
820
816
815
809
807
804
804
804
802
805
804
802
801
799
800
799
800
803
804
803
805
807
809
806
805
803
802
803
802
800
802
807
817
827
844
866
892
923
944
961
962
949
921
891
857
823
784
746
725
719
721
729
738
744
751
757
763
765
769
776
779
779
781
777
777
776
774
778
780
781
781
783
782
781
777
777
775
776
777
778
776
779
779
778
777
776
775
771
770
772
770
772
772
773
774
772
769
766
765
762
765
766
763
765
765
769
766
766
765
764
763
760
757
758
758
761
760
760
760
758
758
755
754
755
754
756
758
760
762
765
769
768
771
771
772
770
770
774
777
783
788
794
797
798
805
808
809
809
814
816
823
828
829
834
836
836
836
836
835
835
833
833
832
831
834
835
836
832
832
829
826
827
826
827
828
827
827
827
825
826
826
824
823
817
818
819
819
819
817
820
818
819
816
813
813
814
815
815
815
818
817
819
820
818
818
816
816
816
814
813
814
816
817
817
819
815
817
816
816
815
812
815
816
817
818
824
826
826
828
827
826
828
830
832
832
835
834
835
838
841
842
841
840
840
837
836
835
836
833
831
831
829
826
825
821
816
811
811
809
808
807
806
806
804
803
804
801
799
799
802
799
803
803
804
806
808
806
804
804
805
805
806
808
814
824
838
854
872
895
918
941
959
964
959
942
916
888
862
833
797
762
734
721
724
728
737
743
750
758
761
767
768
773
775
777
778
778
776
778
781
782
782
782
783
779
778
779
776
776
778
777
780
779
780
780
779
779
776
775
774
772
772
772
771
772
769
772
772
772
770
769
768
768
765
767
765
766
767
769
766
767
767
764
762
761
763
762
760
763
761
764
760
762
758
758
757
757
756
758
760
759
764
764
764
764
764
766
768
770
774
778
777
783
787
790
794
797
798
801
806
807
812
817
820
825
829
829
829
831
830
828
828
824
823
821
821
822
824
824
823
822
820
816
818
817
815
816
816
813
816
816
812
811
812
811
810
808
809
809
808
811
813
810
811
811
809
807
805
803
806
807
808
808
807
810
810
808
804
804
803
805
802
804
804
806
807
808
809
808
809
805
806
805
807
807
809
813
815
820
824
821
823
823
820
821
822
823
825
828
830
832
830
833
828
825
822
817
816
813
811
814
812
813
808
807
800
797
794
793
791
792
792
792
792
793
794
794
793
792
790
789
791
791
791
794
797
798
798
796
795
795
796
801
811
824
842
864
887
912
934
949
954
949
931
905
878
849
819
782
752
737
731
733
739
743
742
749
753
761
767
774
776
778
777
775
770
768
768
768
768
770
769
771
768
768
772
771
766
766
765
765
765
766
767
768
771
771
768
769
767
765
764
762
760
759
759
760
760
761
761
760
759
757
757
755
754
757
756
757
757
758
757
752
751
754
753
753
753
753
753
755
755
756
755
760
759
758
757
757
757
758
760
761
765
770
773
774
774
774
778
780
781
786
790
794
801
807
810
814
815
817
818
818
818
821
823
825
828
828
827
826
823
822
821
819
819
819
818
818
818
820
816
814
814
812
808
808
806
809
812
808
813
809
808
808
808
805
801
801
798
799
801
804
803
804
799
799
798
800
798
799
798
800
803
803
805
804
805
802
801
797
798
798
799
801
803
802
802
806
805
807
805
806
807
807
810
811
813
815
815
817
815
817
818
818
820
822
822
821
823
822
822
822
822
820
817
814
813
809
804
802
800
796
799
798
797
795
792
789
787
786
785
786
786
788
788
787
786
786
784
786
788
787
789
790
793
794
798
800
805
813
825
842
863
886
914
936
954
966
960
945
914
886
857
825
792
759
734
726
732
744
748
750
747
745
744
747
752
759
762
765
768
770
770
771
768
768
767
763
763
763
762
762
763
767
765
769
767
769
767
765
763
763
762
763
765
765
764
767
764
761
761
758
756
759
758
759
760
760
761
760
761
757
756
756
755
753
754
754
754
755
756
757
755
754
754
754
754
754
755
752
754
757
757
758
758
758
759
759
761
762
763
766
767
768
772
779
782
785
788
788
793
793
794
798
805
806
812
816
819
821
823
826
826
827
826
826
828
826
827
829
827
825
823
821
819
820
817
816
817
817
819
819
820
819
820
818
816
815
814
815
816
818
818
817
816
817
815
814
812
809
812
808
809
812
815
816
815
815
815
814
813
814
813
813
813
816
816
819
817
818
817
815
813
815
816
817
822
824
828
830
831
831
831
831
829
826
826
827
830
832
838
842
846
845
846
843
840
836
835
832
831
832
832
831
830
826
820
818
813
813
812
809
810
809
812
811
810
810
810
811
808
804
806
808
807
810
812
814
815
814
816
812
815
816
816
817
819
826
833
848
864
884
905
932
956
980
991
993
979
957
929
905
878
843
810
778
758
754
758
764
771
772
771
772
774
779
781
785
789
791
794
794
796
798
798
796
796
797
797
794
792
792
789
790
792
794
796
797
795
791
793
792
791
790
788
789
789
790
791
792
791
790
790
786
784
787
784
784
788
787
789
787
787
783
781
779
777
774
776
775
778
779
780
782
778
778
778
777
776
775
773
773
774
776
779
780
780
780
779
779
781
781
780
783
786
788
790
793
796
796
799
800
804
806
810
817
823
829
835
842
842
846
846
847
847
849
846
845
850
852
853
849
852
851
850
849
847
847
843
843
844
843
842
842
844
843
841
838
838
836
838
841
840
842
843
844
844
839
840
839
839
837
834
836
836
839
837
840
840
840
838
836
838
833
832
833
832
835
833
835
835
837
836
835
836
837
835
836
839
840
840
845
846
848
847
851
851
850
852
853
855
854
857
858
855
855
858
858
858
860
857
857
855
854
854
851
852
849
846
844
840
837
835
833
833
831
830
831
828
827
826
825
824
824
822
823
822
825
824
827
827
827
825
825
827
825
825
824
826
830
832
837
842
852
867
886
915
947
975
1000
1009
995
967
933
894
853
808
776
760
757
766
778
789
799
807
810
808
806
803
803
801
803
805
806
808
810
809
810
809
808
807
807
804
805
803
805
806
805
804
805
804
803
803
803
800
799
798
799
799
798
799
802
804
803
803
801
799
797
795
795
795
796
797
799
797
796
796
792
789
786
788
789
789
787
787
786
786
784
783
780
781
780
781
781
783
784
785
784
789
789
789
788
790
786
788
788
791
795
800
803
806
808
812
813
817
818
822
824
831
838
844
849
853
855
854
855
857
858
861
860
862
867
865
868
867
867
865
865
863
861
859
858
857
861
860
861
859
860
859
857
856
854
851
853
850
851
851
851
852
855
854
852
853
849
850
852
851
851
853
853
850
853
852
851
851
849
847
847
849
849
850
851
851
852
852
849
849
849
848
852
852
859
859
864
865
866
869
867
870
869
869
870
869
872
870
873
876
876
877
874
874
871
868
868
865
864
862
860
862
856
860
855
851
847
844
842
842
843
844
843
841
840
838
837
838
839
836
837
838
839
841
842
843
839
838
838
835
836
840
838
842
846
852
864
874
889
910
934
960
983
1003
1010
1005
984
958
929
899
868
833
800
779
772
772
781
790
800
809
814
815
813
814
813
816
814
816
817
819
821
822
822
821
822
819
819
815
818
816
816
815
815
819
818
818
817
817
813
812
809
812
809
811
812
812
815
814
812
808
807
805
802
804
803
802
803
802
804
804
802
800
798
797
795
794
793
797
795
796
794
795
795
796
794
792
792
790
791
792
793
794
797
798
798
799
799
800
801
801
803
805
811
815
819
827
830
832
834
837
841
846
850
856
862
867
871
872
876
875
875
875
871
872
871
872
871
873
874
875
873
872
871
870
867
865
864
865
866
867
869
869
866
866
864
862
861
861
861
863
861
864
865
866
865
864
862
862
859
859
861
860
862
864
864
865
865
863
864
861
860
860
861
863
862
861
862
864
863
864
862
862
865
865
868
873
876
880
883
883
884
884
882
881
880
879
883
886
889
890
890
887
882
876
871
869
867
868
864
862
864
865
864
862
859
859
856
854
852
850
847
848
850
853
852
853
855
854
852
849
851
848
848
854
852
851
853
857
859
857
858
862
868
880
892
914
938
968
996
1014
1020
1008
984
952
920
886
849
814
789
780
782
792
799
808
815
818
819
820
821
823
830
833
837
837
835
834
827
827
829
828
829
831
831
833
831
834
831
833
831
831
825
825
827
827
828
827
825
828
825
824
822
821
820
818
819
820
821
819
820
820
820
820
818
818
817
816
815
814
816
815
818
818
815
815
814
812
810
808
806
806
804
808
809
811
810
811
813
813
813
814
813
815
820
822
823
826
828
829
830
832
831
834
836
841
844
850
854
859
863
866
866
870
869
873
877
877
881
883
887
889
889
888
885
886
883
884
883
884
883
884
885
883
883
881
880
877
875
874
876
874
875
874
876
875
874
875
873
870
867
868
865
867
865
870
870
869
868
869
869
867
864
865
864
866
867
868
869
869
871
870
866
864
866
865
864
866
868
870
869
872
869
869
866
866
868
869
871
875
880
883
888
888
888
890
888
885
885
885
884
886
891
890
894
896
896
894
887
882
879
878
875
872
874
876
873
871
869
868
864
860
860
855
856
853
855
857
858
858
857
857
856
856
855
855
854
856
858
858
860
860
861
860
859
858
861
865
873
889
908
930
956
983
1007
1018
1017
1001
977
946
918
888
854
825
799
784
782
786
794
802
805
809
814
822
825
828
832
835
837
837
836
835
833
831
832
833
834
838
835
836
838
837
837
834
835
831
834
834
834
836
834
837
838
835
833
832
828
826
825
825
827
828
828
829
826
824
825
821
821
819
820
820
821
821
822
821
821
819
819
817
815
813
810
813
816
815
816
816
815
814
814
812
811
813
815
815
819
821
825
824
824
824
827
828
829
833
837
842
846
851
855
857
863
866
871
875
878
880
883
886
889
893
892
894
890
889
885
885
886
885
883
884
886
886
889
888
889
885
885
881
881
878
877
879
879
878
880
881
881
880
877
876
877
874
874
875
876
873
876
875
878
875
871
870
873
869
872
872
875
873
875
872
874
876
876
873
872
875
870
872
875
876
877
880
879
874
873
869
872
872
873
877
884
886
889
892
893
892
893
891
890
890
888
893
897
899
900
902
898
897
891
888
884
880
880
879
878
875
875
871
868
865
863
862
861
861
861
859
862
862
862
862
861
863
860
858
857
858
858
856
857
858
861
863
862
862
860
861
862
865
868
878
892
910
927
951
976
999
1014
1016
1004
980
948
918
883
845
811
791
781
782
789
794
803
810
814
819
825
828
834
836
838
836
834
831
829
826
828
830
831
829
831
834
834
834
832
830
826
828
827
828
829
831
830
831
830
828
827
826
823
824
822
823
822
823
823
821
822
819
819
817
817
815
816
815
816
818
817
817
815
816
814
813
813
810
810
808
808
810
811
813
812
812
810
810
806
810
808
809
811
814
816
823
824
826
828
828
831
833
840
845
846
853
857
863
866
867
870
871
873
876
875
878
880
884
886
885
883
883
881
878
878
878
875
876
876
875
876
878
877
877
875
874
870
871
870
870
872
872
872
873
873
872
871
869
867
866
864
864
864
863
864
868
866
863
864
860
859
858
859
860
862
862
864
865
866
866
866
864
866
864
864
862
864
866
867
868
866
866
866
864
867
869
871
874
876
879
881
883
881
881
880
878
877
876
874
879
884
889
889
892
885
883
876
874
870
871
871
868
869
865
865
865
863
859
858
854
851
849
846
845
847
848
850
852
854
853
850
850
850
848
848
849
847
851
854
856
854
856
860
868
883
898
920
946
973
995
1011
1014
1000
975
949
916
886
851
817
793
783
787
790
793
797
800
803
805
810
816
821
822
825
829
829
829
829
825
827
823
819
821
822
823
824
824
825
827
825
825
823
824
823
822
819
820
821
822
822
822
819
816
816
816
816
813
810
813
816
816
816
817
816
813
811
809
808
808
808
809
808
808
804
806
808
806
805
803
804
803
801
800
803
805
804
805
806
808
807
808
809
805
807
811
811
814
817
820
822
825
825
825
829
830
835
837
844
850
854
859
863
866
867
866
865
868
871
872
874
875
873
877
878
877
876
874
871
868
866
865
865
864
864
865
868
867
865
864
861
858
859
857
858
860
860
860
860
860
859
857
856
854
853
851
852
854
854
854
852
851
852
851
849
849
846
847
849
848
851
854
855
854
853
852
850
850
849
850
851
852
854
855
854
855
853
852
855
856
858
859
860
864
867
867
867
868
866
865
862
861
861
864
869
872
873
877
873
867
865
860
855
854
852
851
853
856
853
853
847
846
841
837
833
833
830
830
830
830
832
833
834
834
832
832
832
830
830
825
831
831
835
837
836
836
837
840
837
840
845
854
870
887
909
939
963
985
1001
1008
1003
985
960
935
909
883
854
820
787
769
765
772
778
781
781
782
785
791
797
805
805
813
813
813
808
806
806
804
805
810
810
812
812
808
806
805
803
803
803
803
808
807
811
811
810
808
807
803
802
802
804
803
803
804
806
808
806
806
804
801
798
797
797
795
797
796
797
796
795
794
790
789
788
786
788
790
791
792
792
793
793
791
790
788
787
787
787
787
791
793
795
797
798
799
796
796
796
798
798
802
809
811
818
822
829
833
835
838
842
841
844
847
852
853
858
862
866
865
862
862
861
860
860
861
861
859
859
861
861
860
857
854
854
852
850
850
851
852
851
855
856
856
854
854
851
849
848
846
846
848
849
850
853
850
850
845
843
845
844
844
846
847
845
849
845
846
846
846
847
846
846
847
848
849
848
851
853
849
845
844
844
845
843
849
852
857
859
864
866
867
866
866
865
863
862
863
863
866
866
871
872
873
872
871
868
865
861
860
858
857
858
859
857
858
856
850
847
843
840
837
836
836
838
840
840
836
836
836
832
834
832
834
837
840
840
842
843
845
843
842
840
839
838
841
849
860
878
902
927
959
988
1011
1023
1020
1002
977
947
919
892
857
822
793
779
778
783
786
789
793
795
800
805
811
817
820
820
820
820
820
819
820
819
820
819
824
824
819
818
818
817
815
814
817
816
818
819
822
822
822
820
817
813
816
810
811
814
814
817
818
818
813
815
811
810
807
807
806
807
809
808
808
806
806
803
805
801
798
798
800
796
801
802
805
802
801
800
799
798
798
796
796
798
801
802
805
810
806
807
807
806
807
812
813
817
824
828
829
834
839
840
845
851
853
854
859
861
867
869
873
876
875
876
875
873
874
876
876
878
875
879
881
879
877
877
871
872
870
868
868
867
869
868
869
869
867
868
869
868
867
868
865
867
868
868
871
868
869
869
867
863
861
859
859
860
863
865
867
869
870
868
867
865
863
862
863
863
866
865
866
868
867
868
865
866
863
866
868
870
874
876
877
879
879
882
882
883
880
878
878
880
882
883
884
887
887
890
889
889
885
882
880
877
877
877
877
875
874
870
868
862
859
856
857
857
856
855
858
857
852
853
852
850
849
851
852
855
857
857
857
858
858
858
858
860
858
858
863
874
888
905
927
955
984
1012
1033
1045
1039
1019
991
956
927
898
864
827
800
781
775
776
782
789
795
804
811
818
822
829
831
831
832
831
831
832
831
833
837
837
836
836
835
831
831
831
827
826
824
828
829
827
831
831
832
827
827
823
820
822
821
822
