778
783
785
788
787
791
794
799
804
807
811
816
819
822
823
819
817
814
813
815
819
822
824
821
822
816
812
807
807
805
806
811
814
819
819
818
815
815
812
811
810
810
809
807
806
804
805
806
805
803
803
802
801
799
798
797
799
799
802
801
799
796
796
793
793
786
784
786
784
783
781
782
784
784
785
782
781
779
780
778
779
778
781
782
786
785
786
789
791
793
795
799
803
808
811
818
823
826
830
835
836
839
842
844
849
851
851
859
857
859
858
856
855
858
856
858
861
862
864
865
863
862
859
858
856
854
853
856
856
859
860
862
863
865
865
865
863
863
863
862
868
870
873
874
875
873
874
874
874
877
877
880
880
884
883
885
885
882
884
885
884
884
886
886
888
888
891
892
891
891
892
891
892
892
894
897
898
899
904
907
907
908
906
904
901
901
900
902
903
903
906
908
908
906
901
898
894
889
887
888
889
888
888
887
887
884
883
878
879
875
873
872
871
871
867
871
873
873
872
870
870
869
869
866
870
869
871
874
875
874
872
871
871
875
882
894
908
930
957
984
1014
1039
1056
1059
1046
1022
990
960
926
891
853
822
807
802
807
815
822
833
839
846
848
851
849
847
849
848
851
848
849
850
849
849
850
851
851
852
853
850
851
850
850
849
848
847
846
842
841
842
841
840
841
841
840
835
836
833
834
832
833
834
832
831
832
830
829
826
826
826
822
822
823
826
824
821
822
818
816
814
811
811
812
813
812
814
811
812
811
809
807
809
808
808
807
811
812
814
815
814
816
814
815
813
816
820
827
832
838
845
849
851
855
858
862
866
865
870
872
879
881
884
888
888
886
886
887
885
881
880
880
879
879
881
881
880
878
880
877
876
874
874
875
877
879
878
880
880
879
876
875
875
872
872
876
876
877
879
879
879
877
877
873
876
875
875
876
877
880
879
882
880
882
879
878
877
877
877
877
879
881
884
888
888
892
893
893
891
894
896
895
896
896
898
898
899
899
898
901
899
899
899
895
893
891
890
890
891
891
884
883
877
876
873
873
871
872
874
873
872
870
868
868
867
865
867
867
871
870
872
873
870
871
871
869
870
869
866
869
871
873
882
890
902
917
937
959
987
1010
1033
1045
1044
1033
1010
980
957
932
906
876
846
827
818
820
823
834
843
849
852
851
849
846
844
844
845
846
849
848
850
852
848
848
846
845
840
840
839
842
841
845
847
848
847
845
842
841
839
838
837
840
838
839
838
841
839
839
836
834
830
828
830
831
829
833
833
832
828
827
823
822
821
820
821
819
822
822
820
821
819
815
814
812
811
810
809
812
809
812
812
813
814
813
812
813
815
814
817
819
823
827
829
835
840
841
841
845
848
851
858
862
866
874
880
884
887
889
887
887
888
887
887
887
888
889
888
890
889
886
887
882
883
883
882
883
885
885
885
884
883
883
880
880
876
877
875
874
876
878
881
880
881
879
875
874
875
874
874
875
874
875
876
878
878
877
875
874
874
871
872
872
875
875
874
873
875
877
875
875
876
875
879
881
883
887
889
895
894
892
893
888
887
886
890
889
892
895
900
900
902
897
895
889
884
883
882
879
879
880
880
881
881
878
873
869
867
865
866
864
865
864
864
864
863
861
862
861
860
859
860
862
862
862
864
866
864
865
864
864
861
862
863
869
879
893
911
936
961
988
1013
1030
1033
1025
1003
978
952
928
904
877
848
830
818
817
822
827
836
841
846
844
844
845
841
840
840
839
838
836
841
842
842
842
842
843
843
840
840
839
837
836
836
836
839
840
840
841
839
839
838
834
836
834
835
831
832
833
831
832
829
830
824
827
827
824
823
825
824
823
825
825
823
820
818
816
815
814
813
813
812
813
813
814
812
810
808
806
804
803
803
804
804
804
804
808
807
808
809
809
809
809
809
814
817
821
824
829
833
837
834
841
845
847
852
856
863
866
872
873
877
878
878
880
878
879
882
882
883
885
882
884
883
883
882
879
876
873
876
874
875
876
878
877
873
875
874
870
868
869
870
873
875
875
876
875
873
873
870
868
867
865
864
866
868
868
872
873
871
869
866
865
863
863
866
867
870
872
872
872
870
871
870
868
870
869
870
874
875
877
880
880
883
884
883
884
883
883
883
882
883
885
888
889
890
891
893
891
889
886
883
879
878
877
877
880
878
877
875
869
866
862
860
859
857
859
857
858
855
858
855
852
851
852
852
854
857
856
856
860
859
859
858
857
855
854
855
856
856
858
864
872
883
895
911
933
957
984
1006
1021
1024
1014
994
969
939
913
879
846
820
807
806
810
819
827
834
837
841
840
835
831
829
829
829
832
833
837
839
840
837
834
835
833
831
831
832
833
832
831
830
832
830
832
829
829
826
824
824
826
826
828
829
828
829
829
826
824
823
823
821
824
825
825
825
826
823
820
817
815
813
815
813
812
813
813
814
814
812
811
809
807
807
807
804
803
804
804
805
808
808
809
807
806
806
805
804
806
806
811
814
817
820
820
823
823
828
832
836
842
849
855
862
867
872
874
876
877
880
881
882
884
884
884
886
887
886
885
885
881
879
879
878
876
874
880
877
878
877
881
878
878
875
873
873
874
876
875
875
877
874
873
872
869
869
869
868
868
869
868
869
870
872
872
869
867
866
862
862
861
863
865
869
870
870
868
868
866
864
864
863
864
866
871
873
875
879
879
883
881
882
882
878
878
878
879
881
885
888
890
893
890
888
883
880
878
876
875
875
875
873
873
869
863
860
858
851
851
851
851
852
853
851
848
850
849
845
847
847
849
849
850
850
855
853
853
853
851
850
849
849
853
854
854
864
878
889
908
931
962
987
1009
1018
1008
988
956
921
876
827
788
773
771
784
788
793
794
799
802
805
816
821
824
828
826
827
826
823
822
825
827
829
829
828
827
827
825
823
824
823
823
825
825
827
830
828
827
825
825
826
823
822
821
823
825
826
828
827
828
824
821
822
819
816
817
818
820
821
822
822
820
820
816
816
816
817
815
816
818
818
819
819
817
815
813
815
814
814
812
814
817
817
821
821
823
825
824
825
825
827
828
829
836
842
845
851
852
854
860
863
866
865
874
877
884
888
891
891
892
893
893
893
891
892
893
894
893
892
897
895
895
893
891
889
888
888
889
889
894
893
895
894
890
891
885
882
882
883
882
884
885
886
886
887
887
885
882
882
879
881
880
881
884
885
887
885
886
883
882
880
880
879
880
883
883
887
889
888
885
888
886
885
886
886
889
891
895
898
899
899
896
897
894
898
894
895
898
900
902
906
908
908
908
902
899
897
893
890
888
885
887
888
887
883
882
878
876
873
874
871
871
871
872
873
874
871
873
870
870
868
869
869
869
870
873
875
877
874
876
874
872
873
878
886
899
914
937
965
994
1021
1040
1052
1048
1030
1002
971
942
915
883
851
827
810
807
809
814
818
821
826
831
835
840
842
845
846
849
848
848
847
845
845
846
844
848
849
852
849
848
848
843
842
842
841
842
844
844
845
844
845
844
843
839
838
839
834
834
837
839
840
840
839
837
835
833
833
831
829
829
828
826
829
828
827
825
824
822
820
820
817
818
817
818
817
818
816
814
814
813
812
811
812
813
814
815
817
820
820
819
820
820
821
822
825
826
831
837
842
847
851
854
858
860
864
868
872
878
883
888
891
894
893
895
894
893
893
890
891
890
892
892
891
893
888
889
889
888
885
886
884
883
884
884
884
885
886
885
885
881
880
881
881
881
883
885
884
885
885
886
883
878
877
879
878
877
880
880
882
881
881
880
879
879
881
878
876
877
876
879
881
883
882
885
886
883
884
886
886
889
893
897
897
899
899
899
895
895
895
897
902
900
903
903
901
898
897
893
889
885
882
884
884
883
882
880
879
878
875
875
873
868
868
863
864
868
867
870
867
870
869
870
869
868
866
864
864
865
866
868
869
870
871
871
873
875
881
890
905
923
948
976
1003
1028
1043
1047
1031
1001
968
935
898
859
830
813
808
813
825
833
844
849
848
846
843
840
840
841
841
844
844
844
845
845
842
841
841
841
842
842
840
844
845
844
839
840
839
838
837
838
838
839
840
842
840
839
839
834
834
832
831
831
831
833
833
832
832
831
829
828
823
826
823
824
824
824
821
823
823
824
825
820
819
817
814
813
811
816
812
815
814
815
812
810
807
805
808
809
809
812
815
816
817
819
819
819
821
821
822
825
828
833
839
841
849
851
856
861
865
869
871
874
875
884
886
890
891
892
891
892
892
889
889
891
891
890
889
892
892
889
889
887
886
881
880
880
883
884
887
888
886
886
885
882
882
879
876
878
877
876
877
879
880
880
881
876
877
874
873
874
874
875
876
878
877
876
877
875
875
874
873
875
874
876
877
879
880
879
879
879
879
878
879
881
883
886
890
892
892
894
891
892
891
891
889
892
894
895
899
901
897
898
896
889
884
881
880
881
882
883
882
880
878
876
872
868
865
863
859
856
859
861
859
863
865
864
862
860
859
858
858
861
861
863
865
866
866
865
864
864
865
868
877
888
905
927
951
981
1005
1024
1035
1030
1013
987
960
934
908
880
849
824
810
805
808
816
822
828
834
836
837
837
836
837
838
838
839
840
840
838
835
839
837
836
837
838
837
836
837
833
832
831
832
831
830
831
833
834
833
833
833
830
831
829
828
828
829
827
828
828
829
825
826
822
818
820
817
819
819
819
820
820
820
817
813
814
811
808
807
808
808
808
811
810
811
808
806
808
808
806
806
806
808
811
814
816
816
816
817
818
821
821
825
826
830
837
839
848
852
859
862
865
865
869
871
874
878
880
880
885
886
886
885
884
881
881
883
879
882
881
884
881
880
878
881
879
878
876
874
873
877
877
876
876
876
871
872
871
870
871
871
871
872
873
870
872
876
875
874
873
869
867
869
868
869
872
873
874
873
872
872
870
871
870
871
869
869
873
875
874
880
880
880
884
884
886
885
887
889
889
893
894
894
891
891
889
890
889
893
894
896
893
890
888
883
882
880
878
876
871
868
864
863
862
864
863
864
861
862
859
859
857
856
854
856
858
859
860
859
860
861
859
858
858
857
858
859
861
863
863
864
867
871
879
890
905
923
950
979
1007
1027
1035
1028
1005
978
947
919
892
860
830
808
798
801
808
815
820
827
832
832
831
829
833
834
837
844
845
847
845
845
843
840
838
837
839
838
840
843
843
840
843
837
836
836
833
835
836
837
838
839
839
838
837
836
838
834
832
830
831
830
833
832
831
832
830
830
828
827
827
824
822
825
825
825
827
827
827
825
821
820
820
817
818
817
816
817
820
819
820
819
819
816
816
817
818
820
824
826
828
830
832
834
834
835
840
844
848
853
860
865
871
875
879
881
882
884
887
887
888
890
894
893
895
897
897
895
893
892
890
890
890
889
890
890
891
891
891
890
888
884
882
881
880
879
882
885
884
884
882
884
879
878
879
876
875
877
878
879
879
880
879
878
877
874
874
874
875
874
876
876
876
878
874
875
874
873
872
869
872
872
876
877
880
881
883
881
883
884
884
888
890
892
895
897
897
898
898
896
896
893
891
893
894
900
902
904
902
899
896
888
885
881
881
882
883
880
879
878
875
874
870
868
866
864
864
862
862
863
862
861
864
865
867
866
864
863
861
859
857
862
863
865
866
868
867
869
867
871
881
895
916
947
979
1010
1029
1034
1019
993
959
928
897
861
828
804
794
796
803
811
818
822
826
827
829
831
834
836
840
844
845
847
845
845
843
840
842
839
838
840
840
841
842
845
842
839
838
835
834
834
837
837
837
839
837
840
832
833
833
831
831
832
829
831
830
830
830
833
833
831
828
826
823
822
819
821
823
824
821
824
821
819
820
819
817
817
818
816
820
820
821
825
824
826
826
826
827
824
825
825
830
835
838
842
845
848
850
853
856
858
861
865
869
877
880
883
885
886
888
890
889
892
890
890
892
894
895
897
894
894
892
890
890
884
883
881
880
884
883
883
883
881
880
880
881
878
878
877
878
878
879
880
879
876
875
875
872
872
870
871
873
875
877
879
877
876
873
872
872
873
871
873
874
877
876
876
877
878
875
874
874
872
873
872
876
878
881
884
888
888
890
890
890
893
895
893
894
896
896
893
894
893
896
897
898
897
895
892
890
886
887
887
886
883
882
879
877
872
867
866
864
864
862
864
862
863
861
860
861
861
860
861
863
863
865
866
866
865
864
863
862
862
863
863
865
861
865
868
876
885
896
908
931
954
979
997
1017
1024
1022
1002
974
952
926
901
874
843
815
798
792
799
804
812
813
817
821
821
823
825
831
837
839
841
845
844
844
842
843
841
841
842
840
839
839
841
842
844
841
841
842
839
838
836
835
834
837
836
840
839
836
834
834
833
832
832
830
829
830
832
834
832
832
832
830
827
829
826
825
826
825
824
825
826
826
824
822
819
817
818
817
818
819
819
816
820
821
822
823
820
820
817
816
818
821
822
823
827
828
828
831
833
832
835
838
843
847
854
860
866
871
877
880
882
883
882
885
887
891
892
893
894
893
892
888
885
883
883
880
883
884
880
883
883
883
880
879
879
876
874
872
872
873
874
872
874
874
873
873
870
869
867
864
862
864
867
866
868
867
867
866
865
864
862
861
863
864
864
868
868
867
866
865
862
863
862
862
864
865
867
864
867
872
871
873
873
876
877
877
879
881
884
877
881
883
883
880
884
886
887
886
888
887
884
879
878
874
875
876
872
871
870
867
864
859
859
857
858
857
852
851
849
849
851
849
852
849
853
854
855
856
855
853
853
850
848
849
850
851
852
854
856
856
855
859
866
879
896
918
946
975
1002
1012
1008
985
958
929
893
859
826
800
792
796
800
803
804
807
808
811
814
819
824
827
829
830
830
830
832
831
831
831
829
828
829
826
828
828
826
827
828
827
825
825
824
824
822
820
817
821
825
827
825
825
824
822
821
821
819
819
821
822
822
822
821
820
819
814
816
812
811
813
814
815
815
817
816
817
816
814
812
810
810
809
811
811
812
815
815
814
817
818
819
820
817
818
819
822
825
829
831
836
835
839
839
841
843
848
852
859
865
866
870
873
875
875
878
877
879
879
876
878
879
880
883
883
882
880
876
872
871
869
869
869
871
870
872
871
869
868
866
865
863
860
859
858
860
860
860
858
858
858
857
857
859
854
855
859
860
857
858
859
859
857
857
855
850
853
851
852
857
856
858
858
859
859
857
856
855
855
853
856
859
860
862
865
866
866
867
867
868
869
869
871
871
873
875
875
874
872
874
874
875
876
877
875
879
875
873
868
868
865
863
863
861
857
853
852
852
851
849
847
847
843
843
840
839
839
839
840
841
843
844
846
846
843
844
840
840
842
841
844
846
848
850
853
856
864
874
889
910
936
965
991
1009
1016
1007
987
960
930
899
864
828
797
782
782
792
800
802
799
796
796
799
803
810
815
819
823
826
827
824
825
821
821
819
820
818
817
819
821
819
820
819
824
822
820
819
817
816
814
814
814
816
815
818
820
818
816
813
811
811
808
809
807
811
812
813
810
812
809
810
809
808
804
806
806
807
809
812
810
806
804
802
803
799
800
802
802
803
806
808
808
808
807
808
807
805
805
808
812
813
816
821
822
825
827
827
830
833
836
842
848
853
856
860
862
867
869
867
867
870
869
873
875
877
878
879
878
876
875
874
870
869
867
867
866
868
868
869
869
867
866
863
862
858
860
858
859
861
861
864
863
864
860
859
859
856
854
854
853
855
857
857
858
859
858
855
857
853
853
852
853
852
853
855
856
856
856
854
851
853
855
856
857
858
859
860
864
864
864
867
867
867
868
866
867
868
869
870
875
877
878
879
879
878
876
877
873
873
872
872
871
870
867
865
863
859
856
854
853
851
851
851
850
847
844
843
845
844
843
842
844
846
847
848
851
848
851
849
848
848
846
847
849
852
852
853
854
856
866
877
896
919
947
979
1005
1023
1023
1011
985
954
920
886
846
810
791
788
791
798
802
804
806
809
812
817
822
824
826
827
829
830
831
830
831
831
829
830
829
828
825
826
827
829
829
829
829
828
827
827
824
825
825
826
825
827
828
829
827
826
825
825
822
820
819
818
820
821
821
822
820
820
819
817
814
814
813
813
812
816
814
817
815
814
814
810
809
806
809
809
812
810
813
815
817
816
817
817
814
814
817
819
820
821
