874
874
874
874
874
874
874
872
870
869
869
867
868
872
870
870
870
868
868
866
866
864
865
865
867
867
871
868
865
866
864
860
862
861
863
865
864
866
867
869
870
865
863
866
864
865
867
865
868
873
874
875
876
878
881
882
882
880
881
880
886
887
888
889
888
892
890
890
889
886
882
882
880
876
877
874
874
875
874
872
868
864
860
858
859
858
858
856
855
855
851
851
852
850
851
850
854
852
853
855
855
855
852
853
851
851
852
852
852
853
855
855
858
857
857
858
864
872
886
904
929
955
980
999
1015
1015
995
966
935
896
855
818
794
786
789
793
802
807
812
816
819
819
824
829
832
833
835
836
835
832
832
831
828
828
830
830
830
833
834
833
835
833
831
831
830
829
829
828
831
831
829
828
829
829
828
826
825
824
821
822
822
822
826
826
826
822
820
818
817
815
816
816
816
817
818
819
816
816
814
812
811
808
810
810
810
813
812
812
812
812
810
810
809
811
811
811
813
813
815
816
818
821
819
822
820
823
824
831
835
841
845
849
853
856
859
863
864
867
869
873
876
880
882
884
886
885
883
882
880
883
881
882
882
881
881
882
880
881
878
876
872
875
874
871
874
875
875
875
873
871
869
870
866
866
865
867
867
866
866
866
870
866
865
864
865
864
863
865
865
866
868
866
867
865
866
863
859
860
862
863
865
867
868
868
867
866
866
863
861
862
864
866
868
872
874
875
877
880
882
882
881
883
882
882
883
885
889
890
892
893
893
890
887
882
880
874
875
875
876
875
875
873
868
864
858
855
856
854
854
854
856
856
853
854
850
851
849
849
851
849
852
852
853
853
852
853
852
852
850
851
855
853
857
864
872
883
899
918
941
965
986
1003
1013
1005
987
962
938
909
879
846
814
792
782
785
792
799
805
807
813
817
820
823
826
828
829
829
831
829
831
833
832
833
833
831
828
828
827
827
826
828
827
827
828
832
829
828
827
825
824
822
823
822
824
823
823
824
823
822
819
818
817
816
815
813
815
818
818
818
816
815
813
810
806
807
805
805
807
807
809
809
809
808
804
804
805
803
803
801
804
804
806
806
809
809
808
807
808
808
808
811
812
816
815
820
822
827
827
829
831
834
839
841
849
852
858
863
867
868
871
871
870
871
874
875
877
877
878
878
878
876
873
871
869
868
870
869
869
870
870
869
866
866
863
863
862
861
861
861
862
864
865
863
864
861
859
857
858
855
855
857
857
857
858
856
859
860
859
859
856
855
853
853
857
858
856
859
858
858
857
856
856
856
855
853
856
857
859
860
860
858
861
860
859
861
862
866
867
872
875
877
878
878
874
875
874
873
876
877
880
880
884
884
880
873
870
866
862
859
859
861
864
862
861
857
855
851
850
846
845
843
843
844
843
844
843
845
845
843
840
841
841
838
838
842
838
845
842
846
848
844
843
845
845
845
845
846
850
858
871
885
903
926
951
976
995
1003
994
971
942
911
873
835
800
775
770
773
779
785
794
797
801
806
812
815
819
820
824
823
823
822
821
820
821
821
823
825
823
823
821
819
816
816
816
816
816
817
817
821
820
819
815
813
812
810
811
813
814
816
816
815
815
814
810
809
808
806
805
805
807
808
807
811
808
807
802
802
799
797
798
796
796
798
797
800
800
799
799
797
796
796
797
798
800
801
802
806
803
805
805
808
811
811
817
821
827
831
836
840
843
848
849
852
854
856
859
862
865
867
871
869
870
868
871
868
868
866
864
867
867
865
866
867
865
865
862
861
856
855
856
855
855
857
856
858
857
855
854
853
849
849
849
852
849
854
852
852
850
849
847
846
845
843
845
846
848
851
850
851
851
851
849
848
845
845
847
846
848
850
849
850
850
853
853
853
852
854
855
858
861
864
868
870
869
871
870
868
866
866
868
870
873
874
875
877
871
866
861
858
856
855
858
856
856
855
850
847
845
843
840
839
834
832
835
833
835
837
841
841
840
839
838
837
833
834
835
837
837
841
843
844
844
842
843
844
849
856
872
890
913
941
967
988
1001
1000
984
960
929
901
871
838
806
786
779
780
783
789
791
796
795
799
801
807
811
817
821
821
822
822
821
819
816
816
814
815
820
822
821
824
823
822
820
819
818
816
816
818
818
818
818
818
817
814
815
811
811
810
811
811
812
810
811
815
813
812
809
807
806
804
805
801
803
805
805
805
804
804
802
802
800
798
797
797
795
796
797
798
799
798
795
795
794
795
794
796
800
801
802
806
807
806
808
808
808
810
809
813
818
825
827
839
843
847
849
850
851
857
860
860
868
870
871
869
869
869
866
865
866
866
866
865
864
866
864
865
864
862
861
860
859
858
856
853
855
855
856
858
857
856
857
856
855
852
852
850
850
852
852
852
851
849
849
847
848
848
849
850
850
851
851
851
848
847
846
845
846
846
843
846
845
849
851
851
851
850
850
847
847
846
844
850
853
857
861
861
863
862
862
861
860
858
860
861
864
867
870
871
871
868
866
861
855
849
849
851
855
855
854
852
846
842
837
834
830
830
829
829
830
832
832
830
832
829
828
829
829
829
830
830
827
830
829
832
831
831
829
827
827
829
830
831
833
841
852
864
883
904
931
954
978
987
983
964
936
907
871
827
793
774
768
773
775
778
779
783
787
793
799
805
807
809
807
805
806
803
802
803
805
804
807
806
807
805
803
803
804
799
798
800
800
801
802
799
799
799
797
795
796
793
794
797
800
801
801
799
801
797
792
791
790
791
789
789
791
791
792
794
794
790
788
785
785
780
781
780
781
781
783
780
779
778
778
777
779
779
779
782
784
782
785
786
787
784
790
789
788
791
795
799
802
810
815
817
820
824
825
828
830
832
837
841
842
846
847
850
850
849
847
846
844
842
841
840
843
847
848
846
847
844
843
841
838
835
837
837
839
841
841
838
838
836
834
832
833
832
834
834
835
836
837
834
832
834
831
831
832
830
832
834
833
835
836
835
835
832
833
833
833
834
833
838
840
840
842
843
842
844
845
847
848
847
851
851
851
851
853
854
856
859
859
862
862
859
857
858
858
857
858
857
855
852
847
847
845
842
842
840
837
838
840
837
835
833
833
828
827
827
828
831
830
833
835
834
832
831
831
829
830
830
831
834
835
835
841
841
845
856
869
884
905
929
955
980
998
1005
1001
981
952
924
893
861
827
796
776
773
782
790
794
792
788
788
790
796
802
807
812
815
817
816
818
816
816
815
813
812
813
812
810
811
811
812
816
815
815
812
811
812
809
806
807
806
807
808
812
810
809
808
804
804
803
803
802
804
802
803
806
803
804
802
800
799
797
795
795
797
796
798
799
797
795
794
792
791
786
789
789
791
792
793
797
796
795
792
796
795
795
794
799
801
803
807
809
813
815
816
817
822
825
826
830
834
836
845
848
853
853
856
860
858
859
860
863
865
866
867
867
868
866
863
863
861
860
855
857
860
862
861
863
863
862
861
858
855
854
852
854
853
855
857
857
858
857
855
855
853
852
852
852
853
854
854
855
856
853
853
850
851
851
851
851
851
854
855
857
855
853
855
854
854
852
853
851
853
855
857
855
857
855
856
857
858
859
861
861
866
867
872
871
871
869
869
870
869
868
871
872
873
876
875
873
868
865
859
858
856
856
856
855
851
850
849
849
846
845
843
838
838
835
836
833
834
837
835
839
840
838
836
834
832
832
831
835
835
834
838
839
842
841
841
841
844
852
863
878
897
924
951
976
998
1012
1010
991
961
929
893
855
822
799
789
789
796
804
810
815
817
817
815
813
811
813
813
817
818
816
817
815
815
810
812
811
809
813
815
812
811
814
813
810
806
807
807
808
807
810
811
813
810
808
807
806
804
802
803
801
801
803
804
803
802
800
798
797
795
792
793
794
796
796
795
796
795
794
791
787
786
784
784
783
783
786
787
789
788
787
786
786
787
786
786
787
790
791
794
797
798
800
802
803
804
805
808
812
818
822
827
832
835
840
844
847
848
849
851
854
857
859
865
864
865
864
863
864
862
856
859
857
858
858
859
859
857
857
857
856
853
851
851
851
851
853
853
854
853
850
850
850
849
845
845
843
843
843
845
846
847
847
846
843
841
840
841
844
845
846
847
847
848
846
847
845
846
845
846
849
851
853
855
856
858
859
856
856
854
855
857
861
863
866
869
870
871
868
865
861
857
855
854
851
851
850
849
845
843
843
842
837
833
830
829
828
830
830
832
831
831
832
831
830
827
826
826
824
826
825
827
831
833
831
832
829
828
828
828
834
841
854
869
890
916
946
972
992
1000
994
973
950
923
901
873
848
819
797
785
782
787
791
799
804
808
811
810
809
808
804
805
806
806
806
806
805
805
807
806
804
805
803
804
805
803
800
801
801
802
802
802
801
803
803
802
801
800
797
796
795
796
797
798
796
798
799
799
795
792
791
790
789
791
791
790
793
791
789
788
784
782
781
777
777
778
778
779
783
779
778
776
776
774
775
773
773
774
775
776
776
778
778
773
777
777
777
777
779
783
786
788
792
795
795
798
797
799
803
806
810
816
822
828
831
833
836
838
838
838
838
838
841
842
844
843
846
846
846
843
840
839
839
835
836
836
836
834
838
840
835
837
832
830
828
827
828
830
833
833
835
831
830
828
827
825
823
821
827
827
828
828
830
828
829
828
826
827
825
825
824
824
824
824
826
828
829
828
826
827
826
827
826
829
830
831
836
838
841
839
842
843
841
839
840
841
843
841
842
844
843
843
847
848
849
848
846
843
837
835
834
835
834
835
831
828
824
819
815
814
814
815
815
817
814
815
814
812
810
810
811
811
814
815
817
818
817
816
815
813
813
814
816
816
819
824
832
841
852
871
891
911
937
958
973
976
965
945
922
899
870
842
810
785
769
767
770
778
780
784
790
791
791
791
790
792
791
792
791
792
793
792
793
795
794
791
790
790
790
787
788
787
787
787
787
788
789
789
787
786
783
782
783
784
783
784
784
785
784
784
782
779
778
779
776
778
778
779
780
782
778
776
777
771
771
771
771
772
773
772
774
774
772
772
771
771
768
770
768
771
770
770
771
774
773
776
777
775
777
777
777
781
784
788
793
797
798
803
805
808
811
816
818
824
829
834
838
841
843
841
842
842
843
839
840
842
843
844
845
843
843
841
839
839
837
835
836
834
834
836
838
838
838
835
834
834
832
830
830
831
833
833
831
832
831
833
831
830
829
827
827
828
829
830
831
833
831
831
830
826
826
827
826
826
828
829
830
831
832
832
830
832
834
832
839
843
845
849
851
854
854
849
848
847
844
846
848
851
856
857
859
858
852
849
843
841
840
838
839
838
838
838
837
836
831
829
825
824
823
821
821
821
822
823
826
828
827
828
828
825
827
826
827
827
827
827
829
829
830
830
830
828
833
840
854
874
899
928
956
980
985
981
961
932
903
869
834
804
780
774
772
778
786
795
799
802
800
797
801
804
807
811
814
814
814
813
812
809
809
806
807
808
812
812
814
813
814
813
813
810
807
808
807
810
810
813
813
814
812
812
811
807
806
806
807
807
808
806
808
810
806
805
803
801
799
799
798
800
799
801
801
801
800
800
798
798
796
794
794
795
797
796
796
798
800
798
799
798
798
797
796
798
801
801
808
809
808
810
810
815
815
817
820
825
830
834
840
845
849
851
856
853
855
857
860
862
866
868
870
870
869
866
866
863
862
863
862
862
864
863
866
867
863
861
859
858
858
856
854
856
855
855
855
857
855
855
854
852
850
850
848
850
852
851
853
853
853
851
850
848
849
847
847
850
850
851
854
857
855
855
856
857
856
858
860
860
862
864
867
867
865
866
867
867
869
871
875
876
877
874
874
871
869
867
866
862
862
860
856
854
853
851
849
848
848
844
844
841
838
839
837
838
839
839
841
841
840
842
841
838
837
835
838
838
841
845
845
850
852
854
867
878
892
913
937
959
981
994
997
991
971
946
920
898
869
838
809
791
787
793
798
803
801
799
799
801
804
810
814
819
824
827
826
826
825
824
822
819
817
818
818
816
818
820
821
821
823
822
819
818
817
819
820
819
818
817
819
821
817
817
815
814
811
810
810
811
811
812
814
815
815
813
812
813
809
807
809
812
812
811
812
814
809
810
808
807
805
805
802
801
802
802
804
809
809
808
811
808
809
810
810
811
814
815
818
821
822
818
819
821
825
827
828
834
838
843
848
856
857
858
858
858
859
861
864
868
870
873
876
878
879
878
876
873
872
869
869
868
869
869
866
867
867
865
862
863
862
862
861
859
859
859
860
860
858
860
861
862
860
858
857
856
856
857
860
860
858
858
857
855
855
854
854
853
854
856
857
859
858
856
854
851
847
851
853
853
854
856
856
859
861
863
863
865
863
863
862
859
859
860
860
867
869
871
875
873
874
870
868
868
867
868
865
865
863
860
858
856
852
848
845
843
841
843
842
841
841
838
837
839
835
835
836
835
839
840
840
843
842
841
840
841
840
841
842
843
845
846
848
855
861
871
888
909
934
962
988
1007
1015
1011
992
967
937
907
875
839
803
777
765
770
781
792
793
794
790
794
799
804
810
816
819
819
821
821
822
823
821
821
823
821
819
819
818
817
820
822
821
822
821
823
821
819
818
818
819
817
818
819
817
819
819
818
814
815
812
810
812
811
813
812
815
819
817
817
815
814
811
809
806
805
805
807
807
811
809
808
806
806
805
805
804
806
804
810
810
810
811
811
810
809
809
810
812
814
817
821
822
827
827
831
834
834
838
844
845
851
856
861
867
872
875
873
875
877
878
880
881
882
883
885
883
884
881
883
882
881
879
880
878
876
879
879
878
882
880
880
880
878
877
875
873
874
876
876
876
876
874
877
878
874
871
872
872
872
874
874
875
877
876
878
875
876
874
875
874
873
874
877
879
880
883
880
879
877
877
876
877
881
884
888
888
890
890
891
888
886
888
887
889
893
897
901
903
905
904
903
900
897
893
889
889
885
887
888
887
887
884
880
876
873
872
869
865
866
867
869
868
870
869
869
868
866
866
865
863
864
865
869
869
872
870
870
870
869
869
866
868
869
875
889
903
923
950
979
1009
1033
1043
1034
1010
980
945
904
864
831
812
808
812
815
819
822
824
830
836
841
844
849
852
850
850
851
852
848
849
847
847
849
852
856
854
853
853
851
847
849
847
849
850
851
852
851
850
850
850
848
847
846
847
847
845
846
846
847
848
847
846
844
843
842
840
840
840
838
841
843
843
842
843
839
836
836
834
834
835
836
836
834
836
832
832
831
829
831
829
830
831
835
837
837
839
839
839
837
837
835
836
839
842
851
854
858
861
865
869
871
876
878
883
886
892
896
902
904
906
907
909
908
910
908
907
908
909
911
912
913
912
909
907
906
906
904
900
903
904
903
905
905
905
904
904
903
901
899
900
901
902
902
900
904
903
900
899
898
894
895
892
895
895
898
898
902
900
897
897
894
895
892
894
897
896
896
898
896
899
897
897
898
896
900
898
901
904
908
912
914
916
918
916
914
914
913
913
914
916
919
920
924
925
924
922
917
913
908
906
904
905
905
905
907
901
900
899
895
891
889
884
884
885
885
886
884
885
887
885
883
882
880
880
882
883
884
886
886
887
887
885
886
889
894
904
918
939
964
989
1019
1042
1058
1063
1052
1030
1000
970
941
908
878
853
843
841
842
851
856
862
866
867
866
866
865
863
865
865
866
866
866
865
862
860
856
856
860
864
864
865
863
862
860
860
858
856
856
857
859
859
860
859
857
856
854
853
851
847
851
849
849
849
848
847
845
843
843
840
840
840
838
839
838
838
840
839
840
836
833
834
831
832
833
834
832
834
834
835
833
833
831
832
831
831
834
836
839
840
842
846
847
848
850
851
852
857
862
865
870
878
885
891
895
899
902
900
902
903
905
907
911
910
914
913
912
911
910
907
906
905
904
905
906
906
908
908
906
900
902
902
899
900
900
901
900
899
899
900
901
901
899
898
896
896
893
894
896
896
896
898
897
892
892
894
893
894
894
894
897
896
896
898
900
900
897
897
893
893
895
898
901
904
907
911
910
909
913
914
912
914
913
915
915
914
917
919
922
921
918
916
914
911
906
905
901
900
902
901
897
897
895
892
889
887
886
886
885
885
887
888
884
882
880
882
879
879
880
