862
859
856
857
857
855
853
854
855
852
855
854
854
853
851
850
849
848
849
852
853
853
856
856
854
853
851
854
853
851
853
850
853
854
856
857
857
858
855
856
853
855
859
861
865
866
868
868
868
866
866
865
867
868
869
870
870
871
870
869
865
862
861
858
856
854
854
851
852
851
849
847
842
840
834
833
835
834
835
836
837
838
842
839
839
838
836
835
835
834
837
841
841
843
844
845
848
851
860
872
888
909
937
966
989
1006
1009
1000
976
943
915
884
847
813
785
772
774
783
791
792
789
788
787
789
796
801
810
813
815
819
819
819
817
814
813
815
813
813
814
814
815
816
816
815
814
815
811
810
808
808
807
809
810
808
809
812
812
809
806
805
805
803
803
806
806
807
806
808
806
806
803
802
800
798
798
798
799
800
799
802
799
798
798
794
793
793
792
795
798
799
801
801
799
798
799
803
803
805
806
809
810
811
811
817
816
819
822
824
826
830
835
840
845
849
856
861
863
864
864
868
863
867
865
869
871
873
873
872
869
869
868
866
865
863
861
863
863
863
862
864
863
862
858
859
855
854
855
856
855
856
856
858
856
857
855
854
852
851
851
851
851
852
853
856
855
855
854
852
852
850
849
850
852
852
854
856
857
857
856
855
856
853
852
854
856
855
856
859
861
864
864
861
862
864
866
867
868
871
871
871
870
872
873
874
874
875
875
870
867
866
865
866
863
862
861
860
856
853
850
848
848
846
845
843
845
844
842
842
840
840
837
839
839
840
842
843
842
841
839
835
837
838
839
842
846
846
847
850
849
854
865
878
896
921
952
983
1009
1017
1013
990
959
923
882
837
798
777
773
778
784
788
792
798
803
805
810
816
817
820
817
816
819
819
821
822
821
823
819
817
816
816
817
818
818
817
819
818
818
818
818
816
814
813
812
810
814
814
816
815
815
814
809
810
808
808
806
807
808
810
810
813
813
811
812
810
805
807
805
806
808
808
809
811
808
805
803
802
800
802
800
803
805
806
807
809
811
811
811
810
813
816
812
815
818
823
825
828
828
830
833
836
839
841
844
847
853
858
861
866
867
870
871
873
871
874
875
877
879
878
880
881
878
876
875
873
876
873
872
870
870
872
871
870
871
872
870
868
867
867
864
863
865
864
866
866
866
865
863
861
859
859
856
859
860
861
863
865
861
859
860
856
859
857
857
855
857
859
861
863
861
861
860
861
862
863
863
866
869
872
874
876
873
873
873
874
876
877
879
882
883
885
884
883
881
877
873
872
870
867
866
864
864
862
863
862
858
856
851
849
847
846
846
845
846
847
849
849
850
848
847
846
844
845
843
843
845
847
850
852
850
851
851
854
863
876
890
911
938
968
997
1021
1034
1029
1015
986
958
927
895
860
827
800
788
789
792
797
800
805
811
813
816
820
822
825
829
831
831
830
827
827
826
826
824
824
830
828
830
831
830
827
826
825
824
823
823
821
823
826
825
827
827
825
824
821
821
820
817
818
819
820
820
822
821
818
816
814
811
813
809
810
807
811
810
812
811
811
808
808
806
804
800
802
801
799
802
804
802
802
800
799
800
801
799
800
804
805
808
809
810
810
810
810
810
813
814
816
819
825
832
836
838
845
848
851
852
855
857
858
862
869
875
878
878
881
879
880
881
880
876
877
880
880
882
883
884
882
880
877
876
873
875
873
875
874
873
877
876
872
873
870
870
867
867
868
867
867
871
871
868
868
869
867
867
867
862
862
865
866
868
869
869
868
866
867
867
866
867
866
867
870
871
874
871
873
873
872
871
868
867
871
875
876
879
883
884
888
889
889
888
889
885
886
886
890
890
892
892
896
896
894
894
890
883
878
877
876
881
881
878
878
874
868
863
861
860
859
860
861
858
860
858
859
860
858
857
857
856
853
858
858
859
862
860
859
859
856
855
853
856
853
856
859
858
866
875
885
900
917
943
970
997
1020
1036
1039
1021
999
971
941
913
881
848
823
809
807
809
819
828
837
841
844
842
839
834
832
832
835
837
838
841
841
841
840
839
836
836
834
832
833
834
834
836
837
837
836
835
834
834
832
832
831
833
834
833
834
834
833
830
829
826
825
822
825
825
826
825
826
826
826
824
821
819
820
818
818
818
820
822
822
819
818
815
811
810
811
812
813
814
817
819
818
818
820
820
820
819
819
820
825
827
829
833
838
841
844
849
851
855
857
860
865
872
876
880
885
888
890
889
890
891
892
892
891
892
893
893
895
894
892
891
889
889
885
884
881
884
884
885
889
886
886
884
881
880
879
876
877
877
878
878
880
880
878
878
876
874
874
875
874
874
875
878
877
878
874
874
872
871
871
868
870
872
873
874
874
873
872
871
870
870
868
869
869
875
876
882
885
887
890
891
888
884
886
883
885
885
888
892
894
896
899
898
898
891
887
883
879
876
876
880
881
882
880
873
869
867
861
861
858
860
860
860
859
860
860
859
857
856
855
853
857
858
857
860
860
860
859
860
858
858
855
855
855
861
869
881
900
924
955
980
1010
1026
1027
1013
985
962
935
907
877
846
823
809
805
810
815
824
830
834
838
838
836
834
832
833
834
835
836
834
833
834
835
835
836
835
835
835
835
834
829
831
831
832
832
833
835
834
833
832
832
832
829
828
827
828
829
829
830
831
829
827
823
823
820
820
818
819
818
820
817
820
817
816
816
813
810
812
809
811
811
811
812
813
811
810
807
810
806
808
809
808
811
813
816
818
817
820
820
818
820
819
821
824
828
833
836
841
842
849
851
853
855
863
866
870
871
875
882
881
886
884
884
882
882
882
881
882
883
881
883
884
881
882
880
876
876
874
873
874
874
876
873
874
874
872
870
869
867
867
868
869
868
869
868
871
870
867
866
863
863
863
862
863
866
866
867
867
865
864
863
865
864
863
864
864
864
865
869
867
867
867
866
867
866
869
870
875
879
883
887
887
889
886
885
883
882
881
882
884
886
890
895
894
891
886
880
875
871
871
869
871
872
872
870
867
862
857
854
853
851
849
850
849
849
852
850
850
851
852
852
850
850
847
848
851
850
852
852
854
854
852
853
852
852
857
864
877
892
912
937
965
990
1010
1018
1014
994
967
940
914
886
854
825
804
794
793
796
799
804
807
811
815
820
821
824
830
832
832
829
829
830
824
826
822
827
829
832
830
831
827
826
824
823
825
823
825
826
825
828
827
827
825
823
824
819
817
819
820
822
821
825
821
820
817
816
816
816
815
813
816
815
816
817
814
815
815
813
809
810
812
809
810
810
814
813
813
812
813
808
811
810
810
812
812
814
813
818
821
822
822
824
826
823
825
830
834
839
842
849
856
858
864
866
867
869
872
870
874
877
878
883
885
881
880
880
879
876
876
875
875
875
873
874
874
872
871
867
867
865
863
862
862
864
865
865
865
865
864
863
859
858
859
857
858
857
860
861
860
860
855
855
855
852
849
851
849
855
854
855
853
855
853
853
849
851
851
852
854
856
856
857
858
859
858
857
856
856
861
863
865
868
872
875
876
874
873
872
870
869
870
870
876
879
882
884
886
879
873
870
865
864
864
865
867
869
866
861
859
855
852
849
847
844
842
844
842
842
844
847
846
845
844
842
842
842
842
840
841
841
842
845
845
847
845
844
841
839
840
839
842
846
856
868
884
904
926
955
982
1001
1010
1002
982
954
926
899
869
835
807
788
784
785
793
798
795
794
797
798
803
811
816
819
821
822
820
819
819
818
821
822
820
819
819
820
819
819
817
816
815
815
815
816
817
819
820
818
818
817
814
816
814
817
815
821
819
816
816
811
809
808
808
808
810
811
811
810
809
810
808
808
806
805
805
806
806
806
806
808
810
807
805
805
802
799
801
798
800
801
807
807
810
811
810
811
810
811
811
814
815
815
817
821
823
827
827
832
833
834
839
840
842
851
852
855
862
862
863
866
865
866
866
868
869
870
871
868
871
869
870
868
865
864
863
864
865
864
864
864
865
862
859
859
856
854
852
853
853
854
853
854
855
856
854
851
850
847
847
847
845
845
846
849
849
848
847
846
843
844
841
842
842
843
845
845
850
850
849
850
847
845
847
845
844
844
845
847
850
851
851
853
854
853
854
856
859
860
861
860
861
862
861
861
864
866
864
864
864
865
862
861
861
859
855
851
847
846
844
842
840
841
838
839
838
835
834
830
829
828
827
827
828
828
829
832
835
830
832
829
826
825
826
824
825
831
831
835
841
846
860
875
896
919
947
972
993
1006
1003
989
962
932
903
872
835
798
773
763
768
778
783
784
781
779
782
786
791
797
802
806
806
806
807
809
808
803
803
804
804
802
802
802
800
802
801
804
802
803
804
805
803
800
800
800
799
802
802
803
805
803
800
798
797
796
793
794
796
798
797
800
802
799
799
795
794
792
790
792
791
790
792
792
794
794
792
789
789
789
787
788
788
791
795
795
798
795
797
794
793
795
794
796
799
802
804
805
806
808
809
812
816
816
819
823
825
830
838
843
850
852
856
855
855
855
857
855
857
860
860
864
864
864
862
859
859
857
857
855
856
854
853
855
855
852
850
847
850
848
849
847
847
849
848
847
850
847
848
844
844
845
843
843
844
845
848
850
851
848
847
845
843
840
839
838
840
842
847
848
850
849
846
845
843
844
844
843
843
843
844
845
847
850
849
851
853
853
856
857
858
863
862
863
864
865
866
864
864
862
862
864
867
868
870
870
868
867
864
859
857
856
856
855
856
855
852
849
849
846
843
841
839
837
838
836
837
838
838
841
841
842
842
840
840
838
839
837
838
840
843
846
845
845
846
843
842
842
844
850
858
872
892
914
947
977
1004
1025
1030
1013
987
956
924
887
844
810
788
783
788
797
799
800
798
797
800
808
816
824
831
831
831
831
829
827
825
823
823
826
827
829
832
832
832
831
829
827
826
827
827
828
831
829
830
831
829
828
828
826
828
826
827
824
827
829
829
830
827
825
822
824
822
823
823
824
826
826
828
826
823
824
823
821
820
819
819
817
819
821
822
823
822
820
818
820
819
820
819
825
827
828
834
834
834
832
835
835
837
838
838
844
852
854
862
866
866
868
873
876
878
882
884
888
892
894
898
899
901
899
899
900
898
896
897
898
896
896
899
897
893
892
891
888
889
886
886
889
892
891
894
891
890
887
887
886
885
883
884
884
884
885
886
886
886
884
882
880
882
879
880
881
883
884
886
885
884
884
881
882
880
880
879
881
883
883
886
883
883
884
880
883
882
882
884
888
893
897
899
900
898
897
895
898
896
895
897
899
903
906
907
906
902
898
893
885
883
883
882
882
884
887
887
881
878
874
872
870
864
864
862
864
865
866
868
867
867
865
866
863
862
862
864
864
867
866
867
868
868
866
866
866
874
881
896
915
939
968
999
1027
1045
1051
1041
1014
984
948
917
883
851
828
815
813
813
820
826
835
838
839
843
841
841
841
843
844
843
844
842
842
840
839
839
840
839
839
842
840
840
839
837
836
835
833
834
835
835
835
838
836
836
833
833
831
830
828
829
831
831
829
830
827
827
825
821
822
820
820
818
818
819
821
820
821
820
818
815
813
811
807
808
810
812
813
813
813
813
811
810
810
810
807
807
811
814
815
818
817
817
818
820
820
821
823
825
830
836
839
846
851
852
859
863
867
868
874
877
878
884
886
888
888
890
889
890
886
886
884
885
884
887
887
886
885
884
884
880
881
880
879
878
879
880
883
880
881
881
880
875
875
872
874
875
874
875
876
878
878
874
876
874
874
872
870
868
871
871
876
876
875
873
872
871
869
867
867
868
870
870
870
870
870
871
872
873
871
871
875
880
882
887
890
892
893
892
891
887
885
883
885
887
890
894
897
898
895
889
885
879
875
875
871
874
875
876
875
875
872
866
859
858
855
853
851
852
850
851
853
854
857
858
856
856
855
855
853
854
856
857
858
857
861
859
860
857
857
855
856
857
863
869
884
900
917
943
970
999
1022
1032
1024
1002
972
937
894
857
827
806
801
802
810
818
827
830
835
833
832
827
830
831
832
832
832
832
831
831
830
833
834
835
835
834
831
831
830
827
826
825
827
825
829
829
829
830
829
826
822
822
820
821
821
822
824
823
822
821
820
818
819
815
815
814
814
815
815
816
816
815
813
813
811
809
806
806
806
807
805
806
806
805
804
802
802
800
801
800
805
806
808
811
810
811
810
809
807
810
811
814
819
826
829
836
841
845
849
853
855
859
861
865
871
874
877
879
880
881
878
875
880
878
878
877
879
879
880
878
880
879
878
875
873
868
868
868
868
870
869
870
869
868
867
862
864
863
862
862
863
863
862
864
866
864
866
863
862
860
860
858
859
860
860
863
863
865
861
861
859
858
858
858
858
858
860
862
862
861
862
864
863
864
865
868
875
877
880
882
883
884
880
879
878
875
877
878
881
885
888
889
887
880
877
871
868
866
865
863
866
868
865
865
861
856
852
847
845
842
843
842
844
845
845
846
846
845
847
846
846
841
844
844
846
847
850
852
850
851
848
847
852
860
868
883
904
931
961
992
1013
1023
1017
998
970
938
912
881
849
822
801
793
794
796
804
807
811
813
816
816
817
820
820
828
829
831
829
826
824
823
824
822
823
823
825
827
825
824
823
823
821
821
819
820
820
821
819
820
823
824
821
817
815
816
815
817
816
816
818
817
816
814
814
812
812
811
809
809
808
807
808
810
809
809
809
807
803
803
802
802
803
803
803
805
806
807
807
805
805
805
805
806
808
810
812
814
815
817
818
818
821
820
821
825
830
836
839
845
849
853
858
860
862
863
869
872
876
877
881
883
884
882
881
878
877
875
873
875
875
875
874
875
876
872
871
871
868
867
868
867
867
866
868
868
866
867
865
865
863
860
860
860
861
860
861
862
863
863
862
863
860
859
859
860
860
861
861
863
864
862
863
861
858
858
856
856
859
861
862
864
864
863
863
864
864
863
865
869
871
879
881
883
885
883
884
881
878
878
876
881
885
887
889
888
886
882
877
871
869
869
865
868
868
870
868
867
864
860
856
853
851
849
848
850
848
850
851
853
852
851
849
848
848
844
845
845
845
849
849
853
852
850
851
850
850
853
860
869
883
900
924
948
979
1002
1015
1013
994
966
934
894
858
818
794
781
781
786
793
803
811
814
819
818
822
823
827
830
831
829
828
828
827
824
825
823
823
826
822
825
824
827
826
824
823
822
821
822
821
823
823
825
823
824
825
822
820
819
818
816
818
818
818
820
821
819
819
815
817
815
810
811
812
812
812
815
812
811
810
808
808
808
806
805
804
805
805
802
804
807
808
806
803
806
806
806
810
812
816
816
819
820
821
821
818
822
826
828
834
838
840
846
851
854
859
862
864
867
867
874
874
877
881
884
885
885
884
882
882
881
879
878
878
878
878
879
876
875
875
872
873
870
870
867
870
868
868
871
869
869
868
865
866
864
863
862
863
865
865
865
868
864
864
864
863
861
860
859
859
861
862
860
859
861
861
860
861
858
858
860
861
862
863
863
866
864
865
864
865
864
864
867
872
875
880
883
885
886
886
885
883
884
882
881
883
886
889
891
895
890
889
884
880
878
873
869
871
873
873
875
875
871
868
866
861
857
853
852
851
852
851
854
852
852
852
851
851
851
851
846
848
849
851
855
856
856
855
852
849
848
848
850
859
866
878
895
911
932
959
982
1002
1016
1012
997
970
944
919
892
862
829
800
787
784
786
790
796
805
810
814
820
825
827
829
831
830
834
834
833
832
835
835
837
839
837
836
833
832
831
831
830
832
831
832
832
835
835
828
827
827
828
825
826
827
826
827
829
827
827
825
823
821
819
819
821
821
821
824
824
825
824
820
821
818
816
816
814
815
817
818
819
819
817
814
816
813
812
811
811
811
811
814
818
819
818
817
819
816
817
817
819
822
825
827
832
835
837
839
840
844
844
850
852
854
860
864
870
871
874
877
880
882
885
884
884
886
888
886
888
887
885
881
883
880
881
880
878
879
877
878
878
878
880
879
876
874
869
872
870
871
869
872
869
873
872
872
869
868
868
865
866
867
868
871
869
871
869
868
867
866
864
863
864
864
865
863
865
864
865
864
865
866
866
867
864
865
866
867
869
871
872
871
873
874
873
874
877
879
881
881
886
889
890
889
887
885
886
886
889
891
892
893
