817
818
815
820
820
823
829
831
836
836
841
843
845
848
851
854
860
865
869
877
884
886
887
888
888
887
885
885
885
883
884
888
887
887
885
882
880
877
878
878
878
879
878
879
880
877
874
873
873
874
873
872
871
872
873
874
877
875
874
871
869
865
865
866
865
867
869
868
870
872
868
870
868
865
864
864
866
865
866
869
868
869
870
866
866
867
865
864
866
868
871
871
873
873
874
874
877
880
881
882
883
881
885
887
887
888
887
891
892
891
889
883
882
879
876
875
876
876
876
875
870
866
862
859
855
856
856
855
856
858
854
855
853
850
848
847
848
847
851
852
852
852
852
853
851
851
849
849
850
851
853
855
856
860
865
872
884
900
920
947
972
996
1014
1017
1003
976
943
904
864
826
798
788
787
792
797
801
808
809
815
818
822
824
825
826
826
830
831
832
830
832
828
828
826
823
823
823
824
824
825
824
827
828
826
823
824
822
820
820
823
823
821
824
824
823
820
820
816
815
816
815
815
813
815
814
815
815
816
813
813
812
810
812
811
812
812
812
811
811
808
807
806
804
801
804
803
803
806
806
807
807
804
807
808
808
808
809
811
812
817
819
824
825
828
831
833
835
839
843
846
848
854
861
865
867
868
872
871
871
872
875
875
876
879
879
876
878
878
875
874
870
871
869
869
868
869
869
870
868
868
866
862
861
860
861
862
863
861
860
864
865
861
860
857
857
857
858
859
859
861
862
863
860
859
860
859
857
856
853
853
853
855
858
860
858
860
861
858
858
858
856
856
858
856
858
860
861
863
862
862
860
859
861
865
867
870
873
875
876
874
873
871
869
868
870
874
878
881
883
882
880
877
873
869
864
861
861
865
865
866
864
862
860
853
850
842
842
840
839
840
842
843
841
845
847
846
846
843
847
843
844
845
844
844
847
847
850
849
850
849
848
850
854
864
875
894
916
942
971
994
1006
1007
995
971
944
919
895
865
832
806
794
792
798
801
799
799
798
798
805
811
816
823
826
826
826
823
821
819
818
818
819
822
823
825
825
825
825
825
822
822
819
820
819
817
819
819
819
817
812
815
812
812
812
812
812
816
817
818
816
815
815
810
811
807
806
807
809
809
810
810
810
809
807
803
803
801
801
799
803
805
806
806
806
806
806
800
800
798
796
798
797
800
806
808
811
812
814
814
816
819
820
825
828
834
839
842
844
849
852
853
855
856
858
862
863
866
869
871
871
869
869
866
865
866
863
865
865
864
864
863
865
861
859
858
859
856
856
855
853
856
854
857
860
861
861
860
855
853
851
852
850
850
853
856
857
856
854
854
852
852
850
851
851
853
853
854
850
851
853
854
852
851
853
852
855
856
860
858
861
858
862
863
864
864
863
864
867
866
868
871
871
872
873
877
875
873
871
869
866
865
864
866
866
866
862
861
859
855
853
851
850
848
848
847
844
847
845
841
841
841
841
840
841
845
846
844
845
844
845
844
845
843
844
844
848
851
852
856
862
872
883
901
925
949
976
998
1005
1001
982
955
921
887
851
816
792
784
789
797
803
805
804
806
809
813
818
821
825
828
826
828
831
827
832
831
831
831
830
829
830
828
826
827
827
829
828
826
827
829
828
826
824
824
827
825
824
824
826
827
828
826
827
825
822
822
820
819
821
821
821
825
826
824
823
820
819
816
816
816
817
818
819
820
818
818
815
814
813
813
812
813
813
812
813
813
817
816
816
816
817
815
812
812
814
816
818
823
824
829
830
832
835
837
838
840
844
852
854
860
867
870
872
874
877
877
878
878
881
886
886
887
888
889
889
889
887
887
885
886
886
885
887
887
889
887
885
884
882
880
879
879
880
880
880
880
880
881
881
880
879
878
877
875
877
877
879
877
878
878
877
878
877
878
876
876
876
878
880
882
883
882
881
880
879
876
873
875
876
879
880
883
883
883
884
880
880
879
880
877
878
883
885
888
892
892
890
888
892
892
894
895
896
895
898
899
898
899
900
901
902
902
902
898
897
896
892
892
890
890
891
888
888
885
880
878
875
874
876
872
872
874
872
872
871
872
871
869
870
872
873
873
872
872
873
874
873
871
870
870
872
872
875
878
881
885
890
898
911
928
946
970
994
1015
1031
1038
1030
1011
983
956
929
901
869
846
827
823
827
831
834
834
836
839
840
842
843
844
848
853
855
856
858
856
857
856
856
852
853
852
854
855
855
856
858
857
851
851
851
847
848
846
848
848
850
851
851
851
849
847
847
846
843
845
843
844
845
846
847
845
843
842
840
838
837
837
836
837
836
839
840
840
838
837
835
833
832
831
828
830
832
831
836
834
833
834
832
831
831
831
834
835
838
840
845
848
849
852
854
856
859
864
869
875
877
887
891
894
895
899
899
899
901
900
900
903
907
905
908
907
906
905
904
901
901
900
902
901
901
901
904
902
901
899
899
898
896
898
897
897
899
899
899
900
899
899
897
896
895
894
896
895
897
897
900
898
896
896
893
892
891
890
891
890
892
894
896
895
895
895
895
896
896
895
894
895
898
903
908
908
909
908
906
905
904
903
909
915
915
918
917
915
912
908
906
902
901
898
898
897
898
897
894
892
890
887
884
883
880
877
876
879
879
880
880
881
879
881
876
874
875
875
877
878
882
882
884
883
884
884
882
882
884
883
889
896
912
930
952
977
1002
1026
1040
1042
1029
1002
974
947
917
888
860
844
835
839
843
853
857
861
863
864
863
863
862
858
858
856
858
858
857
856
855
855
857
859
857
859
857
857
855
854
854
854
855
855
855
855
857
856
851
853
853
850
849
849
846
851
851
850
850
848
848
847
845
842
841
839
838
839
840
840
840
842
838
838
835
833
832
830
830
831
831
830
832
830
829
829
825
822
822
821
821
825
827
832
832
831
834
834
831
834
836
839
839
847
851
855
860
862
866
869
872
876
881
883
887
891
895
898
902
904
905
905
903
902
903
902
901
904
906
907
908
907
907
903
902
901
901
899
900
900
900
903
903
900
900
899
896
895
892
892
890
894
895
894
895
894
894
893
893
890
889
890
889
892
891
893
897
897
895
894
892
890
888
887
890
891
892
892
893
893
895
894
894
891
893
891
893
896
897
901
904
905
905
906
908
909
908
907
908
908
907
911
911
914
916
916
913
914
913
907
904
901
901
898
897
898
897
896
892
888
885
883
880
880
881
879
880
883
880
880
878
878
875
878
877
879
882
881
881
882
882
882
879
879
878
879
880
883
886
895
906
920
936
957
982
1004
1024
1036
1036
1023
1003
979
953
925
894
866
847
838
838
842
847
854
859
862
864
863
860
856
853
853
855
855
855
858
858
857
859
858
858
856
854
853
848
847
848
849
849
851
850
853
850
850
850
848
847
843
845
848
845
846
848
846
844
845
842
840
839
840
839
838
839
840
838
839
838
837
835
835
834
833
832
832
834
835
835
832
831
828
829
826
826
826
825
826
827
829
831
830
833
830
830
830
832
830
832
834
837
840
845
846
848
848
853
855
857
861
867
871
878
884
889
893
896
898
899
899
894
895
900
903
903
905
906
903
901
902
901
898
898
897
896
895
894
897
897
895
893
893
893
892
890
885
887
887
888
890
889
890
888
886
886
887
884
885
883
883
885
886
887
887
887
886
883
883
882
883
882
884
883
886
889
888
885
886
882
882
882
882
883
885
888
889
890
891
892
895
897
899
899
901
900
901
902
900
904
903
901
903
902
906
904
904
902
900
896
895
893
893
891
890
888
886
887
883
880
877
877
875
874
870
872
869
866
865
866
865
865
864
866
866
866
868
867
867
869
868
864
866
866
866
871
871
875
877
874
874
875
879
886
898
913
935
962
987
1014
1030
1030
1020
995
965
935
903
868
843
828
824
825
834
840
846
848
846
841
839
840
843
847
845
848
850
844
844
845
840
839
838
838
841
842
842
843
846
845
843
842
840
839
839
837
840
840
841
841
843
842
838
835
835
830
831
834
832
835
833
834
834
832
831
828
826
824
823
824
825
826
826
825
826
826
824
822
821
818
818
815
816
819
818
817
817
817
817
817
814
814
813
814
814
819
819
822
824
824
822
825
826
825
826
829
834
839
842
847
848
851
855
857
863
865
868
872
877
882
884
887
889
889
891
890
890
889
888
888
889
888
889
889
891
887
888
886
883
882
880
880
881
884
882
883
884
883
880
877
874
871
871
873
874
874
874
875
874
874
873
872
870
868
867
868
869
870
872
873
871
871
868
867
866
864
867
865
866
868
871
871
872
873
871
869
869
868
867
871
875
878
882
885
888
890
889
889
887
885
884
885
886
887
890
894
899
897
897
892
885
879
878
874
876
877
878
879
879
877
872
867
861
857
857
855
856
856
857
857
853
856
854
855
853
851
851
853
852
854
856
857
859
857
856
857
856
856
860
865
875
889
909
931
959
984
1005
1018
1017
1003
977
951
923
896
866
835
816
805
806
808
812
815
819
820
823
826
828
830
834
834
834
835
832
829
829
831
832
828
832
832
831
832
833
830
830
826
826
826
827
829
830
830
827
828
827
826
826
822
820
821
822
822
822
823
823
822
820
817
817
815
814
813
816
814
816
816
816
815
813
811
808
806
805
805
805
808
809
810
811
811
810
807
808
806
806
808
809
813
813
815
815
818
818
820
825
822
822
825
831
833
837
841
848
849
853
854
856
859
861
865
871
876
878
881
884
885
884
883
882
880
880
877
878
877
879
879
879
877
877
874
873
871
871
872
871
872
871
872
873
867
869
867
866
865
865
863
864
865
865
865
866
866
866
867
865
863
862
862
863
861
862
863
865
862
861
860
861
860
860
859
860
863
864
864
865
865
863
863
862
861
862
866
871
875
878
882
885
880
880
883
882
881
880
883
883
885
888
891
890
887
879
876
873
872
871
871
873
873
870
870
867
865
859
855
853
851
849
848
848
849
849
849
851
850
852
851
849
849
849
849
851
853
855
854
854
857
856
854
855
852
851
855
862
874
887
906
927
953
972
996
1009
1012
998
976
951
921
893
856
826
804
795
795
796
801
804
810
817
824
829
833
835
836
836
834
832
832
831
831
832
834
835
835
834
831
830
834
833
831
830
830
831
831
833
834
834
834
832
830
829
826
825
824
826
827
829
830
830
829
827
826
824
820
818
818
819
822
823
822
822
822
820
820
818
816
813
815
812
813
813
816
815
815
815
814
813
811
811
814
814
816
819
821
824
825
827
826
828
829
831
835
839
842
846
853
854
858
863
864
870
872
875
877
880
883
886
889
891
893
892
888
888
885
883
882
883
884
883
886
884
883
882
879
878
876
875
877
875
876
872
875
875
874
874
874
872
869
867
866
865
866
866
868
867
868
868
866
866
864
863
862
861
861
865
865
865
869
868
865
864
863
862
863
866
866
865
868
869
868
868
868
867
867
867
873
875
879
882
884
886
886
885
884
883
882
881
880
886
887
890
894
895
894
891
887
877
873
873
872
875
876
873
874
872
871
867
859
857
856
854
852
852
854
858
856
858
858
856
856
853
854
852
852
853
855
857
857
859
859
859
856
856
858
862
869
881
900
918
939
965
987
1006
1016
1010
992
968
941
916
890
858
828
808
796
797
800
803
807
810
811
815
821
825
830
835
838
838
837
835
832
830
830
831
832
833
836
836
835
834
835
835
833
832
828
830
830
832
834
835
836
832
832
831
829
827
825
827
827
827
827
828
829
827
827
824
824
821
821
819
821
823
823
824
823
822
820
819
816
814
813
815
815
817
817
817
816
816
817
811
814
815
813
811
811
814
817
816
821
822
822
825
823
825
825
827
829
833
835
840
842
846
844
849
851
856
860
862
866
867
873
877
881
884
885
884
884
885
884
883
883
884
887
889
886
885
884
880
880
879
877
878
878
876
878
877
876
876
873
871
868
869
867
868
864
868
870
873
873
874
871
869
867
864
864
863
864
862
863
868
867
865
864
863
864
862
860
862
862
864
865
864
866
865
865
862
862
860
858
859
859
860
861
863
865
866
868
868
870
869
872
872
876
876
879
881
882
880
878
877
876
878
881
885
884
885
881
879
873
868
866
866
866
867
866
864
862
859
857
856
853
850
848
844
843
840
840
841
846
847
846
845
845
843
842
842
843
842
840
839
842
843
843
844
846
845
846
846
851
857
868
882
901
926
951
973
994
1004
996
983
959
932
906
882
855
824
798
782
778
780
785
791
794
799
802
810
815
820
822
825
826
820
820
817
816
812
814
817
816
818
820
821
822
819
819
817
815
815
812
815
814
814
813
814
814
813
814
813
810
811
809
814
812
813
810
810
808
806
804
801
798
803
799
799
796
801
801
802
799
799
797
795
795
794
792
789
790
790
791
795
794
795
793
793
790
790
793
794
795
798
802
805
806
806
807
808
809
813
816
819
824
830
833
836
838
840
846
846
846
852
852
854
856
859
861
863
863
864
861
860
857
858
857
854
853
855
852
854
853
851
849
847
847
844
842
842
842
843
846
852
850
850
847
845
840
838
839
837
838
840
842
844
841
837
838
835
836
835
835
835
837
838
838
838
838
835
836
835
834
834
834
835
833
837
838
841
841
842
845
847
849
852
854
856
854
852
857
856
858
856
855
855
854
859
859
859
858
858
855
852
849
845
843
846
842
844
842
836
837
835
833
832
830
830
828
824
821
820
819
819
820
820
822
825
826
825
824
826
823
821
821
822
822
823
826
829
831
830
836
841
851
861
878
899
924
949
970
981
982
968
943
916
893
868
838
811
782
764
760
765
772
774
780
785
789
789
793
798
798
801
806
810
810
807
802
803
801
802
802
801
802
804
807
804
805
806
804
803
802
797
796
800
802
802
804
803
804
803
801
799
798
797
797
795
795
796
797
797
798
797
794
791
790
788
787
787
787
787
787
790
791
787
786
785
783
783
778
779
782
785
786
789
793
791
792
787
789
789
789
791
795
796
799
802
804
804
806
809
808
812
814
818
822
827
834
837
843
843
845
847
848
851
850
853
854
855
855
856
856
856
857
856
852
850
852
852
850
849
847
850
849
848
845
845
844
843
842
841
842
843
842
843
844
843
840
839
836
836
834
833
834
838
842
841
838
840
839
838
833
834
833
834
836
836
837
838
841
839
838
837
838
835
836
837
837
839
840
842
841
844
846
847
846
850
853
854
855
856
856
855
855
856
854
853
855
856
860
861
858
858
854
850
848
846
845
844
845
840
835
832
831
828
827
828
826
823
824
823
821
822
824
821
821
827
827
827
828
828
827
826
825
823
823
822
825
828
830
832
833
838
845
855
868
885
906
933
954
972
980
975
955
929
899
873
842
810
784
770
766
769
774
779
784
789
791
793
793
798
801
806
808
809
804
806
806
805
805
801
800
798
798
800
799
803
804
806
807
803
802
805
803
800
801
799
800
802
802
802
802
801
802
800
798
797
796
794
797
798
797
796
796
796
795
791
790
790
791
790
790
792
792
795
795
795
792
791
792
788
788
790
793
796
794
798
799
801
802
803
803
804
808
810
812
815
823
827
832
837
839
840
844
844
847
849
856
859
860
864
865
865
865
863
862
860
859
861
862
863
864
864
863
861
861
860
858
856
855
856
852
853
853
855
853
852
851
849
848
850
849
849
847
847
850
851
852
851
849
849
846
846
844
845
847
847
849
853
849
851
850
849
848
845
845
845
851
852
854
855
856
856
853
855
856
855
858
860
860
865
868
869
875
875
874
873
871
870
871
873
876
879
882
883
882
877
873
868
863
859
860
861
863
863
862
858
853
850
847
842
841
838
839
837
841
842
843
845
844
843
840
838
837
835
835
838
839
841
843
846
847
847
844
843
841
838
842
847
859
875
893
917
946
969
987
994
984
968
940
915
893
867
841
818
802
793
795
797
798
792
792
790
797
802
808
816
823
827
824
821
817
820
818
818
818
821
819
820
822
821
820
820
817
816
817
816
819
818
820
823
825
823
823
822
822
821
820
820
821
822
821
818
820
819
818
815
815
813
811
812
810
811
811
813
812
812
814
810
811
808
806
806
806
808
806
807
809
809
808
808
806
805
806
810
811
813
815
816
817
817
818
819
818
818
821
826
829
830
835
840
841
846
848
850
852
855
855
859
862
868
871
870
875
876
878
876
878
878
879
878
876
876
874
876
875
872
869
866
864
862
862
862
861
860
862
862
863
