801
800
800
801
803
804
805
807
807
808
806
806
806
808
810
811
814
815
819
818
823
825
825
830
835
838
843
851
858
862
867
871
873
874
876
877
876
877
878
880
881
882
883
880
876
875
877
872
872
869
865
870
870
870
873
873
870
872
868
866
864
864
864
864
866
866
868
866
866
863
861
861
859
857
860
860
864
864
865
863
862
859
860
858
859
857
858
858
859
860
859
860
859
860
859
858
856
853
856
858
861
861
863
862
864
862
862
863
863
865
867
871
876
876
881
880
878
876
875
873
874
877
880
883
884
885
883
881
876
871
869
868
865
865
864
867
865
865
863
859
854
851
849
847
846
843
846
848
849
848
850
851
850
848
847
845
844
846
847
848
849
849
849
851
848
849
849
847
846
850
852
867
881
900
927
953
977
999
1000
988
961
931
897
862
826
798
786
784
787
791
795
798
803
807
809
814
819
824
830
831
829
828
826
827
824
824
824
825
828
828
832
830
826
826
826
824
825
823
824
823
827
826
829
825
823
825
821
821
819
818
818
819
820
820
821
819
820
818
815
811
810
809
809
811
809
809
814
812
809
809
807
803
802
803
803
804
806
808
807
807
804
803
803
803
801
800
806
805
809
811
814
814
814
814
815
813
816
820
825
829
836
838
843
847
852
854
857
859
863
866
868
872
874
876
879
878
876
877
874
874
871
869
869
871
871
872
872
872
870
869
865
865
864
862
863
861
865
864
866
865
864
863
861
860
859
856
859
857
859
859
862
861
861
860
858
859
855
855
854
853
857
856
856
856
856
853
853
856
854
855
854
857
859
860
861
861
859
858
856
855
853
854
854
857
862
863
867
872
871
874
872
872
873
871
872
873
874
877
879
880
883
883
877
874
870
866
863
865
865
865
867
866
863
858
855
852
846
843
842
842
842
843
846
845
845
846
843
842
840
842
842
843
844
845
847
846
845
845
844
844
844
843
844
848
852
858
873
887
904
926
949
970
988
996
992
975
953
928
905
878
848
816
792
781
782
784
787
789
795
796
800
806
810
813
818
819
820
820
818
819
820
821
823
825
825
825
823
820
816
818
818
817
817
820
822
818
820
817
816
815
815
813
812
813
815
815
815
813
812
811
810
810
806
807
807
809
807
809
810
809
807
808
805
804
804
802
802
802
803
804
804
804
805
800
800
797
798
797
797
800
801
802
802
805
806
806
805
804
804
804
806
810
814
819
821
824
828
834
834
838
842
846
853
857
863
867
868
870
870
872
868
868
868
865
867
869
870
871
870
868
866
866
863
860
859
857
855
858
858
859
860
861
859
859
858
857
856
855
853
854
853
854
855
855
853
850
849
848
847
849
849
850
852
851
851
852
852
851
850
848
846
846
845
848
848
848
853
852
852
852
850
850
847
847
850
850
854
853
857
860
862
863
863
863
861
861
863
866
867
869
870
870
872
875
873
870
868
866
862
862
862
859
859
861
859
857
854
852
846
839
842
840
841
841
843
841
839
840
837
837
837
837
836
839
841
841
841
841
841
839
840
840
838
839
839
839
841
842
845
854
862
877
895
917
938
963
983
992
987
972
948
922
893
858
826
799
785
787
793
798
799
800
800
800
803
809
813
815
815
818
819
821
818
819
816
819
819
818
818
818
817
816
817
819
821
820
819
821
821
818
817
815
811
809
809
810
812
813
815
812
812
810
809
807
806
804
805
805
804
807
808
807
805
806
802
801
797
797
796
795
798
798
799
800
797
798
796
796
796
793
794
795
797
796
798
799
799
799
800
799
800
800
804
805
807
811
815
817
820
822
822
826
825
828
835
840
844
849
851
855
859
860
860
862
862
863
865
868
870
872
870
873
871
868
868
864
866
866
864
864
862
864
866
866
864
860
856
855
855
857
857
856
858
856
857
857
856
858
854
854
852
853
850
851
850
853
854
855
855
853
850
850
850
849
849
851
851
852
853
853
853
851
851
849
848
848
849
851
851
851
850
852
854
855
853
853
851
852
853
856
860
863
868
870
869
869
866
867
864
864
866
867
871
872
876
879
877
876
874
870
865
861
857
859
857
859
859
858
857
853
851
846
846
843
843
842
841
843
842
846
846
843
842
842
838
841
841
840
842
842
842
843
843
842
843
842
839
840
839
844
847
853
864
876
891
910
931
955
978
997
1005
1002
988
964
942
917
890
859
824
802
786
787
792
797
798
799
801
806
809
814
818
822
822
822
824
825
824
825
824
823
825
822
819
817
817
822
820
820
819
819
820
824
824
823
820
821
819
818
816
816
815
819
818
820
821
819
817
815
813
813
810
811
814
812
815
814
813
811
809
807
805
805
804
805
801
803
805
806
807
804
802
802
802
799
802
801
801
803
805
804
803
804
804
806
806
804
806
809
811
815
817
818
820
822
823
828
829
835
839
843
851
856
861
862
864
865
869
870
870
871
874
873
875
876
877
876
875
876
875
870
870
867
867
865
866
869
869
871
870
868
865
865
863
863
862
863
863
864
862
866
864
863
861
861
859
861
859
859
861
860
862
862
861
861
859
859
857
856
859
857
858
859
861
863
862
862
862
859
860
859
859
862
863
864
868
871
871
875
876
878
878
878
878
876
877
877
879
882
885
886
885
886
883
880
876
873
869
867
868
869
871
871
867
867
859
855
854
853
853
853
851
853
852
850
850
849
846
845
845
845
846
846
851
851
853
850
850
849
849
848
850
850
850
854
854
853
854
857
865
878
899
923
955
984
1010
1023
1014
991
959
923
888
852
818
796
787
788
797
803
810
816
818
820
820
820
821
823
824
826
827
830
830
830
830
829
828
827
825
824
824
826
826
824
824
826
827
823
823
822
822
820
820
822
823
824
827
826
824
821
817
816
815
817
817
816
818
818
817
818
816
817
815
813
812
812
809
807
806
806
808
807
805
805
803
800
799
797
797
800
800
803
801
804
803
805
804
804
802
800
803
802
805
809
813
815
817
820
822
824
826
830
834
839
842
848
855
858
864
867
869
869
872
872
874
876
879
879
881
878
878
878
877
875
875
874
873
874
873
875
875
876
874
873
871
869
868
868
868
866
868
867
869
870
871
868
867
865
863
863
863
864
865
866
864
863
865
864
864
861
859
862
861
862
863
864
863
864
863
864
863
864
862
860
859
863
862
866
867
870
871
871
869
870
871
873
874
878
880
882
884
885
885
885
884
883
884
887
887
887
884
885
880
877
874
871
870
869
870
869
866
863
861
859
858
856
852
851
851
849
849
849
848
849
852
853
853
853
853
849
851
850
851
850
849
851
852
854
855
857
856
860
870
880
892
912
935
964
989
1012
1021
1014
992
962
933
900
867
833
804
791
789
790
798
805
811
816
818
817
819
822
825
829
831
831
835
833
832
831
832
828
826
827
829
829
829
831
831
833
831
830
831
827
828
822
824
825
826
826
826
827
825
822
824
819
821
818
817
817
816
816
817
821
819
815
813
810
810
808
807
808
808
809
810
811
810
808
805
804
803
802
802
802
806
806
808
809
805
808
808
805
807
807
808
809
812
816
819
825
826
828
832
837
839
843
847
851
859
865
870
871
874
876
879
880
878
878
877
876
879
880
879
883
880
881
876
874
871
870
870
870
871
873
872
873
872
871
870
866
867
867
866
866
866
868
871
871
870
869
866
866
864
859
859
860
860
861
865
866
866
866
862
865
862
861
862
862
861
864
865
868
866
868
866
866
867
866
863
864
866
870
872
875
877
879
880
877
879
881
880
880
883
883
887
889
889
889
891
889
886
882
877
876
876
871
873
874
875
874
873
871
865
861
856
857
855
856
855
855
855
852
854
852
852
850
849
850
853
853
857
860
858
856
854
853
852
854
850
852
852
857
860
864
868
878
889
910
930
956
981
1000
1014
1007
988
958
926
893
859
822
797
785
786
792
797
804
806
813
817
820
823
822
827
828
831
832
834
836
836
834
836
835
835
832
832
833
833
834
831
834
834
838
837
833
833
830
829
829
828
829
829
826
829
829
829
829
828
827
827
824
821
824
825
825
824
824
823
824
823
819
818
816
816
814
815
815
815
816
816
814
813
811
810
809
809
811
809
808
811
811
811
811
811
812
811
812
811
811
816
820
821
825
825
828
828
829
832
834
837
842
847
850
856
861
865
868
869
871
874
874
873
878
880
883
883
887
885
884
883
882
880
880
879
878
880
881
879
878
880
879
877
875
875
874
872
871
870
872
874
873
872
872
869
869
869
866
867
866
867
868
870
869
873
872
870
868
868
868
867
869
866
869
869
871
866
868
869
869
869
866
866
865
868
870
871
873
874
875
872
871
873
872
871
876
878
883
886
887
886
888
888
888
887
886
885
886
891
895
898
898
893
889
885
882
879
875
874
874
876
876
876
876
871
869
865
860
858
856
854
855
853
854
854
857
859
857
859
855
855
854
854
854
856
856
860
859
859
861
859
859
858
858
858
865
873
885
899
921
944
969
992
1008
1016
1012
995
970
945
918
888
859
826
802
792
787
793
801
804
809
813
816
822
828
831
835
837
836
837
836
835
832
832
834
836
839
838
836
833
833
831
829
831
830
832
831
832
832
831
830
831
828
828
825
826
825
825
826
827
831
827
828
825
824
822
822
821
821
819
818
818
819
820
819
818
816
814
813
811
811
811
811
813
813
813
814
812
812
811
810
809
811
811
813
812
815
816
818
817
817
818
820
820
824
826
830
835
840
844
846
850
852
855
860
862
866
870
875
880
881
882
883
883
881
880
879
877
877
879
880
881
882
880
879
876
873
871
869
867
868
871
872
874
873
872
870
869
867
866
865
865
864
863
867
863
865
868
865
866
864
861
861
860
860
860
863
862
864
865
862
863
861
861
859
857
857
857
861
862
864
864
863
860
861
857
857
859
860
864
865
867
871
872
874
875
875
874
874
875
874
878
879
881
883
886
884
882
881
880
877
874
872
867
869
871
871
871
871
867
863
858
853
851
849
848
849
849
851
850
850
845
847
842
843
841
843
846
849
852
853
852
852
851
849
845
841
844
849
848
850
853
857
864
873
889
908
934
959
985
1001
1006
996
974
948
919
884
848
817
796
791
796
805
807
807
805
807
809
813
819
824
827
829
827
830
828
826
826
829
827
828
827
827
827
825
824
824
825
823
825
824
824
823
822
821
821
821
822
823
822
821
823
825
824
824
823
822
816
814
813
811
812
813
812
812
814
813
813
811
809
808
807
807
807
806
806
808
810
808
807
805
803
802
803
803
804
807
810
811
813
813
815
811
812
814
815
817
820
822
826
831
835
840
842
845
847
849
852
854
857
863
866
869
869
870
873
874
875
872
874
874
874
875
874
875
876
874
873
871
868
867
865
864
865
864
864
864
864
861
863
862
860
858
856
856
857
860
859
859
859
857
856
854
855
854
854
857
857
856
856
856
852
853
852
850
850
849
848
850
851
853
853
855
856
857
854
853
853
851
853
854
853
852
856
857
860
861
859
861
862
861
862
865
866
868
869
873
873
875
877
877
873
875
871
864
861
860
859
861
860
858
855
852
850
847
842
841
841
841
841
841
842
839
841
838
837
835
835
835
837
837
838
840
842
840
837
836
837
837
835
838
842
844
846
849
855
857
865
878
897
920
945
974
998
1013
1014
1004
978
946
916
885
855
820
790
772
771
778
789
796
796
793
789
788
794
800
807
814
816
819
821
822
821
822
820
817
818
817
815
815
815
819
818
819
818
818
817
817
817
817
816
816
816
816
816
818
816
813
811
813
814
813
810
808
811
810
810
809
812
812
810
808
809
806
807
805
802
801
801
806
807
806
805
802
801
800
800
800
800
803
802
804
803
802
803
801
801
802
803
803
805
808
808
813
814
815
818
818
821
824
827
832
836
842
846
851
857
859
862
864
863
864
866
865
869
872
873
876
876
877
876
874
871
872
871
869
868
869
869
870
872
871
870
868
866
866
864
864
864
864
865
867
866
865
865
865
862
860
862
861
861
864
865
867
865
865
864
865
866
864
860
860
861
861
862
866
863
864
862
860
863
861
860
859
861
862
863
866
866
864
864
862
864
863
864
863
864
867
871
874
875
877
881
881
881
880
880
883
880
884
885
888
889
891
891
889
884
881
878
876
874
872
872
872
873
876
874
870
868
864
860
857
856
856
855
857
858
857
856
855
853
854
851
854
853
856
857
860
860
860
860
861
858
857
855
856
857
857
859
861
868
873
885
900
923
952
981
1012
1029
1028
1012
982
950
915
874
837
809
795
795
804
808
812
812
815
816
819
824
829
832
834
835
836
838
838
839
840
839
840
840
840
838
837
834
834
837
837
838
837
839
839
838
835
834
835
832
832
832
832
832
834
836
834
834
831
828
827
825
827
826
826
828
826
827
826
824
822
819
820
818
815
817
818
819
819
818
818
817
815
812
812
809
811
810
812
815
818
819
819
818
819
819
818
819
821
821
827
830
833
835
838
840
842
844
846
852
854
860
866
869
876
878
877
881
884
886
886
889
888
890
890
892
892
893
893
891
891
890
887
887
886
886
884
887
886
890
887
887
883
883
881
877
879
877
880
880
878
881
883
883
881
881
877
876
878
878
877
879
879
881
880
879
878
873
873
873
873
878
878
878
880
880
880
882
880
878
877
877
878
877
879
881
884
884
886
888
888
890
888
893
894
893
896
898
899
899
896
896
894
895
897
899
903
902
898
897
895
892
886
886
885
881
878
879
877
874
870
866
869
868
869
866
864
863
863
864
861
864
863
865
867
869
868
866
863
863
861
862
863
863
864
865
867
870
871
877
886
898
915
937
965
994
1025
1047
1054
1046
1022
991
961
932
898
865
837
822
819
824
831
837
842
847
851
850
847
844
843
842
845
848
849
851
849
849
846
844
842
844
841
841
843
843
841
844
841
843
845
842
839
838
841
836
838
839
839
840
838
837
838
836
836
833
831
832
831
831
833
834
832
830
830
828
826
823
823
822
822
822
823
824
824
822
818
815
817
818
816
813
816
814
817
817
815
815
815
812
812
812
812
816
817
820
821
823
824
825
824
828
832
834
838
843
851
857
863
871
874
879
882
883
886
886
887
890
892
893
894
893
890
894
892
892
889
888
886
885
884
886
888
888
888
887
883
881
881
881
880
879
879
884
882
885
884
883
882
880
879
879
877
878
882
881
882
884
882
882
879
876
876
876
875
877
877
878
880
881
879
879
879
879
877
876
875
877
880
882
883
886
889
888
891
891
894
893
894
894
893
895
896
898
901
901
903
901
896
896
891
889
886
886
886
887
885
883
882
878
876
872
869
867
868
866
863
865
867
865
863
861
861
861
860
862
861
862
864
863
864
863
863
861
861
861
861
862
865
866
869
871
873
881
892
907
931
960
991
1018
1037
1038
1021
993
960
922
881
844
820
811
811
821
830
839
847
850
846
845
839
838
836
836
837
841
843
843
843
843
843
840
842
839
839
839
839
838
838
835
838
841
841
840
838
836
836
835
834
835
835
835
834
837
835
833
831
829
827
826
824
823
824
825
824
827
824
822
821
818
816
814
815
815
817
818
817
817
817
815
810
812
812
812
811
808
810
814
814
816
816
818
819
819
818
817
818
820
824
827
831
836
839
844
844
843
851
854
856
861
865
871
877
883
886
885
886
887
887
887
886
888
890
893
889
891
889
889
887
886
885
884
882
883
884
882
884
886
883
881
881
880
879
878
876
875
878
879
879
877
878
877
878
876
872
872
870
871
873
875
877
874
878
876
875
874
874
873
871
872
873
874
874
878
876
877
874
873
871
871
871
871
873
873
875
877
880
882
882
883
885
885
889
889
893
894
896
894
891
890
893
893
894
895
896
899
896
896
894
893
886
883
878
877
877
879
876
873
871
871
867
864
861
863
860
859
859
858
857
859
860
862
864
864
860
861
861
858
858
859
858
857
858
861
862
864
863
864
865
864
869
873
885
900
919
944
973
1000
1021
1034
1033
1018
995
965
939
912
882
851
825
811
807
814
818
823
828
832
834
832
833
835
837
840
842
843
844
841
838
838
838
838
838
841
842
843
840
841
839
838
836
834
836
836
838
838
839
838
836
833
833
832
833
831
828
829
828
829
831
832
831
829
830
826
826
824
824
823
824
824
824
825
823
821
822
819
817
815
814
816
815
814
817
816
817
816
813
814
811
811
811
812
812
814
814
816
816
816
816
