1012
1025
1026
1011
989
960
934
904
872
837
810
799
798
803
811
821
827
830
831
831
826
822
825
826
830
833
834
835
835
835
833
831
831
827
828
826
825
829
829
831
831
829
828
827
825
823
821
822
823
824
826
826
825
823
820
821
817
814
813
815
815
818
817
816
814
814
812
810
808
807
807
807
808
809
808
810
809
808
806
805
804
801
799
802
801
804
805
807
804
808
807
807
804
806
807
809
814
816
818
821
825
826
828
830
834
832
834
840
845
851
856
861
866
869
871
872
875
875
875
877
879
881
882
884
882
881
879
877
876
875
871
872
873
872
874
877
876
875
874
872
870
868
867
866
864
866
865
870
870
869
867
865
862
863
864
863
862
864
863
862
865
863
865
862
861
859
860
860
861
860
860
863
863
862
861
861
860
861
860
860
860
862
863
865
865
866
865
866
865
866
868
871
873
876
879
879
882
882
880
881
880
880
879
882
882
887
885
885
885
884
879
876
871
871
870
869
868
870
869
866
866
863
858
857
856
853
850
849
853
852
852
855
854
853
853
853
851
850
851
851
852
854
852
854
854
855
856
855
857
861
868
879
892
916
944
970
995
1012
1019
1009
989
959
931
899
867
830
805
792
790
795
802
810
815
821
822
823
825
825
829
829
834
833
833
832
829
827
827
829
827
826
827
830
830
832
828
829
828
826
825
824
825
827
827
828
827
827
824
824
823
823
821
822
822
822
822
823
823
822
821
819
820
820
817
816
815
816
817
815
816
816
816
814
814
811
810
811
809
810
811
811
811
811
811
809
808
810
809
810
814
816
818
820
822
823
822
825
825
827
829
833
837
843
849
855
859
861
864
867
871
870
874
877
881
883
884
887
888
886
888
886
883
878
880
877
879
879
879
878
880
880
879
875
874
873
871
871
873
871
874
874
877
874
873
872
866
867
865
866
864
870
870
869
869
869
868
866
867
865
864
864
865
865
866
867
869
866
866
867
865
865
864
864
864
868
866
870
870
866
869
866
866
867
867
871
872
876
876
882
882
880
879
880
881
878
879
880
883
883
886
890
890
892
890
886
886
883
881
879
879
874
876
877
875
871
869
866
861
860
855
854
853
853
852
854
858
856
855
856
856
854
855
854
855
857
856
858
861
859
859
861
862
868
878
892
916
938
967
992
1012
1019
1011
990
960
929
898
865
830
803
790
788
795
805
808
815
818
820
824
825
830
835
839
841
843
841
839
840
836
836
835
836
836
838
838
839
839
836
837
834
834
830
829
829
831
831
831
832
835
831
830
829
828
824
823
824
823
825
823
824
825
825
824
822
822
821
819
820
818
820
821
822
822
817
817
816
814
814
811
811
811
816
816
818
818
818
817
818
816
813
813
816
819
822
825
829
828
831
832
831
835
834
836
838
844
849
855
858
864
867
872
872
875
877
879
881
884
887
888
889
889
889
889
886
885
883
881
883
880
883
881
880
881
881
880
878
879
876
876
874
873
874
876
875
877
873
872
870
871
868
867
866
866
868
870
868
871
869
868
867
865
864
865
863
864
866
866
867
868
867
865
865
864
862
860
861
862
864
863
864
867
867
867
866
865
864
865
860
866
868
871
872
875
875
876
875
876
874
876
875
876
880
879
879
881
882
882
881
880
882
881
878
878
878
873
874
871
870
868
866
859
857
852
850
847
846
845
846
848
849
848
849
848
845
844
846
847
848
846
847
849
849
847
845
845
844
844
845
847
850
855
866
879
891
908
928
950
971
990
998
994
979
952
926
899
860
826
798
785
783
786
789
792
797
803
811
818
821
824
825
824
826
823
822
821
822
824
823
823
824
823
820
821
819
818
820
820
819
820
822
823
824
823
821
821
815
817
814
813
815
817
818
818
819
815
815
811
809
810
810
813
813
814
813
813
813
812
810
807
807
806
802
803
805
805
808
810
810
810
805
805
802
804
805
807
812
812
814
816
817
817
818
817
815
818
821
825
830
835
843
850
853
856
859
860
863
863
864
869
870
873
874
875
878
878
878
877
873
869
868
869
869
870
871
872
864
865
864
861
861
861
861
863
862
862
863
865
864
865
861
858
857
855
856
856
853
855
855
855
854
853
851
849
847
850
848
850
850
853
854
854
853
851
852
847
847
846
845
842
850
851
850
851
852
851
851
851
850
852
855
857
857
858
859
861
860
860
860
863
863
865
868
868
870
872
872
872
869
865
860
859
857
854
853
850
847
846
845
845
843
842
842
839
837
837
835
835
834
836
836
837
835
834
834
831
832
833
835
835
837
840
841
845
847
853
862
875
891
913
936
961
986
1004
1013
1008
988
962
930
900
872
839
806
776
765
769
781
795
797
793
785
784
785
791
797
809
814
819
821
821
820
817
816
813
813
813
813
813
813
816
817
819
817
817
816
815
813
813
811
809
810
812
813
816
815
813
810
808
807
806
802
801
804
801
807
807
805
803
804
798
795
795
793
793
797
798
798
799
800
798
796
794
791
791
789
789
791
796
798
803
801
802
800
798
800
801
801
802
805
807
811
815
815
813
817
816
819
821
827
830
836
841
848
850
855
855
860
861
862
864
867
869
873
876
878
878
874
870
863
857
851
851
850
852
852
853
855
854
852
847
846
846
843
843
842
842
844
842
845
845
842
842
842
841
839
838
836
833
835
834
834
835
833
835
836
835
835
835
835
835
839
839
837
835
830
826
824
823
823
825
826
826
826
830
831
832
831
831
828
825
829
829
827
831
832
835
837
839
838
837
837
835
835
837
838
842
847
850
851
850
842
833
828
827
824
825
828
827
827
824
823
823
818
818
816
815
816
813
812
813
812
810
810
809
809
808
809
806
804
802
797
797
796
796
798
801
803
803
807
813
822
833
847
867
897
926
953
975
986
983
962
934
904
874
843
807
771
745
729
730
737
742
743
742
745
753
758
762
765
768
769
772
771
772
775
772
772
771
769
766
763
765
766
769
771
769
768
766
764
761
759
758
761
765
764
766
765
762
761
757
756
755
755
757
758
760
759
759
757
752
748
745
748
746
746
748
751
754
754
756
754
750
747
742
738
737
735
736
739
740
741
744
745
743
741
740
737
738
740
738
744
743
748
748
748
751
756
756
758
762
768
772
776
782
788
793
795
796
795
794
794
792
791
793
797
801
805
811
809
808
806
807
806
805
803
802
801
802
802
804
803
803
801
799
796
794
795
795
796
797
797
802
801
801
802
799
793
794
791
788
791
790
794
795
794
794
792
789
787
788
786
786
788
790
794
790
790
793
792
791
792
789
788
788
785
786
787
789
791
792
793
793
791
796
799
797
802
801
803
805
802
799
798
799
805
807
811
814
816
816
815
814
811
808
806
803
799
796
792
792
793
788
788
788
786
785
784
781
779
775
771
771
769
772
774
781
782
782
782
783
781
781
782
779
780
782
782
783
784
786
790
799
814
835
857
887
922
949
972
976
965
938
907
872
843
812
775
743
718
708
708
712
716
721
728
736
741
748
754
757
759
760
760
759
761
763
765
764
761
760
757
759
759
759
757
758
756
755
754
753
752
752
751
754
756
758
757
755
760
758
756
754
755
753
754
754
754
754
754
754
754
752
749
749
748
745
746
745
745
748
747
747
747
745
745
743
740
736
731
727
726
727
728
729
732
736
736
732
729
725
724
726
726
728
730
735
738
737
738
738
738
740
741
744
750
755
761
764
766
771
775
777
779
781
785
787
789
793
798
800
803
804
804
806
808
808
808
810
810
813
807
809
807
807
807
808
805
806
806
805
806
808
808
810
811
808
804
799
797
796
796
795
796
798
798
799
797
797
795
794
792
792
794
798
801
803
801
804
806
805
804
803
803
803
802
803
804
802
800
798
797
795
792
795
796
797
799
801
799
803
805
808
812
813
816
817
817
817
815
816
816
818
819
822
824
823
821
818
819
820
818
813
813
813
812
809
809
807
804
800
796
794
794
796
795
797
797
797
796
793
789
787
789
790
790
789
792
795
796
798
795
794
797
796
796
797
796
798
803
813
832
854
885
916
948
974
986
983
962
929
895
863
831
795
759
725
708
704
708
721
734
749
760
769
777
780
779
777
775
772
769
766
766
766
765
767
767
766
768
769
767
769
768
766
765
765
764
765
764
762
760
762
762
762
764
762
763
761
761
760
759
760
762
760
759
757
758
758
759
757
758
753
749
748
750
750
752
747
746
742
737
736
738
743
741
744
745
745
743
743
741
741
741
742
742
744
743
745
746
751
750
752
753
754
756
759
766
772
777
785
794
798
800
807
807
807
809
809
816
822
823
825
827
827
828
825
827
827
827
828
826
829
828
829
829
827
824
821
814
810
807
806
808
814
818
819
823
823
819
816
816
813
810
813
814
815
816
823
822
820
815
815
814
814
817
819
823
826
826
828
824
822
815
812
808
809
812
816
819
821
821
820
818
818
819
823
827
828
834
837
837
840
838
836
836
836
836
836
837
840
841
842
847
848
847
848
844
842
841
837
834
833
830
832
831
831
832
830
831
829
827
824
820
818
816
816
809
809
809
817
816
815
814
811
807
809
810
813
817
821
823
824
828
828
827
830
836
846
861
886
919
954
990
1015
1022
1004
970
927
881
839
796
758
731
723
728
739
756
773
786
796
798
798
798
797
795
798
799
801
804
805
808
807
804
800
796
794
796
799
802
804
805
804
801
797
793
789
790
792
794
793
802
803
805
805
804
802
800
796
791
790
791
793
795
799
801
799
797
791
785
779
776
779
780
786
787
787
785
780
776
773
771
770
772
772
775
776
777
776
777
775
774
773
775
775
775
777
779
784
787
792
795
798
797
795
795
794
793
797
803
814
824
833
838
841
841
840
841
844
847
855
857
859
864
869
872
871
870
868
866
864
863
862
861
864
863
864
863
860
859
857
855
853
857
859
864
861
864
861
863
862
862
859
859
859
858
859
856
855
855
857
856
854
852
852
854
853
855
855
858
858
856
855
855
854
855
856
857
857
856
856
856
857
859
860
863
867
868
869
868
866
866
869
870
874
878
878
880
878
872
870
869
868
873
874
878
879
883
884
886
885
883
878
870
861
854
851
849
851
854
854
856
856
853
854
850
848
844
847
848
851
855
856
859
858
857
859
855
852
849
849
850
852
859
868
883
903
927
952
976
1002
1018
1027
1021
1001
972
938
903
868
827
790
765
757
761
772
787
808
821
829
831
832
831
831
831
835
837
838
837
835
833
830
829
829
826
829
829
830
833
835
836
833
830
827
823
822
822
821
820
822
823
825
824
825
826
826
827
825
824
824
825
824
823
820
819
817
817
813
810
808
806
806
805
807
806
807
807
806
805
805
804
802
803
801
798
796
798
799
800
801
803
804
805
807
806
805
804
805
805
805
808
812
812
817
822
826
827
832
835
837
841
847
850
858
862
869
876
880
881
882
882
880
880
879
879
881
883
885
889
887
883
878
872
867
865
865
868
874
879
881
883
879
875
872
873
872
873
872
869
871
870
870
872
870
874
876
878
874
869
866
860
859
861
867
869
873
876
875
875
871
868
865
864
862
865
867
872
873
874
876
876
874
875
875
872
873
872
870
869
872
873
877
877
881
882
884
887
891
892
891
892
892
892
892
895
896
898
898
900
902
898
897
898
894
894
889
883
878
875
870
868
867
871
871
874
870
868
865
864
862
862
860
862
865
867
869
870
868
865
869
865
863
864
865
866
868
871
876
882
882
884
887
896
906
924
945
969
997
1020
1040
1047
1033
1006
972
934
899
859
819
787
768
768
777
793
815
827
834
839
839
837
840
841
847
853
855
860
862
859
855
852
850
843
840
836
838
839
845
849
851
850
850
846
842
838
837
837
842
846
848
851
852
852
850
847
843
838
835
835
834
833
832
837
835
835
833
833
828
829
830
830
830
830
830
831
832
830
831
830
828
828
825
823
823
822
824
827
831
834
833
830
823
818
813
813
818
828
832
839
840
841
842
842
846
851
856
861
867
872
877
883
887
889
893
899
903
913
914
914
917
913
906
900
893
893
894
896
897
898
894
896
894
894
897
898
899
899
897
896
893
894
894
894
895
895
895
895
893
890
891
894
898
898
897
898
896
897
894
892
888
886
885
882
882
882
881
885
890
893
894
894
892
891
888
888
890
890
892
892
894
897
899
901
903
902
904
905
905
905
908
908
914
913
913
912
908
905
899
902
905
906
906
909
908
911
910
911
907
905
903
899
897
892
888
889
889
888
888
889
888
885
885
884
886
888
889
893
894
892
888
882
878
871
871
871
875
879
882
885
892
904
918
936
956
984
1010
1035
1051
1056
1044
1020
988
949
913
885
843
809
788
782
787
793
805
820
832
842
852
858
865
866
870
868
867
862
858
860
864
865
866
865
862
857
856
857
855
858
858
858
862
862
861
861
859
859
859
858
859
857
857
858
861
860
859
863
862
860
857
851
845
839
836
838
840
843
849
852
852
852
850
845
841
838
837
838
840
842
840
841
843
841
843
841
841
839
836
834
836
835
839
843
847
849
849
844
842
842
843
843
846
851
854
861
867
869
874
878
880
884
887
892
895
902
905
909
917
920
922
924
926
926
924
924
920
919
921
917
915
916
917
918
918
915
915
912
911
911
911
913
913
914
913
912
908
906
904
908
909
912
914
915
917
916
916
913
912
911
908
911
909
912
911
910
910
909
902
901
898
899
903
907
907
908
908
907
906
906
905
906
906
907
906
910
913
915
918
922
921
921
919
913
910
908
906
911
918
923
928
932
937
936
934
931
926
925
922
923
926
930
930
931
931
931
928
924
921
919
914
912
910
907
901
898
896
892
892
893
894
897
897
895
895
898
900
901
902
903
898
896
897
897
897
899
901
901
907
910
918
929
945
962
984
1010
1034
1057
1070
1075
1061
1036
1001
969
934
898
860
825
802
792
797
810
822
833
843
846
847
850
851
855
862
868
874
878
879
880
880
876
874
871
872
871
876
875
877
878
877
878
880
881
882
879
879
876
870
865
857
859
860
865
867
868
870
871
867
865
862
860
859
862
862
862
866
865
863
860
861
859
858
859
858
859
860
860
859
853
848
843
841
842
845
848
853
855
858
854
851
848
843
844
845
849
854
860
864
868
870
876
882
888
889
893
894
897
901
908
915
921
928
929
929
927
928
931
932
930
927
923
924
920
923
925
926
927
926
926
927
925
925
923
923
922
923
925
926
927
928
926
925
920
917
915
916
918
920
923
926
925
921
915
909
904
904
906
912
917
921
924
925
920
915
913
914
909
910
915
919
919
923
923
921
920
921
919
922
923
923
924
922
921
922
921
922
922
928
927
931
931
929
929
931
931
933
934
936
936
933
935
933
931
930
930
930
931
931
933
933
930
927
922
915
910
905
901
898
898
897
899
899
902
902
901
902
903
904
903
907
906
907
910
906
908
909
908
911
913
920
935
953
979
1008
1038
1065
1084
1088
1075
1048
1012
976
943
910
873
835
808
797
795
799
811
826
838
849
855
862
867
871
879
885
887
883
884
881
881
880
877
880
881
880
883
883
882
882
881
880
879
878
879
878
878
881
880
880
881
879
879
876
877
877
872
871
875
879
882
880
877
871
865
864
864
861
866
865
867
867
866
863
857
854
856
854
855
855
855
860
857
857
856
853
850
847
846
846
844
846
847
851
852
854
856
858
858
861
864
864
863
861
863
866
869
874
881
886
889
892
898
901
902
906
910
914
919
919
920
924
923
928
931
933
933
933
935
933
934
935
935
935
932
934
931
929
925
924
923
924
925
926
927
927
929
929
925
927
927
927
927
925
924
920
918
914
913
914
916
917
916
917
919
917
916
915
915
918
916
917
915
918
918
916
918
919
918
917
917
918
916
916
917
921
922
923
923
925
926
927
927
927
926
921
928
932
934
935
936
936
937
932
930
927
926
928
931
933
935
933
933
932
933
929
928
929
928
927
922
923
920
916
913
904
902
899
899
903
907
911
910
910
910
909
905
901
898
894
897
900
902
909
911
913
913
917
927
941
962
986
1013
1045
1068
1082
1078
1060
1028
990
951
914
879
843
817
804
803
810
821
832
840
846
853
856
860
866
871
876
882
883
881
883
882
881
879
879
878
880
885
885
883
883
878
875
871
871
873
874
876
878
881
884
884
883
879
876
867
861
854
859
863
868
871
872
869
866
863
859
857
857
857
859
860
861
860
858
855
851
851
851
851
