850
853
850
853
856
857
858
856
856
850
848
846
843
847
849
853
856
855
856
857
857
862
865
867
868
871
872
876
885
888
896
902
905
909
912
917
926
929
933
935
934
935
934
932
931
933
934
931
933
936
936
937
937
937
938
934
930
928
922
917
915
916
917
923
926
924
925
922
919
920
918
918
914
917
919
917
918
921
922
922
921
920
920
918
918
917
916
918
917
918
921
924
927
926
925
922
917
912
908
909
910
911
915
914
915
918
918
922
922
924
925
927
929
933
934
935
935
935
934
934
936
937
941
943
946
946
945
944
944
936
930
924
923
923
921
920
917
914
907
904
904
903
902
903
901
901
902
903
905
908
909
912
911
912
911
910
908
909
908
910
910
915
915
915
915
923
935
952
971
997
1029
1055
1075
1081
1071
1044
1008
969
933
896
854
816
795
789
794
806
820
832
845
854
858
864
871
877
880
880
879
881
881
881
880
882
882
881
880
877
876
878
878
879
880
882
882
879
878
877
873
868
870
871
873
875
875
878
876
876
875
873
870
868
866
864
865
867
869
869
870
870
871
869
869
866
860
860
860
860
862
863
863
861
856
850
847
844
843
846
848
846
847
849
850
850
851
850
852
852
851
854
858
861
864
862
871
873
876
878
879
882
889
898
909
916
922
924
923
920
916
915
914
922
926
934
938
942
940
937
935
931
930
929
927
928
927
925
925
925
925
926
926
927
927
920
918
917
916
917
923
926
930
931
929
927
921
919
912
910
908
909
911
917
921
923
921
921
916
916
913
913
912
916
919
920
923
920
919
918
918
917
921
921
925
928
928
928
925
923
920
920
921
922
924
924
925
927
927
930
932
934
932
931
932
930
930
934
936
942
943
943
940
939
936
938
936
936
934
935
934
932
927
923
917
911
906
903
900
899
900
899
900
903
905
908
910
908
907
901
901
899
902
901
905
908
913
915
918
916
914
913
915
922
935
953
980
1010
1040
1064
1072
1066
1042
1012
980
952
918
883
853
834
829
837
847
852
851
850
849
854
859
864
872
882
886
890
891
888
885
879
874
873
870
870
871
877
877
878
879
879
877
876
875
873
873
872
872
871
874
875
878
876
876
873
872
869
870
870
872
873
877
879
881
877
875
870
866
858
854
851
849
848
854
856
860
859
857
858
857
853
852
850
850
849
850
852
855
857
858
858
854
855
855
854
857
862
867
872
877
878
876
875
872
873
874
876
882
891
897
905
914
916
916
916
918
919
922
926
927
931
934
936
938
935
929
927
923
921
921
924
925
928
928
930
927
922
917
913
910
910
911
911
913
917
917
918
918
919
918
919
917
915
912
910
908
910
911
913
914
917
919
920
919
916
913
911
909
912
913
914
918
913
914
908
906
905
905
907
909
912
914
914
914
910
909
910
912
914
918
923
926
930
932
934
936
933
931
930
930
930
930
933
937
938
941
941
940
933
927
922
918
915
916
913
911
914
912
911
908
906
902
901
902
903
901
899
898
899
900
898
899
899
900
902
902
904
905
904
901
902
900
901
901
901
902
908
917
926
939
955
973
997
1023
1044
1065
1072
1065
1044
1012
976
942
901
864
836
823
827
837
845
850
851
853
853
855
859
865
873
879
881
884
883
881
879
876
873
872
871
873
876
880
880
882
880
881
878
877
871
872
869
869
872
874
879
883
883
879
874
868
860
858
856
858
862
864
861
860
858
857
857
860
859
858
854
853
850
850
853
855
855
855
854
851
849
847
846
843
844
845
844
847
846
848
845
848
849
849
849
850
852
856
857
856
857
860
863
866
870
873
873
871
876
879
885
895
900
902
909
911
914
912
913
917
915
920
920
925
923
923
921
920
920
917
916
917
919
921
921
921
916
916
913
913
911
909
912
912
915
913
912
911
906
902
893
894
893
897
901
905
911
909
906
904
898
893
893
892
894
896
902
904
904
903
899
897
893
896
897
899
902
902
901
901
901
904
907
908
908
910
913
914
916
914
913
911
911
912
916
919
921
927
923
920
917
915
913
912
913
913
913
915
913
910
909
906
901
901
898
896
900
899
898
900
894
890
886
883
879
880
882
886
890
890
892
890
889
884
882
878
881
883
884
884
888
896
908
923
940
961
981
1000
1021
1036
1043
1042
1028
1007
982
956
924
889
849
817
801
802
811
821
826
833
836
840
847
850
855
856
858
859
864
865
863
866
866
866
864
861
858
856
856
856
858
861
863
864
864
862
861
860
859
857
858
857
861
862
864
866
865
864
859
854
847
846
847
848
851
850
849
847
843
841
837
835
840
839
841
842
841
841
841
840
840
838
835
834
833
831
834
836
838
839
843
845
845
841
838
834
831
833
836
840
843
848
853
856
858
862
865
867
871
873
877
877
877
883
884
888
894
897
897
900
902
904
906
905
906
907
908
908
910
909
909
908
908
905
900
900
899
902
900
907
908
908
901
898
890
887
886
888
892
892
895
898
897
894
892
889
890
890
891
888
889
892
892
892
892
894
896
896
897
897
895
892
889
888
888
889
894
897
900
901
902
900
896
894
893
892
896
901
905
907
908
904
903
902
902
905
909
917
920
919
920
919
912
908
903
897
897
898
900
899
900
897
893
893
886
882
880
878
878
881
883
883
884
886
884
881
879
879
878
878
879
879
880
877
879
879
883
882
883
885
889
896
906
917
929
953
982
1008
1031
1045
1046
1030
1006
978
946
915
878
840
809
797
799
810
818
822
822
822
826
829
839
846
851
856
860
860
860
860
858
858
859
859
860
860
862
865
866
866
862
853
848
846
844
842
843
847
850
852
853
856
855
850
848
843
839
837
840
839
840
841
842
844
843
842
841
839
835
837
837
837
838
841
842
844
842
840
837
837
833
826
820
819
815
819
821
824
828
830
827
823
820
820
821
825
827
831
837
841
842
846
852
853
856
863
867
874
880
883
884
881
883
882
886
889
894
894
897
896
898
900
901
902
902
902
901
898
897
895
895
894
895
896
898
898
899
898
898
896
898
895
898
896
898
899
899
901
897
894
888
884
878
874
871
873
877
881
884
887
888
889
886
887
885
882
883
882
882
883
882
887
890
889
888
888
888
885
884
885
890
897
899
906
907
903
894
886
880
880
883
892
900
907
909
909
906
903
903
902
900
904
901
905
904
906
904
905
903
899
897
892
891
885
884
881
882
880
878
877
873
873
871
874
875
876
879
877
880
884
882
884
883
878
875
867
862
862
864
870
875
880
885
892
901
918
941
970
996
1020
1037
1039
1028
1006
982
955
925
886
846
812
794
791
798
808
818
826
834
839
847
850
852
852
848
847
845
847
851
854
857
863
866
863
856
848
841
840
841
843
847
849
852
855
856
853
851
850
847
844
844
847
849
847
848
849
849
848
850
846
844
841
842
841
844
843
843
840
840
844
846
844
839
832
826
823
820
821
823
827
826
825
826
823
820
818
817
818
822
821
823
825
828
826
825
825
825
825
829
830
834
836
838
836
835
837
838
843
849
854
862
868
871
874
876
877
879
879
880
883
889
893
896
900
902
903
905
906
905
900
897
900
896
895
894
895
899
901
901
901
901
896
896
893
892
891
891
892
893
895
892
892
892
890
890
890
887
887
886
886
886
888
889
893
892
891
891
891
886
884
884
885
884
883
886
889
890
889
888
887
885
885
888
888
890
893
892
896
900
899
901
899
897
896
897
898
899
900
906
908
912
914
918
915
910
904
901
898
897
896
896
898
901
902
900
897
892
886
882
878
881
879
878
878
873
870
869
869
870
874
874
873
873
875
878
880
881
881
882
878
877
875
875
880
886
895
906
921
942
967
995
1019
1036
1043
1034
1012
984
956
931
901
868
833
807
798
797
801
808
818
825
830
835
840
841
842
847
850
850
851
850
852
851
852
854
856
855
857
856
854
857
858
856
858
856
858
854
847
844
841
844
847
849
850
847
844
838
839
839
841
840
842
841
837
835
830
829
830
835
836
835
835
835
831
833
828
826
824
822
822
822
821
823
825
825
826
821
820
818
819
818
818
819
821
823
826
828
826
829
832
831
832
832
833
836
838
843
850
860
866
866
868
872
867
872
878
885
889
894
895
895
898
896
895
897
898
899
900
904
903
903
897
895
890
889
889
890
885
885
884
881
883
887
890
890
890
890
885
883
882
882
882
884
883
885
888
889
887
891
892
895
894
893
892
890
888
883
884
883
885
885
883
880
877
879
878
882
882
885
885
885
885
883
885
888
885
889
893
896
898
899
900
903
901
903
901
900
899
898
901
906
910
911
914
912
908
900
893
889
890
888
890
887
884
881
876
873
872
871
872
872
872
869
870
870
870
869
867
871
872
873
874
875
871
870
871
868
868
871
874
876
879
883
887
896
907
924
943
965
990
1014
1033
1045
1043
1023
996
964
934
903
873
841
812
796
793
798
806
811
816
819
824
828
832
837
842
847
852
857
858
857
857
855
854
851
850
849
847
848
849
849
846
846
843
843
839
837
833
834
838
844
845
848
844
844
844
843
839
837
836
835
837
838
840
841
841
839
840
839
839
838
839
837
838
835
831
826
821
818
814
813
813
812
812
809
811
812
815
819
817
818
818
818
818
818
816
819
820
824
823
827
829
833
838
840
843
846
847
853
857
863
870
881
883
885
888
886
886
883
883
887
889
893
896
899
901
901
899
901
896
895
893
886
888
886
888
891
891
890
892
887
888
886
883
884
888
889
889
890
889
888
885
884
885
884
883
884
884
885
887
889
888
887
886
885
883
882
882
883
887
889
893
898
898
894
888
879
868
863
862
867
876
882
888
892
893
893
891
887
888
889
890
894
898
899
900
900
900
901
901
899
903
905
906
908
908
909
908
905
898
892
885
880
876
871
868
867
866
868
868
871
870
869
866
864
862
865
863
866
866
867
866
866
867
866
864
866
865
869
871
873
872
882
887
896
910
927
953
982
1009
1026
1028
1010
981
948
917
878
841
807
790
784
786
794
799
807
816
822
832
841
847
848
849
847
841
837
833
830
834
839
840
842
841
838
837
833
831
832
829
833
835
837
837
839
839
838
838
838
838
839
839
841
842
841
835
833
827
822
822
820
822
822
822
819
816
814
815
815
811
807
808
807
812
815
817
819
820
818
817
813
811
810
812
813
810
809
803
803
802
802
805
811
811
813
812
810
810
813
817
822
826
836
842
846
848
853
856
860
864
868
871
878
880
883
882
880
880
881
882
883
882
878
877
876
874
873
874
875
872
871
870
869
871
873
874
873
872
871
869
867
868
869
869
869
871
871
876
874
875
871
867
861
860
858
860
859
860
861
859
860
859
863
865
867
871
867
864
862
859
857
857
857
860
862
862
866
866
866
868
869
872
873
876
878
881
881
880
878
878
875
877
874
875
875
877
877
880
881
882
883
882
878
879
875
876
875
874
872
869
868
865
863
860
862
861
861
860
858
853
847
845
843
841
840
839
840
840
843
845
844
843
843
844
845
846
848
849
851
854
854
854
860
867
882
902
927
957
986
1006
1022
1023
1010
984
954
923
894
860
824
790
768
761
769
780
784
786
780
781
787
796
805
815
825
828
831
831
832
830
831
828
826
822
822
819
818
816
813
814
815
815
816
818
818
824
823
823
822
818
816
813
811
814
816
815
814
815
811
811
809
810
810
809
810
808
807
804
802
802
800
798
799
799
795
795
794
790
787
789
792
795
794
796
798
797
795
794
792
791
793
792
790
789
788
790
795
800
807
811
811
811
808
808
807
808
813
822
829
832
835
837
841
843
849
852
856
859
861
861
866
866
868
865
866
865
864
864
865
867
867
871
871
869
867
868
861
863
858
855
851
850
850
856
859
861
859
854
852
850
849
851
849
853
855
860
860
858
860
858
856
856
857
857
861
862
861
862
863
860
857
856
856
856
858
859
857
853
849
850
853
856
859
863
866
866
866
867
868
870
872
873
875
876
875
876
877
880
883
885
888
886
887
883
880
875
870
867
861
863
861
864
864
866
865
864
863
859
855
851
846
845
844
845
849
852
857
857
859
857
852
852
848
847
846
850
853
857
857
858
861
862
867
876
887
905
926
953
984
1013
1033
1036
1020
987
945
902
855
807
772
760
767
779
791
796
798
804
810
816
822
828
832
835
835
833
836
832
835
835
835
833
830
829
828
826
829
832
836
839
840
838
837
838
838
836
835
836
836
839
842
841
841
839
833
826
822
820
822
826
826
829
830
830
831
831
828
827
825
826
822
823
825
827
826
825
824
825
823
821
820
819
819
819
820
821
822
821
826
825
826
825
828
825
827
828
829
832
833
836
839
842
844
849
852
855
857
860
868
872
881
885
891
894
894
899
900
902
904
903
905
907
908
911
912
912
910
911
909
909
907
905
905
908
907
909
911
909
909
908
908
907
904
906
905
905
906
907
907
911
911
909
910
910
907
907
908
907
909
909
909
912
910
911
911
908
907
906
908
909
910
910
914
915
913
915
912
911
913
911
912
914
916
919
921
922
925
926
926
929
928
930
928
930
932
931
933
935
934
934
933
935
936
935
936
935
936
937
937
940
938
932
932
932
928
925
923
922
922
920
921
919
917
914
911
910
909
908
910
909
910
911
915
914
914
916
915
915
912
912
915
917
920
925
932
946
962
984
1011
1039
1062
1084
1098
1097
1079
1047
1016
986
949
909
870
839
821
816
820
830
839
852
862
872
880
887
890
891
892
891
892
891
894
896
895
899
897
897
897
897
894
896
895
895
897
895
898
893
891
890
888
888
884
884
883
882
886
887
887
886
888
886
884
881
883
880
882
878
878
875
875
876
873
873
871
868
865
866
868
865
865
863
863
861
859
858
856
855
853
854
855
854
855
854
856
854
852
850
849
849
850
850
851
851
855
859
866
871
875
877
880
885
885
889
891
895
899
905
911
914
919
920
919
923
923
924
926
928
931
930
931
933
931
930
929
926
925
923
922
921
923
922
923
925
921
919
917
918
915
914
913
916
917
917
919
921
921
920
920
917
916
915
915
913
913
915
916
915
916
916
915
914
914
912
913
914
915
915
912
915
914
914
913
912
909
913
915
917
922
923
926
926
926
925
924
922
922
923
927
929
934
935
938
936
932
928
924
922
921
919
918
916
915
913
912
912
908
906
904
902
898
898
896
895
897
898
899
898
896
896
896
895
892
893
893
896
896
897
900
901
901
897
901
901
906
915
929
947
970
996
1024
1050
1069
1080
1074
1055
1024
996
970
943
913
878
849
827
812
811
816
822
824
832
842
849
859
866
871
875
875
873
870
871
867
866
866
868
868
869
870
871
871
872
870
868
869
867
867
866
869
867
869
870
868
866
865
864
858
857
858
858
858
857
858
856
855
855
853
852
847
849
847
847
847
849
850
850
849
848
845
839
840
837
838
838
837
837
837
837
836
837
834
831
829
828
828
829
829
832
834
834
835
834
834
836
838
840
840
844
849
856
861
866
872
874
879
882
884
886
888
894
895
900
905
905
907
904
906
906
906
906
907
906
904
905
904
907
905
904
902
902
902
899
900
900
901
903
904
903
904
903
901
899
899
895
896
895
900
901
900
901
901
901
899
898
896
894
896
895
894
895
892
897
894
895
893
893
893
887
891
890
893
894
896
896
895
894
895
892
893
892
892
891
894
896
899
901
904
903
903
903
905
901
900
902
905
905
909
909
911
912
912
912
911
909
907
908
905
903
905
903
901
897
897
893
890
886
882
883
882
882
881
880
879
877
875
875
872
871
871
872
871
873
875
873
874
873
873
872
872
873
874
876
880
893
909
931
962
993
1022
1047
1061
1054
1029
999
966
938
906
873
840
818
810
810
814
821
833
839
849
852
853
850
848
849
849
847
846
848
850
847
849
850
852
854
851
851
847
846
844
843
844
844
845
843
846
847
844
845
845
842
842
840
840
842
840
843
842
843
841
839
837
835
830
826
829
830
831
831
830
829
825
824
824
819
816
816
813
814
811
816
815
816
813
810
810
808
807
805
805
805
805
807
811
814
812
814
815
814
815
816
818
821
822
829
832
838
841
844
846
850
856
859
861
868
872
877
881
883
885
884
886
883
882
882
883
883
884
885
884
885
886
884
880
879
878
877
877
878
876
876
876
878
877
877
875
875
874
871
871
868
873
874
875
876
874
875
873
871
871
868
870
867
868
867
871
872
872
871
870
870
869
866
868
867
867
869
869
871
869
870
868
868
870
872
872
874
878
879
882
884
884
883
883
