933
935
937
935
933
933
933
935
936
937
936
935
934
935
940
938
939
935
936
938
943
945
940
939
939
944
947
944
943
941
941
942
947
946
944
943
942
946
949
949
946
943
945
948
947
951
949
945
952
955
955
958
955
954
957
960
965
965
963
963
967
969
973
969
965
964
964
967
973
971
966
960
960
962
964
960
957
954
951
957
960
958
956
955
958
959
959
962
959
956
958
958
962
964
963
961
964
966
971
971
968
960
955
949
947
946
948
960
991
1049
1131
1223
1303
1366
1409
1418
1383
1286
1158
1030
931
911
925
936
936
932
932
935
939
940
945
955
964
976
982
981
979
976
979
982
987
985
984
985
987
989
992
990
992
990
990
993
995
993
995
994
990
995
1000
1000
998
997
996
1000
1003
1003
1001
997
1002
1002
1007
1004
1003
1004
1006
1009
1009
1010
1008
1010
1007
1012
1015
1017
1015
1014
1017
1017
1023
1028
1027
1027
1030
1037
1039
1042
1038
1041
1045
1047
1053
1056
1057
1058
1064
1072
1076
1081
1081
1084
1088
1097
1102
1108
1112
1116
1121
1129
1139
1145
1145
1147
1155
1160
1169
1175
1177
1177
1183
1190
1197
1198
1196
1192
1192
1189
1188
1177
1165
1155
1144
1134
1125
1111
1097
1082
1069
1060
1051
1045
1029
1019
1012
1008
1003
998
992
985
983
983
982
980
977
972
972
972
972
971
967
964
968
970
969
970
966
964
965
969
970
970
965
963
966
969
970
971
967
965
966
970
970
971
967
966
968
970
973
975
971
968
967
972
976
973
971
965
968
970
973
971
966
966
966
969
966
968
962
963
964
968
970
967
965
965
962
963
966
967
963
960
958
960
964
964
961
959
961
963
963
963
959
957
957
957
964
960
958
959
960
961
963
961
957
953
955
958
961
959
958
952
956
957
960
958
957
953
956
957
958
958
955
952
954
957
959
956
958
951
954
956
958
957
957
954
953
958
959
959
955
954
957
960
961
957
957
954
954
958
959
960
955
953
952
959
960
960
957
954
955
958
962
959
958
955
955
956
960
958
954
952
956
958
960
957
957
956
953
958
960
957
959
956
956
959
959
962
960
957
961
963
968
971
968
968
970
973
975
975
973
973
971
973
974
974
972
970
969
968
970
968
962
956
956
958
961
962
960
957
958
961
966
963
961
958
958
961
964
964
962
962
964
968
973
969
963
956
951
949
948
950
954
982
1034
1114
1212
1306
1378
1419
1425
1382
1276
1148
1020
900
903
928
939
932
930
931
939
950
962
969
971
972
972
973
977
976
973
975
975
978
981
981
978
976
979
981
982
981
980
978
980
984
985
983
980
978
981
982
990
986
986
983
986
989
993
992
990
985
987
990
995
996
996
993
994
997
999
1001
1000
999
998
1006
1008
1007
1007
1008
1011
1014
1018
1018
1020
1018
1023
1026
1030
1030
1031
1033
1038
1042
1043
1046
1047
1050
1055
1063
1071
1072
1077
1079
1086
1091
1096
1102
1104
1109
1116
1124
1131
1134
1139
1143
1145
1154
1160
1164
1165
1165
1170
1174
1178
1174
1171
1166
1162
1156
1150
1138
1126
1111
1101
1092
1079
1063
1052
1036
1026
1019
1013
1004
994
983
980
976
974
967
961
961
960
957
957
954
950
948
948
949
951
949
946
944
943
944
944
947
946
944
944
947
948
947
944
942
942
945
947
946
944
946
946
947
948
947
945
944
945
945
947
949
948
942
944
945
947
945
943
943
943
946
947
945
941
938
942
940
942
943
941
941
941
941
943
942
940
938
939
941
943
941
939
935
937
941
944
940
937
933
934
938
939
938
935
935
936
938
939
936
938
934
935
938
942
937
935
932
934
937
939
936
937
933
935
938
938
938
937
932
935
937
937
936
934
935
937
938
938
939
935
932
934
937
939
936
935
932
936
937
937
940
935
934
935
939
939
939
936
936
935
938
940
939
938
936
934
936
939
939
934
934
936
939
940
937
936
935
935
939
942
941
935
935
937
939
943
941
937
938
940
941
941
938
936
939
939
941
943
941
937
935
936
941
943
943
945
942
945
948
954
952
949
949
954
955
957
954
949
948
951
953
955
951
947
942
942
943
942
943
940
940
937
940
944
943
942
939
939
944
948
944
944
941
947
946
954
951
950
941
937
931
928
925
930
947
990
1063
1161
1263
1346
1398
1414
1385
1296
1168
1040
912
884
911
925
923
913
912
915
928
939
947
951
954
953
955
959
958
958
953
956
960
962
962
958
958
960
965
965
965
961
959
962
963
967
967
964
964
965
968
970
971
967
965
966
971
971
972
971
967
971
973
975
975
974
973
974
978
978
981
977
980
981
986
991
989
988
989
992
997
997
999
999
1001
1005
1006
1013
1012
1014
1017
1020
1023
1029
1034
1035
1038
1041
1049
1054
1056
1062
1067
1072
1081
1087
1092
1097
1099
1108
1114
1122
1126
1127
1134
1138
1145
1154
1155
1158
1159
1160
1163
1163
1158
1154
1143
1134
1131
1122
1110
1094
1079
1065
1055
1041
1022
1009
995
984
976
971
961
952
944
943
941
942
936
937
932
933
934
935
937
930
925
930
934
936
935
933
931
931
931
932
933
930
929
928
931
935
935
933
928
933
934
937
937
934
931
932
934
935
935
935
929
931
934
933
935
930
929
930
932
935
933
927
925
926
927
928
930
926
922
925
927
929
927
926
923
925
929
930
926
923
925
927
927
929
930
925
920
926
927
928
925
922
921
923
927
924
925
923
919
924
924
925
924
925
922
921
923
925
925
922
920
923
923
929
927
922
923
923
927
927
928
924
923
924
924
924
926
924
920
921
924
926
927
924
922
922
926
927
925
922
921
923
927
928
927
923
921
919
924
927
927
922
922
925
926
926
924
923
922
922
925
928
927
926
923
923
928
927
927
925
922
925
926
930
931
928
929
929
932
933
933
932
931
935
940
942
943
940
938
939
943
947
946
943
939
940
941
944
942
939
934
932
933
934
933
930
928
929
931
934
933
929
932
931
934
936
935
933
930
933
936
938
939
937
938
937
939
935
927
918
911
911
923
948
988
1060
1158
1256
1336
1385
1403
1377
1291
1163
1035
907
873
887
903
904
904
904
903
906
910
918
931
939
943
943
941
943
945
947
943
941
942
944
947
947
949
948
945
948
952
954
952
949
948
953
954
954
955
954
955
955
957
960
959
958
954
957
960
963
962
960
960
961
965
965
964
966
964
966
969
971
972
970
970
971
973
978
979
977
978
979
984
991
991
990
986
994
998
1002
1000
1002
1001
1004
1010
1016
1018
1018
1018
1025
1031
1037
1039
1044
1049
1055
1060
1069
1071
1077
1084
1092
1100
1101
1105
1110
1114
1121
1127
1134
1140
1140
1142
1146
1153
1160
1160
1155
1153
1157
1160
1157
1149
1141
1131
1120
1111
1103
1090
1075
1058
1048
1037
1030
1020
1007
997
988
985
980
973
966
960
955
955
954
953
946
943
943
945
945
946
942
939
938
942
942
944
938
937
937
940
942
942
940
938
939
941
946
943
943
943
944
947
947
949
948
944
945
950
952
950
948
947
951
952
954
953
953
952
950
956
957
957
955
952
954
956
960
960
956
955
955
957
962
961
955
958
956
956
960
959
958
957
958
963
962
960
960
961
960
964
964
964
963
962
962
968
970
969
965
966
967
966
972
971
970
966
968
970
973
971
971
972
973
975
976
977
974
972
969
977
978
978
975
973
972
976
981
980
978
978
977
980
982
983
981
980
981
983
984
986
984
982
983
989
991
989
987
987
988
990
994
994
990
990
989
992
994
995
994
994
998
1003
1004
1006
1006
1008
1010
1010
1015
1014
1012
1012
1017
1019
1025
1025
1021
1020
1020
1022
1026
1021
1019
1017
1016
1017
1013
1011
1009
1005
1009
1012
1014
1012
1013
1012
1012
1015
1017
1015
1013
1012
1015
1017
1022
1019
1019
1020
1020
1027
1027
1026
1026
1023
1020
1017
1013
1007
1003
1007
1024
1054
1111
1191
1273
1351
1420
1463
1479
1461
1393
1272
1144
1016
972
981
995
1000
999
1002
1006
1006
1009
1012
1024
1037
1046
1050
1048
1047
1048
1051
1054
1057
1053
1053
1056
1057
1061
1060
1058
1057
1059
1063
1065
1064
1065
1063
1067
1069
1071
1069
1066
1066
1069
1072
1073
1072
1072
1067
1076
1079
1082
1080
1078
1078
1079
1084
1086
1083
1081
1079
1083
1088
1092
1087
1090
1089
1092
1095
1098
1099
1098
1096
1099
1103
1105
1107
1106
1106
1113
1116
1120
1119
1121
1122
1124
1128
1134
1135
1136
1136
1140
1146
1150
1155
1152
1155
1158
1164
1172
1174
1177
1181
1184
1190
1198
1200
1203
1207
1213
1220
1226
1227
1232
1235
1240
1245
1254
1257
1259
1263
1267
1274
1278
1278
1277
1277
1277
1276
1274
1267
1257
1248
1244
1238
1227
1216
1200
1191
1179
1172
1164
1150
1139
1128
1121
1116
1107
1100
1095
1085
1081
1081
1079
1074
1068
1065
1064
1064
1063
1064
1063
1057
1059
1058
1060
1058
1057
1055
1058
1059
1059
1057
1053
1054
1052
1056
1059
1059
1054
1051
1053
1059
1059
1057
1056
1053
1055
1059
1059
1059
1058
1057
1055
1058
1062
1060
1059
1057
1059
1061
1062
1058
1059
1058
1059
1062
1063
1061
1056
1055
1056
1061
1060
1059
1059
1056
1058
1060
1062
1061
1057
1052
1056
1058
1059
1057
1057
1055
1055
1057
1059
1059
1054
1051
1053
1055
1057
1056
1055
1051
1055
1056
1057
1054
1055
1047
1050
1055
1054
1055
1052
1049
1054
1053
1056
1056
1053
1050
1053
1055
1054
1053
1053
1049
1052
1054
1056
1053
1050
1048
1051
1052
1052
1053
1049
1047
1049
1052
1053
1053
1047
1047
1049
1050
1051
1051
1049
1046
1045
1050
1052
1052
1048
1049
1052
1054
1058
1058
1060
1061
1063
1066
1066
1064
1059
1063
1067
1071
1072
1071
1066
1064
1063
1062
1064
1060
1058
1054
1050
1050
1050
1048
1042
1045
1048
1050
1049
1050
1046
1045
1047
1047
1047
1050
1047
1046
1047
1049
1050
1047
1046
1046
1050
1053
1053
1046
1037
1028
1024
1022
1025
1036
1059
1105
1176
1261
1344
1408
1447
1463
1456
1415
1320
1192
1064
983
984
1005
1013
1010
1006
1009
1012
1021
1028
1036
1042
1047
1052
1057
1056
1058
1053
1053
1052
1055
1059
1058
1055
1052
1054
1060
1063
1061
1058
1055
1060
1064
1065
1062
1059
1058
1056
1062
1062
1060
1061
1061
1062
1066
1067
1069
1064
1061
1064
1067
1068
1069
1065
1064
1067
1072
1071
1071
1068
1070
1072
1074
1078
1076
1076
1075
1077
1079
1083
1082
1082
1081
1083
1085
1091
1091
1089
1090
1093
1097
1102
1099
1103
1103
1108
1112
1117
1118
1117
1120
1125
1131
1137
1140
1144
1146
1150
1160
1162
1168
1170
1172
1180
1185
1194
1194
1200
1199
1207
1215
1220
1223
1226
1226
1232
1236
1238
1238
1232
1225
1221
1218
1211
1196
1181
1168
1156
1146
1136
1124
1107
1098
1089
1080
1073
1063
1053
1048
1040
1037
1034
1029
1022
1018
1018
1017
1013
1010
1008
1004
1005
1002
1005
1004
1002
999
999
999
1003
1001
998
997
997
999
1002
1000
999
997
995
1000
1001
998
994
992
992
995
998
998
994
990
990
996
997
997
995
991
990
992
995
993
990
988
990
989
991
991
986
987
989
990
991
988
983
981
982
984
983
981
978
976
980
980
981
981
978
975
978
979
979
975
973
972
975
978
977
974
973
972
969
974
972
973
970
970
969
970
970
972
969
965
963
968
970
965
963
960
964
965
966
964
959
960
959
963
965
962
960
961
960
962
961
960
960
958
958
960
958
961
960
959
956
960
959
959
957
953
957
960
958
959
958
956
955
956
959
958
956
954
956
960
965
965
965
965
966
967
967
967
966
964
968
972
968
964
965
962
964
964
963
960
956
951
950
951
952
950
947
944
941
946
949
948
946
944
947
949
950
946
945
945
949
949
952
953
949
944
947
944
938
932
923
919
925
943
982
1041
1112
1199
1284
1349
1381
1394
1369
1297
1169
1041
920
882
889
903
910
913
910
912
915
919
930
941
950
953
950
951
949
955
954
954
952
953
953
952
955
956
954
951
954
957
957
956
955
952
953
956
959
958
956
955
958
961
961
960
959
959
959
960
963
963
962
958
964
965
969
965
963
964
964
969
971
970
969
967
971
973
976
974
972
973
978
982
983
984
982
984
986
991
996
997
996
999
1002
1007
1010
1014
1015
1015
1021
1025
1034
1035
1037
1039
1044
1052
1056
1061
1063
1068
1076
1084
1091
1091
1094
1100
1105
1113
1119
1123
1126
1127
1130
1138
1142
1140
1135
1132
1128
1124
1118
1107
1095
1082
1072
1060
1050
1037
1019
1009
1001
991
983
973
961
952
948
944
942
936
930
926
922
923
923
920
915
912
910
914
913
913
905
905
909
911
909
909
910
905
906
909
909
905
903
902
905
907
907
909
903
902
904
905
907
907
906
900
903
907
904
903
901
902
903
904
904
907
903
903
903
905
904
903
900
899
902
901
902
899
899
895
896
897
899
895
893
891
893
898
900
897
895
892
893
897
894
893
893
890
892
895
898
894
893
891
892
893
897
894
893
887
891
897
896
894
892
892
894
894
894
890
890
889
890
892
893
891
886
888
891
896
895
894
888
889
890
893
894
895
889
890
890
892
895
893
890
887
891
894
893
896
893
891
892
896
897
896
894
890
893
896
897
895
892
890
891
895
897
896
894
888
891
896
896
894
891
891
894
896
897
898
895
894
898
902
903
905
905
902
905
907
911
913
913
909
910
912
914
912
906
907
904
903
907
903
897
895
896
898
900
897
893
893
895
897
902
898
896
895
896
898
901
901
898
897
901
903
905
906
899
895
888
887
883
881
882
895
936
1004
1093
1192
1276
1338
1373
1362
1302
1174
1046
918
831
847
869
873
865
863
865
872
882
890
896
903
908
911
914
912
911
907
911
914
917
916
914
914
916
918
920
918
915
918
918
922
925
921
921
920
922
925
929
925
923
922
924
930
931
929
931
929
932
932
936
936
930
931
934
940
940
943
939
940
942
945
949
950
951
949
953
956
959
960
962
964
967
972
977
980
982
981
989
992
996
998
1002
1006
1013
1022
1027
1031
1035
1038
1045
1054
1060
1064
1069
1072
1081
1089
1095
1098
1101
1104
1111
1119
1121
1124
1120
1119
1117
1113
1107
1099
1083
1072
1062
1048
1040
1029
1012
1001
991
981
971
962
951
942
936
929
926
923
916
914
911
911
908
904
902
898
898
903
905
902
898
897
897
898
901
899
896
896
895
897
896
900
898
895
895
900
902
900
898
896
894
897
901
900
896
896
899
904
902
903
902
899
901
903
907
902
899
898
902
903
906
903
900
900
901
904
903
902
899
900
901
901
904
900
902
897
899
900
900
902
898
896
897
898
899
898
892
894
896
898
903
899
896
895
895
898
900
894
896
895
896
899
899
897
895
892
894
898
898
895
895
892
893
899
896
897
895
894
896
900
901
898
896
896
897
896
902
898
897
895
896
901
904
900
897
896
897
901
902
901
898
897
897
901
900
900
898
898
898
901
904
903
900
898
898
901
903
899
899
898
900
905
907
902
904
902
907
911
912
911
914
912
914
919
919
919
918
918
921
919
921
919
918
914
915
917
913
913
909
905
906
908
909
906
904
905
905
907
912
910
907
906
907
912
916
912
909
909
913
916
917
913
914
909
904
902
896
895
897
912
948
1011
1103
1200
1285
1346
1383
1372
1299
1171
1043
915
846
868
889
890
882
879
883
893
900
910
917
919
924
925
926
926
925
926
928
932
931
930
928
929
932
937
936
936
934
933
934
937
941
939
937
937
936
939
943
941
940
939
942
946
949
947
945
945
947
951
952
954
951
949
952
955
956
956
953
952
955
962
963
965
963
963
967
970
974
975
975
975
980
983
987
988
990
990
993
1000
1005
1008
1006
1012
1015
1019
1025
1030
1034
1038
1045
1053
1059
1063
1067
1072
1078
1087
1093
1097
1101
1107
1115
1121
1128
1133
1135
1136
1135
1137
1134
1123
1106
1090
1077
1060
1045
1027
1009
995
980
976
966
957
947
940
939
937
936
931
928
924
923
925
925
925
923
916
920
922
921
919
917
917
919
921
923
923
918
917
919
921
923
924
919
917
921
921
925
923
921
917
920
923
927
925
922
920
922
924
927
926
921
922
923
925
927
925
921
921
922
923
926
924
920
918
918
924
924
920
916
917
920
922
925
921
917
920
921
923
926
924
918
921
919
922
923
920
920
916
920
922
924
922
915
918
919
922
924
921
918
917
919
920
923
923
919
917
920
922
923
922
918
915
918
922
924
923
920
919
921
924
923
921
920
921
921
925
923
923
923
920
922
923
927
927
924
923
924
925
928
928
925
921
923
927
928
927
925
920
925
925
928
927
926
924
924
927
931
933
927
926
928
932
933
929
926
927
928
932
934
929
929
928
932
935
936
936
932
932
939
938
942
942
940
942
945
944
945
950
947
948
949
949
953
952
947
946
944
947
946
943
937
933
937
940
939
939
937
933
938
940
943
940
938
937
938
941
944
943
940
942
944
947
949
947
941
932
926
927
927
926
933
948
999
1073
1170
1268
1348
1401
1421
1395
1314
1186
1058
930
880
901
917
917
912
909
912
918
925
934
937
945
951
951
952
952
949
950
950
953
952
955
955
953
955
957
961
958
955
954
956
961
963
962
958
957
959
963
965
964
961
960
962
967
968
966
967
966
966
970
971
971
970
968
969
973
976
975
973
970
973
976
980
981
981
981
980
984
987
985
984
985
986
995
997
994
999
999
1001
1006
1012
1015
1014
1014
1021
1024
1030
1030
1033
1035
1037
1051
1056
1061
1062
1067
1073
1081
1086
1091
1094
1099
1104
1108
1118
1122
1123
1128
1133
1140
1146
1151
1147
1151
1151
1154
1151
1151
1140
1131
1126
1117
1108
1094
1083
1071
1062
1050
1038
1028
1016
1006
998
992
985
976
965
960
956
952
948
947
945
936
937
938
940
935
934
929
931
931
931
931
929
925
927
928
927
928
924
924
929
929
930
928
927
926
