979
984
985
982
980
978
978
980
978
977
979
983
985
991
991
992
989
990
993
1000
1003
1004
1008
1013
1017
1024
1025
1027
1030
1038
1044
1053
1054
1056
1057
1063
1065
1067
1071
1071
1067
1064
1063
1060
1057
1055
1053
1054
1053
1054
1052
1051
1046
1046
1047
1047
1045
1042
1041
1045
1049
1050
1046
1040
1040
1043
1047
1047
1042
1038
1036
1041
1044
1045
1042
1038
1036
1036
1035
1037
1036
1033
1035
1035
1038
1036
1031
1029
1028
1023
1027
1031
1032
1028
1028
1028
1031
1034
1031
1027
1024
1025
1030
1031
1030
1029
1028
1029
1033
1034
1031
1029
1028
1030
1031
1031
1031
1029
1029
1033
1033
1036
1035
1033
1031
1027
1030
1035
1032
1030
1031
1032
1031
1032
1033
1033
1031
1035
1035
1034
1025
1022
1023
1024
1027
1032
1035
1033
1029
1029
1033
1032
1030
1031
1030
1032
1033
1031
1026
1021
1021
1023
1028
1028
1026
1024
1022
1024
1028
1031
1031
1025
1023
1025
1026
1031
1032
1029
1028
1033
1035
1036
1033
1027
1019
1016
1017
1026
1029
1029
1028
1029
1030
1031
1029
1025
1027
1029
1034
1036
1033
1031
1028
1030
1032
1035
1034
1034
1033
1034
1034
1034
1036
1039
1040
1041
1041
1044
1043
1039
1041
1045
1051
1052
1051
1047
1043
1043
1041
1043
1045
1044
1043
1044
1046
1043
1042
1040
1043
1046
1046
1044
1040
1038
1031
1032
1036
1036
1035
1034
1033
1037
1040
1042
1040
1035
1029
1029
1032
1033
1034
1032
1031
1036
1041
1043
1038
1034
1032
1036
1041
1041
1040
1036
1034
1037
1046
1052
1062
1072
1087
1102
1122
1145
1169
1200
1237
1274
1312
1347
1374
1404
1442
1476
1494
1475
1416
1323
1222
1149
1110
1082
1060
1048
1045
1044
1043
1037
1028
1022
1018
1019
1019
1021
1017
1014
1010
1007
1010
1011
1007
1006
1005
1006
1009
1009
1007
1006
1004
1003
1007
1007
1002
997
998
1001
1003
1003
1002
996
994
995
998
997
995
991
990
993
994
997
994
994
992
995
995
990
983
980
983
989
990
991
992
987
984
984
982
982
981
981
980
983
986
989
985
983
981
984
985
988
987
987
989
992
996
999
998
996
998
1004
1009
1013
1016
1012
1015
1022
1026
1034
1037
1039
1044
1052
1058
1061
1061
1057
1057
1059
1065
1068
1068
1064
1059
1057
1061
1062
1064
1056
1054
1051
1048
1048
1047
1045
1045
1045
1051
1053
1051
1046
1041
1040
1043
1046
1045
1042
1041
1040
1042
1041
1041
1039
1038
1039
1043
1042
1037
1032
1030
1031
1032
1034
1036
1035
1035
1034
1036
1033
1031
1028
1033
1034
1036
1036
1031
1025
1022
1025
1032
1033
1034
1029
1028
1031
1036
1038
1033
1029
1027
1031
1036
1036
1032
1029
1029
1030
1035
1036
1035
1033
1032
1030
1033
1032
1031
1030
1029
1034
1035
1034
1028
1025
1027
1030
1035
1034
1028
1024
1027
1030
1031
1032
1030
1027
1026
1031
1030
1030
1027
1026
1027
1031
1028
1027
1027
1029
1030
1030
1031
1029
1028
1026
1024
1023
1024
1025
1025
1023
1024
1028
1027
1029
1025
1025
1024
1025
1027
1030
1030
1029
1031
1029
1030
1026
1022
1024
1026
1026
1029
1028
1021
1022
1024
1029
1030
1034
1034
1034
1034
1039
1040
1038
1038
1032
1031
1034
1039
1042
1040
1037
1038
1040
1041
1043
1040
1037
1032
1034
1040
1041
1038
1037
1038
1038
1039
1035
1030
1024
1020
1020
1025
1029
1028
1024
1027
1024
1022
1024
1026
1025
1024
1022
1022
1023
1022
1018
1017
1022
1026
1030
1029
1026
1021
1020
1025
1027
1028
1028
1030
1034
1043
1049
1059
1071
1082
1102
1126
1156
1193
1230
1270
1310
1344
1376
1406
1441
1472
1485
1470
1415
1322
1220
1140
1092
1068
1051
1038
1028
1026
1022
1023
1020
1017
1009
1004
1006
1008
1009
1007
1003
998
995
1000
1004
1002
998
994
992
993
993
990
989
989
987
989
992
992
990
991
991
992
986
984
982
983
983
984
987
984
979
984
984
987
985
982
979
980
982
983
981
977
975
976
979
984
982
980
977
972
976
981
982
983
978
978
978
982
984
981
981
983
989
994
992
992
988
985
992
1001
1008
1008
1009
1011
1017
1024
1028
1033
1035
1038
1043
1052
1053
1053
1048
1047
1049
1055
1057
1056
1050
1049
1050
1051
1050
1042
1037
1037
1039
1042
1041
1037
1032
1030
1032
1035
1036
1031
1030
1030
1030
1035
1032
1032
1028
1026
1025
1032
1030
1028
1028
1027
1026
1028
1026
1022
1019
1019
1023
1025
1025
1018
1016
1019
1021
1024
1022
1017
1014
1017
1021
1021
1022
1018
1017
1016
1016
1021
1019
1018
1015
1017
1019
1027
1026
1021
1016
1014
1018
1020
1020
1018
1014
1012
1015
1022
1022
1018
1014
1009
1012
1016
1018
1012
1008
1008
1013
1015
1018
1017
1014
1013
1013
1015
1016
1014
1012
1015
1013
1014
1013
1011
1012
1009
1013
1013
1012
1010
1009
1010
1010
1011
1010
1011
1010
1012
1015
1012
1008
1007
1011
1010
1011
1010
1010
1006
1008
1009
1014
1017
1016
1013
1008
1005
1009
1012
1015
1013
1010
1009
1008
1011
1014
1013
1015
1014
1018
1019
1021
1018
1015
1017
1021
1029
1029
1028
1024
1024
1022
1024
1025
1023
1022
1020
1022
1019
1021
1020
1019
1021
1025
1028
1030
1027
1024
1026
1025
1023
1020
1016
1012
1017
1016
1019
1016
1014
1011
1006
1012
1015
1016
1016
1011
1012
1013
1016
1016
1014
1013
1015
1015
1016
1014
1011
1012
1015
1016
1019
1021
1022
1018
1024
1028
1031
1035
1038
1044
1058
1076
1095
1114
1137
1166
1203
1244
1281
1312
1345
1369
1406
1448
1475
1483
1457
1393
1299
1203
1134
1089
1060
1043
1032
1030
1028
1025
1020
1012
1007
1004
1001
1000
996
994
991
994
993
995
993
989
990
989
992
992
988
985
983
983
984
984
984
983
983
984
988
988
987
983
980
983
986
982
978
976
980
983
985
982
976
971
973
980
984
984
981
979
977
976
980
983
985
983
983
983
980
976
972
970
972
975
979
976
975
973
976
981
987
987
984
982
982
985
990
991
991
996
1003
1006
1011
1009
1008
1010
1017
1022
1031
1034
1037
1039
1037
1042
1041
1043
1042
1042
1044
1046
1046
1046
1049
1044
1043
1040
1040
1036
1034
1033
1030
1030
1028
1028
1024
1027
1028
1032
1036
1032
1024
1021
1021
1025
1031
1030
1027
1023
1025
1026
1028
1024
1020
1017
1016
1019
1020
1018
1018
1015
1015
1019
1021
1022
1020
1014
1015
1017
1021
1021
1021
1014
1014
1014
1020
1023
1021
1018
1019
1019
1020
1019
1018
1020
1016
1018
1015
1018
1017
1017
1017
1021
1022
1021
1019
1016
1017
1018
1016
1016
1017
1015
1015
1018
1021
1022
1022
1018
1017
1016
1017
1016
1013
1012
1014
1019
1021
1024
1020
1013
1009
1011
1013
1013
1012
1013
1018
1020
1020
1021
1016
1009
1009
1013
1017
1018
1015
1014
1012
1013
1014
1015
1013
1014
1010
1012
1016
1015
1015
1011
1013
1013
1012
1012
1014
1019
1020
1021
1023
1020
1016
1015
1017
1018
1016
1013
1012
1016
1019
1021
1021
1018
1020
1020
1024
1027
1035
1039
1036
1032
1026
1025
1023
1023
1027
1025
1027
1030
1034
1030
1027
1020
1023
1031
1037
1038
1036
1028
1028
1027
1030
1025
1020
1019
1020
1026
1032
1031
1026
1020
1021
1019
1021
1022
1018
1014
1017
1023
1022
1022
1020
1019
1017
1021
1026
1028
1028
1026
1025
1024
1032
1038
1045
1048
1059
1079
1099
1118
1141
1176
1222
1271
1313
1352
1384
1413
1456
1499
1527
1520
1479
1392
1283
1187
1123
1085
1065
1052
1049
1036
1027
1023
1019
1012
1008
1006
1006
1005
998
996
996
999
1002
999
997
989
990
989
990
986
985
990
990
989
990
983
980
981
983
983
978
976
974
975
978
979
978
973
971
970
971
974
978
977
975
970
968
971
973
973
967
960
960
962
968
968
967
961
961
962
966
966
962
959
957
958
964
967
967
967
967
972
974
974
973
974
979
982
987
990
992
998
1006
1010
1017
1019
1024
1029
1033
1046
1050
1053
1050
1049
1044
1049
1055
1051
1047
1041
1042
1044
1048
1047
1042
1038
1034
1032
1033
1036
1034
1032
1032
1036
1039
1036
1030
1025
1023
1027
1033
1032
1030
1025
1024
1029
1034
1031
1027
1019
1018
1021
1026
1025
1021
1020
1020
1023
1026
1025
1025
1017
1016
1015
1021
1022
1022
1019
1016
1016
1014
1014
1013
1011
1013
1014
1019
1018
1013
1011
1014
1019
1024
1023
1021
1015
1014
1015
1016
1021
1022
1019
1020
1020
1023
1019
1016
1015
1013
1017
1018
1021
1018
1017
1015
1016
1019
1021
1018
1018
1017
1019
1019
1019
1018
1016
1015
1017
1018
1019
1017
1015
1013
1013
1017
1018
1018
1019
1019
1016
1012
1009
1011
1016
1019
1019
1020
1013
1011
1010
1014
1015
1019
1016
1014
1015
1018
1019
1022
1019
1017
1017
1017
1022
1023
1020
1019
1017
1016
1021
1021
1019
1018
1021
1022
1021
1020
1020
1023
1024
1024
1028
1033
1032
1032
1030
1026
1027
1026
1029
1027
1028
1028
1030
1030
1030
1028
1032
1031
1033
1033
1030
1025
1024
1027
1022
1021
1016
1015
1014
1020
1020
1024
1019
1016
1016
1016
1018
1021
1020
1019
1016
1013
1015
1023
1024
1023
1020
1019
1023
1025
1021
1021
1023
1031
1037
1044
1053
1067
1092
1122
1159
1209
1265
1318
1372
1420
1475
1519
1530
1480
1359
1231
1129
1084
1062
1049
1039
1034
1027
1023
1014
1007
1002
1003
1005
1007
1003
997
986
985
993
999
999
994
988
987
991
994
993
990
985
980
979
981
982
980
978
978
979
981
979
979
974
974
976
975
978
976
972
974
977
978
977
975
971
968
970
972
973
973
972
972
968
970
967
968
971
975
980
983
979
972
970
972
979
987
988
988
990
990
997
1005
1012
1014
1017
1020
1026
1032
1036
1041
1045
1050
1057
1059
1061
1059
1062
1061
1061
1061
1062
1058
1053
1054
1051
1052
1047
1043
1042
1045
1043
1046
1044
1038
1037
1035
1036
1038
1036
1034
1032
1033
1036
1041
1042
1041
1042
1038
1040
1041
1042
1038
1035
1033
1032
1035
1037
1030
1027
1026
1027
1030
1028
1021
1022
1022
1027
1028
1023
1021
1020
1022
1024
1028
1026
1023
1019
1020
1021
1023
1025
1022
1019
1022
1025
1026
1024
1023
1019
1022
1028
1031
1029
1026
1024
1024
1028
1031
1029
1025
1019
1015
1017
1024
1023
1022
1019
1020
1022
1028
1028
1027
1025
1023
1025
1029
1027
1026
1023
1025
1026
1028
1027
1026
1024
1026
1026
1026
1026
1026
1022
1021
1023
1026
1024
1020
1018
1018
1021
1022
1023
1017
1019
1019
1024
1024
1026
1023
1022
1019
1021
1024
1027
1023
1023
1022
1022
1024
1022
1019
1019
1016
1018
1019
1022
1021
1017
1018
1019
1021
1019
1018
1017
1021
1024
1028
1030
1030
1030
1030
1031
1032
1033
1027
1024
1028
1031
1034
1033
1029
1026
1026
1030
1034
1032
1031
1030
1033
1036
1038
1038
1035
1032
1032
1038
1039
1034
1028
1022
1022
1025
1029
1025
1022
1019
1022
1026
1026
1024
1022
1020
1021
1024
1027
1028
1027
1028
1026
1027
1027
1023
1019
1018
1021
1024
1024
1023
1024
1022
1024
1026
1027
1031
1033
1034
1040
1042
1048
1060
1075
1091
1113
1137
1165
1196
1233
1269
1308
1343
1376
1402
1429
1460
1494
1517
1525
1512
1479
1419
1335
1253
1184
1132
1095
1069
1057
1050
1046
1037
1030
1025
1023
1022
1021
1018
1007
1003
1004
1002
1004
1003
999
996
996
998
999
998
995
993
996
999
1000
996
990
987
985
988
993
992
990
987
990
989
987
987
983
981
983
984
986
986
985
978
978
978
979
979
977
977
975
977
977
975
973
972
975
975
977
974
973
971
976
975
977
975
972
971
971
974
977
974
970
969
970
974
974
977
972
972
970
975
976
978
976
975
979
984
990
991
988
992
997
999
1003
1006
1007
1012
1020
1028
1034
1036
1038
1042
1047
1053
1059
1060
1057
1055
1054
1055
1058
1055
1051
1047
1048
1051
1055
1050
1047
1042
1039
1040
1043
1044
1040
1036
1037
1037
1038
1034
1034
1029
1032
1034
1037
1035
1031
1029
1029
1033
1036
1034
1031
1029
1028
1030
1034
1031
1031
1027
1029
1033
1032
1025
1016
1011
1014
1023
1025
1025
1020
1020
1019
1022
1022
1021
1017
1016
1020
1020
1021
1023
1016
1013
1016
1022
1023
1022
1020
1018
1019
1020
1024
1022
1021
1019
1023
1025
1027
1023
1023
1022
1023
1026
1026
1025
1021
1020
1025
1031
1033
1029
1024
1025
1026
1030
1029
1024
1017
1019
1022
1025
1027
1025
1022
1020
1018
1023
1026
1024
1023
1021
1021
1023
1026
1024
1024
1020
1024
1025
1027
1024
1021
1018
1023
1024
1026
1023
1018
1015
1017
1020
1022
1024
1023
1021
1023
1025
1028
1024
1020
1016
1019
1023
1024
1022
1019
1018
1023
1026
1026
1024
1021
1020
1023
1024
1030
1030
1031
1030
1031
1035
1037
1034
1033
1030
1034
1035
1036
1037
1035
1032
1031
1033
1036
1035
1035
1032
1033
1031
1037
1036
1038
1038
1041
1041
1040
1036
1031
1024
1021
1022
1027
1024
1025
1024
1027
1029
1031
1030
1024
1025
1024
1028
1031
1033
1032
1029
1027
1027
1029
1027
1028
1024
1031
1031
1032
1027
1021
1020
1025
1031
1034
1035
1032
1036
1042
1050
1064
1073
1086
1101
1119
1143
1175
1213
1247
1279
1317
1353
1383
1405
1435
1465
1494
1511
1509
1481
1421
1335
1242
1173
1129
1092
1062
1047
1039
1040
1035
1030
1025
1022
1020
1021
1018
1012
1004
1002
1001
1004
1006
1002
997
995
994
994
998
996
994
995
998
996
998
995
991
988
988
989
992
989
987
986
985
986
989
988
986
983
984
985
983
983
979
975
978
982
981
979
978
977
979
988
985
984
981
975
970
972
975
975
975
975
973
978
976
973
971
969
972
979
980
978
976
977
978
981
986
985
987
987
992
996
1006
1010
1011
1010
1007
1015
1024
1031
1034
1039
1045
1052
1054
1053
1051
1050
1052
1053
1059
1052
1049
1044
1044
1047
1047
1042
1037
1036
1037
1040
1041
1041
1034
1032
1028
1030
1031
1030
1029
1030
1028
1031
1033
1034
1033
1028
1027
1024
1028
1025
1024
1023
1025
1027
1028
1025
1019
1017
1018
1021
1023
1021
1018
1018
1018
1023
1025
1021
1020
1017
1018
1020
1020
1022
1019
1018
1019
1019
1019
1015
1016
1014
1018
1020
1023
1017
1016
1015
1017
1021
1021
1023
1021
1021
1019
1020
1023
1022
1019
1019
1023
1023
1024
1022
1020
1017
1019
1025
1026
1024
1019
1016
1018
1019
1024
1026
1023
1020
1020
1020
1020
1022
1021
1018
1014
1018
1017
1020
1019
1017
1017
1019
1022
1020
1017
1013
1017
1018
1022
1016
1017
1016
1017
1019
1022
1020
1018
1016
1020
1022
1025
1024
1020
1014
1015
1015
1020
1018
1016
1014
1018
1022
1019
1020
1017
1016
1018
1021
1022
1018
1016
1017
1023
1024
1026
1026
1026
1025
1027
1030
1033
1033
1031
1028
1028
1035
1030
1027
1024
1019
1020
1023
1028
1029
1026
1026
1027
1028
1030
1030
1030
1030
1029
1027
1027
1022
1016
1016
1017
1023
1027
1027
1021
1015
1018
1019
1024
1020
1017
1018
1018
1022
1024
1019
1017
1016
1018
1018
1020
1017
1019
1017
1019
1022
1022
1022
1018
1021
1025
1035
1050
1060
1072
1085
1105
1132
1162
1203
1241
1280
1321
1359
1386
1417
1452
1482
1492
1470
1409
1313
1211
1133
1086
1056
1040
1030
1026
1025
1022
1018
1015
1011
1007
1003
1003
1000
997
996
994
988
988
994
996
990
987
988
989
995
997
992
985
981
980
983
983
982
981
977
979
981
982
978
972
971
976
978
980
979
976
973
976
978
975
976
972
974
973
976
972
967
966
969
973
975
975
972
970
968
969
974
976
973
972
972
977
984
983
978
974
970
974
980
983
991
988
988
996
1003
1008
1011
1009
1016
1027
1036
1041
1042
1045
1048
1058
1063
1056
1047
1038
1039
1041
1042
1044
1041
1038
1036
1038
1039
1040
1033
1032
1031
1034
1035
1034
1032
1030
1031
1029
1030
1030
1027
1024
1023
1025
1027
1028
1029
1027
1026
1028
1026
1024
1026
1019
1021
1023
1026
1023
1023
1021
1021
1022
1025
1024
1021
1018
1013
1015
1023
1021
1023
1019
1020
1018
1019
1024
1025
1020
1018
1022
1024
1026
1024
1020
1019
1019
1021
1023
1024
1019
1018
1023
1024
1026
1024
1019
1017
1022
1023
1026
1026
1021
1021
1022
1025
1026
1024
1020
1020
1023
1022
1022
1020
1019
1018
1020
1025
1026
1021
1014
1016
1020
1023
1025
1018
1015
1016
1022
1023
1023
1020
1017
1016
1018
1019
1021
1021
1014
1010
1011
1018
1020
1020
1017
1014
1013
1016
1019
1020
1018
1017
1021
1024
1025
1021
1012
1012
1016
1019
1019
1019
1017
1016
1020
1020
1021
1020
1018
1018
1023
1021
1021
1022
1020
1022
1027
1035
1036
1029
1020
1021
1025
1032
1033
1034
1029
1028
1027
1027
1025
1027
1029
1027
1028
1031
1034
1035
1032
1034
1035
1031
1029
1027
1020
1020
1020
1022
1022
1021
1020
1018
1023
1022
1026
1024
1020
1019
1017
1021
1023
1019
1017
1016
1018
1023
1026
1023
1020
1021
1023
1030
1028
1031
1027
1028
1032
1037
1047
1056
1065
1082
1097
1118
1143
1172
1203
1240
1279
1322
1358
1388
1423
1456
1480
1477
1440
1367
1271
1182
1118
1083
1061
1044
1033
1028
1027
1028
1029
1021
1015
1009
1003
1004
1003
1002
1002
1001
1003
1006
1008
998
994
993
995
998
999
998
996
993
993
994
992
993
993
991
991
988
989
986
988
990
992
990
988
984
984
981
986
989
986
984
982
981
985
987
988
983
979
978
982
987
989
987
986
983
979
980
981
984
982
981
985
985
986
983
981
979
981
983
984
985
985
985
989
993
994
994
991
994
1003
1006
1010
1013
1011
1014
1018
1028
1033
1040
1042
1044
1051
1056
1058
1054
1053
1051
1056
1061
1063
1060
1054
1053
1055
1055
1056
1051
1048
1045
1048
1050
1048
1043
1041
1040
1042
1046
1047
1043
1042
1042
1042
1038
1036
1040
1037
1039
1044
1046
1040
1033
1029
1028
1032
1034
1033
1030
1030
1031
1035
1033
1028
1027
1026
1028
1027
1033
1031
1028
1027
1027
1031
1029
1027
1024
1025
1028
1032
1033
1031
1026
1025
1028
1031
1036
1037
1034
1029
1028
1029
1032
1032
1032
1032
1030
1030
1028
1029
1027
1023
1026
1029
1030
1027
1028
1024
1025
1028
1030
1030
1028
1025
1025
1027
1034
1032
1033
1033
1029
1030
1029
1024
1022
1020
1019
1023
1027
1029
1026
1024
1023
1023
1024
1027
1028
1025
1022
1022
1024
1026
1028
1023
1021
1023
1026
1025
1027
1024
1026
1026
1028
1022
1014
1011
1013
1020
1024
1025
1024
1021
1020
1019
1020
1020
1023
1018
1022
1027
1027
1026
1029
1025
1025
1031
1035
1037
1036
1037
1035
1033
1031
1028
1025
1023
1023
1024
1029
1028
1029
1030
1035
1039
1041
1034
1028
1026
1028
1027
1027
1024
1023
1019
1016
1018
1022
1021
1021
1018
1016
1018
1021
1023
1024
1023
1021
1023
1021
1021
1017
1012
1013
1014
1021
1024
1020
1016
1016
1020
1024
1027
1022
1021
1026
1036
1045
1051
1063
1074
1089
1109
1138
1167
1205
1239
1275
1314
1346
1372
1400
1438
1469
1485
1467
1413
1326
1226
1149
1098
1070
1048
1034
1025
1023
1024
1023
1020
1013
1006
999
996
996
998
996
995
991
995
995
994
991
989
985
992
995
994
990
985
983
985
988
986
982
978
977
982
987
986
986
983
981
983
985
986
982
977
978
981
986
984
983
980
976
980
983
984
980
975
978
979
981
983
977
977
976
975
975
978
979
977
978
982
983
985
980
975
973
981
985
988
991
989
990
992
993
989
991
992
996
1000
1008
1012
1018
1023
1023
1027
1032
1036
1039
1039
1043
1044
1047
1049
1048
1044
1045
1047
1046
1044
1041
1039
1036
1036
1037
1037
1035
1032
1028
1029
1032
1034
1030
1026
1025
1027
1029
1028
1026
1023
1024
1025
1024
1023
1024
1023
1022
1023
1024
1023
1021
1019
1016
1022
1027
1024
1021
1016
1017
1020
1019
1018
1017
1016
1015
1017
1022
1022
1020
1016
1012
1012
1017
1017
1017
1018
1019
1017
1015
