1029
1032
1035
1034
1032
1033
1028
1030
1030
1027
1026
1023
1022
1025
1029
1031
1027
1023
1021
1028
1030
1028
1025
1022
1023
1026
1028
1026
1024
1023
1024
1026
1029
1029
1027
1024
1026
1028
1032
1031
1031
1029
1034
1041
1051
1063
1073
1087
1100
1126
1162
1200
1237
1270
1305
1342
1390
1435
1464
1457
1408
1328
1230
1146
1083
1042
1024
1022
1027
1028
1028
1023
1022
1023
1023
1019
1016
1009
1007
1009
1010
1009
1008
1006
1007
1008
1011
1011
1006
1007
1007
1008
1011
1011
1008
1003
1005
1006
1009
1007
1005
1004
1004
1006
1007
1008
1004
1000
1002
1003
1004
1007
1002
1001
1001
1001
1006
1004
1005
1004
1003
1007
1008
1008
1006
1003
1006
1005
1009
1009
1009
1007
1005
1010
1012
1010
1010
1008
1011
1011
1014
1014
1012
1014
1014
1017
1020
1020
1018
1018
1020
1025
1029
1029
1028
1028
1031
1037
1044
1044
1048
1045
1051
1054
1060
1062
1067
1069
1070
1074
1080
1084
1083
1079
1084
1083
1084
1083
1081
1079
1079
1076
1078
1074
1068
1066
1063
1065
1067
1060
1058
1053
1056
1056
1058
1054
1052
1053
1051
1054
1056
1055
1050
1047
1049
1051
1055
1053
1052
1048
1047
1050
1052
1051
1050
1047
1047
1049
1050
1049
1046
1044
1043
1045
1048
1049
1044
1044
1045
1044
1043
1047
1044
1042
1041
1039
1044
1044
1042
1041
1042
1044
1046
1045
1045
1044
1042
1046
1048
1049
1047
1042
1045
1046
1049
1049
1049
1045
1047
1050
1050
1048
1045
1045
1045
1048
1050
1049
1049
1045
1046
1047
1048
1045
1047
1044
1047
1048
1049
1049
1047
1046
1043
1047
1049
1049
1045
1043
1045
1043
1047
1047
1046
1043
1044
1047
1048
1045
1042
1043
1044
1047
1051
1048
1046
1043
1045
1045
1047
1046
1044
1040
1043
1042
1046
1044
1045
1042
1042
1044
1046
1045
1042
1040
1042
1045
1045
1043
1042
1040
1039
1042
1045
1044
1042
1039
1040
1042
1045
1043
1042
1040
1042
1043
1044
1042
1041
1039
1040
1044
1048
1045
1042
1037
1041
1047
1046
1045
1042
1042
1044
1049
1050
1051
1049
1051
1050
1055
1054
1053
1054
1049
1054
1056
1057
1055
1054
1051
1050
1050
1053
1049
1046
1046
1047
1054
1057
1056
1053
1050
1049
1052
1053
1053
1047
1043
1042
1044
1048
1047
1043
1040
1041
1043
1045
1044
1045
1041
1043
1044
1044
1046
1045
1042
1043
1044
1046
1048
1043
1042
1041
1046
1047
1044
1047
1045
1048
1048
1053
1052
1054
1058
1067
1077
1090
1100
1107
1119
1138
1166
1197
1225
1252
1279
1304
1334
1373
1413
1447
1463
1449
1404
1317
1215
1128
1076
1051
1042
1047
1047
1047
1042
1041
1041
1044
1038
1032
1027
1025
1026
1029
1026
1022
1022
1023
1026
1027
1027
1023
1017
1019
1022
1024
1023
1020
1019
1019
1021
1021
1022
1019
1016
1021
1022
1021
1020
1016
1016
1016
1016
1018
1017
1014
1014
1014
1017
1016
1018
1016
1013
1014
1016
1019
1018
1017
1014
1014
1015
1020
1017
1017
1015
1017
1016
1021
1020
1020
1016
1015
1022
1023
1024
1022
1020
1019
1024
1027
1028
1026
1024
1029
1033
1037
1037
1038
1039
1042
1046
1052
1053
1057
1057
1060
1064
1067
1073
1075
1075
1077
1082
1085
1082
1080
1079
1079
1081
1082
1077
1075
1070
1072
1069
1071
1069
1063
1060
1059
1058
1061
1057
1054
1052
1052
1055
1053
1054
1052
1050
1052
1050
1053
1052
1049
1046
1045
1048
1049
1048
1043
1043
1043
1045
1048
1046
1044
1043
1045
1045
1047
1045
1041
1038
1042
1044
1045
1043
1044
1041
1041
1041
1045
1047
1046
1041
1043
1044
1047
1048
1046
1043
1044
1047
1049
1046
1045
1043
1044
1048
1050
1046
1044
1039
1041
1044
1048
1046
1045
1039
1040
1045
1047
1045
1040
1040
1041
1041
1044
1041
1041
1041
1041
1044
1045
1042
1040
1036
1038
1038
1043
1042
1038
1036
1036
1039
1041
1040
1039
1036
1037
1037
1039
1041
1038
1037
1036
1037
1039
1038
1036
1033
1035
1039
1039
1039
1036
1036
1035
1036
1041
1042
1036
1036
1033
1037
1039
1039
1036
1035
1034
1037
1040
1038
1035
1034
1036
1040
1040
1039
1033
1032
1035
1037
1038
1039
1036
1037
1035
1037
1039
1037
1037
1035
1036
1041
1043
1040
1043
1042
1043
1045
1050
1050
1046
1048
1047
1050
1053
1053
1049
1049
1047
1046
1048
1046
1044
1043
1043
1046
1050
1048
1045
1045
1046
1047
1049
1047
1043
1038
1035
1036
1040
1040
1037
1036
1037
1041
1043
1039
1037
1035
1037
1038
1042
1042
1038
1036
1038
1038
1041
1040
1039
1036
1037
1039
1041
1039
1038
1038
1038
1041
1045
1046
1047
1048
1055
1064
1078
1088
1099
1105
1124
1148
1184
1215
1246
1277
1310
1349
1392
1436
1470
1470
1434
1359
1258
1166
1100
1059
1037
1035
1039
1040
1035
1034
1030
1032
1032
1027
1022
1020
1018
1021
1022
1020
1018
1015
1015
1019
1021
1016
1015
1013
1014
1014
1018
1013
1012
1010
1011
1014
1014
1014
1011
1010
1011
1013
1014
1011
1010
1007
1009
1010
1013
1013
1009
1007
1007
1009
1011
1013
1011
1006
1008
1011
1013
1013
1011
1008
1009
1011
1013
1015
1013
1011
1013
1017
1016
1017
1018
1015
1016
1019
1023
1023
1022
1021
1021
1025
1031
1033
1035
1035
1039
1044
1046
1049
1053
1051
1057
1064
1069
1071
1072
1073
1074
1080
1083
1084
1082
1080
1080
1078
1082
1080
1075
1072
1072
1069
1070
1066
1062
1059
1058
1057
1056
1057
1052
1050
1047
1049
1051
1049
1048
1045
1046
1048
1045
1046
1043
1043
1045
1045
1048
1044
1041
1041
1041
1043
1047
1043
1039
1037
1039
1039
1040
1039
1041
1038
1041
1040
1040
1039
1037
1035
1038
1039
1044
1043
1038
1037
1038
1043
1046
1046
1042
1041
1042
1046
1047
1047
1044
1043
1043
1048
1047
1045
1043
1042
1042
1047
1047
1047
1044
1042
1043
1045
1048
1047
1047
1044
1045
1044
1047
1045
1040
1040
1045
1044
1045
1041
1041
1042
1044
1046
1046
1045
1041
1040
1041
1042
1047
1045
1041
1039
1038
1041
1043
1044
1044
1038
1041
1041
1046
1042
1041
1036
1038
1043
1046
1046
1042
1037
1039
1043
1047
1043
1040
1038
1038
1041
1046
1045
1043
1042
1039
1040
1044
1042
1041
1039
1041
1043
1045
1044
1041
1039
1043
1044
1047
1046
1041
1040
1043
1046
1052
1052
1050
1046
1047
1049
1055
1054
1055
1052
1052
1054
1055
1053
1051
1045
1048
1050
1053
1050
1047
1045
1046
1048
1051
1053
1050
1047
1048
1050
1050
1045
1040
1039
1042
1044
1045
1043
1042
1038
1042
1041
1044
1043
1039
1039
1039
1043
1043
1041
1039
1038
1039
1040
1043
1043
1041
1039
1039
1044
1044
1045
1042
1040
1044
1049
1053
1057
1059
1065
1080
1093
1106
1119
1139
1165
1198
1226
1261
1288
1315
1344
1382
1425
1456
1453
1420
1351
1251
1160
1103
1065
1044
1034
1041
1043
1043
1042
1036
1033
1031
1032
1030
1027
1023
1020
1020
1022
1023
1021
1018
1016
1016
1015
1020
1017
1017
1013
1016
1016
1016
1016
1014
1013
1014
1015
1016
1014
1011
1008
1009
1010
1011
1010
1010
1009
1009
1011
1010
1010
1006
1005
1005
1009
1011
1010
1006
1005
1007
1009
1010
1009
1008
1009
1008
1011
1012
1011
1005
1004
1005
1008
1012
1011
1008
1007
1008
1011
1011
1010
1008
1006
1011
1011
1016
1017
1012
1013
1014
1019
1021
1025
1024
1021
1021
1028
1033
1035
1036
1036
1042
1044
1048
1052
1049
1050
1055
1060
1067
1067
1069
1068
1074
1073
1077
1076
1075
1074
1076
1078
1078
1074
1069
1067
1067
1068
1071
1067
1062
1058
1058
1057
1058
1055
1054
1050
1052
1052
1053
1050
1048
1043
1045
1047
1048
1047
1046
1041
1044
1045
1047
1046
1043
1039
1042
1045
1044
1042
1039
1038
1037
1039
1043
1039
1039
1034
1037
1038
1040
1041
1039
1035
1036
1038
1040
1038
1035
1034
1037
1039
1040
1040
1037
1037
1037
1040
1041
1040
1037
1036
1035
1040
1042
1039
1039
1038
1039
1043
1043
1042
1036
1034
1035
1037
1041
1040
1038
1037
1037
1037
1038
1036
1033
1032
1031
1035
1035
1033
1032
1031
1032
1040
1044
1044
1039
1032
1034
1037
1039
1039
1036
1035
1033
1036
1035
1033
1028
1027
1031
1035
1041
1038
1036
1031
1032
1034
1039
1035
1032
1033
1033
1038
1039
1034
1029
1028
1030
1036
1042
1038
1033
1030
1034
1036
1038
1037
1034
1034
1033
1036
1036
1039
1036
1035
1038
1042
1043
1039
1037
1034
1035
1038
1041
1039
1036
1034
1039
1039
1041
1040
1037
1034
1037
1038
1041
1039
1037
1036
1036
1038
1041
1040
1037
1039
1040
1044
1047
1047
1044
1043
1044
1048
1053
1051
1048
1049
1050
1056
1058
1054
1052
1050
1051
1053
1052
1051
1046
1045
1046
1051
1053
1052
1051
1050
1052
1054
1055
1055
1052
1049
1049
1052
1054
1050
1046
1043
1045
1048
1052
1052
1047
1045
1047
1048
1048
1046
1046
1044
1047
1049
1052
1050
1046
1046
1044
1048
1052
1051
1049
1048
1047
1051
1053
1051
1050
1051
1051
1053
1058
1061
1064
1067
1077
1090
1102
1108
1117
1131
1151
1182
1209
1233
1257
1282
1311
1345
1382
1422
1447
1451
1430
1378
1300
1210
1137
1089
1059
1045
1043
1045
1045
1045
1042
1045
1046
1041
1033
1027
1027
1028
1031
1030
1024
1022
1022
1026
1027
1025
1020
1018
1022
1023
1026
1024
1020
1018
1021
1020
1020
1021
1016
1015
1015
1015
1016
1012
1011
1011
1013
1016
1016
1013
1011
1005
1011
1012
1013
1014
1010
1008
1009
1012
1014
1011
1009
1009
1009
1010
1014
1015
1013
1008
1010
1015
1013
1015
1012
1008
1013
1014
1017
1019
1014
1012
1015
1018
1019
1019
1020
1018
1021
1024
1026
1028
1026
1030
1030
1034
1041
1041
1041
1042
1047
1052
1059
1059
1059
1061
1065
1072
1076
1074
1074
1072
1075
1079
1081
1077
1072
1069
1069
1068
1068
1069
1064
1062
1059
1058
1058
1054
1050
1048
1051
1053
1054
1051
1047
1044
1044
1047
1049
1050
1048
1042
1042
1044
1046
1044
1039
1041
1043
1043
1045
1045
1041
1039
1041
1042
1044
1040
1037
1034
1036
1040
1042
1039
1038
1037
1037
1039
1041
1037
1036
1034
1037
1041
1045
1042
1039
1035
1037
1040
1043
1044
1040
1038
1039
1041
1043
1042
1042
1038
1039
1043
1043
1039
1038
1038
1041
1042
1043
1039
1034
1038
1038
1039
1041
1041
1038
1037
1038
1037
1038
1037
1037
1035
1037
1039
1041
1037
1034
1032
1036
1038
1039
1036
1035
1033
1033
1036
1037
1036
1031
1032
1031
1036
1036
1035
1032
1028
1032
1033
1036
1035
1031
1030
1032
1035
1034
1034
1034
1031
1032
1038
1038
1036
1035
1031
1033
1036
1039
1037
1035
1032
1032
1035
1035
1037
1033
1032
1037
1038
1038
1036
1033
1032
1033
1038
1040
1037
1032
1032
1031
1035
1039
1037
1035
1034
1037
1036
1036
1035
1033
1035
1035
1037
1040
1038
1038
1035
1041
1041
1044
1047
1043
1042
1041
1047
1050
1049
1047
1047
1050
1054
1054
1048
1045
1042
1044
1047
1051
1046
1044
1043
1047
1049
1051
1051
1048
1048
1047
1050
1050
1045
1041
1036
1038
1040
1046
1043
1043
1041
1041
1045
1044
1044
1042
1038
1040
1043
1043
1043
1040
1040
1041
1045
1046
1045
1040
1039
1040
1045
1048
1046
1043
1043
1046
1052
1059
1061
1065
1076
1090
1103
1114
1126
1145
1173
1206
1239
1270
1299
1325
1359
1406
1451
1475
1463
1412
1328
1227
1147
1093
1059
1041
1041
1043
1047
1045
1042
1038
1034
1035
1032
1033
1030
1026
1023
1023
1024
1027
1023
1022
1020
1022
1024
1026
1024
1022
1019
1020
1024
1025
1023
1018
1019
1017
1018
1021
1018
1015
1014
1017
1018
1017
1017
1013
1013
1016
1018
1015
1015
1013
1012
1013
1017
1015
1015
1013
1011
1013
1014
1017
1018
1014
1014
1014
1017
1020
1017
1015
1014
1017
1020
1020
1020
1017
1016
1019
1022
1024
1024
1023
1020
1023
1030
1032
1032
1033
1031
1037
1044
1048
1048
1047
1049
1053
1056
1064
1066
1068
1071
1072
1077
1083
1085
1084
1085
1086
1089
1090
1088
1084
1080
1082
1083
1082
1074
1071
1067
1068
1065
1066
1062
1058
1056
1057
1058
1056
1054
1054
1053
1050
1055
1056
1051
1049
1050
1050
1052
1052
1051
1047
1045
1046
1050
1050
1047
1043
1043
1039
1044
1045
1043
1039
1040
1041
1044
1046
1042
1039
1037
1040
1038
1041
1039
1037
1037
1036
1041
1040
1038
1038
1038
1038
1041
1042
1042
1037
1039
1039
1043
1043
1043
1039
1040
1042
1044
1046
1043
1040
1040
1040
1041
1043
1043
1040
1043
1040
1044
1043
1041
1040
1040
1042
1045
1045
1043
1040
1038
1041
1043
1045
1041
1042
1038
1042
1043
1045
1042
1041
1039
1042
1041
1045
1039
1039
1038
1040
1039
1042
1040
1034
1033
1036
1039
1039
1038
1035
1036
1036
1040
1040
1042
1037
1037
1037
1040
1038
1039
1037
1039
1039
1041
1041
1040
1037
1035
1037
1040
1041
1039
1034
1035
1037
1039
1041
1038
1035
1036
1036
1042
1042
1039
1037
1036
1039
1042
1044
1042
1039
1036
1040
1043
1042
1044
1042
1045
1046
1048
1048
1046
1046
1045
1046
1051
1053
1052
1050
1049
1049
1051
1052
1048
1044
1044
1042
1046
1046
1045
1044
1046
1045
1048
1051
1049
1048
1045
1046
1048
1049
1046
1039
1035
1037
1041
1040
1041
1037
1036
1038
1040
1040
1040
1036
1035
1038
1040
1040
1039
1037
1033
1035
1036
1041
1039
1037
1039
1039
1045
1043
1041
1038
1040
1043
1046
1048
1050
1052
1055
1064
1074
1088
1099
1107
1122
1147
1178
1209
1236
1262
1292
1319
1349
1385
1422
1455
1470
1468
1434
1371
1279
1193
1124
1078
1051
1038
1036
1034
1037
1038
1039
1041
1037
1032
1027
1026
1026
1027
1023
1020
1022
1019
1021
1022
1019
1016
1016
1017
1020
1022
1017
1014
1011
1016
1017
1020
1017
1014
1012
1015
1017
1018
1015
1013
1011
1013
1015
1016
1014
1011
1012
1013
1016
1018
1015
1011
1012
1012
1016
1014
1014
1011
1014
1015
1017
1017
1016
1012
1011
1013
1017
1020
1018
1014
1013
1017
1018
1019
1017
1016
1016
1016
1019
1022
1021
1019
1018
1021
1024
1025
1027
1027
1028
1031
1035
1038
1040
1038
1043
1045
1051
1055
1055
1057
1059
1065
1072
1076
1078
1076
1079
1081
1087
1087
1087
1086
1086
1085
1089
1090
1085
1080
1077
1077
1077
1075
1073
1066
1065
1064
1065
1061
1060
1055
1054
1055
1057
1054
1052
1049
1047
1049
1051
1052
1050
1046
1046
1048
1047
1051
1048
1046
1044
1046
1048
1044
1043
1040
1043
1044
1046
1046
1043
1040
1041
1041
1043
1044
1044
1041
1037
1039
1042
1039
1040
1040
1038
1038
1042
1042
1040
1040
1038
1040
1045
1046
1044
1043
1041
1041
1046
1047
1044
1042
1041
1043
1046
1047
1044
1043
1041
1043
1045
1045
1041
1042
1036
1039
1046
1044
1045
1040
1038
1039
1044
1045
1043
1041
1038
1040
1044
1044
1040
1040
1037
1040
1042
1042
1038
1038
1036
1040
1041
1040
1041
1035
1034
1036
1039
1041
1040
1037
1036
1037
1039
1041
1039
1035
1032
1037
1039
1040
1037
1036
1033
1038
1037
1038
1038
1032
1035
1034
1038
1038
1035
1035
1033
1037
1038
1039
1033
1036
1033
1035
1038
1040
1037
1032
1031
1036
1035
1039
1038
1036
1033
1036
1038
1039
1038
1038
1036
1038
1041
1043
1044
1040
1042
1047
1050
1049
1050
1048
1047
1047
1053
1054
1051
1050
1047
1045
1047
1046
1046
1044
1044
1045
1048
1049
1047
1047
1046
1047
1049
1050
1044
1039
1034
1039
1041
1041
1040
1040
1037
1038
1041
1042
1039
1037
1037
1039
1041
1041
1039
1036
1037
1041
1044
1041
1043
1038
1036
1038
1040
1041
1042
1037
1040
1043
1045
1046
1049
1048
1053
1062
1076
1088
1100
1107
1118
1144
1176
1209
1236
1261
1293
1322
1361
1402
1439
1457
1446
1398
1318
1215
1129
1072
1044
1032
1034
1041
1043
1040
1037
1036
1036
1037
1032
1027
1022
1023
1025
1029
1026
1021
1023
1023
1024
1026
1023
1020
1019
1019
1023
1024
1021
1016
1016
1016
1022
1024
1021
1017
1017
1019
1020
1019
1016
1015
1015
1019
1017
1019
1016
1015
1013
1016
1020
1021
1018
1017
1013
1015
1019
1019
1018
1014
1014
1018
1020
1017
1018
1017
1015
1020
1022
1021
1018
1018
1018
1020
1023
1029
1027
1025
1023
1028
1030
1036
1034
1037
1039
1043
1049
1053
1056
1054
1056
1063
1067
1073
1073
1074
1076
1081
1087
1088
1088
1082
1081
1083
1085
1084
1081
1077
1073
1070
1070
1068
1063
1058
1059
1059
1058
1057
1053
1052
1048
1051
1055
1053
1049
1046
1046
1047
1050
1052
1049
1050
1046
1047
1050
1046
1045
1040
1039
1041
1044
1045
1040
1037
1037
1038
1043
1040
1038
1035
1035
1037
1040
1038
1037
1036
1034
1038
1041
1040
1037
1035
1037
1037
1042
1040
1039
1039
1039
1040
1040
1043
1041
1039
1037
1042
1043
1042
1042
1037
1037
1038
1041
1042
1040
1038
1034
1036
1039
1041
1036
1035
1035
1036
1036
1037
1035
1034
1032
1034
1038
1041
1038
1033
1032
1034
1034
1038
1038
1033
1033
1033
1037
1038
1037
1032
1033
1035
1036
1037
1033
1033
1031
1033
1035
1035
1035
1034
1035
1037
1038
1038
1034
1032
1033
1033
1037
1037
1035
1034
1031
1036
1039
1039
1035
1033
1033
1033
1034
1035
1035
1032
1033
1036
1036
1034
1034
1032
1034
1034
1037
1039
1037
1032
1032
1036
1038
1035
1034
1034
1034
1035
1041
1041
1042
1039
1039
1044
1046
1049
1045
1044
1045
1049
1053
1053
1049
1045
1042
1043
1046
1046
1046
1042
1041
1044
1048
1047
1048
1048
1045
1046
1049
1046
1042
1036
1034
1038
1041
1040
1040
1036
1038
1038
1043
1042
1040
1036
1037
1037
1039
1039
1037
1038
1036
1040
1042
1043
1041
1039
1038
1040
1044
1043
1042
1043
1043
1048
1052
1057
1062
1067
1079
1090
1102
1115
1131
1155
1185
1216
1250
1280
1310
1342
1385
1433
1457
1449
1396
1302
1192
1108
1060
1042
1033
1035
1036
1040
1040
1038
1035
1031
1028
1028
1024
1024
1022
1021
1017
1021
1022
1023
1019
1020
1017
1020
1020
1020
1018
1014
1014
1016
1016
1017
1016
1013
1012
1015
1014
1015
1011
1009
1010
1013
1012
1013
1010
1009
1008
1011
1011
1013
1008
1008
1008
1010
1012
1011
1011
1008
1009
1012
1013
1012
1012
1008
1009
1009
1015
1016
1014
1012
1013
1015
1018
1016
1016
1016
1014
1017
1020
1022
1021
1022
1024
1029
1033
1037
1037
1036
1042
1049
1056
1059
1061
1062
1065
1070
1076
1074
1074
1071
1072
1074
1077
1074
1072
1067
1066
1064
1065
1061
1057
1055
1051
1052
1052
1054
1048
1047
1048
1046
1049
1050
1047
1043
1043
1044
1045
1046
1043
1042
1042
1041
1042
1042
1045
1041
1038
1042
1044
1043
1041
1039
1038
1041
1041
1042
1042
1039
1038
1039
1043
1042
1042
1039
1040
1043
1044
1044
1041
1041
1040
1045
1046
1048
1045
1043
1041
1045
1046
1046
1043
1040
1042
1045
1044
1047
1043
1042
1041
1042
1046
1045
1041
1038
1038
1042
1044
1044
1040
1040
1038
1040
1044
1042
1041
1039
1036
1038
1042
1039
1041
1035
1033
1038
1041
1039
1038
1035
1036
1034
1040
1038
1036
1033
1033
1035
1037
1037
1036
1035
1034
1037
1040
1039
1037
1034
1034
1036
1039
1037
1035
1035
1036
1037
1039
1039
1036
1033
1032
1034
1037
1038
1035
1032
1032
1035
1039
1038
1037
1037
1033
1037
1041
1041
1038
1034
1033
1036
1039
1038
1039
1037
1037
1038
1040
1040
1037
1034
1036
1039
1043
1043
1042
1038
1040
1043
1047
1050
1047
1048
1047
1050
1051
1053
1052
1048
1048
1050
1052
1050
1050
1043
1043
1045
1047
1049
1049
1045
1045
1048
1051
1053
1051
1050
1051
1049
1049
1044
1041
1037
1040
1040
1045
1043
1043
1038
1039
1043
1044
1043
1042
1041
1040
1042
1046
1045
1042
1039
1040
1041
1046
1046
1043
1039
1037
1042
1045
1044
1045
1042
1041
1045
1050
1050
1052
1051
1056
1067
1076
1088
1098
1106
1116
1136
1164
1195
1224
1250
1280
1309
1343
1376
1415
1451
1472
1468
1434
1363
1271
1178
1114
1074
1051
1040
1037
1038
1039
1043
1044
1041
1036
1032
1030
1029
1030
1028
1025
1022
1021
1024
1027
1025
1024
1021
1020
1023
1023
1024
1021
1020
1022
1021
1023
1023
1021
1015
1018
1020
1022
1022
1019
1018
1017
1017
1019
1017
1018
1013
1014
1017
1022
1020
1016
1013
1015
1015
1017
1019
1016
1013
1013
1013
1017
1016
1016
1013
1016
1014
1019
1018
1017
1016
1014
1015
1020
1020
1019
1014
1018
1021
1023
1024
1022
1021
1021
1025
1027
1030
1028
1027
1028
1033
1038
1039
1039
1038
1042
1044
1052
1053
1057
1058
1062
1067
1071
1076
1079
1077
1077
1084
1085
1089
1086
1081
1083
1084
1084
1082
1080
1076
1074
1075
1072
1069
1064
1059
1057
