1030
1027
1026
1026
1030
1034
1036
1038
1034
1033
1037
1037
1040
1039
1037
1034
1037
1035
1036
1034
1031
1027
1032
1036
1039
1036
1033
1034
1035
1038
1040
1039
1034
1033
1032
1031
1032
1029
1026
1025
1026
1032
1031
1031
1027
1026
1027
1028
1031
1030
1027
1026
1025
1027
1028
1031
1027
1027
1026
1030
1029
1031
1028
1024
1025
1030
1032
1032
1030
1028
1032
1036
1042
1049
1056
1063
1077
1086
1098
1115
1137
1168
1203
1236
1270
1298
1330
1367
1415
1447
1456
1426
1366
1279
1189
1118
1069
1039
1023
1019
1024
1030
1029
1028
1023
1016
1015
1016
1013
1010
1008
1006
1004
1008
1008
1008
1002
1003
1005
1004
1005
1006
1002
1000
1003
1005
1007
1005
1001
998
997
1002
1004
1004
998
998
998
1000
1002
1000
999
997
998
1001
1004
1000
999
999
998
1001
1005
1004
1001
999
1000
1002
1004
1004
1001
1001
1004
1003
1006
1006
1001
1002
1003
1008
1008
1009
1006
1005
1008
1012
1015
1016
1016
1015
1017
1021
1028
1027
1027
1028
1032
1036
1040
1041
1041
1044
1049
1056
1061
1063
1060
1063
1064
1070
1072
1073
1069
1067
1066
1069
1070
1067
1064
1061
1059
1060
1059
1054
1050
1045
1046
1047
1046
1042
1039
1035
1036
1038
1041
1038
1035
1034
1035
1035
1037
1038
1035
1030
1032
1034
1036
1033
1031
1028
1033
1034
1035
1032
1028
1029
1028
1031
1032
1032
1030
1027
1026
1030
1031
1028
1032
1027
1027
1030
1031
1031
1029
1029
1031
1035
1035
1035
1032
1029
1031
1032
1036
1033
1030
1028
1032
1033
1034
1033
1032
1029
1029
1030
1033
1033
1030
1028
1029
1031
1033
1031
1027
1026
1027
1027
1030
1029
1026
1025
1027
1030
1030
1026
1024
1024
1026
1026
1028
1028
1026
1023
1026
1027
1025
1027
1026
1023
1025
1028
1029
1029
1024
1024
1026
1028
1030
1028
1023
1023
1025
1028
1029
1027
1025
1024
1025
1030
1031
1031
1026
1025
1024
1027
1030
1031
1027
1027
1027
1029
1032
1030
1025
1025
1028
1028
1031
1029
1027
1024
1027
1030
1033
1033
1030
1026
1027
1031
1031
1033
1031
1029
1031
1034
1039
1038
1036
1035
1037
1039
1042
1041
1042
1038
1041
1042
1045
1042
1037
1035
1035
1035
1038
1035
1036
1034
1037
1037
1039
1037
1036
1035
1036
1039
1039
1037
1033
1027
1027
1029
1031
1032
1026
1025
1027
1029
1031
1029
1026
1024
1028
1031
1031
1031
1027
1025
1026
1029
1032
1032
1028
1027
1030
1031
1031
1032
1031
1028
1031
1037
1038
1038
1034
1036
1042
1052
1059
1069
1074
1087
1098
1115
1140
1164
1189
1211
1238
1269
1296
1328
1366
1402
1426
1421
1385
1311
1219
1136
1080
1043
1031
1024
1021
1024
1028
1032
1032
1029
1025
1020
1020
1023
1019
1016
1014
1011
1013
1015
1015
1014
1008
1008
1010
1011
1014
1012
1011
1010
1009
1013
1014
1013
1010
1006
1008
1012
1013
1009
1010
1008
1006
1008
1009
1007
1003
1003
1004
1008
1009
1008
1005
1004
1005
1009
1012
1010
1009
1009
1010
1011
1010
1012
1010
1009
1009
1010
1011
1011
1008
1006
1009
1011
1016
1014
1013
1010
1012
1016
1017
1018
1015
1016
1018
1021
1023
1021
1021
1022
1025
1030
1031
1033
1033
1033
1037
1043
1046
1048
1048
1048
1051
1057
1062
1062
1063
1063
1068
1072
1074
1075
1070
1071
1073
1072
1078
1073
1067
1065
1065
1066
1063
1061
1056
1053
1053
1053
1050
1048
1043
1043
1043
1048
1047
1046
1041
1038
1041
1043
1042
1043
1036
1037
1038
1040
1043
1041
1035
1034
1035
1038
1040
1039
1036
1034
1036
1036
1039
1037
1035
1031
1034
1037
1040
1037
1033
1030
1029
1032
1033
1032
1032
1031
1031
1034
1035
1033
1032
1029
1032
1035
1038
1033
1031
1030
1032
1034
1037
1036
1035
1034
1036
1039
1041
1036
1033
1034
1036
1038
1037
1037
1034
1032
1034
1038
1037
1037
1032
1033
1036
1038
1037
1034
1030
1030
1033
1034
1036
1035
1031
1030
1032
1032
1036
1036
1032
1031
1033
1034
1035
1032
1030
1031
1031
1035
1038
1036
1030
1029
1030
1032
1032
1034
1032
1029
1032
1034
1038
1033
1030
1029
1031
1033
1035
1034
1032
1029
1031
1034
1033
1032
1031
1030
1030
1034
1034
1032
1029
1029
1030
1034
1036
1032
1032
1028
1030
1031
1033
1034
1031
1032
1032
1032
1036
1033
1031
1028
1032
1035
1038
1034
1032
1032
1031
1034
1034
1034
1033
1031
1033
1031
1035
1034
1032
1030
1035
1036
1039
1035
1034
1031
1032
1034
1034
1035
1034
1035
1036
1040
1041
1042
1041
1041
1044
1046
1049
1047
1045
1044
1044
1048
1049
1047
1041
1038
1039
1042
1044
1042
1037
1039
1044
1046
1050
1048
1045
1044
1042
1046
1046
1040
1038
1032
1035
1039
1038
1036
1034
1034
1034
1038
1037
1036
1031
1033
1035
1037
1038
1036
1034
1031
1032
1035
1037
1037
1031
1031
1034
1039
1037
1036
1033
1034
1036
1041
1042
1043
1042
1044
1049
1059
1070
1079
1088
1092
1103
1124
1145
1170
1195
1220
1251
1285
1320
1359
1400
1431
1438
1417
1361
1273
1176
1105
1057
1032
1023
1024
1028
1028
1030
1030
1030
1026
1022
1016
1016
1017
1017
1014
1012
1010
1010
1013
1013
1011
1006
1006
1009
1010
1012
1007
1006
1004
1006
1007
1008
1007
1002
1002
1002
1006
1005
1002
1000
1002
1001
1001
1002
1001
1001
996
999
1004
1002
1004
999
998
1000
1004
1002
1002
1002
998
999
1003
1004
999
1002
999
1003
1005
1003
1001
1002
998
1002
1005
1008
1006
1003
1005
1003
1008
1009
1009
1007
1008
1013
1013
1015
1015
1013
1014
1016
1022
1024
1025
1024
1025
1030
1032
1035
1036
1034
1039
1043
1048
1051
1051
1051
1054
1057
1062
1065
1065
1064
1063
1063
1066
1066
1065
1060
1058
1058
1059
1059
1055
1050
1047
1047
1048
1046
1047
1041
1038
1040
1039
1040
1040
1035
1033
1035
1037
1037
1036
1032
1031
1031
1034
1035
1032
1031
1029
1029
1032
1034
1030
1027
1028
1030
1034
1033
1033
1028
1026
1030
1031
1032
1030
1026
1027
1027
1030
1031
1030
1029
1026
1029
1030
1033
1031
1031
1028
1028
1033
1035
1035
1029
1032
1032
1033
1034
1034
1031
1031
1031
1033
1032
1033
1029
1027
1029
1032
1030
1030
1027
1026
1028
1031
1032
1028
1026
1024
1025
1028
1029
1029
1025
1023
1027
1029
1029
1025
1024
1024
1026
1027
1028
1029
1023
1024
1023
1025
1030
1028
1022
1023
1025
1025
1027
1027
1022
1022
1024
1026
1027
1027
1023
1024
1026
1027
1028
1029
1027
1022
1025
1028
1030
1028
1028
1024
1026
1030
1028
1028
1026
1026
1029
1030
1029
1028
1027
1023
1024
1027
1030
1029
1028
1025
1027
1028
1031
1028
1027
1025
1029
1030
1032
1029
1026
1028
1030
1034
1031
1031
1030
1028
1028
1032
1034
1031
1027
1027
1030
1031
1032
1031
1028
1026
1031
1036
1040
1039
1036
1037
1038
1042
1045
1043
1042
1040
1044
1047
1046
1048
1042
1039
1042
1043
1042
1039
1036
1038
1040
1042
1043
1041
1040
1039
1041
1046
1046
1043
1041
1039
1034
1034
1035
1032
1031
1030
1033
1036
1039
1034
1031
1032
1034
1034
1037
1035
1031
1030
1033
1034
1034
1034
1030
1031
1034
1035
1037
1035
1034
1033
1036
1036
1040
1039
1035
1037
1039
1045
1047
1049
1053
1063
1077
1090
1098
1106
1118
1144
1175
1206
1236
1263
1289
1316
1355
1397
1432
1455
1452
1416
1349
1263
1178
1112
1065
1037
1029
1032
1038
1037
1033
1028
1030
1030
1027
1022
1017
1016
1015
1018
1018
1016
1010
1010
1014
1016
1018
1015
1009
1010
1010
1012
1013
1013
1012
1010
1009
1009
1011
1009
1007
1006
1006
1010
1011
1007
1006
1003
1006
1008
1011
1008
1005
1002
1006
1008
1011
1007
1003
1005
1006
1009
1008
1006
1004
1005
1010
1011
1010
1010
1007
1007
1010
1011
1017
1015
1013
1011
1014
1017
1017
1019
1018
1017
1022
1025
1027
1026
1026
1028
1032
1037
1041
1044
1042
1043
1047
1052
1057
1060
1058
1060
1067
1072
1073
1076
1075
1075
1078
1084
1085
1082
1076
1076
1078
1078
1076
1077
1070
1066
1066
1067
1063
1062
1056
1054
1054
1057
1055
1053
1050
1048
1047
1047
1052
1049
1044
1044
1046
1050
1048
1047
1044
1042
1044
1043
1047
1045
1044
1044
1045
1048
1047
1043
1043
1043
1043
1045
1045
1043
1042
1040
1043
1044
1043
1044
1040
1039
1041
1045
1043
1041
1039
1038
1041
1044
1046
1047
1041
1042
1043
1048
1048
1046
1043
1043
1046
1046
1049
1049
1047
1044
1045
1048
1047
1046
1043
1041
1044
1046
1048
1044
1039
1041
1041
1044
1044
1043
1040
1040
1042
1042
1042
1040
1038
1037
1041
1042
1044
1042
1038
1039
1042
1043
1044
1043
1042
1042
1044
1045
1045
1042
1038
1038
1040
1043
1047
1041
1038
1038
1038
1040
1042
1038
1037
1037
1039
1040
1041
1040
1036
1036
1039
1044
1043
1042
1039
1037
1039
1041
1042
1039
1037
1038
1039
1043
1041
1041
1038
1038
1038
1037
1039
1039
1039
1037
1039
1039
1040
1041
1039
1038
1040
1042
1042
1043
1037
1039
1041
1044
1043
1045
1041
1041
1042
1045
1047
1046
1046
1047
1049
1054
1054
1052
1052
1051
1054
1055
1057
1053
1050
1048
1050
1051
1052
1050
1046
1046
1047
1052
1054
1054
1051
1050
1050
1052
1050
1046
1044
1041
1045
1045
1046
1042
1038
1037
1041
1042
1044
1043
1040
1041
1040
1043
1043
1043
1042
1039
1038
1041
1042
1041
1039
1042
1042
1045
1045
1043
1042
1044
1047
1052
1053
1059
1060
1068
1079
1094
1105
1113
1127
1151
1181
1212
1238
1268
1289
1324
1365
1412
1439
1441
1408
1344
1254
1173
1111
1068
1045
1033
1036
1043
1044
1038
1036
1038
1037
1036
1033
1025
1024
1022
1021
1027
1025
1025
1019
1018
1023
1025
1026
1022
1020
1016
1020
1021
1023
1019
1017
1020
1019
1022
1023
1018
1015
1013
1016
1017
1018
1016
1013
1014
1016
1017
1017
1015
1013
1012
1014
1019
1019
1018
1016
1012
1014
1018
1017
1015
1013
1012
1014
1016
1017
1014
1012
1012
1013
1017
1019
1018
1014
1013
1018
1020
1019
1018
1017
1018
1020
1023
1025
1025
1025
1025
1030
1033
1033
1033
1031
1032
1038
1042
1043
1045
1045
1047
1052
1058
1061
1061
1061
1063
1067
1073
1077
1074
1074
1073
1075
1079
1080
1079
1070
1070
1069
1072
1068
1069
1063
1060
1060
1059
1058
1056
1052
1051
1054
1053
1053
1047
1043
1044
1045
1047
1049
1047
1042
1043
1045
1046
1046
1044
1041
1042
1043
1044
1043
1042
1038
1039
1043
1044
1044
1042
1039
1036
1038
1039
1041
1040
1036
1035
1038
1039
1041
1038
1035
1035
1037
1040
1040
1038
1036
1035
1036
1038
1038
1038
1032
1033
1034
1038
1038
1035
1031
1033
1032
1035
1035
1032
1032
1029
1031
1033
1035
1033
1029
1028
1030
1031
1033
1031
1030
1026
1027
1028
1030
1028
1025
1027
1026
1028
1028
1026
1024
1023
1027
1028
1029
1025
1023
1022
1025
1027
1027
1023
1019
1019
1023
1025
1024
1021
1020
1021
1021
1023
1023
1022
1020
1017
1023
1025
1023
1021
1018
1019
1021
1021
1024
1021
1021
1022
1022
1026
1025
1021
1019
1017
1022
1023
1025
1021
1018
1020
1021
1023
1024
1020
1020
1017
1020
1024
1023
1021
1018
1018
1020
1023
1021
1020
1015
1018
1018
1024
1020
1022
1018
1017
1020
1024
1024
1022
1018
1021
1022
1026
1026
1026
1027
1025
1029
1031
1032
1032
1029
1030
1034
1037
1036
1033
1030
1028
1028
1033
1028
1029
1027
1028
1028
1029
1030
1032
1029
1029
1032
1035
1034
1029
1024
1024
1024
1024
1023
1024
1022
1020
1022
1026
1026
1024
1023
1023
1022
1025
1025
1024
1019
1021
1024
1025
1026
1025
1021
1022
1022
1025
1027
1024
1024
1021
1025
1027
1028
1028
1028
1031
1037
1047
1055
1061
1072
1079
1090
1108
1130
1155
1183
1213
1244
1276
1308
1344
1385
1422
1445
1438
1397
1321
1230
1149
1092
1052
1029
1018
1018
1018
1021
1023
1023
1017
1014
1010
1008
1009
1005
1005
999
1001
1001
1004
1002
1001
999
998
998
1001
1003
1001
997
997
999
999
1000
998
998
995
997
1000
1000
994
993
992
993
999
998
997
994
995
995
999
996
997
994
998
996
999
999
998
992
996
999
1001
1001
1001
998
998
1002
1003
1002
1003
999
1000
1002
1004
1007
1006
1004
1006
1007
1012
1014
1015
1011
1016
1020
1024
1027
1027
1028
1033
1037
1040
1044
1047
1048
1050
1055
1060
1063
1065
1065
1067
1067
1071
1071
1069
1068
1066
1066
1065
1064
1058
1053
1051
1050
1051
1049
1046
1041
1038
1038
1040
1041
1037
1033
1031
1034
1035
1035
1031
1032
1031
1033
1034
1032
1030
1029
1027
1032
1033
1032
1029
1027
1027
1028
1030
1031
1030
1027
1027
1026
1029
1028
1026
1024
1028
1027
1029
1029
1026
1025
1023
1028
1029
1032
1028
1026
1026
1029
1032
1032
1032
1029
1029
1034
1034
1035
1030
1028
1029
1029
1034
1034
1030
1027
1029
1031
1033
1033
1031
1027
1029
1028
1033
1031
1031
1026
1028
1027
1031
1029
1030
1024
1025
1028
1030
1029
1027
1026
1024
1026
1027
1028
1028
1024
1025
1026
1028
1025
1025
1023
1023
1025
1026
1025
1024
1021
1022
1025
1028
1027
1024
1022
1024
1026
1026
1027
1024
1025
1024
1025
1027
1026
1023
1023
1024
1024
1028
1028
1024
1024
1022
1027
1026
1030
1025
1025
1025
1024
1028
1029
1029
1026
1027
1029
1028
1028
1025
1023
1026
1028
1028
1030
1027
1024
1023
1024
1027
1029
1027
1023
1025
1027
1028
1030
1028
1027
1030
1033
1036
1038
1036
1033
1036
1037
1042
1041
1039
1037
1038
1041
1041
1040
1035
1034
1033
1033
1035
1035
1033
1032
1033
1037
1039
1040
1038
1037
1038
1036
1035
1034
1030
1027
1028
1029
1030
1030
1029
1025
1024
1027
1028
1029
1027
1023
1025
1027
1029
1029
1025
1025
1026
1026
1028
1027
1027
1025
1026
1027
1028
1029
1029
1029
1030
1035
1038
1044
1049
1059
1071
1085
1098
1113
1133
1161
1188
1221
1252
1279
1308
1347
1392
1426
1430
1397
1319
1218
1128
1064
1033
1017
1014
1017
1022
1029
1027
1025
1022
1015
1014
1013
1015
1014
1010
1006
1008
1009
1012
1013
1010
1008
1006
1008
1011
1010
1008
1006
1005
1006
1007
1009
1005
1003
1002
1003
1005
1008
1007
1003
1003
1005
1007
1010
1008
1006
1005
1005
1008
1009
1007
1008
1007
1010
1011
1014
1013
1011
1013
1014
1017
1017
1017
1018
1019
1022
1028
1028
1030
1030
1032
1033
1041
1042
1043
1042
1047
1051
1059
1059
1064
1063
1066
1069
1073
1074
1075
1070
1072
1075
1078
1079
1073
1068
1067
1067
1065
1065
1060
1054
1052
1052
1053
1050
1046
1044
1043
1043
1044
1042
1041
1037
1036
1040
1038
1039
1038
1033
1034
1037
1038
1038
1036
1034
1034
1032
1036
1035
1032
1031
1033
1035
1035
1031
1031
1027
1030
1031
1035
1034
1029
1027
1026
1027
1032
1031
1029
1028
1026
1029
1028
1026
1025
1024
1027
1030
1033
1033
1028
1027
1025
1028
1032
1032
1031
1028
1027
1029
1033
1031
1029
1027
1028
1027
1029
1030
1027
1023
1025
1027
1031
1030
1028
1024
1024
1026
1026
1025
1025
1026
1027
1026
1029
1025
1024
1021
1023
1026
1030
1028
1027
1023
1020
1023
1026
1024
1026
1023
1020
1019
1022
1024
1022
1020
1022
1024
1024
1023
1020
1015
1019
1020
1024
1023
1022
1018
1019
1019
1021
1022
1021
1019
1015
1020
1023
1022
1022
1018
1018
1022
1023
1025
1022
1019
1018
1020
1023
1024
1024
1021
1022
1022
1025
1023
1022
1018
1021
1021
1025
1023
1021
1020
1020
1021
1023
1021
1025
1021
1021
1022
1023
1023
1021
1019
1019
1024
1026
1028
1026
1026
1025
1029
1032
1029
1030
1027
1030
1033
1034
1033
1032
1031
1033
1035
1036
1034
1033
1028
1025
1026
1031
1032
1028
1029
1033
1035
1035
1034
1033
1030
1030
1032
1033
1031
1026
1022
1022
1023
1027
1024
1024
1022
1021
1023
1025
1023
1022
1022
1020
1023
1026
1023
1022
1020
1020
1023
1027
1025
1024
1022
1023
1025
1027
1028
1026
1024
1024
1029
1032
1033
1032
1031
1036
1042
1048
1056
1066
1073
1083
1093
1111
1133
1158
1182
1208
1236
1262
1289
1319
1355
1392
1417
1416
1386
1319
1235
1150
1091
1052
1027
1015
1013
1015
1019
1021
1020
1017
1012
1012
1011
1011
1006
1004
1000
1000
1001
1003
1001
1000
997
999
1001
1002
1002
998
994
995
996
1000
1000
997
993
994
994
999
994
994
992
991
994
996
994
992
991
990
994
995
996
991
990
991
993
994
994
992
990
991
993
997
995
992
991
990
994
997
998
995
993
996
996
999
998
995
994
993
998
1002
998
999
996
996
999
1002
1002
1001
1003
1002
1005
1008
1008
1007
1007
1009
1013
1017
1020
1016
1017
1016
1023
1027
1029
1029
1030
1031
1039
1040
1044
1043
1042
1046
1051
1054
1056
1052
1050
1051
1052
1053
1052
1049
1046
1046
1044
1045
1043
1041
1036
1034
1038
1035
1034
1031
1028
1026
1030
1032
1029
1027
1023
1026
1026
1027
1027
1025
1020
1019
1024
1025
1023
1021
1017
1018
1018
1021
1021
1020
1016
1015
1016
1018
1017
1016
1011
1015
1019
1020
1018
1016
1013
1014
1014
1016
1016
1016
1015
1014
1018
1019
1017
1016
1013
1014
1016
1018
1018
1018
1012
1013
1016
1019
1020
1016
1013
1012
1015
1015
1016
1012
1012
1012
1014
1015
1014
1011
1007
1009
1011
1013
1013
1011
1010
1007
1009
1012
1011
1010
1008
1009
1010
1011
1012
1008
1008
1007
1012
1013
1012
1009
1007
1006
1009
1014
1012
1010
1007
1008
1008
1014
1011
1009
1006
1008
1010
1012
1013
1009
1005
1008
1010
1014
1013
1012
1008
1006
1009
1012
1013
1010
1010
1006
1012
1014
1011
1010
1009
1008
1013
1012
1013
1011
1007
1007
1011
1012
1013
1011
1007
1007
1010
1014
1012
1012
1009
1009
1010
1016
1012
1012
1011
1011
1014
1014
1014
1013
1009
1010
1013
1013
1015
1011
1011
1011
1014
1016
1015
1013
1012
1012
1013
1020
1022
1020
1020
1019
1020
1023
1024
1022
1022
1024
1026
1027
1026
1023
1021
1018
1020
1022
1022
1019
1016
1018
1020
1021
1022
1018
1021
1022
1024
1025
1023
1019
1016
1015
1013
1015
1014
1012
1010
1011
1015
1018
1017
1015
1013
1012
1014
1016
1017
1012
1011
1011
1014
1017
1016
1014
1010
1010
1013
1016
1014
1013
1009
1009
1012
1014
1015
1013
1011
1014
1016
1021
1023
1025
1026
1032
1043
1053
1063
1071
1077
1092
1118
1149
1174
1206
1235
1267
1303
1344
1383
1416
1434
1424
1389
1320
1235
1152
1086
1048
1022
1012
1011
1009
1009
1010
1011
1014
1011
1002
996
993
996
998
996
993
990
991
991
995
991
990
987
990
989
992
992
989
989
985
990
992
990
987
986
984
986
988
984
984
981
981
987
988
987
983
981
982
985
986
986
984
982
984
983
986
986
985
983
984
986
989
990
987
986
987
992
994
991
991
989
990
994
995
994
995
994
994
999
999
1001
1001
1004
1003
1010
1012
1011
1012
1012
1016
1021
1026
1028
1026
1030
1032
1038
1043
1046
1048
1049
1050
1057
1059
1060
1058
1055
1055
1057
1057
1056
1050
1047
1045
1044
1048
1044
1038
1033
1032
1032
1034
1031
1027
1023
1024
1025
1026
1022
1020
1017
1019
1020
1020
1022
1019
1015
1015
1019
1020
1022
1018
1013
1014
1015
1018
1017
1015
1012
1012
1013
1016
1016
1014
1011
1011
1013
1015
1015
1013
1010
1010
1011
1013
1014
1011
1012
1014
1014
1017
1015
1011
1011
1011
1015
1019
1017
1015
1012
1014
1016
1017
1015
1017
1014
1014
1016
1017
1018
1016
1013
1014
1017
1017
1017
1015
1012
1014
1017
1017
1014
1016
1014
1013
1015
1016
1017
1013
1011
1012
1014
1017
1015
1013
1011
1007
1012
1015
1016
1013
1010
1009
1013
1016
1013
1011
1007
1011
1013
1013
1013
1010
1008
1008
1011
1011
1012
1011
1011
1009
1011
1011
1011
1009
1010
1008
1009
1013
1013
1009
1009
1009
1011
1014
1014
1010
1009
1008
1011
1014
1015
1011
1009
1010
1013
1016
1015
1013
1013
1011
1012
1018
1015
1012
1007
1010
1011
1015
1016
1012
1008
1012
1015
1016
1014
1011
1009
1013
1015
1016
1015
1014
1011
1012
1015
1020
1020
1019
1018
1021
1022
1024
1023
1024
1023
1025
1027
1029
1029
1026
1022
1022
1024
1023
1023
1021
1018
1020
1023
1025
1023
1025
1023
1022
1024
1025
1026
1022
1015
1013
1017
1018
1018
1016
1014
1016
1019
1018
1017
1015
1013
1012
1015
1018
1018
1014
1010
1011
1013
1016
1016
1012
1011
1013
1014
1015
1015
1012
1011
1014
1018
1023
1025
1027
1033
1039
1056
1068
