1014
1016
1017
1015
1009
1008
1009
1012
1014
1009
1009
1004
1007
1010
1013
1008
1007
1005
1008
1011
1010
1009
1005
1003
1007
1008
1011
1009
1005
1004
1005
1006
1008
1008
1006
1005
1007
1009
1011
1010
1006
1007
1007
1010
1014
1012
1009
1008
1013
1016
1018
1019
1015
1014
1020
1027
1027
1032
1031
1033
1035
1044
1047
1050
1049
1051
1057
1063
1069
1070
1072
1073
1075
1080
1080
1079
1074
1075
1074
1075
1078
1073
1069
1068
1063
1063
1063
1058
1054
1050
1050
1050
1051
1045
1043
1038
1037
1041
1046
1041
1037
1034
1036
1037
1038
1039
1034
1032
1033
1036
1038
1038
1033
1030
1032
1033
1035
1035
1033
1032
1032
1033
1033
1034
1030
1027
1030
1031
1035
1031
1026
1027
1029
1029
1029
1028
1024
1023
1023
1025
1028
1025
1023
1022
1025
1026
1028
1025
1023
1024
1024
1028
1031
1028
1025
1024
1026
1027
1029
1026
1026
1027
1027
1029
1030
1029
1026
1025
1027
1029
1031
1026
1026
1022
1027
1031
1031
1030
1028
1024
1024
1028
1027
1027
1025
1023
1024
1027
1028
1027
1026
1024
1024
1028
1028
1025
1022
1023
1022
1023
1027
1025
1022
1019
1022
1023
1025
1023
1021
1020
1023
1025
1024
1021
1019
1019
1021
1025
1026
1024
1023
1019
1020
1022
1024
1025
1021
1019
1019
1023
1023
1023
1022
1020
1023
1025
1026
1021
1019
1021
1020
1021
1026
1023
1017
1018
1019
1022
1022
1020
1015
1014
1017
1021
1022
1022
1017
1017
1019
1020
1023
1021
1019
1016
1017
1022
1025
1025
1019
1018
1018
1021
1023
1024
1025
1025
1024
1028
1029
1029
1029
1027
1031
1037
1037
1035
1032
1029
1031
1030
1031
1033
1029
1030
1031
1031
1030
1030
1030
1028
1031
1033
1035
1032
1030
1026
1026
1023
1023
1023
1023
1021
1023
1025
1025
1025
1023
1022
1024
1026
1025
1024
1022
1021
1019
1023
1023
1022
1019
1017
1019
1025
1027
1024
1021
1019
1020
1023
1025
1023
1022
1021
1026
1032
1035
1039
1040
1047
1061
1073
1083
1093
1107
1129
1159
1192
1221
1247
1271
1299
1334
1375
1409
1417
1399
1345
1257
1161
1093
1052
1025
1014
1011
1018
1021
1020
1020
1012
1016
1015
1016
1009
1004
1002
1001
1002
1004
1002
998
997
997
1001
1000
1002
1000
998
998
1000
1001
1000
995
995
996
997
998
998
994
991
994
996
995
994
990
988
991
995
996
995
994
992
991
992
995
989
989
988
990
995
994
992
989
987
988
988
990
991
991
990
990
994
996
996
990
992
993
998
998
998
997
995
996
999
1002
1006
1004
1005
1008
1010
1015
1015
1017
1018
1021
1026
1031
1034
1039
1040
1045
1050
1053
1056
1058
1059
1061
1062
1060
1058
1055
1053
1054
1055
1054
1051
1043
1040
1040
1041
1038
1034
1030
1029
1029
1032
1033
1030
1024
1021
1022
1029
1030
1029
1022
1021
1023
1026
1027
1027
1023
1024
1021
1024
1028
1025
1022
1019
1019
1022
1021
1021
1020
1017
1017
1018
1022
1019
1015
1014
1015
1017
1020
1019
1015
1016
1015
1017
1018
1017
1014
1012
1013
1017
1020
1018
1015
1015
1016
1019
1022
1021
1017
1016
1015
1016
1018
1019
1013
1014
1018
1019
1020
1020
1014
1010
1013
1018
1020
1015
1015
1013
1014
1017
1018
1015
1011
1010
1014
1016
1017
1015
1014
1010
1014
1017
1017
1015
1012
1009
1012
1015
1016
1017
1014
1011
1013
1013
1018
1015
1013
1010
1012
1016
1019
1016
1013
1011
1014
1015
1018
1014
1013
1012
1013
1018
1019
1016
1016
1015
1018
1017
1018
1017
1013
1011
1013
1018
1018
1016
1014
1014
1014
1015
1020
1016
1014
1013
1013
1016
1020
1015
1016
1014
1017
1018
1017
1018
1015
1012
1015
1017
1019
1017
1014
1013
1014
1016
1017
1016
1013
1013
1018
1018
1019
1018
1016
1014
1018
1020
1023
1023
1020
1021
1023
1025
1029
1027
1027
1024
1025
1030
1029
1027
1025
1022
1021
1023
1023
1020
1019
1018
1020
1023
1026
1024
1022
1025
1024
1025
1028
1024
1022
1018
1016
1015
1018
1017
1014
1013
1014
1018
1017
1016
1014
1011
1013
1016
1018
1017
1013
1012
1014
1014
1017
1015
1013
1010
1013
1017
1018
1017
1014
1016
1020
1024
1028
1028
1031
1038
1049
1066
1075
1086
1096
1114
1144
1180
1214
1247
1277
1309
1346
1394
1435
1454
1442
1385
1300
1201
1124
1067
1032
1020
1020
1025
1023
1019
1015
1010
1010
1006
1003
1001
997
995
997
998
999
996
992
992
994
994
995
992
990
988
990
995
996
992
991
989
989
990
991
991
988
989
987
988
991
988
986
986
987
994
991
990
987
986
986
989
993
992
987
988
989
991
991
991
989
989
991
992
992
991
992
989
994
995
998
994
994
994
999
1000
1005
1005
1004
1002
1008
1013
1016
1018
1017
1020
1025
1031
1035
1038
1039
1038
1046
1051
1057
1060
1059
1060
1064
1067
1072
1070
1069
1066
1070
1070
1068
1066
1060
1057
1057
1058
1055
1051
1046
1042
1040
1042
1041
1038
1034
1032
1030
1033
1035
1033
1028
1031
1030
1034
1033
1032
1029
1029
1031
1033
1032
1033
1031
1029
1029
1034
1035
1033
1031
1029
1031
1030
1033
1031
1028
1026
1028
1030
1034
1028
1026
1024
1027
1027
1029
1028
1027
1024
1025
1030
1031
1030
1028
1025
1028
1032
1031
1027
1029
1026
1028
1033
1034
1033
1030
1027
1030
1031
1034
1031
1029
1028
1029
1031
1032
1031
1030
1028
1032
1032
1034
1031
1028
1027
1027
1031
1033
1031
1027
1025
1028
1028
1029
1029
1026
1027
1028
1029
1029
1026
1026
1024
1026
1029
1030
1026
1025
1021
1024
1029
1028
1026
1024
1022
1024
1027
1026
1026
1023
1022
1025
1025
1029
1026
1023
1021
1025
1029
1028
1027
1020
1023
1024
1028
1027
1027
1024
1024
1026
1029
1028
1028
1023
1024
1027
1026
1027
1024
1022
1020
1023
1027
1027
1024
1022
1022
1024
1028
1028
1027
1022
1020
1023
1027
1027
1025
1023
1024
1025
1026
1027
1027
1027
1026
1027
1032
1034
1036
1036
1034
1036
1040
1041
1042
1038
1038
1039
1037
1037
1035
1032
1030
1033
1036
1037
1037
1039
1035
1039
1039
1039
1034
1028
1028
1031
1033
1034
1030
1027
1026
1027
1031
1033
1030
1026
1025
1028
1031
1032
1028
1026
1025
1026
1028
1030
1029
1027
1027
1030
1031
1032
1033
1031
1031
1039
1044
1050
1055
1062
1075
1091
1106
1124
1148
1181
1213
1251
1288
1323
1356
1392
1432
1468
1484
1469
1416
1333
1237
1155
1097
1061
1037
1027
1028
1034
1033
1033
1028
1022
1021
1016
1015
1015
1011
1009
1005
1008
1009
1012
1009
1005
1004
1004
1009
1010
1009
1006
1002
1004
1007
1007
1005
1000
1001
1002
1003
1003
1003
1000
1001
1001
1002
1002
999
999
998
999
1001
1005
999
999
998
999
1002
1001
1001
998
999
999
1002
1004
1002
998
1000
1001
1003
1003
1004
998
999
1002
1007
1006
1006
1005
1003
1006
1009
1009
1009
1009
1011
1014
1019
1022
1024
1023
1023
1027
1033
1037
1040
1043
1044
1049
1056
1059
1063
1062
1065
1072
1074
1078
1076
1077
1076
1081
1083
1081
1081
1075
1073
1073
1072
1072
1067
1062
1060
1058
1057
1056
1052
1046
1045
1047
1049
1051
1046
1043
1042
1043
1048
1046
1043
1043
1039
1042
1042
1044
1039
1038
1039
1040
1041
1040
1039
1037
1037
1037
1041
1040
1038
1035
1035
1035
1037
1039
1036
1033
1031
1033
1036
1035
1035
1030
1030
1031
1034
1034
1032
1028
1030
1030
1032
1031
1031
1029
1029
1031
1033
1031
1031
1025
1029
1031
1035
1036
1033
1030
1031
1034
1037
1034
1034
1031
1031
1036
1038
1038
1036
1032
1032
1033
1036
1036
1032
1032
1030
1032
1036
1036
1033
1030
1029
1031
1035
1033
1031
1029
1027
1029
1035
1031
1030
1028
1027
1027
1027
1030
1028
1024
1025
1028
1029
1035
1029
1026
1024
1028
1028
1029
1028
1025
1022
1022
1027
1027
1029
1026
1025
1027
1028
1030
1026
1025
1023
1025
1027
1026
1024
1023
1020
1023
1025
1026
1025
1023
1024
1027
1031
1028
1025
1025
1023
1026
1029
1028
1028
1025
1025
1028
1031
1027
1027
1024
1022
1024
1027
1027
1025
1020
1023
1024
1025
1027
1021
1021
1021
1025
1028
1028
1027
1024
1023
1030
1029
1029
1027
1027
1027
1029
1031
1036
1033
1030
1032
1036
1040
1040
1038
1038
1039
1039
1042
1042
1037
1034
1032
1034
1036
1035
1034
1031
1033
1033
1037
1038
1039
1038
1039
1038
1040
1039
1038
1031
1032
1032
1033
1033
1029
1029
1027
1031
1033
1035
1034
1029
1028
1029
1033
1031
1028
1026
1025
1028
1031
1034
1029
1023
1021
1026
1029
1033
1032
1031
1028
1030
1034
1034
1034
1032
1030
1035
1041
1044
1047
1050
1057
1067
1081
1088
1097
1107
1122
1147
1176
1206
1231
1257
1285
1313
1347
1381
1417
1442
1450
1437
1396
1323
1235
1155
1101
1063
1043
1032
1027
1027
1025
1030
1033
1030
1025
1020
1016
1015
1015
1014
1011
1009
1009
1008
1012
1008
1005
1004
1009
1008
1009
1009
1006
1002
1002
1003
1004
1006
1005
1002
1000
1003
1007
1005
999
997
999
1002
1005
1006
1003
1000
998
999
1002
1002
1003
999
996
998
1000
998
997
994
997
997
1001
1000
1001
994
996
995
997
999
999
996
999
999
1001
999
999
998
998
998
1002
1003
1000
1003
1004
1004
1009
1008
1009
1008
1014
1018
1020
1025
1027
1028
1031
1036
1041
1044
1045
1048
1052
1059
1065
1067
1068
1065
1068
1074
1079
1078
1076
1071
1068
1068
1069
1067
1066
1063
1058
1057
1056
1055
1051
1047
1044
1044
1045
1045
1041
1036
1037
1038
1041
1042
1041
1036
1034
1034
1035
1037
1037
1035
1035
1038
1040
1039
1036
1031
1031
1033
1038
1036
1033
1031
1028
1030
1031
1032
1031
1027
1027
1027
1030
1029
1026
1024
1027
1027
1031
1032
1028
1027
1024
1025
1027
1028
1027
1025
1028
1028
1030
1029
1025
1022
1024
1028
1031
1032
1028
1027
1026
1029
1029
1032
1031
1027
1027
1030
1031
1028
1029
1025
1027
1028
1032
1030
1028
1026
1025
1028
1027
1032
1029
1026
1025
1029
1030
1029
1027
1025
1026
1029
1029
1032
1030
1025
1027
1027
1030
1030
1027
1027
1025
1027
1026
1026
1026
1022
1024
1027
1028
1028
1026
1025
1024
1026
1029
1027
1027
1025
1023
1023
1027
1027
1024
1021
1022
1026
1026
1026
1026
1025
1024
1026
1026
1029
1024
1024
1021
1025
1027
1029
1027
1023
1022
1026
1028
1029
1027
1022
1024
1025
1026
1028
1027
1023
1023
1026
1026
1029
1025
1022
1023
1027
1026
1028
1025
1025
1024
1025
1028
1027
1025
1023
1023
1024
1026
1028
1025
1025
1028
1029
1034
1032
1031
1030
1029
1032
1036
1038
1034
1034
1035
1037
1039
1037
1034
1029
1028
1030
1031
1031
1030
1027
1028
1030
1034
1037
1033
1033
1031
1033
1035
1035
1032
1026
1023
1023
1025
1023
1025
1021
1023
1023
1026
1024
1023
1019
1020
1021
1023
1023
1022
1020
1021
1023
1023
1022
1019
1019
1021
1023
1026
1023
1023
1021
1022
1025
1030
1032
1034
1034
1039
1050
1061
1074
1083
1092
1100
1128
1158
1189
1217
1245
1279
1312
1348
1387
1428
1453
1452
1414
1345
1248
1162
1101
1056
1030
1020
1021
1021
1021
1018
1021
1021
1020
1014
1007
1004
1005
1004
1003
1000
996
998
998
999
1001
1000
996
994
998
998
998
996
991
992
996
995
995
990
988
988
991
993
993
990
986
986
988
988
990
988
984
986
987
990
989
987
984
984
988
990
993
991
985
986
988
991
991
989
986
990
992
995
992
992
991
990
993
998
999
996
996
997
1002
1008
1008
1008
1010
1012
1017
1022
1024
1025
1027
1030
1035
1042
1043
1044
1046
1052
1056
1065
1068
1067
1068
1068
1072
1076
1075
1073
1072
1069
1074
1073
1070
1067
1063
1060
1061
1061
1059
1053
1048
1048
1047
1048
1045
1044
1038
1039
1039
1042
1039
1040
1036
1035
1037
1040
1039
1036
1032
1034
1036
1039
1037
1035
1032
1032
1035
1037
1036
1036
1033
1035
1035
1036
1036
1033
1029
1031
1031
1034
1032
1032
1027
1028
1030
1030
1032
1029
1028
1028
1031
1032
1032
1028
1026
1028
1031
1034
1032
1031
1027
1027
1030
1033
1033
1031
1032
1029
1031
1033
1031
1029
1030
1030
1031
1035
1033
1031
1029
1029
1031
1034
1034
1033
1027
1029
1030
1030
1032
1031
1028
1026
1028
1030
1032
1028
1026
1028
1030
1031
1028
1026
1024
1022
1028
1028
1028
1025
1024
1024
1025
1028
1027
1026
1024
1024
1028
1028
1027
1026
1023
1023
1028
1027
1027
1026
1024
1025
1028
1027
1027
1025
1023
1027
1028
1031
1029
1028
1023
1026
1026
1031
1031
1030
1025
1027
1030
1032
1029
1026
1024
1028
1030
1034
1029
1031
1026
1024
1030
1033
1032
1029
1029
1027
1030
1033
1029
1028
1026
1027
1030
1033
1034
1033
1030
1033
1037
1039
1041
1039
1036
1038
1041
1043
1044
1040
1039
1042
1044
1044
1040
1039
1033
1033
1037
1040
1037
1037
1035
1037
1040
1044
1042
1039
1037
1036
1038
1040
1035
1031
1026
1028
1030
1033
1031
1033
1029
1028
1028
1031
1032
1030
1026
1026
1029
1031
1031
1027
1027
1026
1027
1030
1030
1028
1024
1026
1029
1027
1029
1028
1028
1029
1033
1035
1035
1036
1036
1042
1053
1065
1077
1084
1096
1111
1133
1166
1199
1231
1259
1290
1327
1360
1400
1440
1465
1473
1458
1402
1317
1222
1145
1090
1059
1041
1029
1027
1029
1027
1030
1026
1026
1023
1017
1016
1014
1013
1010
1008
1003
1004
1008
1010
1008
1006
1004
1003
1007
1007
1009
1006
1004
1004
1006
1008
1006
1005
1001
1000
1003
1004
1007
1002
999
1000
1003
1006
1004
1004
1001
999
1003
1005
1002
998
998
997
998
1002
1002
1000
997
998
1000
1003
1004
1003
998
1000
1004
1005
1002
1003
1002
1003
1005
1010
1007
1007
1002
1004
1008
1013
1014
1012
1011
1017
1020
1023
1024
1023
1024
1031
1034
1039
1043
1042
1046
1049
1056
1061
1067
1065
1065
1072
1078
1081
1084
1083
1084
1082
1084
1086
1082
1080
1076
1073
1074
1074
1070
1068
1061
1057
1058
1061
1054
1050
1046
1047
1047
1050
1045
1044
1043
1040
1043
1044
1044
1042
1038
1041
1045
1043
1042
1038
1036
1037
1040
1042
1041
1039
1034
1032
1036
1038
1037
1034
1032
1032
1033
1034
1033
1033
1030
1031
1031
1032
1030
1029
1026
1027
1031
1034
1033
1030
1028
1028
1032
1036
1033
1035
1027
1030
1031
1031
1032
1033
1033
1034
1036
1038
1038
1035
1032
1030
1035
1038
1038
1037
1033
1034
1033
1036
1037
1034
1031
1031
1032
1038
1036
1033
1030
1028
1033
1032
1034
1030
1027
1027
1030
1033
1032
1031
1026
1027
1028
1032
1030
1028
1027
1030
1029
1029
1029
1028
1027
1028
1030
1031
1028
1028
1024
1025
1027
1029
1028
1027
1024
1025
1027
1028
1029
1026
1024
1026
1028
1034
1032
1026
1023
1024
1026
1030
1028
1027
1026
1024
1027
1027
1026
1022
1022
1024
1025
1028
1026
1027
1023
1024
1025
1028
1028
1024
1024
1023
1025
1029
1028
1026
1024
1027
1028
1028
1026
1026
1025
1028
1030
1032
1034
1032
1028
1031
1032
1035
1035
1036
1036
1037
1037
1040
1038
1034
1032
1032
1033
1034
1035
1032
1026
1029
1032
1035
1036
1034
1032
1032
1035
1037
1035
1031
1027
1026
1026
1026
1025
1026
1023
1025
1030
1032
1029
1026
1020
1023
1024
1026
1027
1023
1024
1022
1024
1028
1027
1023
1022
1022
1026
1026
1024
1025
1023
1025
1031
1033
1032
1031
1034
1041
1050
1060
1071
1080
1089
1103
1124
1151
1180
1214
1241
1274
1308
1341
1377
1417
1449
1459
1439
1377
1274
1173
1099
1055
1033
1027
1027
1024
1022
1020
1023
1020
1015
1010
1001
1002
1003
1004
1003
1001
1000
1000
1001
1002
1000
997
997
995
995
999
997
995
997
998
998
998
995
995
990
992
995
997
996
996
993
990
991
996
993
993
991
991
991
995
995
991
990
991
992
994
994
993
989
986
991
993
992
994
992
993
995
996
996
993
989
992
997
1000
999
998
998
999
1003
1005
1008
1009
1006
1010
1015
1021
1022
1023
1025
1029
1036
1040
1042
1045
1045
1052
1057
1059
1063
1060
1062
1063
1069
1071
1070
1066
1063
1063
1062
1061
1060
1056
1051
1047
1045
1049
1043
1040
1038
1037
1038
1039
1035
1034
1031
1028
1033
1033
1033
1031
1029
1029
1031
1032
1028
1027
1028
1028
1029
1029
1028
1025
1024
1023
1023
1026
1024
1022
1019
1020
1021
1022
1024
1019
1019
1019
1020
1023
1021
1018
1015
1012
1015
1018
1019
1017
1015
1015
1015
1019
1016
1015
1015
1014
1016
1020
1017
1016
1015
1015
1018
1021
1019
1017
1015
1016
1019
1020
1021
1016
1017
1015
1016
1019
1014
1014
1012
1013
1015
1017
1017
1013
1011
1013
1016
1020
1015
1016
1007
1010
1014
1015
1016
1013
1008
1013
1013
1016
1015
1014
1010
1011
1016
1016
1013
1012
1011
1010
1012
1016
1014
1011
1009
1010
1012
1014
1013
1011
1008
1010
1010
1013
1013
1008
1006
1007
1009
1012
1013
1013
1007
1006
1008
1011
1011
1010
1006
1007
1010
1009
1008
1009
1008
1007
1009
1013
1012
1007
1007
1005
1009
1009
1010
1009
1007
1009
1008
1011
1008
1006
1008
1006
1010
1012
1010
1008
1006
1006
1011
1013
1013
1010
1010
1011
1015
1018
1018
1018
1014
1017
1019
1022
1024
1021
1020
1022
1020
1023
1018
1016
1014
1013
1015
1019
1018
1017
1012
1015
1020
1021
1019
1022
1014
1016
1015
1015
1013
1008
1009
1011
1011
1013
1011
1010
1008
1010
1012
1016
1010
1009
1007
1009
1011
1017
1013
1008
1008
1008
1012
1014
1014
1010
1010
1009
1012
1017
1017
1016
1019
1025
1035
1046
1059
1069
1077
1100
1131
1167
1200
1233
1266
1302
1340
1387
1429
1459
1458
1427
1356
1263
1166
1096
1048
1020
1014
1015
1012
1011
1006
1008
1006
1007
1003
996
993
990
991
992
992
988
988
987
990
990
987
985
984
986
986
988
985
985
979
983
987
986
986
981
980
979
983
984
982
980
978
979
982
983
979
976
974
976
980
981
980
976
975
976
980
978
980
979
977
980
982
984
980
981
979
980
985
986
982
983
982
984
988
992
992
992
991
994
1000
1006
1007
1009
1011
1016
1025
1031
1033
1037
1039
1046
1053
1058
1058
1057
1058
1059
1061
1064
1059
1057
1051
1047
1048
1048
1044
1039
1035
1032
1031
1031
1028
1027
1023
1023
1022
1025
1022
1022
1018
1018
1022
1024
1022
1019
1016
1016
1017
1019
1018
1015
1013
1012
1017
1017
1016
1015
1010
1012
1013
1015
1012
1013
1009
1009
1012
1013
1011
1008
1004
1006
1009
1010
1012
1010
1008
1007
1011
1015
1014
1010
1010
1013
1014
1017
1015
1012
1011
1015
1019
1021
1014
1015
1014
1016
1017
1019
1020
1017
1017
1017
1016
1020
1018
1016
1013
1015
1015
1017
1017
1014
1011
1015
1013
1016
1016
1015
1012
1013
1014
1017
1015
1014
1011
1011
1014
1015
1015
1011
1012
1012
1014
1018
1013
1012
1011
1009
1012
1014
1013
1011
1007
1010
1010
1014
1011
1010
1008
1011
1012
1016
1013
1008
1005
1008
1011
1013
1013
1010
1010
1011
1013
1016
1014
1012
1010
1011
1015
1015
1013
1010
1010
1011
1012
1015
1015
1012
1008
1013
1012
1017
1014
1013
1011
1010
1012
1014
1014
1011
1011
1012
1014
1013
1014
1012
1009
1012
1015
1017
1015
1013
1011
1012
1016
1020
1021
1021
1021
1022
1024
1025
1023
1024
1024
1026
1026
1028
1026
1025
1020
1019
1020
1022
1020
1018
1019
1020
1020
1021
1023
1021
1019
1019
1024
1024
1021
1017
1010
1011
1011
1015
1014
1011
1011
1012
1013
1018
1014
1011
1006
1007
1011
1014
1012
1009
1011
1011
1012
1016
1017
1012
1013
1011
1014
1015
1017
1014
1012
1015
1016
1018
1017
1017
1019
1023
1031
1038
1045
1049
1061
1074
1087
1103
1127
1152
1180
1211
1244
1272
1301
1331
1366
1407
1435
1442
1420
1367
1286
1193
1117
1069
1036
1013
1004
1007
1013
1018
1017
1011
1010
1007
1007
1007
1002
997
995
997
1000
1002
999
996
995
995
998
1002
998
998
993
996
998
1000
999
996
993
992
998
998
998
993
992
991
993
994
994
992
991
992
994
994
991
992
989
990
994
996
994
988
988
988
993
993
992
990
989
992
993
996
993
994
988
993
992
996
994
994
994
992
997
996
997
996
995
998
999
1002
1003
1000
1001
1004
1009
1014
1016
1013
1013
1018
1020
1025
1027
1027
1027
1033
