1027
1028
1025
1021
1020
1020
1022
1023
1022
1023
1020
1021
1023
1024
1021
1019
1018
1020
1024
1025
1024
1022
1019
1018
1023
1025
1024
1022
1020
1023
1024
1026
1023
1019
1016
1018
1019
1022
1019
1017
1018
1020
1023
1023
1020
1019
1018
1021
1023
1024
1020
1018
1020
1022
1027
1029
1027
1026
1025
1028
1030
1031
1031
1029
1029
1031
1032
1033
1031
1029
1026
1027
1028
1029
1026
1025
1024
1027
1028
1029
1030
1028
1027
1029
1033
1031
1027
1021
1023
1022
1025
1023
1025
1022
1020
1020
1022
1025
1023
1022
1021
1021
1021
1024
1023
1022
1024
1021
1025
1025
1022
1020
1018
1024
1027
1025
1025
1023
1023
1024
1027
1030
1029
1028
1029
1036
1044
1048
1052
1059
1066
1081
1086
1099
1113
1128
1157
1188
1218
1247
1275
1306
1338
1384
1424
1444
1431
1389
1312
1225
1152
1095
1057
1032
1023
1024
1029
1028
1028
1023
1024
1023
1022
1016
1011
1009
1004
1005
1008
1009
1007
1001
999
1001
1004
1004
1003
997
998
1000
1002
1002
998
996
994
998
999
1001
997
995
993
994
998
998
996
994
993
993
996
996
993
992
990
992
997
997
995
992
991
993
994
997
997
994
992
994
999
1001
997
994
994
996
999
1001
998
996
997
997
1003
1005
1003
998
999
1002
1004
1004
1006
1003
1005
1011
1013
1014
1011
1013
1012
1016
1022
1024
1025
1023
1027
1030
1033
1039
1041
1043
1044
1047
1052
1055
1054
1056
1054
1056
1060
1057
1057
1051
1051
1050
1051
1052
1048
1046
1042
1040
1041
1042
1039
1034
1033
1031
1034
1035
1032
1028
1027
1029
1029
1029
1028
1023
1023
1024
1026
1029
1025
1022
1024
1024
1027
1027
1026
1022
1021
1024
1027
1029
1025
1023
1023
1023
1025
1028
1027
1024
1022
1025
1029
1030
1028
1024
1024
1028
1029
1031
1027
1026
1027
1028
1031
1029
1027
1025
1024
1026
1028
1032
1029
1023
1026
1028
1029
1029
1026
1023
1022
1022
1026
1025
1023
1021
1019
1020
1023
1026
1022
1020
1019
1020
1022
1022
1020
1016
1016
1020
1022
1022
1020
1016
1017
1017
1021
1022
1019
1015
1016
1016
1018
1019
1019
1017
1017
1016
1021
1020
1019
1017
1016
1020
1020
1021
1017
1017
1018
1016
1021
1021
1020
1020
1017
1018
1021
1021
1021
1019
1019
1020
1023
1023
1020
1020
1020
1024
1025
1025
1027
1023
1022
1021
1026
1026
1023
1021
1021
1022
1027
1028
1025
1022
1022
1025
1026
1026
1028
1024
1025
1024
1027
1025
1024
1025
1023
1027
1027
1026
1026
1023
1023
1028
1029
1027
1029
1027
1030
1032
1035
1035
1037
1035
1036
1038
1041
1042
1042
1038
1038
1040
1042
1039
1035
1033
1030
1033
1037
1038
1034
1034
1035
1035
1039
1039
1037
1036
1035
1037
1036
1035
1032
1030
1026
1030
1034
1033
1031
1028
1030
1030
1029
1032
1030
1029
1030
1030
1031
1031
1030
1027
1028
1028
1031
1031
1030
1025
1026
1031
1034
1032
1031
1029
1032
1037
1039
1047
1054
1059
1070
1081
1093
1103
1121
1147
1181
1214
1249
1279
1311
1344
1386
1429
1452
1450
1414
1346
1259
1176
1113
1069
1041
1026
1022
1027
1030
1030
1026
1025
1021
1023
1022
1019
1016
1011
1008
1010
1013
1012
1011
1007
1008
1012
1012
1011
1012
1006
1007
1009
1011
1010
1011
1004
1004
1005
1008
1008
1007
1004
1002
1004
1008
1006
1007
1003
1003
1005
1007
1007
1008
1005
1002
1005
1008
1008
1006
1003
1003
1006
1009
1007
1005
1004
1006
1010
1011
1011
1011
1007
1009
1013
1014
1017
1016
1013
1012
1018
1018
1019
1018
1017
1021
1022
1027
1027
1027
1026
1027
1031
1037
1040
1041
1040
1042
1046
1055
1053
1056
1059
1059
1065
1072
1073
1073
1076
1075
1081
1085
1085
1085
1082
1082
1080
1082
1081
1079
1075
1072
1072
1071
1067
1065
1062
1058
1059
1060
1056
1054
1050
1049
1052
1053
1053
1051
1048
1045
1047
1049
1049
1047
1045
1046
1047
1049
1049
1047
1044
1042
1045
1046
1047
1044
1040
1036
1041
1043
1047
1043
1041
1041
1040
1044
1043
1041
1041
1041
1043
1045
1046
1044
1040
1041
1043
1045
1046
1045
1043
1043
1046
1047
1048
1047
1046
1046
1047
1049
1049
1046
1048
1046
1047
1050
1048
1047
1046
1045
1046
1049
1051
1048
1043
1041
1044
1044
1047
1047
1042
1041
1040
1045
1045
1045
1042
1040
1044
1045
1043
1040
1039
1037
1040
1042
1042
1039
1041
1039
1041
1043
1042
1038
1036
1037
1038
1041
1041
1039
1036
1034
1039
1041
1042
1040
1038
1036
1036
1040
1041
1040
1038
1038
1041
1041
1041
1037
1038
1033
1038
1042
1042
1040
1033
1034
1034
1040
1040
1042
1038
1038
1039
1040
1039
1038
1036
1036
1040
1040
1041
1038
1036
1038
1041
1042
1043
1041
1036
1039
1039
1040
1041
1042
1040
1042
1046
1047
1047
1047
1043
1048
1048
1053
1054
1053
1054
1051
1052
1053
1050
1046
1045
1044
1045
1048
1049
1047
1043
1047
1051
1053
1053
1053
1049
1047
1045
1047
1044
1042
1038
1037
1040
1044
1044
1040
1040
1039
1042
1045
1042
1042
1037
1038
1041
1045
1045
1041
1041
1038
1041
1045
1041
1040
1039
1041
1041
1043
1043
1041
1041
1041
1046
1048
1050
1049
1050
1056
1061
1071
1081
1091
1096
1106
1119
1143
1169
1198
1224
1251
1282
1310
1344
1380
1414
1443
1450
1429
1367
1279
1190
1123
1078
1051
1041
1038
1038
1037
1041
1041
1038
1034
1028
1026
1024
1023
1022
1021
1016
1019
1018
1021
1020
1018
1015
1016
1017
1017
1017
1016
1013
1015
1013
1016
1014
1014
1011
1009
1014
1014
1016
1011
1007
1009
1011
1012
1010
1009
1005
1006
1008
1012
1012
1011
1008
1009
1012
1012
1011
1011
1009
1009
1010
1013
1013
1010
1008
1011
1011
1015
1017
1015
1014
1014
1016
1016
1018
1017
1013
1015
1019
1019
1021
1019
1019
1019
1024
1028
1029
1025
1025
1027
1029
1035
1039
1038
1036
1038
1043
1048
1049
1052
1049
1054
1059
1063
1068
1066
1063
1066
1072
1075
1074
1072
1069
1068
1069
1072
1070
1066
1062
1060
1060
1061
1059
1056
1050
1048
1051
1050
1052
1047
1042
1041
1046
1047
1046
1043
1039
1041
1038
1042
1042
1039
1036
1036
1041
1039
1042
1038
1033
1033
1035
1037
1038
1038
1033
1032
1033
1037
1036
1036
1030
1035
1035
1034
1037
1031
1033
1034
1035
1038
1036
1034
1033
1034
1036
1039
1039
1036
1034
1035
1038
1038
1038
1036
1033
1034
1034
1037
1038
1033
1032
1031
1033
1038
1037
1036
1031
1030
1034
1034
1033
1033
1030
1028
1031
1033
1032
1029
1027
1028
1030
1031
1032
1030
1028
1025
1027
1031
1030
1030
1024
1027
1027
1028
1028
1026
1026
1026
1029
1029
1030
1026
1025
1027
1028
1029
1029
1029
1026
1025
1027
1031
1029
1026
1027
1026
1027
1029
1028
1028
1025
1025
1028
1032
1030
1027
1024
1023
1026
1030
1029
1029
1024
1026
1027
1029
1027
1028
1025
1025
1027
1032
1029
1029
1024
1025
1027
1029
1029
1027
1025
1026
1028
1029
1031
1027
1025
1027
1031
1031
1031
1027
1024
1025
1028
1031
1032
1027
1029
1027
1029
1031
1033
1033
1031
1033
1036
1040
1040
1038
1036
1040
1041
1044
1044
1042
1039
1038
1040
1040
1039
1034
1034
1035
1037
1042
1038
1039
1038
1039
1040
1044
1045
1040
1038
1036
1034
1032
1031
1032
1031
1029
1031
1031
1034
1031
1030
1028
1030
1030
1028
1027
1026
1025
1029
1032
1031
1029
1027
1028
1030
1029
1031
1031
1029
1027
1033
1035
1036
1034
1034
1035
1042
1051
1059
1066
1076
1089
1102
1120
1145
1179
1206
1234
1267
1296
1329
1369
1407
1435
1440
1408
1335
1242
1152
1089
1053
1035
1028
1030
1030
1029
1030
1027
1025
1020
1015
1014
1016
1017
1016
1012
1011
1011
1014
1016
1013
1013
1008
1008
1009
1010
1009
1012
1008
1005
1007
1010
1007
1006
1003
1005
1004
1007
1006
1003
999
1002
1006
1009
1007
1003
1001
1002
1005
1008
1006
1008
1001
1006
1008
1009
1011
1007
1006
1004
1009
1012
1012
1012
1011
1012
1014
1015
1016
1016
1016
1016
1018
1022
1022
1022
1020
1021
1027
1032
1035
1034
1034
1037
1039
1048
1048
1050
1051
1056
1059
1065
1069
1067
1066
1069
1074
1075
1078
1077
1075
1074
1073
1074
1073
1070
1068
1065
1066
1068
1061
1058
1052
1052
1051
1051
1049
1045
1043
1042
1045
1046
1043
1042
1039
1038
1040
1042
1041
1038
1034
1035
1038
1041
1041
1035
1033
1034
1034
1036
1036
1033
1032
1034
1034
1034
1033
1030
1027
1028
1030
1032
1031
1029
1026
1023
1027
1030
1031
1027
1024
1025
1024
1028
1029
1029
1028
1027
1028
1032
1032
1029
1029
1029
1028
1032
1032
1029
1027
1027
1030
1031
1031
1029
1025
1024
1028
1031
1031
1027
1027
1027
1030
1032
1028
1025
1023
1025
1026
1029
1028
1025
1024
1024
1027
1029
1028
1027
1023
1022
1025
1029
1026
1023
1021
1021
1025
1028
1026
1022
1021
1021
1022
1026
1027
1024
1022
1021
1023
1025
1025
1022
1018
1019
1023
1028
1025
1024
1019
1019
1023
1024
1023
1024
1020
1021
1023
1026
1025
1023
1017
1018
1022
1024
1023
1023
1022
1020
1021
1027
1021
1025
1020
1022
1024
1025
1023
1021
1021
1020
1021
1025
1028
1023
1020
1021
1023
1025
1026
1023
1023
1023
1025
1029
1030
1029
1027
1029
1030
1034
1034
1033
1031
1032
1036
1038
1036
1033
1027
1026
1028
1032
1031
1027
1027
1030
1031
1032
1036
1036
1032
1030
1031
1033
1026
1023
1020
1024
1024
1024
1026
1023
1020
1020
1024
1027
1026
1024
1022
1021
1023
1023
1024
1022
1020
1020
1023
1027
1023
1022
1021
1022
1025
1028
1028
1024
1023
1026
1030
1037
1039
1048
1052
1064
1080
1090
1104
1119
1142
1174
1207
1240
1267
1295
1329
1373
1419
1441
1427
1367
1270
1171
1096
1051
1027
1020
1018
1025
1026
1024
1023
1017
1013
1011
1012
1013
1009
1005
1003
1003
1004
1007
1005
1001
1000
1001
999
1005
1001
1000
999
997
998
1001
999
998
994
994
993
996
996
994
991
993
993
997
995
995
989
992
995
997
997
993
992
992
995
997
995
994
993
996
998
1002
997
999
997
999
1002
1005
1005
1006
1004
1005
1009
1013
1017
1016
1016
1019
1025
1030
1033
1033
1033
1037
1041
1043
1047
1049
1047
1050
1055
1057
1056
1052
1053
1051
1052
1054
1055
1049
1046
1046
1043
1046
1045
1040
1035
1036
1034
1032
1032
1029
1029
1028
1026
1029
1026
1023
1019
1022
1024
1025
1025
1022
1021
1021
1021
1021
1021
1020
1018
1018
1022
1022
1020
1018
1016
1016
1020
1021
1019
1017
1015
1015
1018
1019
1019
1017
1016
1016
1018
1021
1020
1017
1017
1015
1018
1021
1020
1016
1015
1017
1019
1022
1021
1019
1015
1018
1020
1023
1019
1018
1016
1016
1017
1022
1021
1018
1015
1014
1017
1019
1016
1015
1013
1012
1016
1019
1018
1014
1011
1013
1014
1014
1016
1013
1012
1013
1012
1018
1015
1014
1010
1012
1015
1016
1015
1012
1009
1011
1013
1015
1013
1011
1009
1010
1012
1012
1011
1012
1008
1006
1010
1012
1012
1009
1009
1009
1010
1014
1014
1009
1008
1011
1013
1013
1014
1012
1008
1008
1010
1011
1013
1009
1008
1009
1011
1014
1012
1011
1007
1008
1010
1014
1013
1014
1007
1010
1010
1015
1011
1009
1010
1011
1012
1013
1014
1013
1011
1009
1016
1017
1016
1013
1011
1011
1013
1016
1015
1014
1011
1012
1015
1016
1016
1011
1012
1012
1015
1014
1015
1014
1013
1015
1015
1018
1017
1016
1015
1018
1021
1024
1023
1023
1021
1019
1024
1028
1028
1027
1025
1025
1027
1031
1027
1023
1019
1021
1020
1024
1023
1021
1018
1017
1022
1025
1026
1021
1021
1022
1024
1027
1025
1024
1016
1017
1017
1019
1019
1015
1014
1011
1016
1017
1016
1014
1013
1013
1016
1018
1017
1015
1011
1013
1014
1018
1017
1014
1013
1014
1013
1017
1016
1014
1010
1013
1016
1018
1018
1016
1015
1015
1017
1022
1023
1027
1028
1035
1043
1056
1063
1072
1079
1093
1113
1140
1166
1193
1221
1248
1279
1312
1344
1385
1416
1429
1421
1385
1316
1233
1155
1093
1051
1027
1011
1006
1006
1011
1012
1016
1011
1009
1004
1001
1001
1002
1001
998
997
996
997
1000
997
996
992
996
997
997
996
995
991
991
992
995
995
993
989
991
994
994
993
990
990
989
991
994
993
990
987
989
991
996
996
993
991
991
993
996
993
991
990
990
993
994
995
992
990
993
994
996
997
998
996
995
997
1001
1000
999
998
1000
1003
1006
1009
1008
1004
1006
1008
1015
1016
1016
1016
1016
1021
1027
1029
1027
1027
1031
1037
1042
1042
1041
1043
1049
1053
1058
1060
1058
1059
1061
1062
1068
1068
1064
1063
1062
1061
1062
1056
1053
1049
1048
1049
1048
1045
1040
1037
1037
1036
1038
1035
1031
1028
1026
1029
1031
1029
1025
1023
1023
1027
1031
1028
1025
1024
1024
1024
1029
1028
1024
1023
1022
1023
1023
1026
1022
1020
1023
1022
1024
1023
1021
1020
1020
1021
1023
1023
1018
1016
1016
1017
1022
1020
1019
1016
1019
1020
1022
1020
1018
1017
1021
1021
1026
1024
1021
1018
1021
1020
1024
1025
1023
1021
1019
1020
1023
1021
1020
1016
1017
1019
1020
1021
1020
1017
1016
1020
1019
1019
1021
1015
1014
1017
1018
1020
1018
1018
1016
1017
1019
1019
1014
1012
1013
1015
1016
1016
1012
1011
1009
1014
1017
1014
1014
1013
1012
1013
1015
1014
1012
1010
1011
1013
1016
1019
1016
1011
1013
1016
1016
1018
1014
1011
1012
1013
1016
1014
1013
1010
1013
1016
1017
1018
1012
1010
1009
1015
1018
1016
1014
1015
1012
1013
1016
1016
1014
1013
1012
1016
1018
1019
1013
1012
1012
1014
1015
1015
1014
1012
1014
1011
1015
1017
1012
1013
1012
1016
1019
1017
1016
1014
1013
1017
1020
1019
1016
1016
1015
1017
1019
1019
1020
1020
1022
1025
1027
1025
1022
1022
1025
1026
1029
1031
1026
1023
1023
1025
1026
1026
1021
1022
1021
1022
1026
1025
1022
1023
1026
1028
1031
1029
1023
1023
1020
1021
1020
1021
1018
1017
1017
1018
1019
1018
1017
1017
1017
1019
1019
1019
1017
1016
1015
1018
1020
1021
1016
1015
1015
1017
1021
1021
1016
1018
1016
1018
1022
1021
1021
1021
1023
1026
1035
1037
1046
1054
1067
1076
1088
1104
1124
1147
1178
1207
1240
1270
1299
1335
1379
1415
1430
1402
1332
1234
1139
1072
1037
1015
1011
1012
1017
1018
1020
1015
1011
1005
1003
1003
1002
1001
998
998
999
998
1001
999
997
992
994
996
998
999
994
990
989
993
995
995
992
990
988
991
994
993
990
988
990
990
991
992
991
986
988
990
995
994
990
990
991
992
994
995
991
992
992
992
997
997
992
994
993
997
1001
1001
998
993
995
996
998
1000
999
999
1000
1002
1005
1006
1006
1002
1006
1007
1012
1013
1010
1009
1011
1015
1020
1021
1021
1021
1024
1030
1034
1033
1034
1035
1038
1045
1049
1050
1047
1048
1050
1056
1058
1057
1052
1049
1051
1051
1052
1051
1048
1045
1041
1045
1044
1041
1037
1033
1032
1034
1037
1034
1029
1027
1027
1027
1029
1029
1025
1024
1025
1026
1027
1026
1020
1022
1022
1025
1025
1025
1021
1020
1017
1020
1024
1022
1022
1018
1020
1022
1024
1021
1019
1017
1016
1019
1021
1023
1019
1016
1018
1019
1022
1019
1018
1016
1020
1023
1025
1023
1020
1020
1020
1019
1024
1022
1020
1018
1022
1022
1025
1022
1022
1019
1019
1020
1024
1019
1019
1018
1020
1020
1023
1020
1019
1016
1016
1019
1021
1019
1017
1016
1015
1018
1019
1018
1017
1015
1015
1019
1019
1019
1016
1016
1017
1020
1022
1020
1017
1016
1016
1019
1021
1019
1018
1016
1018
1017
1018
1016
1015
1014
1015
1018
1018
1019
1014
1015
1014
1016
1021
1019
1016
1016
1013
1017
1020
1019
1018
1017
1015
1019
1019
1019
1020
1017
1019
1021
1023
1022
1019
1019
1018
1019
1023
1023
1019
1017
1020
1021
1023
1022
1020
1019
1022
1026
1026
1026
1021
1020
1019
1023
1027
1027
1024
1019
1020
1024
1027
1023
1025
1022
1024
1025
1028
1026
1023
1023
1022
1026
1028
1029
1029
1026
1025
1031
1032
1032
1031
1035
1032
1035
1039
1039
1037
1035
1037
1040
1043
1042
1036
1032
1031
1033
1035
1035
1035
1033
1033
1034
1037
1038
1036
1035
1038
1037
1038
1035
1029
1027
1026
1029
1033
1030
1029
1028
1024
1026
1030
1031
1029
1028
1027
1028
1029
1029
1028
1027
1025
1029
1031
1030
1028
1024
1024
1028
1031
1032
1029
1027
1028
1031
1035
1033
1036
1037
1042
1054
1063
1075
1081
1093
1107
1131
1160
1192
1223
1255
1285
1321
1363
1410
1438
1443
1404
1324
1223
1129
1064
1033
1024
1028
1033
1033
1028
1024
1020
1018
1015
1012
1012
1010
1008
1008
1013
1010
1008
1005
1007
1009
1013
1008
1009
1005
1005
1006
1009
1011
1006
1004
1004
1009
1008
1006
1005
1003
1003
1008
1009
1005
1003
1001
1000
1004
1007
1005
1002
1002
1003
1004
1008
1006
1003
1004
1005
1009
1012
1008
1008
1006
1004
1011
1014
1012
1011
1009
1010
1015
1015
1015
1015
1014
1016
1019
1024
1023
1023
1023
1026
1027
1035
1036
1035
1036
1038
1045
1049
1054
1051
1052
1058
1062
1067
1069
1070
1071
1072
1077
1080
1080
1081
1078
1078
1080
1081
1076
1071
1065
1066
1066
1067
1062
1059
1055
1052
1055
1055
1050
1050
1046
1046
1049
1050
1045
1043
1039
1041
1045
1045
1045
1043
1038
1040
1044
1045
1044
1040
1037
1037
1041
1043
1042
1036
1035
1037
1039
1041
1039
1037
1035
1037
1037
1042
1039
1036
1035
1037
1041
1041
1041
1039
1037
1037
1039
1043
1041
1037
1040
1037
1042
1043
1044
1042
1038
1039
1040
1044
1044
1041
1037
1040
1042
1043
1040
1039
1037
1038
1043
1043
1040
1038
1035
1035
1037
1040
1041
1036
1036
1035
1038
1038
1039
1035
1035
1037
1038
1042
1039
1035
1035
1032
1035
1037
1038
1034
1032
1033
1036
1039
1038
1034
1029
1031
1036
1036
1036
1032
1031
1031
1034
1036
1035
1032
1030
1033
1035
1036
1035
1033
1031
1031
1035
1036
1035
1033
1031
1030
1034
1035
1035
1033
1032
1032
1035
1037
1035
1034
1032
1032
1037
1038
1035
1034
1031
1032
1032
1035
1035
1031
1031
1033
1034
1035
1037
1035
1032
1035
1036
1039
1037
1033
1030
1034
1033
1035
1034
1030
1029
1033
1034
1038
1037
1036
1031
1033
1035
1040
1038
1038
1037
1038
1041
1043
1041
1040
1041
1042
1044
1046
1046
1048
1045
1043
1048
1045
1042
1039
1038
1041
1043
1043
1043
1041
1038
1043
1046
1049
1044
1040
1037
1038
1037
1040
1037
1034
1033
1034
1037
1038
1038
1035
1034
1033
1038
1038
1035
1031
1030
1032
1034
1037
1035
1033
1032
1033
1034
1037
1037
1035
1034
1032
1035
1040
1039
1037
1040
1043
1049
1054
1061
1074
1084
1094
1110
1129
1154
1178
1203
1231
1261
1287
1315
1352
1385
1420
1434
1411
1349
1261
1169
1103
1061
1041
1029
1027
1028
1032
1032
1034
1030
1025
1021
1018
1017
1018
1017
1016
1014
1014
1014
1016
1014
1013
1010
1011
1014
1015
1010
1009
1006
1007
1012
1015
1012
1009
1006
1008
1009
1012
1009
1006
1007
1003
1006
1009
1009
1008
1005
1007
1007
1008
1006
1005
1002
1002
1006
1005
1008
1007
1003
1005
1006
1010
1007
1008
1003
1005
1010
1010
1012
1005
1002
1006
1009
1011
1011
1009
1007
1009
1013
1014
1017
1014
1013
1016
1020
1025
1023
1021
1022
1024
1029
1032
1036
1034
1034
1035
1042
1047
1049
1052
1053
1052
1058
1064
1063
1064
1063
1064
1068
1072
1069
1068
1061
1062
1063
1066
1062
1058
1054
1052
1052
1050
1049
1046
1042
1044
1045
1045
1044
1039
1037
1037
1039
1041
1042
1036
1032
1036
1036
1037
1036
1033
1031
1033
1034
1038
1034
1032
1029
1030
1035
1036
1034
1027
1027
1028
1029
1034
1033
1030
1027
1029
1032
1031
1029
1027
1027
1030
1032
1033
1031
1029
1027
1028
1030
1034
1032
1031
1027
1027
1030
1032
1032
1028
1027
1028
1030
1029
1030
1026
1027
1027
1030
1030
1026
1024
1023
1024
1026
1029
1029
1026
1023
1023
1027
1028
1023
1024
1022
1023
1026
1026
1026
1023
1021
1024
1027
1026
1026
1022
1021
1021
1023
1025
1023
1021
1020
1019
1021
1024
1024
1022
1020
1022
1022
1026
1024
1021
1016
1022
1024
1025
1024
1021
1018
1020
1024
1024
1024
1021
1018
1021
1023
1025
1025
1022
1020
1023
1023
1024
1025
1022
1020
1021
1027
1028
1025
1022
1019
1022
1024
1028
1026
1023
1021
1024
1027
1027
1026
1026
1021
1024
1026
1027
1025
1025
1020
1022
1027
1030
1027
1021
1021
1024
1027
