1021
1019
1022
1021
1023
1021
1021
1020
1019
1021
1021
1023
1022
1021
1019
1022
1024
1024
1020
1018
1018
1019
1023
1026
1023
1021
1023
1021
1022
1019
1015
1014
1014
1015
1021
1020
1018
1019
1020
1020
1020
1018
1014
1014
1014
1020
1018
1018
1016
1015
1016
1018
1020
1018
1016
1011
1015
1017
1019
1017
1015
1014
1015
1018
1016
1017
1016
1015
1017
1018
1018
1018
1016
1014
1015
1020
1023
1021
1020
1016
1016
1018
1022
1021
1021
1018
1020
1023
1022
1022
1018
1014
1014
1017
1020
1019
1018
1013
1012
1012
1012
1014
1014
1014
1014
1017
1021
1020
1018
1018
1014
1018
1024
1024
1021
1016
1016
1022
1025
1025
1027
1024
1027
1028
1032
1031
1026
1021
1022
1023
1024
1025
1023
1018
1016
1023
1028
1032
1029
1030
1029
1031
1032
1034
1026
1018
1017
1020
1025
1025
1023
1019
1018
1023
1024
1021
1018
1015
1018
1024
1027
1025
1022
1017
1019
1024
1025
1024
1021
1019
1021
1024
1025
1024
1025
1023
1023
1026
1025
1023
1021
1024
1028
1036
1041
1048
1056
1066
1078
1090
1102
1117
1139
1166
1195
1223
1252
1274
1301
1330
1368
1406
1433
1434
1402
1336
1249
1161
1097
1059
1034
1021
1015
1017
1017
1017
1017
1018
1019
1018
1018
1015
1011
1004
1003
1006
1010
1009
1005
1003
1003
1003
1004
1003
1002
999
998
1003
1005
1005
1005
1001
999
1003
1008
1008
1002
997
995
999
1004
1005
1003
997
996
999
1005
1002
993
991
986
991
997
996
996
996
1000
1004
1004
1000
996
994
992
998
998
998
997
994
995
999
1001
1003
1001
999
998
1002
1006
1008
1009
1005
1008
1009
1011
1011
1008
1007
1008
1011
1014
1018
1018
1015
1018
1019
1026
1029
1030
1030
1037
1042
1046
1048
1043
1038
1038
1046
1056
1062
1061
1057
1057
1062
1068
1069
1068
1065
1065
1060
1053
1051
1047
1048
1048
1049
1049
1046
1042
1035
1036
1038
1040
1038
1036
1034
1032
1035
1039
1041
1037
1035
1034
1038
1040
1039
1035
1034
1034
1036
1037
1031
1028
1027
1031
1034
1037
1033
1028
1025
1025
1030
1031
1032
1031
1027
1027
1027
1026
1026
1028
1028
1032
1035
1034
1032
1028
1029
1033
1036
1039
1036
1033
1033
1031
1034
1036
1037
1039
1035
1035
1034
1038
1037
1036
1031
1029
1033
1034
1034
1033
1030
1029
1031
1034
1035
1031
1029
1032
1033
1036
1031
1027
1024
1022
1026
1033
1035
1036
1032
1031
1028
1030
1032
1034
1031
1027
1027
1027
1028
1027
1023
1023
1023
1027
1025
1022
1018
1021
1026
1030
1029
1022
1014
1014
1022
1029
1028
1024
1021
1021
1022
1025
1023
1020
1016
1019
1025
1031
1034
1026
1021
1019
1024
1029
1028
1024
1020
1020
1027
1032
1030
1029
1025
1023
1023
1026
1025
1024
1024
1024
1031
1033
1032
1028
1028
1027
1029
1029
1027
1024
1021
1021
1026
1033
1036
1037
1034
1034
1038
1038
1042
1043
1041
1038
1039
1039
1042
1041
1039
1038
1039
1039
1032
1031
1028
1031
1035
1041
1042
1042
1043
1042
1042
1039
1034
1030
1029
1030
1029
1029
1027
1024
1022
1026
1026
1025
1018
1014
1016
1020
1022
1023
1021
1017
1012
1014
1016
1018
1016
1015
1012
1016
1016
1021
1020
1018
1011
1012
1015
1019
1021
1022
1021
1023
1027
1035
1046
1057
1065
1075
1093
1114
1134
1157
1179
1201
1226
1253
1281
1313
1345
1375
1389
1369
1314
1232
1148
1081
1041
1022
1008
1006
1006
1010
1013
1012
1006
1001
996
996
995
997
994
990
988
989
995
994
994
991
988
988
991
989
989
988
988
988
987
989
986
981
980
982
985
987
984
981
979
983
988
988
989
982
974
975
983
990
992
989
986
988
990
991
990
985
987
991
991
992
992
991
995
994
994
992
991
992
993
995
998
1001
999
996
996
998
1003
1012
1011
1010
1007
1015
1017
1021
1017
1017
1015
1019
1024
1028
1031
1033
1030
1031
1031
1037
1044
1044
1044
1047
1053
1054
1050
1045
1044
1045
1049
1051
1049
1048
1044
1039
1038
1040
1040
1044
1045
1045
1042
1041
1037
1037
1038
1036
1033
1030
1023
1023
1020
1016
1005
985
973
986
999
1004
1000
1002
1001
1002
1005
1008
1009
1006
998
999
998
999
1005
1010
1007
999
997
1000
1001
1002
1002
1003
999
1004
1006
1006
1004
999
996
995
997
1003
998
997
994
997
1004
1000
994
993
992
996
997
997
994
991
991
995
1000
1004
1003
997
994
993
998
1004
1003
997
997
1000
1008
1012
1011
1009
1003
1003
1003
1004
1003
1000
1002
1005
1007
1008
1005
1004
999
998
999
999
1001
998
997
998
997
1000
999
997
997
999
997
997
995
992
992
994
995
995
995
992
990
991
993
995
994
991
991
994
995
992
990
987
986
990
992
994
994
992
992
994
993
994
993
994
993
993
995
993
992
989
989
992
997
999
998
999
997
999
1002
1004
1003
1000
999
1000
1003
1009
1010
1008
1004
1001
997
999
995
995
996
995
1000
1002
1000
996
990
994
997
1000
1001
996
992
990
991
989
987
982
980
985
991
991
986
980
978
981
987
992
990
987
987
987
993
996
994
992
986
987
992
998
999
997
995
998
997
1000
1000
999
996
1002
1012
1024
1031
1038
1043
1049
1062
1076
1098
1116
1136
1161
1189
1213
1238
1266
1305
1341
1367
1372
1337
1270
1184
1100
1037
1003
988
981
982
989
994
995
990
987
986
984
984
985
982
983
983
981
981
980
976
972
972
974
974
980
977
974
972
973
971
973
975
971
967
968
972
975
971
970
964
967
970
973
970
968
963
967
970
976
975
971
967
964
965
965
967
967
969
972
978
982
982
976
972
972
980
983
986
984
983
985
988
987
985
981
980
982
984
987
989
990
989
989
991
993
997
999
1000
1003
1009
1013
1016
1014
1012
1012
1015
1019
1021
1021
1023
1027
1032
1038
1037
1034
1034
1037
1041
1046
1052
1051
1047
1048
1046
1049
1047
1043
1040
1044
1044
1044
1041
1037
1035
1036
1036
1035
1031
1028
1028
1028
1029
1027
1022
1016
1013
1012
1013
1014
1014
1009
1008
1008
1012
1013
1009
1003
1003
1000
1007
1007
1004
1002
995
996
999
1006
1003
999
995
993
995
995
997
994
991
992
996
1003
1005
998
992
988
991
997
1000
997
994
996
999
1002
1000
997
992
995
997
1001
998
997
993
995
1001
1003
1001
996
990
994
998
999
998
998
996
994
996
998
996
991
991
993
994
996
993
993
990
992
998
997
989
980
976
980
987
991
991
985
983
981
983
986
985
986
983
985
986
986
984
983
983
985
988
984
982
977
977
977
986
990
988
982
975
976
981
987
991
988
987
984
984
991
992
990
988
989
991
990
988
987
988
992
998
1001
993
988
984
989
996
1000
995
993
989
990
993
996
996
993
994
998
1000
1002
999
996
995
998
1002
1007
1009
1009
1008
1007
1006
1008
1001
1000
996
997
1002
1005
1002
1001
1000
1002
1009
1011
1010
1005
1001
1001
1004
1005
1000
995
994
995
1000
1003
1003
1001
999
998
1000
1003
997
996
992
994
996
1001
1001
999
998
1000
1001
1005
1004
1001
997
999
1005
1012
1011
1008
1002
1007
1021
1035
1049
1063
1070
1090
1117
1144
1168
1195
1222
1254
1288
1331
1375
1409
1416
1393
1330
1237
1139
1059
1014
997
998
1003
999
1001
1001
1002
1002
1000
991
990
987
986
990
991
993
989
989
990
992
993
987
986
986
988
991
991
992
989
990
990
992
992
984
977
976
983
987
990
989
986
983
984
987
990
991
987
984
985
988
992
991
986
987
989
994
1001
998
995
993
992
996
1002
1003
1002
1001
999
1002
1002
1002
1002
1001
1000
1002
1008
1007
1009
1008
1013
1018
1023
1023
1017
1014
1017
1027
1029
1030
1034
1037
1042
1048
1050
1045
1046
1050
1054
1059
1062
1062
1064
1066
1069
1072
1071
1067
1061
1059
1057
1057
1061
1059
1057
1050
1045
1043
1045
1041
1037
1035
1038
1040
1038
1033
1027
1026
1026
1030
1036
1032
1031
1027
1031
1033
1032
1028
1027
1022
1024
1026
1028
1027
1029
1029
1026
1022
1025
1024
1026
1023
1021
1024
1025
1023
1022
1019
1018
1018
1020
1020
1017
1017
1018
1022
1021
1023
1020
1015
1015
1018
1025
1024
1019
1015
1018
1021
1025
1024
1018
1011
1013
1013
1019
1018
1018
1018
1020
1022
1024
1019
1017
1011
1010
1013
1015
1015
1015
1012
1011
1012
1016
1014
1012
1011
1011
1015
1017
1016
1017
1015
1010
1008
1010
1008
1005
1004
1006
1005
1010
1009
1010
1005
1004
1004
1007
1006
1009
1008
1007
1007
1009
1008
1010
1009
1013
1016
1014
1008
1004
1006
1011
1011
1012
1010
1004
1004
1008
1013
1018
1017
1016
1010
1008
1014
1015
1016
1016
1012
1015
1015
1017
1016
1013
1012
1012
1010
1014
1012
1009
1010
1012
1016
1017
1020
1018
1018
1022
1027
1031
1029
1024
1019
1019
1025
1029
1027
1024
1016
1017
1020
1024
1026
1022
1022
1024
1027
1030
1027
1023
1022
1022
1023
1022
1021
1018
1016
1017
1021
1024
1022
1020
1018
1019
1020
1020
1020
1017
1014
1015
1022
1021
1020
1019
1019
1021
1024
1027
1025
1024
1021
1024
1029
1033
1030
1026
1023
1029
1039
1049
1056
1062
1073
1087
1097
1109
1128
1150
1173
1196
1224
1244
1268
1296
1336
1372
1395
1384
1332
1243
1145
1077
1046
1032
1024
1016
1013
1018
1022
1025
1022
1016
1005
1004
1006
1012
1011
1011
1007
1008
1012
1015
1015
1016
1014
1017
1018
1016
1010
1010
1009
1013
1017
1017
1014
1013
1013
1012
1015
1019
1020
1018
1017
1018
1022
1026
1023
1015
1012
1013
1015
1018
1021
1019
1014
1014
1019
1023
1025
1024
1020
1024
1025
1028
1027
1023
1025
1034
1040
1042
1042
1036
1035
1039
1049
1051
1051
1048
1051
1057
1065
1068
1067
1066
1065
1069
1078
1085
1087
1089
1083
1084
1085
1086
1086
1084
1079
1078
1076
1079
1077
1077
1074
1074
1075
1077
1072
1067
1062
1061
1062
1063
1061
1060
1059
1059
1061
1061
1060
1052
1050
1050
1054
1056
1053
1050
1046
1046
1047
1048
1045
1043
1041
1042
1044
1048
1050
1046
1043
1043
1045
1048
1043
1042
1037
1039
1043
1046
1042
1037
1038
1044
1046
1050
1049
1045
1039
1040
1045
1046
1046
1042
1039
1040
1045
1046
1044
1042
1036
1038
1041
1042
1044
1040
1037
1031
1032
1036
1040
1036
1033
1034
1037
1037
1034
1030
1028
1033
1036
1035
1033
1029
1029
1029
1032
1035
1037
1030
1030
1029
1030
1033
1029
1026
1024
1026
1030
1033
1032
1031
1028
1027
1024
1022
1021
1021
1024
1026
1027
1028
1027
1024
1023
1023
1025
1027
1026
1023
1023
1024
1025
1029
1027
1022
1022
1021
1024
1026
1026
1023
1021
1024
1026
1030
1027
1027
1021
1022
1025
1028
1026
1024
1022
1024
1028
1028
1026
1022
1020
1024
1025
1029
1027
1021
1020
1017
1023
1026
1026
1024
1025
1025
1028
1030
1030
1024
1020
1020
1024
1030
1034
1028
1030
1030
1034
1040
1038
1033
1031
1035
1040
1045
1044
1040
1036
1039
1038
1035
1035
1034
1032
1032
1034
1037
1036
1034
1035
1038
1040
1041
1034
1033
1029
1030
1028
1028
1026
1023
1024
1023
1024
1027
1027
1024
1023
1027
1028
1031
1028
1027
1023
1022
1023
1028
1028
1024
1024
1024
1028
1028
1025
1024
1022
1024
1028
1030
1032
1030
1030
1033
1040
1049
1057
1068
1077
1089
1100
1120
1138
1161
1186
1216
1247
1274
1302
1336
1375
1411
1429
1419
1364
1274
1179
1101
1055
1033
1021
1019
1017
1018
1021
1020
1018
1013
1008
1005
1007
1006
1005
1003
1001
1004
1002
1001
1002
997
996
999
1001
1004
1002
999
995
998
1002
1006
1003
997
991
992
995
998
995
990
985
989
995
996
995
987
985
986
990
992
993
991
985
988
990
992
993
990
989
990
990
994
996
993
993
994
995
1000
998
994
993
992
992
996
994
993
991
996
998
1003
998
994
994
997
1001
1008
1005
1005
1003
1007
1012
1014
1014
1014
1017
1022
1024
1025
1026
1026
1030
1034
1038
1044
1046
1046
1045
1048
1052
1056
1056
1056
1051
1051
1055
1055
1049
1044
1042
1043
1042
1043
1039
1036
1032
1030
1031
1033
1026
1023
1020
1025
1024
1027
1024
1024
1018
1021
1021
1022
1019
1019
1014
1017
1018
1021
1019
1015
1016
1015
1016
1015
1012
1009
1006
1009
1012
1012
1012
1008
1006
1006
1008
1011
1011
1010
1007
1008
1008
1010
1008
1006
1006
1006
1011
1012
1009
1007
1003
1000
1005
1010
1010
1009
1007
1007
1009
1012
1012
1008
1008
1006
1008
1012
1014
1011
1008
1009
1009
1013
1014
1013
1011
1013
1011
1012
1006
1006
1008
1010
1011
1011
1010
1009
1005
1004
1009
1010
1010
1006
1004
1005
1007
1008
1009
1005
1003
1004
1005
1010
1009
1003
1001
1001
1006
1008
1009
1007
1004
1002
1002
1008
1008
1007
1002
996
1000
1002
1005
1003
1000
1004
1004
1008
1006
1004
995
998
1000
1001
1004
1003
1000
1006
1006
1010
1008
1005
1002
1003
1005
1008
1008
1005
1003
1004
1005
1008
1006
1003
1004
1008
1008
1011
1006
1003
1004
1008
1009
1009
1006
1005
1005
1005
1008
1009
1009
1010
1008
1008
1013
1015
1014
1012
1012
1013
1020
1020
1022
1019
1018
1018
1017
1018
1018
1015
1012
1011
1014
1016
1014
1012
1009
1010
1018
1019
1019
1017
1012
1011
1013
1017
1014
1014
1012
1011
1011
1012
1010
1009
1008
1012
1014
1013
1010
1007
1008
1013
1015
1018
1016
1013
1009
1008
1010
1011
1016
1015
1013
1014
1016
1018
1018
1016
1015
1015
1015
1013
1012
1010
1015
1014
1017
1021
1021
1027
1032
1043
1053
1064
1070
1080
1087
1107
1134
1161
1186
1206
1226
1251
1274
1305
1339
1370
1391
1399
1384
1338
1260
1167
1093
1050
1028
1020
1012
1008
1007
1010
1015
1017
1016
1009
1010
1008
1012
1006
1004
999
999
998
1000
1002
999
996
998
999
999
1001
999
996
994
994
992
995
994
993
992
997
999
997
993
989
988
987
991
992
992
988
988
991
993
998
994
991
991
991
992
990
992
989
992
995
998
997
998
994
990
993
993
998
997
996
994
997
997
999
995
993
991
995
999
1002
1005
1004
1004
1005
1007
1008
1010
1008
1013
1014
1018
1019
1021
1020
1020
1023
1026
1031
1034
1035
1034
1037
1043
1047
1044
1043
1044
1051
1055
1057
1056
1051
1046
1047
1050
1052
1052
1046
1042
1041
1041
1042
1038
1030
1024
1026
1029
1029
1029
1024
1020
1021
1023
1021
1019
1013
1015
1017
1019
1024
1021
1013
1013
1015
1018
1019
1016
1011
1011
1012
1014
1017
1015
1010
1013
1013
1012
1016
1014
1008
1006
1007
1006
1005
1010
1009
1010
1009
1010
1008
1007
1007
1006
1008
1011
1013
1011
1008
1009
1011
1011
1012
1010
1003
1001
1002
1007
1011
1007
1007
1006
1008
1009
1010
1010
1005
1006
1006
1012
1013
1014
1010
1007
1004
1006
1010
1009
1007
1005
1004
1007
1009
1008
1002
1000
1002
1006
1012
1009
1006
1006
1005
1005
1006
1003
1001
1002
1005
1006
1005
1004
999
1001
1003
1005
1005
1004
1001
1002
1003
1003
1004
1003
1003
1004
1004
1008
1010
1009
1004
1001
1004
1007
1008
1009
1006
1003
1005
1008
1011
1007
1005
1005
1009
1010
1014
1009
1007
1005
1004
1011
1015
1016
1014
1010
1009
1007
1008
1008
1009
1005
1007
1009
1010
1012
1008
1006
1006
1008
1010
1008
1011
1011
1016
1017
1020
1019
1013
1012
1013
1017
1019
1018
1017
1018
1023
1023
1024
1018
1017
1018
1020
1022
1022
1021
1023
1018
1019
1023
1028
1024
1026
1022
1024
1027
1025
1027
1024
1023
1022
1017
1012
1010
1007
1008
1012
1017
1020
1018
1018
1013
1012
1013
1015
1013
1011
1010
1013
1015
1018
1014
1008
1005
1008
1014
1019
1017
1014
1016
1019
1023
1027
1026
1027
1033
1043
1057
1071
1077
1085
1099
1122
1150
1175
1199
1225
1253
1288
1335
1379
1401
1386
1337
1253
1154
1078
1028
1008
1002
1007
1013
1020
1018
1015
1013
1009
1009
1009
1004
1001
998
1000
1003
1005
1005
1000
995
998
1000
1002
998
997
995
998
999
1002
999
996
995
996
994
996
995
994
992
990
990
988
990
991
988
992
992
994
990
989
984
988
994
995
995
988
989
991
990
995
993
990
991
991
996
998
993
993
996
999
1005
1004
1003
997
999
1002
1008
1013
1013
1011
1013
1016
1021
1024
1023
1022
1026
1031
1035
1037
1035
1035
1037
1046
1049
1053
1049
1043
1038
1044
1047
1050
1046
1043
1040
1038
1041
1039
1039
1034
1030
1028
1030
1032
1027
1024
1023
1027
1034
1032
1026
1020
1015
1019
1021
1021
1016
1013
1014
1016
1022
1021
1020
1017
1012
1011
1014
1019
1018
1014
1013
1016
1019
1021
1019
1011
1007
1007
1012
1013
1017
1014
1016
1015
1017
1016
1017
1013
1012
1014
1015
1015
1016
1013
1013
1013
1017
1021
1022
1020
1016
1014
1013
1013
1014
1012
1009
1011
1014
1015
1015
1013
1007
1010
1015
1015
1018
1017
1014
1014
1015
1014
1013
1008
1006
1008
1011
1014
1011
1008
1008
1008
1011
1011
1009
1008
1006
1007
1010
1012
1012
1010
1008
1011
1011
1010
1006
1005
1007
1009
1012
1010
1008
1005
1004
1008
1013
1012
1012
1011
1008
1010
1016
1016
1014
1007
1005
1008
1013
1013
1010
1009
1005
1008
1010
1012
1011
1009
1010
1011
1016
1017
1012
1009
1007
1011
1014
1013
1012
1008
1009
1013
1016
1017
1014
1008
1009
1009
1013
1017
1012
1009
1009
1010
1012
1016
1018
1018
1017
1017
1016
1016
1018
1016
1016
1020
1025
1028
1026
1024
1021
1022
1025
1030
1031
1030
1028
1026
1026
1026
1023
1021
1021
1020
1020
1022
1021
1022
1022
1024
1027
1027
1025
1023
1021
1020
1019
1016
1012
1011
1011
1016
1020
1022
1017
1013
1011
1012
1018
1018
1020
1020
1016
1017
1020
1017
1011
1011
1014
1018
1020
1021
1020
1017
1016
1020
1021
1023
1020
1017
1016
1019
1025
1030
1034
1037
1041
1050
1067
1076
1084
1090
1106
1128
1158
1182
1208
1231
1263
1301
1346
1379
1396
1382
1333
1256
1174
1099
1047
1016
1005
1003
1010
1015
1014
1011
1011
1015
1010
1011
1003
1002
1000
1001
1003
1004
1002
1000
1003
1003
1004
1003
1002
995
994
997
998
1000
999
996
992
991
990
996
994
993
989
988
989
989
991
990
989
996
998
997
993
991
990
993
996
999
998
997
995
994
994
992
992
993
991
997
1000
999
1002
999
998
998
1003
1005
1008
1007
1004
1004
1004
1007
1005
1003
1006
1010
1012
1015
1010
1012
1013
1018
1024
1024
1024
1023
1028
1033
1038
1041
1042
1041
1044
1051
1056
1059
1057
1058
1058
1059
1063
1067
1064
1061
1057
1058
1059
1057
1056
1051
1049
1048
1050
1050
1046
1040
1040
1040
1038
1035
1033
1031
1031
1034
1034
1032
1030
1026
1027
1026
1027
1026
1027
1025
1022
1025
1027
1028
1029
1026
1024
1025
1026
1025
1022
1021
1022
1024
1025
1025
1023
1019
1016
1021
1021
1021
1020
1020
1019
1021
1022
1023
1015
1011
1014
1014
1017
1019
1018
1019
1019
1021
1023
1022
1020
1019
1019
1022
1027
1027
1024
1021
1021
1024
1029
1029
1029
1020
1019
1019
1026
1026
1023
1016
1018
1020
1022
1020
1017
1017
1016
1020
1023
1023
1020
1016
1016
1019
1019
1022
1019
1016
1017
1019
1023
1023
1022
1016
1015
1015
1016
1013
1013
1012
1012
1012
1013
1015
1015
1013
1011
1013
1016
1017
1016
1013
1013
1015
1019
1020
1014
1008
1005
1005
1014
1014
1014
1013
1013
1014
1018
1020
1018
1015
1016
1016
1019
1017
1017
1014
1013
1015
1016
1019
1017
1014
1010
1009
1013
1017
1016
1014
1013
1014
1019
1020
1018
1013
1008
1012
1018
1020
1021
1020
1015
1022
1024
1029
1027
1025
1023
1024
1030
1031
1030
1031
1031
1029
1031
1030
1027
1021
1018
1025
1030
1030
1028
1024
1021
1021
1025
1029
1028
1024
1022
1021
1021
1019
1017
1014
1015
1016
1018
1018
1018
1018
1018
1018
1018
1016
1014
1014
1011
1015
1017
1020
1020
1021
1017
1020
1018
1016
1018
1015
1016
1019
1023
1020
1018
1017
1017
1027
1031
1035
1035
