1047
1048
1048
1050
1053
1058
1062
1063
1062
1060
1061
1061
1066
1066
1061
1057
1057
1054
1056
1053
1048
1044
1044
1046
1045
1043
1037
1034
1035
1036
1038
1037
1032
1029
1029
1031
1031
1031
1028
1029
1026
1032
1030
1028
1028
1024
1025
1027
1029
1029
1026
1021
1021
1025
1026
1027
1022
1023
1021
1023
1024
1022
1021
1020
1022
1023
1025
1023
1022
1018
1018
1023
1026
1023
1021
1020
1021
1024
1024
1026
1024
1022
1023
1025
1027
1024
1025
1024
1024
1026
1029
1028
1025
1022
1023
1025
1028
1027
1025
1024
1023
1026
1028
1026
1025
1021
1026
1027
1027
1025
1021
1021
1020
1024
1028
1026
1022
1020
1022
1023
1023
1022
1021
1020
1018
1021
1023
1023
1020
1020
1018
1022
1024
1022
1019
1016
1018
1020
1022
1024
1019
1016
1018
1022
1024
1023
1019
1018
1017
1021
1024
1021
1020
1018
1021
1019
1026
1022
1020
1017
1020
1021
1023
1022
1021
1017
1018
1020
1022
1022
1019
1020
1020
1022
1025
1023
1020
1019
1018
1023
1025
1022
1020
1017
1020
1021
1024
1025
1022
1016
1020
1022
1025
1025
1020
1019
1023
1026
1025
1024
1023
1021
1020
1023
1027
1024
1022
1022
1022
1023
1027
1026
1024
1023
1022
1026
1028
1026
1025
1025
1026
1032
1035
1032
1030
1030
1031
1034
1039
1041
1036
1034
1034
1039
1038
1036
1034
1028
1031
1030
1033
1034
1029
1029
1030
1033
1036
1038
1034
1033
1033
1033
1035
1033
1027
1025
1022
1027
1030
1026
1027
1026
1025
1030
1028
1027
1026
1024
1023
1025
1030
1029
1025
1024
1025
1024
1027
1026
1024
1023
1024
1026
1027
1027
1025
1025
1027
1028
1032
1031
1031
1031
1036
1043
1049
1058
1067
1075
1085
1100
1118
1139
1165
1195
1228
1259
1289
1322
1361
1400
1425
1420
1370
1276
1167
1079
1027
1011
1014
1023
1023
1022
1018
1020
1017
1013
1008
1007
1007
1008
1009
1009
1004
1005
1000
1007
1008
1008
1004
1002
1002
1003
1006
1005
1001
998
998
1003
1005
1001
1000
998
997
1000
1003
1002
999
997
997
1000
1004
1003
1000
1000
1000
1001
1003
1003
1002
1002
1001
1004
1008
1006
1004
1001
1003
1008
1010
1010
1006
1006
1007
1010
1013
1013
1010
1010
1014
1017
1020
1020
1022
1022
1025
1030
1034
1036
1036
1037
1042
1046
1052
1053
1053
1056
1057
1060
1066
1069
1065
1066
1068
1069
1070
1069
1063
1061
1060
1060
1061
1059
1053
1049
1051
1051
1052
1049
1047
1042
1043
1041
1044
1041
1038
1037
1036
1038
1041
1039
1035
1034
1036
1039
1038
1038
1033
1030
1032
1034
1039
1035
1032
1028
1031
1033
1036
1034
1032
1029
1028
1031
1034
1032
1031
1027
1027
1033
1032
1031
1031
1029
1029
1030
1034
1035
1032
1030
1031
1033
1037
1035
1035
1030
1031
1036
1037
1035
1034
1030
1036
1033
1038
1038
1033
1032
1033
1034
1039
1037
1033
1030
1035
1034
1035
1035
1030
1028
1029
1033
1036
1034
1033
1028
1028
1030
1034
1030
1027
1027
1028
1032
1031
1029
1028
1025
1027
1028
1032
1031
1029
1026
1025
1028
1032
1029
1027
1025
1027
1027
1030
1030
1028
1026
1028
1030
1031
1031
1028
1024
1028
1029
1030
1031
1029
1026
1025
1029
1029
1028
1028
1025
1026
1030
1030
1030
1028
1025
1025
1028
1030
1028
1026
1023
1027
1032
1030
1028
1024
1025
1026
1030
1032
1030
1029
1025
1025
1026
1030
1028
1027
1025
1028
1030
1030
1029
1028
1026
1026
1029
1028
1028
1028
1026
1025
1030
1032
1030
1030
1026
1027
1031
1033
1030
1027
1026
1027
1031
1033
1031
1028
1028
1028
1031
1034
1033
1034
1032
1036
1037
1041
1040
1038
1036
1040
1044
1045
1043
1043
1041
1042
1042
1043
1040
1039
1036
1036
1039
1043
1040
1040
1038
1042
1044
1045
1046
1042
1039
1038
1040
1039
1037
1032
1031
1032
1034
1033
1035
1033
1030
1028
1033
1036
1036
1030
1029
1030
1031
1037
1032
1030
1030
1028
1031
1035
1034
1031
1029
1030
1032
1035
1035
1031
1029
1032
1039
1039
1041
1040
1044
1050
1063
1075
1083
1089
1096
1113
1137
1163
1190
1219
1245
1276
1305
1341
1381
1410
1421
1403
1353
1268
1168
1088
1042
1022
1017
1020
1026
1025
1025
1025
1027
1027
1023
1018
1015
1014
1014
1017
1012
1011
1009
1009
1013
1015
1013
1012
1008
1008
1013
1015
1012
1009
1006
1009
1009
1011
1010
1008
1006
1008
1011
1012
1009
1008
1007
1006
1008
1009
1011
1007
1004
1006
1007
1008
1008
1005
1006
1005
1009
1010
1010
1009
1005
1005
1009
1010
1011
1008
1008
1009
1013
1013
1010
1010
1010
1009
1013
1015
1014
1011
1008
1012
1015
1020
1018
1016
1017
1018
1021
1024
1027
1022
1025
1027
1032
1036
1038
1038
1035
1041
1045
1051
1050
1052
1052
1056
1061
1066
1066
1063
1065
1069
1071
1071
1068
1067
1064
1064
1064
1065
1062
1055
1051
1051
1051
1054
1052
1047
1042
1042
1043
1045
1045
1039
1037
1039
1041
1040
1040
1036
1033
1033
1038
1039
1038
1036
1034
1033
1035
1036
1036
1031
1030
1029
1033
1034
1035
1029
1026
1028
1031
1034
1034
1029
1024
1026
1029
1032
1033
1026
1030
1028
1029
1033
1029
1030
1029
1029
1035
1036
1034
1031
1030
1033
1034
1036
1036
1032
1031
1034
1036
1037
1035
1031
1032
1033
1036
1037
1035
1031
1030
1031
1033
1036
1036
1031
1028
1030
1032
1038
1035
1030
1030
1032
1034
1034
1031
1025
1026
1027
1028
1033
1031
1027
1026
1027
1028
1029
1029
1027
1022
1024
1026
1028
1029
1024
1024
1025
1028
1030
1027
1024
1022
1024
1025
1028
1029
1026
1027
1026
1026
1028
1027
1024
1026
1027
1028
1032
1028
1027
1024
1027
1027
1030
1028
1028
1024
1028
1026
1028
1029
1028
1024
1026
1026
1030
1030
1026
1026
1026
1028
1030
1032
1029
1026
1026
1030
1029
1030
1026
1025
1025
1031
1031
1029
1026
1025
1029
1029
1031
1030
1027
1027
1028
1029
1031
1030
1028
1026
1028
1031
1032
1028
1027
1026
1026
1031
1030
1031
1027
1028
1027
1029
1032
1030
1030
1027
1029
1033
1036
1035
1034
1032
1036
1040
1043
1041
1037
1039
1040
1042
1044
1044
1042
1040
1041
1043
1045
1040
1037
1034
1036
1038
1039
1038
1038
1036
1038
1039
1041
1040
1039
1038
1041
1039
1042
1035
1031
1028
1030
1033
1036
1034
1030
1028
1031
1031
1032
1031
1030
1025
1031
1031
1034
1032
1028
1025
1028
1029
1032
1031
1030
1027
1029
1032
1035
1032
1030
1027
1031
1034
1037
1034
1037
1034
1035
1040
1045
1048
1052
1057
1068
1081
1092
1101
1117
1137
1169
1199
1230
1257
1279
1305
1339
1373
1405
1421
1416
1380
1320
1236
1151
1082
1042
1023
1016
1020
1024
1028
1027
1026
1024
1025
1025
1023
1017
1013
1014
1015
1018
1015
1011
1011
1011
1013
1014
1012
1011
1007
1009
1011
1014
1014
1010
1005
1008
1008
1011
1009
1007
1004
1005
1008
1009
1006
1004
1002
1004
1008
1007
1009
1003
1003
1003
1004
1008
1005
1003
1003
1004
1008
1007
1008
1004
1003
1005
1008
1011
1005
1006
1005
1005
1007
1010
1009
1007
1005
1005
1008
1009
1010
1008
1004
1009
1011
1015
1012
1009
1006
1010
1015
1018
1018
1019
1018
1023
1026
1028
1029
1027
1029
1032
1036
1040
1043
1043
1043
1046
1051
1055
1057
1057
1058
1061
1064
1068
1068
1064
1063
1064
1066
1068
1065
1061
1059
1057
1057
1060
1055
1050
1048
1047
1046
1047
1046
1041
1037
1038
1039
1042
1040
1036
1035
1038
1038
1041
1039
1035
1034
1033
1035
1037
1038
1033
1030
1031
1032
1034
1035
1030
1030
1030
1031
1034
1030
1029
1026
1028
1030
1031
1029
1026
1027
1027
1030
1032
1031
1027
1027
1028
1031
1034
1034
1029
1028
1030
1032
1035
1035
1032
1031
1035
1035
1037
1035
1034
1035
1036
1036
1038
1035
1034
1033
1035
1036
1034
1036
1034
1030
1030
1034
1035
1033
1032
1030
1031
1035
1036
1032
1030
1028
1031
1033
1034
1032
1030
1026
1025
1029
1030
1031
1025
1024
1029
1030
1030
1028
1028
1024
1025
1029
1029
1028
1026
1025
1026
1027
1030
1028
1026
1023
1023
1026
1028
1027
1025
1024
1025
1029
1029
1028
1023
1025
1023
1027
1028
1026
1025
1023
1026
1027
1031
1030
1027
1027
1028
1028
1031
1029
1026
1025
1027
1029
1029
1029
1025
1023
1026
1028
1029
1029
1026
1025
1027
1027
1031
1028
1028
1027
1029
1029
1032
1031
1028
1025
1025
1030
1029
1030
1028
1025
1028
1029
1031
1032
1029
1026
1025
1030
1031
1030
1029
1027
1030
1032
1036
1035
1034
1033
1035
1041
1042
1038
1038
1037
1037
1040
1044
1043
1039
1033
1034
1034
1037
1036
1032
1031
1037
1038
1040
1037
1038
1037
1036
1038
1033
1030
1030
1030
1030
1034
1036
1032
1027
1027
1028
1030
1031
1032
1024
1028
1027
1031
1034
1029
1027
1026
1027
1030
1031
1030
1029
1029
1028
1031
1032
1032
1030
1030
1031
1033
1034
1033
1033
1037
1044
1054
1064
1072
1076
1083
1099
1119
1146
1172
1195
1218
1248
1277
1311
1348
1381
1398
1388
1344
1265
1166
1083
1037
1017
1013
1013
1021
1020
1020
1020
1021
1027
1022
1016
1012
1011
1012
1014
1010
1007
1005
1007
1009
1011
1008
1007
1003
1006
1006
1010
1008
1006
1005
1005
1006
1006
1006
1003
1000
1003
1004
1005
1003
1001
999
1000
1003
1003
1002
1000
999
998
1003
1006
1003
1000
998
999
1000
1005
1004
1001
1000
1002
1002
1004
1004
999
1000
1004
1007
1010
1007
1005
1001
1004
1008
1011
1010
1010
1008
1009
1014
1014
1016
1014
1015
1019
1023
1025
1028
1026
1027
1031
1034
1039
1039
1038
1041
1045
1050
1055
1055
1055
1056
1059
1062
1061
1060
1059
1057
1056
1060
1057
1053
1052
1047
1046
1047
1049
1043
1039
1037
1037
1039
1038
1037
1034
1031
1031
1033
1033
1032
1030
1029
1030
1034
1033
1030
1031
1027
1029
1032
1031
1030
1028
1027
1025
1029
1028
1028
1027
1024
1025
1025
1028
1026
1026
1024
1026
1029
1030
1029
1026
1025
1026
1029
1032
1029
1025
1025
1027
1030
1031
1031
1026
1027
1027
1031
1033
1030
1027
1026
1028
1032
1033
1028
1026
1024
1024
1029
1029
1028
1026
1025
1025
1024
1028
1025
1022
1023
1025
1027
1027
1027
1023
1021
1023
1024
1029
1025
1024
1024
1023
1025
1026
1023
1023
1021
1024
1027
1026
1023
1021
1021
1019
1027
1028
1026
1022
1020
1021
1024
1026
1023
1022
1019
1024
1025
1027
1023
1020
1020
1022
1024
1028
1024
1021
1020
1023
1025
1026
1026
1023
1022
1022
1025
1029
1024
1023
1022
1025
1023
1026
1025
1020
1018
1023
1026
1028
1025
1022
1020
1021
1025
1026
1027
1022
1020
1023
1023
1026
1025
1022
1023
1024
1027
1027
1026
1023
1022
1025
1029
1030
1026
1025
1023
1025
1028
1029
1027
1026
1025
1027
1030
1031
1034
1033
1033
1034
1036
1038
1038
1037
1036
1039
1040
1041
1043
1037
1034
1033
1037
1038
1037
1035
1033
1034
1038
1042
1041
1038
1036
1038
1039
1036
1033
1028
1027
1028
1032
1035
1031
1029
1027
1028
1031
1033
1032
1027
1027
1027
1031
1031
1029
1029
1029
1030
1029
1031
1030
1027
1029
1031
1034
1034
1032
1030
1030
1034
1038
1042
1045
1048
1054
1064
1077
1089
1097
1109
1131
1162
1189
1220
1244
1269
1302
1341
1382
1418
1428
1403
1344
1255
1161
1085
1040
1020
1015
1020
1025
1030
1027
1025
1022
1023
1022
1020
1014
1012
1010
1013
1012
1014
1014
1011
1009
1011
1011
1014
1011
1010
1010
1008
1014
1014
1014
1010
1007
1008
1010
1010
1010
1006
1004
1004
1006
1010
1006
1003
1003
1004
1007
1005
1001
1001
1002
1005
1007
1007
1005
1002
1001
1003
1008
1008
1005
1003
1004
1004
1005
1009
1006
1006
1005
1006
1009
1011
1010
1005
1007
1008
1011
1010
1012
1009
1007
1012
1013
1015
1016
1016
1017
1018
1022
1025
1024
1023
1026
1029
1034
1039
1040
1039
1041
1044
1052
1055
1058
1057
1055
1060
1065
1065
1062
1063
1060
1063
1062
1060
1058
1054
1051
1052
1054
1054
1046
1042
1041
1038
1041
1043
1040
1035
1032
1034
1035
1038
1035
1033
1031
1034
1034
1034
1030
1027
1027
1032
1034
1032
1032
1027
1026
1027
1029
1033
1029
1027
1026
1027
1031
1030
1029
1027
1025
1027
1028
1031
1027
1024
1026
1028
1031
1033
1031
1027
1027
1027
1033
1035
1032
1027
1029
1031
1031
1034
1035
1029
1029
1031
1033
1033
1031
1026
1027
1028
1032
1033
1031
1029
1027
1029
1032
1032
1028
1028
1023
1026
1029
1030
1026
1025
1023
1026
1029
1028
1029
1026
1025
1026
1029
1030
1026
1022
1022
1024
1028
1029
1027
1022
1022
1024
1023
1026
1024
1022
1023
1023
1026
1025
1023
1021
1019
1022
1025
1025
1024
1021
1020
1022
1026
1026
1024
1023
1021
1022
1028
1027
1023
1021
1021
1023
1026
1025
1022
1020
1020
1022
1024
1026
1023
1021
1019
1021
1026
1025
1025
1020
1022
1021
1025
1025
1023
1024
1022
1024
1025
1026
1023
1021
1021
1022
1027
1028
1027
1025
1022
1024
1027
1028
1027
1026
1024
1027
1029
1027
1028
1022
1027
1029
1031
1036
1035
1032
1033
1037
1036
1036
1037
1037
1037
1040
1041
1041
1042
1037
1033
1036
1036
1036
1033
1031
1030
1033
1036
1038
1037
1035
1036
1039
1039
1041
1039
1033
1032
1029
1032
1032
1030
1028
1027
1029
1031
1035
1032
1029
1029
1028
1031
1030
1029
1028
1028
1030
1034
1031
1028
1027
1026
1027
1031
1034
1031
1028
1027
1027
1031
1032
1033
1029
1031
1035
1043
1047
1051
1051
1066
1079
1091
1100
1117
1136
1164
1195
1230
1260
1289
1316
1352
1397
1427
1430
1399
1337
1244
1150
1082
1044
1024
1017
1016
1023
1028
1029
1027
1023
1019
1017
1019
1017
1014
1011
1009
1010
1013
1012
1010
1006
1007
1010
1010
1012
1010
1006
1006
1007
1010
1010
1007
1003
1002
1004
1004
1008
1004
1002
1002
1003
1006
1004
1003
999
999
1002
1001
1004
1000
996
999
1000
1003
1002
998
1000
999
1002
1005
1005
1004
1001
1003
1004
1008
1004
1005
1003
1002
1004
1009
1009
1006
1005
1003
1009
1011
1012
1013
1013
1011
1014
1018
1022
1027
1023
1026
1027
1034
1036
1039
1039
1043
1048
1052
1054
1053
1055
1056
1059
1065
1065
1063
1061
1058
1059
1060
1061
1055
1049
1046
1044
1047
1044
1042
1037
1035
1034
1037
1037
1036
1031
1032
1029
1033
1030
1031
1027
1028
1029
1030
1030
1029
1027
1024
1028
1029
1030
1029
1023
1024
1024
1028
1027
1026
1024
1022
1024
1026
1028
1026
1022
1024
1027
1028
1029
1027
1024
1024
1026
1029
1031
1027
1028
1027
1028
1031
1035
1029
1028
1025
1030
1031
1032
1031
1026
1026
1026
1030
1031
1029
1025
1026
1030
1031
1029
1029
1025
1025
1028
1027
1030
1026
1024
1025
1026
1027
1028
1029
1022
1024
1022
1027
1025
1022
1022
1020
1023
1024
1027
1026
1023
1020
1021
1022
1023
1021
1022
1022
1022
1023
1024
1023
1020
1020
1020
1024
1023
1022
1020
1022
1023
1025
1024
1023
1019
1019
1021
1023
1025
1022
1022
1020
1021
1023
1025
1023
1020
1021
1021
1024
1023
1023
1020
1019
1022
1021
1023
1020
1019
1017
1020
1025
1024
1023
1021
1020
1019
1023
1024
1020
1021
1020
1021
1026
1022
1023
1020
1017
1024
1024
1025
1024
1019
1020
1022
1025
1024
1024
1023
1021
1023
1025
1027
1026
1024
1023
1027
1030
1033
1032
1028
1030
1031
1035
1036
1037
1032
1034
1033
1038
1038
1033
1029
1029
1031
1031
1032
1030
1030
1028
1032
1035
1037
1034
1028
1030
1031
1032
1032
1028
1023
1021
1025
1024
1026
1024
1023
1021
1024
1028
1024
1023
1022
1020
1025
1026
1026
1024
1022
1019
1022
1025
1024
1027
1022
1023
1025
1027
1027
1026
1022
1025
1028
1034
1033
1033
1034
1038
1046
1057
1067
1078
1082
1094
1113
1140
1167
1193
1218
1246
1278
1312
1350
1388
1409
1407
1374
1314
1226
1133
1064
1030
1017
1012
1013
1018
1020
1018
1021
1022
1020
1015
1011
1010
1009
1012
1011
1007
1003
1003
1005
1007
1006
1005
1002
1003
1006
1007
1008
1004
998
1001
1002
1004
1005
1004
999
996
1001
1002
1001
999
997
997
999
1001
1002
998
995
997
998
1003
1003
1000
997
1000
999
1002
1004
1001
999
998
1001
1003
1004
1001
999
1001
1002
1003
1006
1001
1001
1001
1002
1010
1008
1007
1003
1004
1004
1010
1010
1011
1009
1009
1013
1013
1017
1017
1017
1017
1023
1026
1030
1029
1029
1031
1036
1040
1041
1041
1046
1046
1050
1055
1058
1058
1056
1059
1060
1064
1063
1062
1057
1056
1058
1057
1059
1055
1051
1048
1050
1049
1049
1045
1039
1037
1040
1040
1039
1036
1033
1031
1032
1035
1032
1033
1031
1028
1029
1034
1035
1028
1027
1028
1032
1033
1032
1029
1026
1026
1028
1029
1030
1029
1027
1024
1026
1027
1028
1025
1024
1022
1023
1026
1025
1023
1021
1023
1024
1026
1026
1022
1022
1022
1023
1025
1024
1025
1024
1022
1023
1029
1026
1023
1021
1022
1024
1025
1025
1025
1020
1021
1024
1026
1028
1026
1025
1023
1027
1027
1026
1027
1023
1022
1023
1027
1027
1023
1019
1020
1024
1026
1025
1022
1019
1019
1022
1024
1023
1020
1018
1022
1023
1022
1021
1020
1017
1021
1022
1024
1024
1020
1020
1018
1020
1023
1023
1022
1017
1018
1020
1023
1023
1020
1019
1018
1022
1023
1022
1020
1017
1016
1018
1022
1021
1020
1016
1016
1019
1020
1022
1019
1016
1017
1018
1019
1021
1019
1016
1016
1019
1020
1020
1018
1015
1013
1016
1020
1021
1019
1015
1017
1019
1021
1018
1019
1016
1017
1020
1021
1021
1020
1014
1017
1019
1021
1021
1018
1018
1018
1019
1022
1024
1021
1018
1019
1021
1026
1024
1025
1023
1024
1028
1032
1032
1030
1026
1030
1033
1034
1037
1033
1031
1032
1029
1030
1030
1027
1023
1026
1029
1031
1033
1028
1028
1029
1029
1032
1032
1029
1027
1027
1023
1026
1024
1021
1022
1021
1023
1025
1025
1023
1019
1018
1022
1023
1025
1023
1019
1019
1021
1023
1022
1022
1018
1020
1021
1025
1024
1022
1018
1020
1023
1025
1027
1027
1025
1024
1026
1033
1036
1037
1042
1047
1059
1070
1079
1084
1093
1112
1141
1169
1194
1218
1243
1269
1306
1350
1387
1406
1398
1364
1298
1212
1129
1067
1033
1014
1009
1013
1018
1019
1018
1016
1017
1019
1016
1012
1009
1007
1008
1007
1004
1004
1001
1002
1003
1006
1004
1005
1002
1001
1005
1002
1004
1004
1000
998
1000
1003
1002
1000
997
997
999
1002
999
996
994
996
998
1001
998
997
994
995
997
1002
998
996
994
996
998
1001
1000
998
996
997
996
1000
998
998
996
998
1000
1002
1003
1002
998
1001
1002
1003
1003
1003
999
1002
1005
1008
1009
1006
1005
1008
1011
1014
1014
1012
1012
1017
1019
1022
1024
1024
1025
1028
1030
1033
1038
1040
1039
1039
1045
1048
1052
1053
1052
1056
1058
1061
1062
1059
1058
1056
1060
1061
1060
1052
1050
1048
1049
1049
1049
1045
1041
1039
1040
1042
1039
1033
1032
1033
1036
1038
1034
1031
1030
1027
1028
1033
1030
1030
1028
1027
1031
1033
1030
1028
1026
1027
1030
1033
1028
1029
1026
1026
1027
1030
1030
1026
1025
1026
1026
1030
1028
1027
1026
1024
1030
1031
1031
1027
1025
1025
1026
1032
1031
1029
1028
1030
1030
1032
1031
1030
1030
1030
1033
1034
1034
1034
1028
1032
1033
1035
1034
1033
1029
1029
1031
1035
1035
1030
1029
1031
1031
1035
1033
1029
1027
1028
1030
1032
1033
1030
1028
1028
1028
1031
1030
1028
1028
1026
1029
1033
1031
1027
1025
1026
1028
1032
1030
1029
1026
1026
1028
1028
1029
1028
1027
1025
1028
1027
1028
1024
1023
1025
1027
1028
1027
1026
1025
1026
1027
1026
1027
1026
1022
1026
1026
1030
1028
1026
1023
1024
1025
1030
1028
1026
1023
1025
1026
1030
1028
1026
1024
1023
1029
1031
1029
1028
1025
1025
1026
1031
1031
1028
1025
1027
1028
1032
1029
1029
1027
1025
1030
1032
1032
1028
1028
1026
1030
1035
1031
1031
1026
1029
1031
1033
1030
1031
1028
1029
1031
1032
1032
1031
1028
1030
1030
1034
1032
1029
1031
1030
1034
1036
1035
1035
1033
1036
1039
1041
1042
1038
1037
1038
1044
1045
1043
1039
1038
1038
1037
1039
1036
1035
1033
1033
1037
1041
1040
1037
1035
1035
1040
1039
1039
1037
1032
1029
1032
1032
1031
1030
1029
1027
1030
1032
1031
1031
1029
1029
1031
1033
1033
1030
1027
1026
1027
1031
1029
1029
1025
1025
1030
1030
1030
1028
1027
1027
1030
1032
1033
1033
1031
1032
1040
1046
1052
1057
1066
1081
1093
1109
1131
1160
1194
1227
1262
1295
1330
1369
1410
1439
1440
1400
1315
1206
1112
1058
1033
1024
1023
1024
1024
1027
1027
1028
1024
1020
1014
1014
1015
1015
