1032
1036
1038
1035
1030
1026
1030
1031
1033
1033
1032
1030
1030
1032
1031
1031
1030
1028
1031
1034
1035
1033
1029
1023
1028
1030
1031
1032
1027
1027
1027
1029
1031
1031
1028
1026
1024
1029
1028
1029
1026
1023
1025
1031
1031
1029
1031
1029
1028
1027
1028
1026
1024
1025
1028
1028
1030
1024
1022
1023
1027
1031
1026
1029
1025
1026
1027
1028
1028
1029
1026
1027
1029
1031
1032
1029
1027
1028
1027
1029
1034
1034
1033
1031
1033
1032
1029
1027
1029
1029
1027
1029
1029
1028
1029
1030
1028
1033
1035
1033
1030
1030
1034
1038
1035
1030
1026
1025
1030
1038
1041
1039
1031
1027
1029
1036
1036
1037
1038
1037
1037
1039
1035
1027
1027
1032
1039
1042
1043
1040
1041
1042
1047
1051
1048
1044
1044
1046
1047
1048
1044
1039
1037
1036
1038
1039
1042
1043
1041
1045
1048
1048
1043
1040
1040
1042
1041
1041
1038
1035
1035
1038
1038
1040
1040
1038
1038
1037
1037
1039
1037
1034
1033
1032
1036
1038
1039
1035
1033
1034
1038
1039
1040
1037
1031
1034
1039
1042
1041
1041
1038
1037
1044
1053
1060
1065
1069
1078
1089
1100
1115
1134
1158
1180
1207
1238
1269
1301
1332
1375
1419
1448
1455
1428
1366
1279
1188
1119
1073
1045
1031
1031
1033
1036
1038
1037
1034
1031
1031
1030
1026
1024
1021
1018
1019
1020
1023
1021
1019
1017
1018
1020
1021
1022
1020
1019
1016
1017
1016
1013
1012
1013
1015
1019
1017
1017
1015
1010
1013
1017
1017
1017
1012
1014
1011
1010
1015
1015
1013
1011
1014
1018
1021
1015
1011
1008
1012
1018
1018
1017
1018
1019
1019
1015
1020
1019
1017
1017
1018
1021
1022
1021
1022
1024
1029
1030
1025
1022
1021
1026
1031
1035
1032
1029
1027
1030
1035
1041
1044
1044
1045
1046
1051
1055
1052
1052
1054
1056
1062
1069
1074
1079
1076
1074
1069
1071
1077
1080
1078
1082
1084
1085
1084
1081
1076
1071
1070
1070
1072
1067
1065
1063
1064
1065
1064
1060
1053
1052
1056
1059
1058
1052
1047
1045
1046
1054
1051
1050
1046
1043
1042
1048
1047
1046
1045
1046
1046
1049
1046
1041
1039
1038
1041
1043
1045
1043
1041
1041
1044
1045
1045
1045
1041
1045
1044
1047
1050
1046
1043
1042
1043
1046
1047
1043
1043
1043
1048
1049
1048
1047
1043
1045
1046
1050
1051
1047
1046
1044
1046
1050
1052
1049
1046
1045
1045
1049
1049
1047
1045
1046
1048
1047
1043
1044
1042
1042
1042
1044
1041
1040
1040
1041
1041
1044
1042
1043
1045
1043
1041
1039
1035
1037
1038
1039
1042
1044
1043
1042
1037
1039
1039
1039
1041
1038
1040
1037
1035
1039
1039
1038
1038
1037
1041
1047
1047
1045
1039
1038
1039
1041
1041
1040
1037
1037
1039
1040
1038
1037
1035
1038
1039
1040
1040
1041
1036
1035
1038
1042
1041
1040
1037
1039
1040
1041
1042
1041
1039
1045
1047
1047
1044
1035
1035
1036
1039
1046
1051
1047
1040
1037
1038
1045
1047
1044
1042
1039
1041
1043
1043
1045
1046
1052
1053
1054
1052
1050
1052
1053
1057
1059
1057
1056
1051
1053
1054
1055
1052
1051
1051
1050
1055
1054
1054
1048
1047
1050
1049
1052
1054
1053
1049
1043
1045
1045
1046
1048
1041
1041
1045
1051
1051
1053
1047
1044
1039
1043
1043
1045
1040
1038
1040
1047
1048
1044
1037
1034
1040
1044
1046
1044
1045
1047
1050
1048
1046
1042
1046
1051
1057
1065
1069
1077
1082
1092
1103
1123
1146
1171
1197
1224
1253
1278
1307
1341
1381
1411
1425
1413
1364
1281
1184
1107
1065
1048
1041
1036
1035
1036
1043
1044
1042
1035
1031
1029
1029
1029
1026
1028
1023
1024
1025
1026
1025
1026
1024
1022
1021
1023
1027
1028
1024
1021
1022
1023
1024
1024
1021
1016
1018
1022
1023
1021
1017
1020
1022
1024
1022
1016
1014
1013
1014
1016
1014
1018
1014
1016
1019
1023
1024
1023
1021
1021
1020
1021
1024
1022
1021
1022
1020
1021
1023
1022
1021
1021
1024
1028
1030
1030
1025
1023
1023
1026
1032
1031
1032
1032
1039
1044
1043
1045
1045
1046
1053
1056
1059
1059
1055
1061
1067
1074
1076
1075
1072
1072
1074
1083
1080
1076
1070
1071
1074
1078
1073
1070
1067
1062
1057
1060
1061
1058
1052
1049
1050
1051
1051
1049
1045
1045
1045
1042
1041
1039
1040
1042
1043
1044
1041
1037
1032
1031
1038
1041
1039
1039
1037
1034
1039
1040
1035
1031
1031
1031
1032
1033
1034
1035
1035
1032
1034
1038
1039
1038
1034
1033
1036
1037
1039
1037
1032
1029
1031
1040
1038
1038
1034
1034
1037
1038
1039
1038
1036
1037
1037
1038
1036
1035
1034
1035
1034
1036
1034
1031
1031
1031
1034
1037
1032
1029
1025
1028
1033
1037
1035
1031
1024
1021
1024
1031
1028
1027
1026
1027
1031
1031
1027
1025
1024
1024
1030
1031
1031
1028
1026
1024
1028
1031
1031
1026
1021
1021
1026
1029
1029
1028
1026
1023
1022
1025
1029
1027
1024
1016
1024
1029
1030
1026
1019
1019
1024
1027
1026
1022
1018
1019
1026
1027
1030
1026
1026
1024
1025
1027
1026
1023
1022
1024
1026
1031
1027
1026
1023
1021
1025
1027
1029
1030
1029
1027
1029
1030
1029
1027
1024
1022
1026
1028
1030
1025
1022
1022
1028
1036
1037
1041
1039
1035
1033
1036
1038
1039
1037
1037
1035
1037
1038
1033
1029
1031
1031
1033
1036
1033
1030
1032
1035
1037
1037
1035
1032
1034
1035
1039
1038
1036
1029
1029
1030
1033
1030
1026
1024
1027
1032
1032
1029
1028
1028
1030
1034
1034
1030
1029
1029
1031
1033
1029
1029
1027
1026
1030
1031
1031
1031
1028
1027
1029
1036
1039
1042
1043
1047
1050
1062
1075
1086
1091
1101
1120
1148
1179
1208
1233
1257
1287
1327
1373
1412
1430
1413
1357
1271
1177
1097
1046
1024
1021
1027
1031
1033
1032
1030
1030
1026
1024
1018
1015
1016
1016
1021
1023
1021
1012
1006
1009
1015
1020
1018
1019
1010
1012
1011
1013
1013
1011
1010
1012
1014
1009
1007
1007
1011
1009
1010
1013
1012
1011
1007
1010
1010
1011
1013
1013
1010
1008
1015
1016
1015
1011
1007
1008
1013
1018
1018
1017
1017
1015
1019
1023
1023
1021
1021
1024
1029
1035
1036
1031
1028
1030
1038
1044
1047
1045
1042
1047
1052
1056
1060
1059
1059
1066
1070
1074
1075
1073
1071
1075
1077
1083
1081
1080
1078
1078
1079
1080
1078
1071
1064
1062
1063
1066
1063
1058
1054
1052
1053
1055
1054
1051
1051
1050
1050
1047
1045
1042
1043
1044
1046
1047
1047
1044
1040
1040
1042
1046
1047
1043
1039
1034
1036
1039
1038
1040
1037
1038
1037
1041
1041
1042
1040
1041
1040
1040
1039
1034
1032
1034
1042
1043
1043
1040
1035
1034
1039
1044
1047
1043
1041
1039
1041
1046
1047
1046
1044
1043
1043
1043
1046
1044
1043
1041
1042
1048
1046
1046
1045
1043
1042
1044
1044
1042
1040
1044
1044
1042
1042
1039
1037
1039
1041
1046
1044
1044
1039
1038
1036
1039
1039
1041
1040
1039
1043
1043
1043
1040
1038
1041
1043
1043
1043
1036
1034
1032
1036
1041
1042
1042
1038
1038
1036
1037
1038
1038
1036
1037
1042
1043
1044
1044
1036
1036
1036
1038
1035
1037
1037
1037
1040
1043
1041
1038
1037
1037
1039
1040
1040
1038
1034
1037
1038
1041
1044
1042
1041
1042
1042
1042
1038
1036
1036
1036
1041
1042
1043
1041
1039
1039
1039
1045
1043
1044
1039
1037
1039
1041
1045
1042
1038
1037
1042
1045
1043
1043
1041
1042
1041
1043
1042
1037
1038
1039
1041
1044
1045
1044
1044
1045
1048
1050
1049
1049
1049
1053
1055
1054
1051
1049
1050
1054
1055
1061
1058
1055
1052
1051
1057
1057
1051
1047
1046
1045
1047
1052
1050
1048
1048
1050
1051
1054
1055
1055
1053
1052
1050
1046
1044
1040
1038
1041
1046
1050
1050
1047
1044
1042
1044
1048
1050
1047
1041
1041
1044
1047
1048
1046
1042
1042
1045
1051
1048
1047
1041
1041
1043
1046
1047
1047
1045
1049
1054
1057
1058
1062
1066
1078
1091
1102
1107
1118
1137
1162
1193
1220
1241
1267
1287
1315
1355
1394
1423
1433
1420
1377
1310
1226
1140
1079
1044
1034
1031
1034
1036
1038
1036
1038
1037
1035
1032
1029
1026
1027
1028
1028
1028
1024
1021
1020
1022
1027
1025
1026
1023
1023
1024
1025
1022
1020
1018
1018
1022
1026
1024
1021
1019
1021
1023
1025
1023
1023
1022
1021
1024
1029
1027
1023
1016
1014
1017
1022
1022
1021
1021
1018
1019
1024
1023
1024
1022
1023
1027
1029
1026
1024
1021
1023
1026
1030
1028
1027
1025
1026
1027
1032
1036
1030
1026
1030
1032
1038
1037
1037
1037
1040
1047
1046
1048
1044
1044
1050
1053
1059
1059
1052
1049
1055
1063
1071
1075
1072
1073
1076
1081
1087
1088
1085
1084
1085
1089
1091
1090
1090
1086
1084
1085
1086
1084
1077
1074
1074
1075
1074
1071
1065
1061
1060
1062
1063
1062
1059
1055
1054
1055
1054
1050
1049
1050
1053
1051
1053
1051
1053
1052
1052
1051
1056
1052
1051
1050
1053
1053
1053
1053
1051
1050
1053
1053
1051
1047
1049
1049
1049
1051
1050
1046
1047
1044
1047
1051
1053
1050
1047
1050
1051
1054
1055
1051
1051
1050
1051
1051
1051
1052
1049
1048
1050
1053
1054
1053
1048
1047
1048
1051
1056
1058
1055
1050
1051
1053
1055
1048
1043
1043
1045
1049
1052
1050
1045
1043
1043
1046
1046
1048
1045
1041
1043
1044
1046
1048
1047
1046
1042
1046
1045
1047
1047
1041
1039
1039
1043
1043
1042
1039
1041
1043
1046
1045
1042
1036
1039
1042
1047
1044
1041
1037
1038
1043
1044
1044
1039
1040
1039
1042
1043
1042
1040
1039
1039
1040
1044
1044
1037
1035
1038
1040
1041
1040
1035
1035
1036
1041
1042
1037
1035
1036
1036
1038
1040
1034
1034
1033
1034
1036
1038
1038
1035
1033
1035
1039
1042
1037
1035
1033
1037
1040
1040
1038
1035
1038
1040
1041
1043
1043
1043
1040
1041
1045
1050
1050
1047
1047
1044
1046
1047
1047
1047
1039
1041
1042
1047
1048
1043
1038
1038
1041
1044
1045
1049
1045
1043
1045
1048
1048
1044
1041
1040
1040
1041
1037
1037
1038
1037
1040
1039
1037
1039
1038
1040
1039
1039
1040
1037
1036
1034
1040
1042
1042
1040
1036
1037
1040
1041
1037
1036
1036
1039
1042
1048
1048
1047
1045
1042
1045
1053
1060
1069
1072
1082
1085
1093
1097
1110
1128
1155
1182
1207
1225
1248
1272
1303
1345
1384
1405
1403
1373
1310
1222
1141
1083
1048
1034
1032
1037
1036
1035
1033
1029
1031
1033
1032
1029
1024
1021
1021
1022
1023
1021
1019
1016
1019
1020
1022
1020
1017
1012
1012
1018
1021
1020
1016
1015
1014
1019
1020
1018
1014
1011
1013
1011
1014
1015
1010
1007
1009
1014
1014
1012
1011
1010
1010
1015
1016
1016
1016
1015
1015
1016
1021
1019
1016
1014
1015
1017
1021
1021
1020
1018
1022
1026
1024
1021
1015
1013
1016
1018
1023
1021
1023
1020
1020
1024
1029
1032
1030
1032
1030
1034
1037
1040
1037
1037
1042
1046
1049
1050
1053
1050
1054
1058
1060
1061
1061
1064
1064
1069
1071
1067
1063
1062
1063
1065
1065
1065
1061
1058
1055
1056
1058
1055
1051
1049
1048
1050
1048
1043
1040
1036
1038
1042
1046
1045
1045
1040
1040
1042
1040
1033
1031
1032
1033
1035
1036
1031
1029
1028
1031
1033
1034
1034
1031
1028
1029
1032
1035
1032
1028
1029
1026
1030
1029
1027
1028
1030
1033
1034
1034
1032
1033
1033
1034
1035
1035
1031
1027
1031
1031
1033
1034
1032
1029
1030
1027
1031
1033
1032
1027
1026
1028
1030
1031
1030
1024
1027
1025
1030
1032
1031
1025
1026
1027
1027
1029
1028
1028
1026
1028
1028
1031
1029
1029
1025
1020
1022
1021
1021
1023
1020
1020
1022
1026
1027
1027
1021
1022
1024
1025
1026
1022
1019
1021
1025
1026
1023
1021
1023
1023
1025
1026
1025
1021
1021
1023
1026
1026
1025
1024
1020
1022
1023
1026
1027
1023
1020
1018
1018
1022
1018
1015
1012
1014
1020
1026
1023
1021
1017
1019
1021
1022
1023
1020
1022
1023
1025
1024
1022
1017
1017
1022
1025
1027
1026
1023
1024
1026
1029
1028
1024
1016
1011
1014
1023
1028
1027
1021
1020
1021
1028
1031
1031
1029
1026
1029
1027
1031
1029
1028
1029
1033
1037
1040
1037
1037
1036
1035
1034
1039
1044
1041
1038
1037
1038
1039
1036
1035
1034
1038
1038
1040
1036
1032
1033
1037
1035
1039
1041
1045
1044
1041
1033
1036
1036
1034
1027
1026
1030
1037
1041
1035
1033
1033
1035
1038
1036
1030
1030
1034
1041
1040
1036
1030
1032
1035
1040
1042
1041
1039
1035
1034
1035
1041
1042
1048
1049
1054
1065
1078
1096
1103
1114
1132
1164
1200
1231
1259
1286
1321
1370
1420
1456
1462
1422
1334
1217
1119
1055
1033
1035
1040
1042
1039
1035
1030
1024
1023
1022
1021
1021
1020
1019
1021
1021
1021
1018
1017
1014
1012
1016
1017
1020
1020
1018
1014
1012
1012
1014
1015
1016
1018
1018
1017
1014
1015
1014
1015
1019
1021
1018
1012
1009
1005
1006
1009
1014
1008
1008
1012
1018
1022
1022
1014
1013
1011
1015
1017
1017
1017
1019
1020
1023
1023
1021
1016
1015
1017
1022
1023
1023
1023
1027
1030
1030
1030
1028
1027
1030
1032
1035
1036
1034
1034
1033
1041
1052
1059
1058
1057
1055
1060
1063
1071
1074
1074
1073
1079
1081
1085
1085
1084
1081
1084
1085
1087
1087
1083
1081
1079
1080
1081
1080
1073
1067
1066
1070
1070
1066
1063
1059
1058
1057
1058
1059
1056
1051
1051
1050
1052
1052
1047
1045
1047
1053
1054
1055
1052
1050
1047
1046
1050
1049
1048
1045
1046
1048
1049
1048
1045
1042
1045
1043
1044
1044
1043
1043
1044
1050
1050
1048
1043
1040
1040
1042
1043
1043
1041
1042
1047
1050
1053
1051
1050
1047
1047
1046
1047
1048
1046
1043
1041
1044
1050
1051
1048
1046
1043
1046
1047
1049
1052
1046
1043
1043
1041
1044
1047
1047
1046
1046
1046
1046
1043
1043
1044
1044
1048
1045
1042
1037
1041
1042
1046
1045
1041
1039
1043
1044
1046
1041
1039
1041
1042
1043
1046
1040
1040
1039
1040
1041
1043
1042
1036
1037
1038
1042
1047
1046
1044
1041
1039
1041
1042
1042
1040
1038
1040
1046
1046
1043
1040
1039
1038
1044
1045
1047
1045
1040
1037
1037
1040
1040
1042
1039
1041
1043
1045
1044
1042
1039
1042
1043
1045
1047
1045
1041
1042
1044
1049
1046
1041
1038
1037
1038
1043
1047
1045
1045
1042
1045
1046
1047
1045
1044
1041
1043
1049
1051
1050
1045
1049
1050
1049
1052
1053
1057
1059
1058
1059
1056
1052
1050
1050
1052
1052
1051
1051
1049
1052
1057
1054
1053
1049
1050
1055
1061
1063
1059
1054
1047
1044
1045
1047
1046
1045
1044
1048
1051
1051
1046
1043
1039
1042
1043
1046
1043
1041
1042
1042
1046
1045
1048
1045
1042
1045
1049
1048
1046
1044
1043
1043
1046
1050
1047
1048
1053
1055
1056
1063
1067
1079
1091
1104
1119
1138
1160
1188
1215
1245
1275
1304
1330
1360
1395
1429
1454
1458
1436
1380
1294
1202
1128
1084
1061
1046
1042
1044
1046
1047
1046
1044
1040
1036
1032
1033
1033
1032
1030
1027
1026
1030
1026
1026
1022
1023
1023
1026
1025
1021
1018
1017
1023
1026
1028
1026
1020
1021
1021
1023
1021
1019
1015
1016
1019
1021
1020
1019
1016
1019
1022
1024
1023
1019
1017
1020
1021
1022
1023
1014
1014
1014
1016
1020
1022
1020
1019
1023
1021
1025
1025
1022
1021
1023
1026
1028
1026
1025
1023
1025
1032
1034
1033
1031
1032
1032
1037
1040
1044
1044
1045
1047
1049
1054
1057
1060
1058
1064
1069
1073
1074
1077
1078
1083
1087
1091
1088
1086
1087
1089
1090
1088
1085
1081
1076
1077
1080
1079
1076
1070
1065
1062
1064
1066
1061
1057
1052
1050
1055
1056
1056
1054
1051
1053
1052
1054
1052
1047
1044
1045
1048
1051
1050
1046
1046
1045
1045
1046
1046
1045
1044
1046
1048
1048
1045
1039
1036
1036
1040
1043
1040
1039
1037
1038
1041
1042
1043
1043
1042
1042
1044
1044
1041
1039
1038
1039
1042
1045
1046
1046
1040
1039
1042
1047
1049
1046
1043
1040
1040
1046
1042
1040
1040
1040
1044
1044
1042
1041
1036
1039
1042
1046
1049
1046
1038
1038
1041
1041
1041
1035
1033
1036
1040
1040
1038
1036
1032
1029
1034
1037
1040
1038
1033
1034
1036
1036
1035
1032
1035
1037
1039
1037
1035
1031
1031
1031
1037
1038
1036
1032
1030
1031
1031
1033
1031
1030
1033
1032
1035
1033
1033
1031
1031
1029
1031
1035
1034
1031
1028
1030
1032
1036
1036
1032
1031
1030
1029
1032
1034
1033
1035
1036
1038
1036
1036
1031
1030
1031
1032
1034
1034
1032
1034
1032
1036
1038
1038
1037
1036
1037
1036
1040
1038
1036
1035
1037
1040
1044
1044
1040
1038
1036
1040
1044
1046
1046
1042
1038
1041
1041
1040
1039
1036
1037
1042
1043
1041
1039
1040
1042
1044
1044
1042
1037
1035
1036
1037
1039
1034
1031
1028
1032
1031
1034
1028
1027
1029
1032
1032
1033
1030
1027
1028
1028
1032
1035
1035
1036
1033
1031
1031
1032
1031
1028
1031
1034
1037
1038
1037
1035
1036
1042
1052
1064
1075
1083
1089
1102
1122
1149
1177
1201
1228
1256
1291
1326
1368
1405
1422
1406
1345
1241
1136
1068
1036
1027
1030
1034
1031
1028
1027
1025
1024
1019
1012
1008
1007
1010
1013
1014
1010
1003
1005
1007
1006
1006
1005
1006
1005
1003
1006
1007
1004
1002
1001
1005
1004
1006
1003
1001
996
997
999
997
994
994
995
997
999
1002
998
994
991
992
993
998
997
994
997
995
1000
1004
1001
996
990
990
993
994
994
990
988
988
993
998
1001
999
999
1001
1004
1004
1005
1004
1005
1007
1006
1009
1009
1010
1009
1015
1021
1025
1024
1026
1029
1036
1040
1044
1043
1041
1042
1043
1047
1050
1049
1049
1052
1053
1056
1056
1054
1049
1047
1051
1051
1049
1045
1039
1040
1041
1045
1040
1036
1029
1026
1028
1031
1034
1029
1028
1024
1027
1029
1028
1029
1026
1025
1024
1024
1026
1023
1017
1016
1022
1027
1027
1025
1019
1017
1017
1022
1025
1024
1022
1021
1022
1024
1024
1022
1020
1021
1022
1023
1025
1024
1018
1019
1017
1025
1029
1032
1028
1025
1023
1027
1029
1027
1024
1022
1024
1027
1028
1027
1024
1019
1020
1021
1024
1024
1019
1016
1017
1018
1019
1022
1022
1018
1019
1020
1021
1019
1016
1012
1015
1015
1016
1014
1011
1010
1012
1015
1020
1014
1012
1009
1013
1015
1016
1012
1007
1005
1007
1009
1012
1009
1007
1004
1008
1009
1011
1011
1008
1008
1011
1015
1016
1013
1009
1007
1010
1013
1016
1013
1011
1009
1010
1013
1013
1014
1015
1016
1017
1015
1016
1014
1011
1013
1013
1016
1018
1016
1011
1010
1012
1013
1015
1016
1011
1009
1013
1016
1016
1012
1008
1008
1009
1014
1019
1018
1015
1015
1019
1022
1021
1019
1017
1018
1018
1027
1028
1025
1023
1021
1024
1024
1024
1022
1018
1017
1018
1019
1020
1018
1019
1017
1020
1022
1023
1022
1021
1019
1020
1020
1022
1018
1014
1014
1014
1017
1018
1018
1017
1017
1018
1022
1021
1020
1013
1013
1009
1010
1015
1015
1013
1011
1011
1013
1016
1013
1011
1012
1015
1015
1018
1018
1015
1016
1018
1021
1020
1024
1026
1030
1042
1055
1066
1075
1080
1088
1108
1136
1162
1187
1212
1239
1271
1305
1342
1383
1414
1431
1426
1392
1327
1236
1149
1081
1040
1024
1014
1013
1013
1014
1016
1017
1016
1011
1006
1000
997
1001
1001
998
996
992
995
995
994
995
993
990
991
994
996
993
990
988
988
990
990
988
985
986
989
992
992
989
987
985
989
988
990
989
989
985
986
988
991
988
985
986
988
988
991
989
987
986
988
991
994
990
988
989
992
996
997
995
992
991
991
990
993
992
990
989
994
995
996
997
994
996
997
1002
1006
1002
1001
1002
1005
1011
1013
1012
1011
1012
1015
1017
1023
1023
1022
1024
1027
1034
1037
1039
1040
1043
1046
1051
1052
1053
1053
1053
1055
1059
1060
1060
1059
1058
1060
1061
1062
1059
1058
1052
1052
1053
1052
1049
1044
1045
1043
1044
1040
1037
1033
1034
1032
1035
1034
1033
1026
1027
1029
1033
1033
1031
1027
1026
1025
1027
1028
1025
1022
1023
1024
1029
1029
1029
1027
1025
1029
1029
1030
1025
1021
1018
1017
1022
1022
1019
1020
1018
1019
1021
1022
1022
1020
1017
1021
1022
1023
1024
1020
1016
1021
1021
1023
1022
1021
1022
1025
1028
1027
1026
1022
1023
1022
1026
1027
1025
1022
1020
1022
1025
1028
1027
1026
1023
1024
1025
1026
1021
1021
1019
1022
1024
1024
1019
1018
1016
1019
1022
1022
1026
1022
1019
1023
1021
1022
1018
1018
1016
1019
1022
1021
1018
1017
1016
1016
1019
1021
1020
1016
1013
1016
1020
1022
1017
1017
1015
1015
1020
1023
1020
1017
1020
1022
