1065
1061
1058
1057
1058
1056
1050
1049
1043
1044
1043
1043
1039
1035
1035
1035
1035
1034
1034
1031
1030
1030
1032
1030
1027
1027
1027
1029
1032
1029
1028
1024
1023
1025
1026
1027
1025
1021
1021
1022
1023
1024
1018
1019
1018
1019
1024
1020
1021
1015
1016
1020
1022
1020
1018
1015
1017
1018
1019
1022
1019
1019
1018
1020
1022
1022
1020
1016
1016
1018
1020
1022
1019
1015
1016
1019
1022
1020
1021
1018
1019
1020
1021
1019
1017
1015
1016
1019
1021
1020
1018
1015
1014
1016
1019
1018
1014
1014
1013
1016
1017
1016
1014
1010
1009
1013
1016
1015
1015
1011
1012
1012
1015
1013
1011
1007
1009
1012
1014
1014
1011
1006
1007
1010
1011
1012
1011
1008
1007
1010
1012
1011
1010
1006
1007
1009
1012
1009
1010
1006
1007
1009
1012
1011
1010
1009
1008
1010
1012
1011
1010
1008
1009
1011
1014
1014
1013
1010
1010
1011
1010
1009
1009
1008
1008
1010
1011
1014
1010
1007
1008
1009
1014
1012
1011
1009
1007
1010
1012
1012
1010
1010
1012
1013
1014
1013
1012
1009
1010
1014
1013
1013
1012
1010
1010
1011
1015
1014
1014
1013
1016
1018
1021
1021
1020
1020
1019
1023
1026
1025
1026
1023
1021
1024
1027
1024
1021
1019
1019
1018
1021
1020
1021
1018
1018
1021
1024
1026
1023
1019
1021
1021
1021
1018
1016
1014
1013
1014
1018
1017
1015
1012
1014
1016
1017
1015
1014
1012
1012
1014
1018
1016
1017
1013
1015
1013
1015
1019
1014
1012
1014
1015
1017
1019
1016
1014
1016
1018
1022
1022
1021
1024
1029
1038
1051
1058
1067
1071
1082
1102
1126
1152
1179
1203
1229
1262
1294
1335
1370
1395
1399
1370
1317
1233
1148
1078
1035
1011
1004
1004
1007
1005
1006
1009
1010
1010
1005
994
999
998
997
997
995
991
989
993
994
993
992
990
989
993
992
991
989
988
987
990
992
991
987
984
984
985
988
987
985
981
983
983
988
984
985
980
980
985
986
985
983
981
981
984
985
986
987
984
983
987
987
987
987
984
987
990
991
989
990
987
990
990
996
995
994
992
991
993
999
999
996
997
999
1002
1006
1007
1007
1009
1009
1014
1020
1020
1023
1022
1025
1030
1032
1034
1037
1036
1038
1045
1046
1050
1050
1051
1049
1051
1054
1052
1049
1047
1045
1043
1046
1044
1039
1036
1036
1035
1036
1032
1028
1023
1025
1026
1026
1025
1021
1019
1018
1022
1022
1020
1020
1015
1019
1019
1022
1019
1019
1015
1015
1018
1019
1015
1017
1014
1013
1016
1018
1018
1015
1012
1012
1013
1015
1014
1012
1012
1012
1013
1016
1015
1011
1008
1010
1013
1016
1018
1014
1013
1013
1014
1017
1016
1014
1011
1013
1017
1018
1017
1014
1014
1015
1016
1020
1018
1017
1014
1013
1016
1019
1018
1016
1016
1012
1015
1018
1020
1015
1012
1013
1015
1018
1017
1014
1012
1011
1013
1017
1015
1011
1011
1012
1013
1015
1012
1010
1009
1011
1012
1013
1012
1012
1008
1008
1011
1014
1013
1010
1008
1009
1009
1013
1011
1011
1008
1010
1011
1013
1010
1010
1008
1008
1008
1015
1012
1010
1008
1009
1008
1013
1012
1010
1007
1011
1011
1014
1012
1010
1007
1009
1013
1016
1013
1009
1009
1011
1011
1014
1013
1011
1010
1011
1012
1016
1013
1012
1012
1012
1014
1018
1016
1012
1011
1012
1017
1018
1017
1015
1012
1011
1013
1020
1016
1015
1013
1014
1015
1019
1017
1015
1015
1015
1018
1023
1025
1024
1021
1023
1026
1028
1028
1028
1025
1026
1030
1028
1030
1026
1024
1024
1023
1026
1024
1021
1020
1021
1026
1030
1029
1026
1024
1024
1026
1030
1025
1022
1017
1018
1020
1020
1021
1019
1016
1019
1020
1022
1020
1018
1015
1016
1019
1022
1020
1015
1015
1016
1020
1022
1020
1017
1016
1016
1018
1020
1020
1017
1019
1018
1022
1027
1023
1026
1027
1033
1042
1054
1066
1072
1081
1098
1123
1152
1181
1206
1233
1261
1297
1336
1378
1411
1421
1397
1342
1255
1163
1081
1034
1014
1008
1015
1018
1018
1013
1011
1013
1010
1007
1002
999
1000
1000
1001
1000
998
996
997
999
1002
999
998
994
994
995
998
999
997
990
993
996
996
997
994
990
992
993
994
992
991
989
989
991
992
994
991
989
989
991
993
994
993
990
991
992
996
995
994
992
992
996
998
998
996
993
995
998
1001
999
1000
998
1002
1004
1009
1011
1009
1009
1012
1019
1024
1027
1026
1024
1029
1032
1040
1041
1042
1043
1048
1051
1055
1058
1055
1055
1057
1059
1064
1062
1060
1053
1054
1054
1053
1050
1047
1040
1039
1036
1037
1033
1029
1027
1024
1027
1028
1026
1022
1021
1020
1021
1023
1023
1021
1017
1016
1020
1022
1022
1018
1016
1018
1021
1020
1020
1017
1014
1016
1016
1019
1016
1016
1015
1014
1016
1020
1020
1016
1014
1014
1016
1016
1015
1013
1012
1010
1013
1016
1014
1012
1013
1013
1015
1018
1015
1016
1014
1015
1016
1019
1019
1017
1016
1016
1019
1023
1021
1020
1017
1020
1023
1023
1021
1018
1017
1015
1019
1021
1019
1018
1014
1016
1017
1018
1017
1019
1015
1018
1019
1020
1017
1016
1012
1015
1014
1019
1018
1014
1012
1013
1014
1018
1016
1015
1013
1014
1015
1020
1016
1014
1013
1014
1017
1018
1017
1013
1011
1014
1017
1019
1016
1014
1011
1013
1012
1014
1016
1013
1011
1013
1013
1017
1015
1013
1007
1011
1014
1017
1014
1013
1009
1012
1013
1015
1015
1012
1011
1012
1015
1015
1014
1012
1008
1011
1012
1014
1014
1012
1009
1010
1011
1016
1016
1012
1011
1011
1015
1016
1014
1011
1009
1011
1014
1017
1015
1012
1010
1011
1011
1017
1017
1017
1015
1017
1021
1023
1023
1021
1019
1021
1022
1026
1025
1024
1024
1023
1024
1026
1024
1019
1017
1015
1020
1020
1020
1019
1020
1020
1022
1026
1021
1021
1019
1020
1021
1020
1017
1012
1011
1011
1014
1018
1016
1013
1013
1009
1013
1016
1013
1013
1010
1009
1013
1015
1013
1009
1009
1010
1009
1013
1013
1009
1009
1010
1013
1013
1013
1013
1012
1014
1017
1021
1023
1026
1032
1041
1054
1068
1075
1085
1103
1128
1157
1187
1210
1238
1265
1299
1342
1380
1388
1367
1307
1218
1130
1066
1026
1002
998
1000
1009
1011
1011
1006
1002
1000
1000
998
1000
993
990
991
992
993
991
991
985
989
988
992
991
989
986
985
992
992
990
986
986
982
986
990
989
986
985
981
985
987
984
984
982
983
984
987
986
985
982
983
985
987
985
985
982
983
984
989
988
984
984
987
988
990
988
988
987
987
990
991
991
990
987
990
994
996
994
995
995
998
1003
1006
1009
1008
1008
1011
1016
1019
1021
1023
1025
1027
1036
1039
1039
1039
1041
1043
1045
1047
1048
1044
1042
1042
1042
1044
1041
1036
1034
1031
1033
1034
1028
1024
1023
1019
1020
1022
1019
1017
1012
1016
1015
1018
1016
1014
1011
1012
1013
1011
1012
1012
1009
1008
1008
1010
1011
1007
1007
1005
1009
1012
1009
1008
1005
1005
1007
1010
1008
1005
1004
1004
1007
1008
1006
1004
1003
1004
1006
1008
1007
1006
1002
1003
1008
1009
1007
1007
1004
1007
1007
1010
1008
1007
1008
1006
1010
1013
1012
1008
1006
1005
1009
1011
1012
1007
1007
1006
1010
1011
1009
1007
1007
1007
1007
1010
1008
1007
1006
1006
1005
1009
1006
1005
999
1004
1006
1008
1006
1005
1001
1003
1004
1006
1003
999
1001
1001
1003
1005
1005
1002
1000
1000
1002
1004
1004
1003
999
1001
1001
1002
1000
999
998
997
999
1000
1003
999
996
997
1001
1003
1003
997
998
997
1001
1002
1002
999
998
998
999
1002
1001
1000
999
999
1003
1004
1001
998
999
998
1004
1003
1002
998
997
996
997
1002
1002
1001
999
1000
1001
1004
1001
1001
1000
1002
1004
1005
1005
999
1000
1003
1004
1006
1009
1008
1005
1010
1011
1013
1013
1012
1011
1013
1015
1018
1018
1015
1011
1011
1013
1013
1012
1009
1006
1007
1009
1015
1012
1011
1010
1009
1010
1012
1013
1009
1006
1004
1003
1007
1006
1003
1001
1003
1005
1006
1007
1005
1001
1001
1003
1006
1004
1002
1001
999
1004
1004
1001
1001
1000
1000
1003
1005
1006
1001
998
1002
1005
1006
1007
1006
1006
1007
1011
1021
1023
1030
1038
1048
1062
1073
1084
1102
1128
1158
1189
1219
1246
1273
1304
1343
1387
1414
1408
1369
1298
1208
1122
1064
1022
1000
992
995
1003
1006
1003
998
996
994
994
994
989
987
985
984
985
985
985
985
980
984
984
986
984
984
980
980
982
984
983
980
979
978
978
979
979
978
975
976
976
979
979
976
974
975
978
980
979
976
974
973
977
981
979
980
975
978
977
981
980
979
976
976
981
984
985
982
979
980
984
988
986
984
982
984
986
990
992
989
987
992
997
997
999
998
999
1001
1007
1011
1011
1012
1014
1017
1021
1028
1030
1029
1031
1035
1041
1043
1045
1045
1045
1046
1051
1052
1053
1048
1044
1045
1045
1045
1042
1038
1033
1031
1030
1030
1026
1022
1019
1018
1016
1017
1016
1013
1012
1011
1015
1018
1017
1011
1010
1008
1012
1015
1014
1013
1011
1011
1010
1015
1013
1010
1007
1010
1010
1010
1011
1006
1007
1008
1008
1010
1009
1007
1005
1006
1008
1011
1008
1007
1005
1005
1007
1010
1008
1007
1006
1008
1008
1012
1010
1007
1006
1008
1010
1013
1011
1008
1009
1008
1011
1015
1011
1009
1009
1008
1010
1014
1013
1008
1005
1005
1010
1011
1011
1008
1005
1005
1010
1009
1008
1007
1003
1004
1009
1010
1010
1005
1003
1004
1006
1007
1006
1004
1001
1002
1004
1006
1005
1001
1002
1004
1006
1005
1006
1004
999
1003
1006
1007
1009
1006
1004
1005
1006
1010
1010
1004
1003
1006
1008
1011
1007
1006
1005
1005
1010
1010
1010
1006
1004
1004
1006
1010
1010
1007
1003
1007
1008
1008
1008
1006
1003
1005
1009
1010
1011
1008
1004
1006
1007
1012
1010
1007
1003
1007
1009
1009
1012
1008
1006
1009
1012
1015
1017
1014
1014
1017
1021
1023
1023
1018
1020
1022
1023
1021
1022
1013
1013
1013
1020
1022
1019
1017
1017
1016
1022
1022
1023
1020
1014
1015
1014
1016
1015
1010
1009
1010
1013
1014
1012
1011
1009
1010
1012
1014
1014
1011
1008
1010
1009
1013
1013
1012
1008
1009
1011
1012
1013
1011
1010
1010
1014
1017
1014
1012
1009
1015
1019
1022
1027
1028
1034
1042
1054
1064
1075
1082
1100
1125
1155
1184
1210
1237
1261
1296
1336
1375
1395
1388
1351
1288
1209
1137
1081
1036
1015
1004
1003
1005
1009
1006
1006
1006
1007
1009
1004
1000
994
995
996
999
997
993
992
991
993
996
994
991
989
989
993
994
995
990
986
989
991
993
992
990
987
988
992
991
992
988
989
989
992
992
992
989
986
985
990
992
992
989
988
987
990
996
993
990
989
987
992
993
990
991
988
991
995
999
997
994
993
995
996
1000
998
999
998
998
1003
1007
1006
1006
1004
1009
1013
1017
1018
1016
1020
1020
1026
1032
1035
1034
1034
1039
1045
1047
1048
1050
1051
1053
1057
1061
1060
1056
1055
1056
1058
1060
1054
1052
1046
1044
1049
1047
1044
1038
1035
1033
1033
1033
1030
1024
1023
1025
1025
1027
1024
1023
1021
1021
1023
1024
1022
1022
1018
1018
1020
1019
1021
1019
1018
1020
1021
1021
1019
1015
1013
1015
1018
1021
1018
1017
1015
1017
1019
1016
1014
1012
1010
1013
1015
1017
1016
1013
1011
1014
1016
1020
1017
1014
1011
1014
1017
1015
1016
1015
1014
1014
1016
1021
1018
1016
1014
1016
1021
1019
1017
1015
1014
1015
1018
1019
1017
1015
1014
1017
1016
1020
1017
1019
1014
1014
1016
1018
1018
1013
1013
1014
1018
1019
1017
1014
1011
1010
1014
1015
1014
1014
1009
1011
1013
1013
1011
1011
1009
1008
1012
1011
1012
1010
1005
1008
1010
1011
1010
1011
1007
1010
1011
1012
1012
1011
1008
1010
1012
1015
1011
1009
1006
1006
1008
1014
1014
1011
1009
1010
1013
1011
1011
1008
1009
1010
1012
1013
1011
1010
1008
1008
1012
1013
1012
1013
1008
1009
1011
1015
1013
1009
1008
1010
1012
1014
1013
1010
1007
1010
1014
1012
1014
1011
1010
1013
1014
1016
1013
1010
1008
1012
1016
1021
1019
1018
1016
1021
1023
1025
1024
1023
1021
1022
1027
1028
1031
1025
1023
1023
1024
1027
1023
1019
1016
1018
1021
1023
1025
1022
1021
1023
1024
1025
1024
1022
1020
1018
1020
1019
1017
1012
1014
1014
1017
1019
1018
1015
1013
1012
1018
1017
1019
1016
1013
1012
1017
1016
1015
1010
1011
1013
1017
1016
1017
1015
1012
1015
1018
1020
1017
1017
1015
1017
1021
1024
1024
1024
1028
1036
1047
1060
1069
1072
1080
1095
1120
1147
1171
1194
1217
1246
1272
1304
1341
1375
1396
1400
1371
1316
1230
1135
1070
1032
1014
1009
1008
1009
1008
1012
1013
1014
1009
1005
1002
1002
1004
1003
998
996
993
995
999
997
997
995
994
995
998
994
996
994
989
994
995
999
995
993
989
992
992
995
991
990
988
990
991
993
992
990
989
989
993
991
990
986
986
988
992
993
993
990
992
990
993
994
992
990
987
990
995
997
994
992
990
992
997
998
996
996
995
996
996
1001
1001
998
999
1001
1005
1007
1005
1005
1004
1008
1013
1017
1015
1017
1016
1020
1024
1028
1027
1029
1027
1033
1038
1042
1044
1042
1042
1046
1053
1055
1056
1054
1054
1055
1056
1056
1056
1051
1050
1048
1048
1051
1045
1042
1038
1037
1039
1038
1038
1033
1031
1029
1032
1030
1028
1026
1024
1026
1029
1029
1026
1024
1023
1024
1027
1029
1027
1023
1021
1022
1023
1027
1023
1019
1020
1021
1024
1027
1024
1020
1018
1024
1022
1024
1022
1020
1017
1021
1023
1023
1023
1018
1019
1021
1024
1025
1023
1021
1020
1020
1023
1025
1022
1021
1019
1024
1024
1028
1026
1022
1022
1023
1024
1027
1026
1022
1021
1023
1024
1028
1024
1023
1021
1020
1026
1026
1023
1021
1021
1020
1025
1026
1023
1021
1017
1022
1022
1024
1022
1021
1018
1018
1022
1022
1020
1017
1016
1017
1020
1022
1021
1016
1016
1016
1019
1022
1019
1016
1015
1017
1019
1022
1017
1016
1015
1016
1020
1020
1020
1017
1015
1017
1019
1021
1020
1016
1016
1017
1020
1021
1021
1018
1015
1018
1021
1018
1019
1015
1015
1018
1024
1023
1023
1019
1018
1019
1020
1021
1022
1020
1019
1022
1021
1023
1022
1019
1016
1019
1022
1025
1024
1019
1019
1019
1024
1023
1021
1020
1021
1020
1023
1025
1024
1020
1022
1021
1022
1026
1024
1020
1019
1023
1024
1025
1025
1022
1023
1024
1029
1030
1029
1030
1029
1031
1034
1035
1033
1032
1032
1034
1036
1034
1032
1027
1025
1026
1029
1029
1033
1030
1028
1030
1033
1035
1034
1032
1031
1031
1032
1031
1024
1020
1020
1024
1028
1029
1025
1024
1022
1023
1024
1024
1025
1024
1021
1023
1024
1025
1023
1020
1021
1021
1024
1025
1023
1023
1020
1022
1025
1026
1023
1024
1023
1024
1027
1029
1031
1033
1034
1041
1051
1062
1071
1079
1089
1106
1128
1153
1180
1203
1231
1260
1290
1322
1356
1394
1422
1438
1430
1392
1327
1238
1156
1093
1051
1029
1016
1013
1014
1022
1022
1022
1022
1018
1013
1013
1009
1011
1006
1004
1003
1003
1007
1005
1004
1003
999
1000
1004
1005
1004
1000
1001
1001
1004
1005
1002
999
998
1001
1002
1002
999
998
993
998
999
998
999
997
994
996
996
998
997
994
995
996
999
1001
999
996
996
998
999
999
1000
998
995
997
1000
1002
998
997
998
999
1003
1005
1003
998
998
1001
1005
1007
1007
1005
1006
1009
1011
1013
1013
1012
1014
1015
1021
1023
1025
1024
1027
1029
1034
1037
1041
1041
1045
1048
1053
1055
1057
1059
1059
1063
1067
1070
1067
1067
1065
1067
1070
1069
1064
1061
1056
1055
1056
1055
1050
1043
1041
1041
1041
1041
1036
1035
1033
1036
1035
1035
1031
1028
1028
1027
1032
1034
1032
1029
1027
1030
1033
1030
1031
1028
1026
1027
1027
1030
1027
1025
1023
1025
1029
1028
1026
1023
1021
1022
1024
1027
1026
1021
1021
1021
1025
1026
1024
1024
1022
1024
1028
1026
1026
1024
1023
1025
1026
1030
1029
1025
1025
1027
1031
1032
1031
1028
1028
1027
1029
1030
1030
1027
1024
1027
1030
1031
1030
1026
1026
1026
1029
1031
1027
1025
1024
1027
1028
1030
1028
1023
1024
1024
1028
1029
1028
1025
1022
1027
1028
1029
1024
1024
1023
1025
1029
1026
1026
1021
1020
1025
1027
1027
1026
1024
1025
1025
1029
1028
1026
1027
1021
1026
1029
1030
1028
1030
1024
1023
1027
1029
1028
1026
1027
1025
1029
1027
1028
1024
1023
1026
1029
1031
1028
1027
1024
1028
1030
1031
1029
1028
1023
1027
1030
1030
1030
1028
1025
1027
1029
1030
1030
1027
1026
1028
1031
1033
1031
1027
1029
1029
1034
1036
1034
1033
1033
1036
1039
1041
1039
1035
1036
1039
1041
1043
1040
1036
1034
1034
1035
1034
1037
1033
1032
1034
1036
1039
1033
1035
1034
1037
1037
1038
1039
1033
1030
1030
1026
1031
1029
1027
1026
1028
1031
1032
1029
1027
1024
1026
1029
1029
1027
1023
1024
1028
1029
1029
1029
1025
1022
1026
1026
1028
1029
1028
1026
1030
1032
1034
1032
1028
1028
1033
1039
1043
1044
1052
1060
1075
1085
1098
1109
1126
1150
1179
1206
1230
1254
1278
1310
1350
1389
1412
1409
1373
1302
1210
1127
1069
1036
1017
1011
1017
1023
1027
1028
1024
1020
1021
1021
1018
1013
1007
1008
1009
1011
1012
1010
1008
1009
1005
1011
1009
1007
1005
1004
1007
1008
1007
1005
1002
1004
1007
1008
1005
1004
1003
1003
1003
1007
1007
1005
1001
1001
1000
1006
1004
1003
999
1001
1001
1006
1003
1002
997
1000
1003
1008
1010
1006
1003
1001
1005
1008
1007
1009
1006
1003
1007
1008
1008
1008
1005
1008
1009
1015
1015
1015
1015
1015
1018
1023
1026
1023
1025
1025
1033
1036
1039
1040
1039
1041
1047
1052
1056
1057
1058
1062
1064
1071
1073
1072
1068
1068
1072
1074
1073
1070
1064
1063
1062
1062
1059
1056
1052
1050
1047
1049
1047
1043
1039
1037
1039
1040
1041
1039
1035
1032
1032
1037
1036
1035
1034
1032
1032
1035
1035
1031
1030
1030
1031
1034
1031
1031
1029
1024
1026
1030
1030
1027
1025
1026
1026
1028
1028
1027
1024
1024
1027
1030
1027
1025
1025
1021
1026
1029
1028
1028
1025
1023
1025
1028
1028
1030
1026
1026
1027
1030
1029
1026
1024
1028
1029
1031
1033
1031
1027
1024
1025
1028
1030
1028
1026
1023
1026
1028
1030
1026
1024
1022
1023
1027
1025
1024
1021
1023
1025
1028
1026
1023
1021
1021
1023
1025
1025
1023
1021
1022
1022
1024
1025
1024
1021
1021
1021
1024
1023
1021
1020
1020
1022
1024
1024
1023
1020
1019
1023
1022
1024
1021
1022
1018
1020
1024
1024
1021
1019
1019
1021
1023
1024
1022
1018
1019
1019
1024
1024
1024
1019
1020
1022
1022
1023
1021
1019
1020
1021
1024
1023
1024
1020
1021
1023
1024
1025
1023
1020
1022
1022
1023
1024
1022
1020
1018
1022
1028
1027
1025
1020
1022
1023
1028
1030
1029
1030
1027
1031
1032
1037
1033
1035
1034
1035
1036
1038
1034
1029
1029
1030
1030
1032
1029
1027
1027
1030
1033
1035
1034
1032
1029
1029
1033
1031
1027
1024
1022
1027
1027
1029
1025
1022
1022
1023
1027
1028
1028
1023
1023
1025
1027
1026
1026
1022
1022
1025
1024
1025
1023
1022
1024
1023
1028
1028
1029
1025
1026
1028
1033
1034
1037
1038
1045
1057
1068
1082
1089
1099
1120
1148
1178
1207
1232
1263
1293
1330
1376
1412
1428
1410
1363
1283
1194
1115
1058
1027
1013
1012
1017
1021
1019
1018
1018
1017
1016
1011
1008
1003
1002
1004
1004
1002
1002
998
1000
1000
1001
1001
1000
999
999
1002
999
999
999
996
999
998
999
1000
997
994
994
991
997
997
994
991
993
994
994
996
994
990
992
996
996
996
992
989
991
994
996
999
998
995
992
997
996
999
1000
997
999
1000
1001
1000
1003
998
1001
1006
1007
1008
1008
1003
1009
1010
1014
1017
1018
1018
1016
1022
1024
1027
1028
1027
1031
1035
1043
1043
1043
1044
1047
1054
1059
1062
1060
1061
1063
1063
1065
1067
1063
1060
1058
1059
1059
1056
1052
1048
1045
1046
1046
1043
1041
1036
1031
1032
1036
1034
1032
1028
1030
1027
1029
1031
1026
1024
1026
1027
1028
1029
1026
1025
1025
1027
1029
1030
1029
1025
1021
1025
1027
1026
1025
