1038
1042
1042
1043
1044
1042
1042
1044
1045
1045
1042
1042
1043
1043
1045
1042
1033
1034
1033
1038
1038
1035
1034
1032
1035
1036
1035
1036
1032
1033
1035
1036
1038
1035
1034
1034
1035
1036
1038
1034
1033
1033
1035
1037
1037
1037
1036
1033
1037
1037
1039
1039
1038
1041
1047
1055
1061
1068
1077
1085
1097
1109
1129
1154
1178
1207
1237
1271
1299
1332
1369
1405
1434
1442
1422
1373
1298
1209
1137
1088
1053
1033
1023
1023
1029
1032
1035
1031
1030
1029
1027
1025
1023
1022
1018
1014
1016
1019
1017
1017
1012
1012
1014
1016
1016
1015
1014
1013
1013
1014
1016
1012
1010
1009
1010
1012
1011
1010
1008
1008
1010
1013
1012
1009
1007
1006
1008
1009
1009
1010
1005
1004
1006
1011
1011
1008
1005
1005
1008
1012
1012
1011
1009
1008
1010
1010
1009
1010
1009
1010
1012
1015
1015
1014
1011
1011
1015
1017
1020
1020
1018
1019
1023
1025
1028
1027
1027
1027
1032
1036
1038
1038
1037
1038
1047
1050
1056
1056
1057
1058
1061
1069
1074
1073
1073
1075
1079
1082
1083
1081
1079
1080
1080
1081
1080
1075
1071
1069
1068
1068
1066
1064
1060
1056
1055
1052
1052
1050
1047
1046
1045
1047
1046
1045
1042
1043
1043
1044
1048
1044
1043
1042
1040
1044
1043
1043
1040
1038
1042
1044
1041
1041
1040
1037
1040
1040
1042
1035
1033
1033
1037
1039
1040
1035
1033
1031
1035
1036
1037
1036
1033
1036
1037
1039
1039
1036
1034
1035
1036
1039
1040
1038
1035
1034
1036
1040
1040
1039
1038
1033
1038
1042
1040
1039
1037
1035
1038
1042
1040
1040
1036
1035
1036
1039
1038
1036
1033
1034
1036
1037
1038
1037
1033
1030
1032
1034
1037
1036
1032
1030
1031
1035
1035
1033
1028
1027
1031
1033
1032
1031
1031
1029
1029
1032
1033
1031
1027
1030
1032
1033
1035
1031
1026
1028
1030
1031
1034
1030
1030
1030
1030
1034
1033
1031
1028
1028
1031
1034
1033
1031
1029
1028
1030
1033
1032
1030
1027
1026
1031
1032
1032
1030
1029
1028
1031
1031
1031
1029
1027
1027
1032
1034
1034
1033
1029
1029
1031
1036
1037
1036
1035
1036
1038
1040
1042
1040
1038
1042
1046
1047
1049
1045
1041
1039
1041
1042
1041
1036
1034
1033
1037
1039
1042
1042
1040
1042
1043
1044
1042
1041
1037
1035
1035
1037
1035
1036
1032
1030
1032
1033
1035
1034
1031
1027
1027
1032
1034
1030
1025
1028
1030
1033
1032
1033
1030
1027
1032
1032
1034
1034
1030
1032
1033
1033
1036
1036
1036
1036
1039
1044
1046
1050
1053
1064
1076
1088
1098
1105
1123
1145
1176
1205
1227
1250
1276
1305
1342
1379
1405
1414
1395
1342
1270
1186
1114
1063
1034
1020
1019
1026
1028
1029
1025
1024
1027
1028
1026
1018
1016
1015
1017
1018
1018
1015
1011
1013
1014
1016
1018
1016
1010
1012
1012
1015
1015
1012
1010
1011
1009
1013
1014
1009
1004
1006
1006
1008
1010
1007
1005
1004
1004
1005
1009
1006
1006
1005
1008
1009
1009
1005
1004
1002
1004
1010
1006
1006
1004
1005
1006
1008
1007
1009
1005
1004
1008
1009
1009
1007
1005
1005
1010
1012
1013
1013
1009
1009
1013
1016
1018
1017
1015
1016
1022
1023
1023
1024
1023
1023
1028
1031
1033
1036
1033
1036
1040
1045
1049
1050
1052
1053
1056
1063
1064
1064
1064
1065
1069
1071
1071
1072
1067
1066
1068
1069
1068
1064
1060
1058
1057
1059
1057
1054
1047
1048
1049
1050
1049
1044
1040
1039
1041
1042
1045
1040
1038
1038
1038
1040
1040
1037
1036
1034
1038
1040
1038
1037
1033
1032
1034
1035
1037
1033
1030
1031
1032
1032
1033
1030
1026
1031
1034
1036
1035
1032
1028
1029
1029
1032
1033
1031
1029
1028
1030
1030
1034
1033
1031
1031
1033
1036
1038
1034
1030
1031
1035
1036
1036
1035
1035
1031
1033
1035
1034
1033
1034
1030
1033
1035
1035
1031
1029
1030
1029
1034
1033
1032
1029
1028
1030
1033
1032
1028
1030
1026
1029
1032
1030
1028
1024
1024
1026
1031
1031
1028
1026
1026
1027
1031
1029
1030
1024
1026
1027
1029
1029
1028
1026
1025
1028
1034
1028
1028
1025
1026
1028
1030
1030
1028
1024
1025
1027
1029
1028
1028
1025
1024
1028
1029
1030
1024
1023
1023
1026
1029
1029
1028
1024
1024
1027
1028
1027
1025
1024
1022
1026
1029
1028
1026
1022
1023
1027
1029
1027
1029
1024
1024
1027
1027
1029
1028
1025
1026
1027
1033
1035
1035
1033
1033
1036
1038
1040
1038
1038
1037
1038
1041
1037
1036
1031
1032
1033
1034
1035
1034
1032
1031
1033
1036
1037
1033
1034
1035
1034
1038
1035
1033
1028
1028
1030
1028
1029
1028
1024
1027
1027
1029
1028
1027
1024
1027
1028
1028
1030
1027
1025
1024
1027
1029
1030
1025
1022
1024
1025
1028
1029
1028
1024
1026
1028
1032
1032
1031
1030
1031
1036
1042
1047
1051
1059
1071
1084
1094
1106
1125
1148
1172
1204
1233
1260
1285
1312
1350
1387
1421
1434
1421
1380
1311
1226
1146
1083
1043
1020
1015
1020
1024
1026
1026
1023
1019
1021
1017
1015
1010
1009
1006
1007
1011
1009
1009
1003
1003
1005
1007
1007
1004
1003
1002
1002
1004
1004
1005
1000
1000
1001
1003
1001
999
995
995
998
1000
1001
1001
997
997
998
1000
1000
997
995
998
998
1000
1000
997
997
1000
1003
1002
1003
1001
999
999
1001
1003
1002
1003
1003
1004
1005
1008
1008
1005
1007
1007
1012
1014
1013
1011
1014
1015
1019
1024
1023
1026
1025
1027
1030
1034
1039
1040
1040
1044
1048
1052
1056
1056
1059
1062
1066
1072
1073
1073
1071
1072
1075
1077
1074
1072
1071
1069
1068
1067
1062
1060
1057
1055
1054
1054
1050
1045
1040
1039
1042
1045
1042
1040
1034
1035
1036
1039
1038
1037
1033
1034
1035
1038
1036
1036
1032
1033
1036
1037
1036
1032
1030
1030
1030
1031
1030
1031
1029
1027
1028
1031
1031
1029
1028
1027
1027
1030
1029
1027
1025
1025
1027
1029
1029
1027
1024
1025
1026
1029
1029
1027
1023
1026
1029
1029
1029
1024
1024
1026
1031
1032
1030
1030
1029
1028
1031
1033
1032
1029
1029
1027
1029
1031
1031
1029
1026
1031
1030
1034
1032
1026
1025
1026
1029
1031
1029
1028
1025
1023
1028
1030
1030
1026
1025
1025
1028
1031
1028
1024
1024
1024
1027
1026
1029
1023
1021
1020
1023
1025
1026
1024
1021
1022
1025
1026
1026
1025
1023
1024
1024
1027
1026
1027
1021
1022
1024
1030
1029
1026
1023
1023
1027
1028
1030
1028
1025
1025
1025
1029
1028
1028
1027
1026
1030
1032
1030
1027
1026
1027
1028
1030
1029
1028
1025
1026
1028
1031
1031
1030
1028
1027
1031
1034
1035
1032
1033
1035
1037
1039
1038
1039
1036
1039
1041
1045
1042
1039
1036
1033
1035
1036
1035
1034
1031
1032
1036
1037
1041
1039
1034
1038
1039
1039
1035
1029
1027
1027
1026
1032
1031
1029
1027
1027
1029
1030
1031
1027
1025
1027
1028
1032
1031
1027
1023
1023
1027
1031
1029
1027
1027
1027
1029
1031
1030
1029
1028
1031
1033
1041
1044
1048
1054
1067
1083
1094
1109
1125
1145
1178
1209
1239
1267
1297
1328
1374
1414
1437
1419
1356
1261
1161
1082
1044
1023
1016
1019
1025
1031
1030
1030
1026
1020
1018
1017
1019
1016
1015
1012
1010
1012
1015
1016
1014
1011
1012
1015
1016
1013
1011
1009
1009
1011
1015
1013
1011
1005
1008
1011
1011
1010
1009
1008
1008
1009
1011
1007
1007
1004
1006
1008
1009
1008
1004
1005
1005
1007
1010
1008
1008
1003
1006
1008
1009
1007
1009
1007
1007
1012
1013
1012
1010
1008
1008
1012
1015
1015
1011
1010
1014
1016
1020
1020
1021
1020
1022
1025
1029
1029
1030
1031
1035
1040
1047
1046
1047
1046
1049
1058
1065
1065
1065
1065
1070
1072
1076
1074
1074
1071
1070
1071
1071
1068
1063
1058
1057
1055
1054
1050
1045
1041
1038
1041
1043
1042
1036
1033
1033
1033
1035
1036
1032
1028
1029
1031
1033
1032
1030
1030
1030
1032
1033
1029
1027
1024
1026
1027
1030
1030
1027
1023
1023
1024
1027
1027
1023
1023
1021
1024
1026
1026
1022
1019
1022
1023
1025
1023
1021
1019
1019
1024
1028
1026
1026
1022
1023
1025
1026
1025
1025
1023
1025
1025
1026
1025
1024
1022
1021
1025
1026
1022
1021
1018
1020
1018
1023
1023
1022
1020
1021
1023
1025
1023
1019
1020
1019
1019
1023
1020
1017
1016
1016
1021
1021
1018
1018
1014
1016
1018
1019
1019
1018
1014
1014
1016
1017
1018
1016
1014
1015
1018
1018
1020
1016
1012
1014
1014
1016
1018
1014
1011
1013
1014
1016
1018
1016
1013
1012
1014
1017
1017
1013
1011
1012
1015
1016
1015
1013
1012
1015
1015
1015
1014
1013
1010
1010
1011
1016
1015
1011
1011
1013
1016
1018
1015
1013
1008
1011
1014
1016
1016
1013
1011
1009
1016
1020
1019
1017
1020
1021
1023
1025
1023
1023
1024
1025
1028
1032
1030
1028
1022
1022
1023
1024
1023
1021
1020
1020
1021
1025
1026
1021
1023
1022
1026
1028
1026
1023
1019
1018
1018
1019
1017
1015
1011
1016
1016
1019
1018
1016
1015
1015
1018
1018
1017
1014
1012
1011
1016
1019
1018
1014
1014
1015
1015
1019
1018
1017
1016
1015
1019
1022
1020
1017
1013
1016
1021
1025
1029
1030
1034
1042
1052
1069
1077
1087
1100
1125
1155
1186
1214
1238
1264
1301
1346
1386
1409
1404
1360
1278
1183
1104
1048
1015
998
1003
1012
1016
1015
1013
1010
1009
1006
1005
1003
999
999
996
995
1000
1000
996
994
996
999
1001
998
995
991
994
995
997
997
995
992
991
993
992
994
991
989
988
992
992
991
989
988
988
991
992
991
988
988
989
990
995
993
989
987
989
990
996
995
993
989
989
994
997
997
994
994
995
998
1000
1000
998
997
1001
1006
1009
1006
1007
1008
1010
1016
1021
1022
1022
1022
1026
1030
1034
1037
1038
1039
1042
1047
1052
1051
1049
1050
1054
1055
1055
1053
1049
1043
1044
1045
1046
1040
1034
1028
1027
1028
1029
1028
1024
1021
1020
1020
1024
1023
1021
1017
1018
1022
1022
1020
1015
1014
1012
1014
1018
1019
1013
1011
1014
1015
1015
1015
1011
1012
1010
1014
1016
1013
1012
1009
1009
1013
1016
1014
1010
1011
1011
1015
1018
1018
1014
1014
1012
1017
1015
1018
1018
1016
1014
1017
1019
1016
1016
1012
1013
1017
1016
1017
1014
1011
1013
1013
1016
1016
1013
1008
1008
1011
1013
1013
1014
1009
1010
1011
1013
1013
1009
1008
1007
1010
1012
1012
1010
1009
1008
1009
1010
1011
1006
1005
1008
1009
1013
1009
1005
1006
1005
1007
1011
1008
1004
1003
1004
1008
1011
1010
1006
1006
1005
1008
1009
1009
1007
1004
1006
1009
1010
1009
1007
1004
1007
1008
1012
1011
1007
1006
1005
1008
1009
1012
1011
1007
1009
1011
1011
1011
1008
1006
1009
1013
1013
1013
1012
1008
1009
1013
1015
1013
1010
1011
1010
1012
1016
1012
1011
1010
1013
1012
1019
1021
1016
1015
1017
1021
1025
1025
1023
1020
1022
1026
1030
1030
1027
1023
1025
1026
1023
1023
1020
1018
1019
1024
1026
1025
1021
1018
1020
1025
1028
1029
1027
1025
1023
1024
1023
1022
1017
1015
1016
1020
1022
1023
1019
1017
1020
1018
1021
1022
1020
1016
1018
1017
1021
1021
1019
1017
1016
1020
1020
1019
1017
1017
1018
1023
1022
1022
1017
1016
1018
1022
1025
1023
1024
1023
1029
1038
1043
1052
1060
1068
1078
1090
1106
1125
1145
1168
1196
1224
1252
1277
1304
1337
1377
1415
1432
1423
1382
1312
1230
1156
1097
1053
1022
1009
1009
1014
1021
1023
1018
1017
1013
1017
1015
1010
1008
1002
1002
1004
1007
1006
999
999
1000
1003
1003
1003
1001
999
999
1002
1006
1003
1001
996
999
1002
1002
1002
998
996
998
1000
1001
999
997
996
995
998
1001
999
997
993
995
1000
1003
1001
998
997
998
1002
1003
1003
1000
998
1001
1003
1004
1004
1004
1001
1002
1005
1007
1004
1003
1004
1004
1006
1008
1009
1006
1006
1007
1011
1012
1012
1012
1009
1012
1018
1023
1023
1019
1021
1024
1027
1035
1034
1036
1038
1042
1046
1051
1052
1051
1054
1056
1065
1068
1068
1070
1067
1070
1070
1073
1074
1069
1069
1069
1068
1069
1067
1062
1058
1057
1059
1057
1054
1047
1045
1040
1044
1045
1041
1039
1035
1036
1038
1036
1036
1035
1030
1031
1034
1036
1035
1033
1029
1031
1035
1037
1035
1034
1030
1029
1031
1033
1034
1029
1027
1028
1033
1034
1031
1028
1029
1028
1030
1033
1029
1028
1023
1026
1030
1030
1027
1027
1024
1027
1030
1032
1029
1028
1026
1026
1030
1033
1033
1029
1029
1031
1034
1034
1036
1033
1028
1032
1034
1035
1034
1032
1031
1031
1034
1036
1035
1033
1030
1031
1034
1036
1034
1032
1028
1033
1034
1034
1034
1033
1029
1034
1034
1034
1034
1028
1028
1029
1033
1033
1033
1030
1031
1030
1031
1032
1032
1029
1028
1026
1030
1033
1031
1030
1026
1025
1028
1029
1030
1031
1027
1028
1028
1029
1028
1027
1027
1026
1028
1030
1028
1027
1027
1028
1030
1029
1029
1024
1024
1026
1025
1030
1030
1028
1025
1026
1026
1027
1025
1023
1023
1025
1026
1028
1029
1026
1020
1023
1024
1029
1028
1024
1022
1026
1027
1028
1027
1025
1022
1026
1029
1029
1027
1024
1025
1026
1029
1032
1033
1031
1031
1032
1033
1037
1037
1035
1033
1035
1039
1040
1038
1039
1035
1039
1039
1041
1038
1033
1031
1028
1032
1034
1036
1033
1032
1030
1034
1038
1038
1035
1035
1036
1039
1039
1036
1029
1027
1026
1027
1031
1029
1028
1025
1026
1029
1031
1028
1026
1025
1025
1029
1027
1028
1023
1024
1024
1027
1030
1028
1027
1025
1025
1029
1029
1030
1027
1026
1027
1031
1032
1031
1028
1028
1032
1038
1044
1047
1052
1059
1073
1081
1096
1104
1118
1139
1161
1186
1213
1235
1256
1280
1315
1356
1391
1412
1405
1370
1305
1222
1138
1077
1036
1019
1015
1021
1026
1024
1021
1018
1019
1022
1019
1016
1013
1009
1011
1010
1012
1010
1006
1005
1008
1008
1010
1006
1005
1003
1005
1009
1010
1010
1006
1002
1004
1006
1008
1003
1003
999
1002
1003
1006
1006
1003
1000
999
1002
1004
1003
998
999
1000
1002
1008
1005
1002
999
1000
1003
1003
1002
1002
999
1002
1004
1005
1006
1001
1001
1003
1007
1009
1008
1004
1003
1003
1008
1009
1008
1005
1006
1006
1012
1014
1017
1012
1013
1018
1017
1024
1025
1025
1024
1025
1032
1037
1038
1040
1041
1047
1050
1054
1056
1056
1057
1059
1062
1068
1068
1065
1064
1064
1068
1067
1064
1062
1060
1058
1057
1057
1053
1049
1045
1046
1046
1046
1041
1039
1034
1035
1039
1041
1038
1034
1032
1033
1034
1036
1035
1032
1029
1031
1032
1034
1031
1028
1027
1027
1029
1033
1031
1026
1025
1027
1028
1031
1029
1025
1023
1025
1026
1028
1027
1022
1022
1020
1024
1028
1025
1023
1019
1024
1024
1030
1028
1025
1023
1023
1026
1026
1026
1026
1024
1025
1027
1026
1025
1025
1021
1023
1026
1030
1028
1024
1023
1025
1025
1028
1026
1021
1021
1022
1023
1025
1021
1021
1019
1021
1023
1024
1022
1021
1018
1020
1022
1026
1023
1019
1017
1020
1025
1022
1023
1019
1018
1020
1021
1024
1024
1020
1020
1022
1023
1025
1021
1017
1017
1019
1021
1022
1021
1017
1017
1017
1019
1021
1019
1016
1016
1018
1019
1021
1017
1015
1014
1015
1018
1020
1018
1017
1016
1016
1019
1022
1020
1019
1016
1019
1020
1020
1019
1016
1016
1017
1020
1022
1019
1017
1016
1018
1021
1020
1022
1021
1018
1018
1020
1023
1022
1017
1018
1019
1023
1024
1023
1021
1020
1021
1022
1026
1024
1023
1025
1028
1030
1031
1032
1027
1030
1033
1035
1038
1035
1032
1032
1032
1033
1032
1030
1026
1025
1027
1028
1028
1028
1029
1027
1029
1032
1035
1031
1030
1028
1028
1030
1032
1028
1025
1022
1020
1022
1024
1023
1022
1021
1022
1024
1024
1022
1022
1019
1023
1022
1026
1022
1020
1018
1021
1024
1025
1022
1022
1019
1023
1025
1025
1024
1021
1019
1022
1027
1027
1027
1026
1024
1030
1039
1043
1050
1059
1067
1077
1086
1102
1121
1143
1169
1197
1227
1256
1283
1315
1357
1399
1423
1420
1381
1302
1213
1130
1069
1035
1016
1008
1010
1017
1020
1022
1023
1017
1014
1011
1012
1012
1008
1004
1003
1004
1006
1008
1005
1002
1002
1004
1005
1007
1004
1001
1001
1003
1007
1006
1003
998
998
998
1000
1002
1001
999
998
997
1000
1001
999
995
996
1000
1001
1000
999
995
996
996
1001
1002
1001
999
998
1000
998
1003
1001
999
999
1000
1001
1004
1002
998
1000
1002
1005
1009
1006
1005
1001
1006
1009
1012
1011
1011
1009
1014
1019
1021
1019
1022
1021
1025
1028
1033
1035
1036
1038
1043
1045
1050
1052
1056
1053
1059
1063
1068
1069
1068
1067
1070
1072
1070
1065
1062
1060
1057
1059
1055
1051
1043
1041
1041
1042
1042
1039
1035
1031
1034
1033
1035
1030
1030
1028
1028
1030
1031
1032
1030
1027
1030
1031
1031
1029
1026
1025
1027
1028
1030
1031
1027
1026
1027
1029
1031
1030
1028
1027
1028
1030
1030
1029
1024
1026
1029
1028
1031
1030
1028
1026
1027
1032
1032
1030
1028
1027
1030
1031
1032
1031
1030
1029
1031
1035
1035
1031
1029
1028
1031
1033
1032
1033
1034
1031
1033
1034
1032
1032
1030
1028
1032
1032
1033
1033
1030
1028
1029
1030
1032
1033
1029
1026
1030
1031
1029
1031
1024
1024
1028
1031
1029
1029
1024
1024
1028
1027
1028
1028
1026
1025
1024
1025
1028
1025
1024
1024
1024
1028
1030
1026
1025
1022
1025
1027
1027
1026
1026
1025
1025
1028
1029
1026
1023
1022
1024
1027
1028
1025
1026
1025
1026
1029
1028
1030
1026
1025
1026
1029
1029
1029
1025
1026
1027
1028
1030
1027
1024
1023
1026
1030
1029
1029
1027
1024
1028
1029
1030
1028
1026
1024
1027
1031
1029
1030
1028
1025
1028
1031
1033
1028
1027
1027
1029
1028
1034
1032
1029
1029
1031
1034
1035
1035
1032
1035
1036
1039
1041
1040
1038
1040
1040
1044
1047
1045
1042
1040
1042
1042
1042
1039
1034
1033
1034
1037
1039
1034
1035
1033
1036
1042
1044
1040
1037
1036
1037
1038
1037
1032
1031
1029
1031
1035
1035
1031
1029
1028
1028
1035
1035
1032
1027
1029
1029
1033
1033
1032
1029
1027
1028
1032
1035
1033
1029
1026
1031
1033
1032
1030
1029
1030
1038
1036
1043
1045
1044
1050
1063
1076
1089
1097
1106
1123
1148
1178
1207
1232
1257
1285
1318
1356
1398
1435
1445
1427
1373
1287
1191
1110
1059
1030
1021
1025
1031
1034
1030
1027
1026
1027
1025
1021
1015
1015
1015
1016
1015
1013
1011
1012
1012
1016
1015
1013
1010
1010
1011
1016
1014
1011
1011
1011
1010
1012
1013
1011
1008
1005
1006
1010
1011
1008
1007
1005
1007
1010
1011
1011
1006
1005
1010
1012
1011
1009
1010
1006
1011
1014
1014
1012
1009
1008
1008
1013
1012
1014
1012
1010
1012
1013
1013
1014
1012
1013
1014
1018
1019
1019
1017
1015
1020
1023
1025
1026
1026
1026
1028
1037
1037
1039
1037
1038
1044
1048
1051
1051
1054
1057
1063
1068
1073
1072
1074
1074
1078
1081
1081
1082
1081
1079
1080
1080
1078
1075
1072
1069
1070
1068
1067
1061
1056
1054
1055
1056
1054
1052
1047
1044
1045
1047
1046
1045
1041
1042
1041
1044
1047
1042
1040
1040
1043
1044
1043
1040
1039
1037
1037
1039
1041
1039
1036
1035
1037
1037
1040
1035
1036
1033
1037
1036
1036
1034
1031
1032
1035
1038
1038
1035
1033
1034
1037
1037
1040
1038
1036
1036
1036
1039
1040
1040
1039
1036
1039
1040
1041
1038
1037
1039
1040
1044
1042
1041
1036
1036
1041
1043
1043
1042
1035
1037
1040
1041
1042
1039
1037
1035
1038
1041
1039
1036
1034
1035
1035
1037
1038
1036
1033
1033
1033
1038
1037
1036
1033
1032
1035
1036
1036
1033
1031
1030
1034
1035
1037
1034
1033
1030
1033
1035
1035
1032
1031
1028
1032
1033
1035
1032
1030
1028
1032
1037
1033
1034
1029
1030
1034
1032
1035
1034
1031
1031
1034
1037
1034
1033
1032
1033
1032
1038
1037
1035
1031
1032
1034
1037
1036
1035
1031
1034
1034
1038
1039
1036
1034
1034
1038
1038
1042
1038
1036
1036
1038
1042
1042
1040
1036
1038
1040
1044
1044
1045
1045
1045
1045
1049
1051
1050
1047
1047
1050
1049
1046
1043
1039
1039
1042
1045
1046
1042
1038
1040
1043
1049
1049
1047
1044
1042
1045
1044
1041
1038
1034
1033
1038
1040
1041
1038
1035
1033
1036
1039
1039
1037
1033
1032
1034
1039
1039
1036
1034
1034
1035
1037
1035
1035
1033
1031
1036
1038
1038
1037
1036
1037
1039
1044
1046
1048
1049
1053
1066
1078
1089
1095
1103
1120
1144
1172
1199
1223
1247
1274
1307
1348
1388
1416
1416
1382
1314
1226
1139
1074
1040
1027
1022
