1027
1027
1027
1027
1027
1027
1027
1027
1027
1032
1037
1038
1039
1040
1045
1051
1056
1056
1057
1058
1065
1066
1069
1068
1066
1061
1062
1063
1063
1060
1053
1049
1047
1050
1049
1044
1039
1035
1036
1036
1036
1034
1028
1029
1028
1029
1032
1028
1027
1023
1024
1027
1029
1028
1027
1023
1024
1025
1027
1025
1024
1023
1024
1026
1028
1022
1020
1020
1018
1024
1026
1022
1020
1017
1019
1019
1023
1022
1019
1016
1018
1021
1019
1020
1016
1016
1017
1019
1021
1018
1016
1015
1019
1020
1023
1022
1019
1017
1020
1023
1023
1022
1021
1020
1021
1024
1025
1023
1021
1021
1021
1026
1025
1024
1019
1020
1021
1024
1025
1024
1021
1020
1018
1024
1026
1024
1021
1020
1019
1022
1025
1024
1021
1020
1020
1023
1023
1021
1019
1017
1021
1021
1022
1021
1020
1018
1016
1018
1020
1020
1018
1016
1018
1019
1020
1018
1017
1017
1017
1018
1021
1019
1016
1013
1018
1018
1021
1018
1015
1015
1016
1016
1021
1018
1016
1015
1018
1020
1021
1018
1015
1015
1018
1017
1019
1017
1018
1013
1016
1019
1021
1021
1018
1015
1016
1018
1019
1018
1017
1014
1013
1016
1020
1019
1016
1014
1018
1020
1021
1021
1014
1014
1019
1021
1022
1020
1018
1018
1018
1020
1024
1022
1019
1016
1021
1022
1025
1026
1025
1024
1026
1031
1031
1028
1029
1026
1031
1033
1035
1034
1029
1028
1028
1027
1029
1027
1025
1023
1027
1030
1030
1031
1030
1029
1031
1035
1036
1030
1025
1023
1023
1025
1028
1025
1023
1023
1021
1023
1025
1023
1020
1020
1021
1023
1024
1021
1019
1018
1021
1023
1025
1023
1019
1018
1021
1022
1025
1024
1023
1020
1023
1027
1029
1029
1028
1030
1037
1046
1052
1062
1071
1081
1095
1121
1151
1184
1217
1249
1289
1331
1376
1420
1434
1400
1304
1178
1080
1026
1010
1013
1019
1023
1024
1023
1016
1011
1009
1012
1010
1010
1006
1002
1005
1006
1009
1008
1005
1003
1008
1006
1007
1006
1003
1003
1003
1006
1007
1004
999
997
1001
1002
1005
1000
995
999
1000
999
1003
1001
997
995
999
999
1001
1001
998
998
1000
999
1002
1001
999
999
1003
1003
1005
1003
999
1001
1002
1005
1007
1007
1003
1004
1005
1012
1012
1013
1012
1010
1016
1019
1023
1024
1023
1025
1030
1035
1043
1042
1043
1044
1050
1056
1062
1062
1060
1061
1065
1070
1072
1071
1068
1067
1067
1067
1069
1066
1060
1055
1056
1056
1055
1051
1046
1043
1042
1044
1042
1039
1037
1032
1035
1036
1038
1034
1031
1029
1032
1033
1033
1031
1028
1027
1027
1030
1034
1030
1028
1026
1029
1031
1029
1027
1027
1024
1027
1027
1028
1026
1023
1023
1023
1026
1030
1025
1022
1023
1021
1024
1025
1024
1020
1020
1022
1027
1027
1023
1023
1022
1022
1026
1028
1026
1024
1022
1024
1027
1027
1025
1024
1024
1027
1029
1028
1026
1023
1024
1026
1030
1030
1028
1027
1026
1026
1031
1031
1030
1028
1025
1027
1029
1030
1028
1025
1023
1025
1026
1028
1027
1024
1022
1023
1026
1030
1024
1025
1021
1023
1027
1030
1026
1023
1020
1023
1024
1027
1025
1022
1021
1022
1024
1027
1023
1020
1018
1023
1024
1023
1024
1023
1021
1022
1022
1025
1023
1022
1022
1023
1023
1023
1022
1019
1020
1020
1022
1023
1023
1020
1018
1021
1022
1025
1024
1020
1022
1020
1024
1024
1023
1020
1018
1021
1024
1024
1023
1022
1019
1019
1021
1023
1023
1019
1018
1022
1025
1023
1022
1019
1017
1022
1024
1024
1023
1019
1018
1019
1022
1024
1023
1020
1020
1020
1024
1024
1023
1019
1018
1020
1023
1026
1023
1021
1018
1023
1022
1024
1024
1021
1020
1025
1025
1024
1024
1022
1022
1029
1029
1032
1032
1028
1027
1030
1033
1034
1036
1033
1030
1034
1035
1038
1033
1027
1024
1029
1029
1029
1032
1030
1028
1030
1034
1035
1035
1030
1029
1032
1033
1031
1026
1021
1022
1023
1026
1026
1024
1023
1022
1025
1026
1024
1024
1021
1019
1021
1024
1024
1021
1022
1022
1023
1024
1026
1022
1019
1020
1022
1026
1025
1024
1024
1021
1021
1027
1029
1028
1027
1031
1040
1049
1055
1066
1072
1084
1101
1122
1149
1177
1203
1231
1264
1294
1327
1361
1397
1427
1430
1407
1349
1254
1163
1091
1046
1025
1015
1011
1010
1015
1018
1021
1021
1018
1011
1008
1007
1006
1006
1006
1002
1000
1004
1002
1004
1001
1001
1000
1002
1005
1003
1001
997
997
999
1002
1001
1000
999
997
996
1000
999
996
994
992
995
998
997
996
990
991
992
994
996
994
991
991
992
994
994
993
991
992
994
996
996
994
991
990
993
998
1000
997
995
993
996
1000
998
997
996
997
998
1003
1003
1003
1002
1002
1003
1010
1012
1012
1011
1014
1018
1024
1026
1027
1026
1028
1034
1037
1041
1044
1044
1047
1051
1057
1058
1061
1060
1059
1064
1064
1068
1066
1063
1060
1060
1061
1057
1054
1051
1045
1046
1047
1043
1041
1036
1034
1032
1035
1035
1033
1030
1027
1030
1031
1030
1029
1025
1026
1027
1029
1027
1025
1023
1023
1024
1027
1027
1027
1022
1021
1022
1021
1024
1022
1020
1021
1020
1025
1023
1021
1016
1018
1019
1022
1022
1019
1017
1018
1017
1020
1020
1019
1016
1013
1017
1021
1018
1017
1013
1016
1018
1020
1022
1021
1018
1017
1018
1020
1023
1020
1016
1018
1019
1024
1022
1021
1019
1019
1022
1023
1024
1023
1019
1020
1022
1022
1023
1024
1021
1019
1021
1024
1022
1021
1020
1019
1021
1024
1024
1020
1018
1017
1020
1022
1023
1022
1016
1016
1016
1019
1021
1019
1016
1017
1019
1021
1019
1018
1014
1015
1017
1019
1018
1020
1013
1013
1016
1018
1017
1014
1016
1014
1017
1021
1019
1017
1014
1015
1016
1021
1020
1019
1016
1013
1016
1016
1016
1015
1014
1016
1019
1018
1019
1016
1016
1016
1022
1021
1018
1015
1016
1018
1020
1019
1018
1017
1015
1019
1023
1022
1019
1017
1018
1018
1020
1021
1017
1016
1016
1019
1023
1021
1020
1016
1014
1016
1021
1022
1020
1019
1015
1018
1022
1024
1021
1018
1020
1021
1023
1023
1024
1022
1023
1027
1028
1029
1030
1026
1025
1030
1032
1033
1032
1031
1030
1031
1033
1031
1027
1027
1025
1028
1031
1032
1027
1028
1027
1032
1034
1032
1032
1029
1025
1024
1025
1025
1020
1020
1020
1021
1024
1023
1023
1021
1018
1021
1024
1024
1022
1019
1018
1021
1023
1023
1023
1020
1021
1021
1022
1025
1019
1019
1018
1021
1024
1023
1023
1019
1020
1021
1029
1030
1032
1034
1039
1048
1062
1070
1079
1086
1100
1127
1159
1187
1214
1239
1265
1297
1336
1379
1409
1412
1389
1333
1255
1170
1099
1050
1024
1014
1012
1014
1017
1015
1014
1015
1015
1019
1013
1009
1006
1003
1007
1006
1002
1002
1001
1002
1007
1007
1000
1000
998
1002
1002
1004
1002
999
999
1000
1000
1000
1002
998
995
998
1000
1001
997
995
994
998
1000
999
996
995
995
995
1000
997
998
994
995
997
1000
998
997
994
993
995
997
1001
999
995
994
995
998
1000
1000
997
998
1001
1004
1003
1001
1000
1000
1004
1006
1008
1007
1008
1008
1010
1013
1014
1014
1015
1018
1020
1025
1027
1028
1030
1031
1036
1042
1045
1044
1048
1048
1054
1060
1063
1061
1062
1063
1066
1068
1066
1067
1063
1060
1064
1060
1059
1056
1051
1048
1050
1049
1049
1044
1039
1037
1038
1040
1040
1037
1032
1033
1034
1035
1035
1032
1028
1031
1034
1034
1035
1030
1027
1027
1029
1034
1032
1031
1027
1027
1027
1029
1029
1027
1026
1024
1024
1029
1027
1025
1021
1019
1025
1026
1028
1024
1022
1018
1020
1023
1024
1021
1019
1022
1022
1025
1023
1020
1021
1020
1022
1026
1028
1026
1023
1023
1024
1026
1028
1027
1024
1023
1025
1029
1028
1026
1023
1023
1026
1030
1028
1026
1022
1025
1023
1026
1027
1024
1022
1023
1024
1026
1025
1023
1020
1021
1021
1024
1025
1022
1019
1020
1023
1025
1022
1022
1017
1018
1017
1021
1021
1020
1015
1016
1018
1021
1021
1016
1016
1016
1019
1020
1021
1019
1017
1016
1018
1020
1019
1019
1016
1017
1019
1020
1021
1020
1015
1014
1018
1021
1022
1018
1013
1017
1017
1020
1019
1020
1017
1014
1018
1020
1019
1020
1017
1017
1019
1021
1021
1019
1016
1015
1018
1021
1022
1020
1017
1015
1017
1021
1022
1022
1018
1017
1019
1020
1021
1020
1014
1017
1019
1019
1021
1017
1016
1015
1019
1022
1022
1019
1016
1017
1020
1021
1023
1020
1020
1019
1022
1022
1025
1023
1023
1026
1027
1031
1029
1026
1029
1028
1028
1031
1031
1031
1027
1024
1026
1026
1027
1026
1022
1024
1025
1031
1031
1029
1027
1024
1023
1023
1018
1019
1016
1018
1019
1020
1018
1016
1015
1016
1017
1021
1020
1019
1014
1015
1017
1020
1019
1019
1015
1014
1018
1020
1019
1018
1017
1015
1018
1021
1022
1023
1020
1023
1031
1037
1046
1053
1064
1077
1091
1115
1146
1177
1205
1240
1273
1307
1339
1380
1413
1431
1421
1371
1284
1180
1101
1050
1026
1016
1015
1013
1013
1016
1015
1017
1014
1012
1002
1000
999
1002
1002
998
997
996
998
1000
998
995
992
995
995
998
998
996
994
994
995
998
996
995
992
989
992
993
994
989
989
989
991
993
994
990
986
987
989
990
992
991
989
986
990
993
993
994
988
988
990
993
992
991
989
992
993
995
997
995
992
992
996
998
1000
1000
994
998
1001
1003
1003
1002
1002
1007
1008
1015
1015
1015
1014
1019
1024
1031
1033
1033
1034
1037
1043
1050
1052
1053
1052
1057
1061
1065
1066
1066
1060
1062
1063
1063
1062
1060
1054
1052
1051
1051
1049
1046
1041
1038
1040
1038
1038
1032
1030
1030
1028
1032
1031
1026
1027
1024
1026
1030
1029
1026
1023
1024
1026
1027
1027
1024
1021
1023
1026
1029
1027
1025
1021
1021
1024
1023
1023
1022
1019
1019
1019
1020
1021
1018
1018
1017
1017
1022
1020
1017
1016
1016
1017
1019
1018
1017
1016
1016
1018
1020
1018
1017
1016
1015
1020
1021
1019
1018
1016
1017
1019
1023
1023
1021
1018
1019
1020
1024
1026
1023
1020
1021
1022
1026
1025
1023
1020
1020
1023
1026
1026
1026
1022
1021
1022
1024
1024
1025
1021
1020
1022
1023
1023
1023
1022
1019
1021
1024
1023
1022
1019
1022
1020
1025
1022
1022
1019
1018
1020
1022
1022
1021
1019
1015
1022
1021
1020
1020
1018
1016
1023
1024
1024
1022
1017
1019
1020
1025
1023
1023
1020
1018
1023
1024
1024
1023
1018
1019
1022
1024
1025
1021
1020
1018
1022
1025
1024
1025
1020
1020
1021
1025
1024
1023
1020
1018
1023
1026
1022
1020
1021
1020
1024
1025
1025
1022
1019
1021
1020
1025
1025
1023
1020
1020
1024
1024
1024
1023
1018
1020
1023
1023
1022
1019
1018
1019
1023
1027
1027
1026
1026
1026
1028
1032
1034
1030
1030
1032
1032
1036
1036
1033
1031
1030
1034
1035
1033
1028
1023
1024
1027
1027
1029
1029
1026
1028
1030
1037
1033
1032
1029
1031
1028
1027
1025
1021
1021
1021
1023
1027
1028
1026
1022
1021
1022
1025
1026
1024
1021
1020
1020
1023
1024
1022
1019
1020
1021
1022
1024
1023
1018
1020
1024
1026
1025
1025
1024
1023
1025
1031
1034
1037
1040
1046
1057
1071
1082
1087
1099
1123
1154
1187
1218
1246
1273
1300
1332
1375
1415
1437
1436
1403
1334
1244
1151
1079
1038
1018
1014
1017
1019
1017
1016
1017
1017
1017
1016
1009
1007
1004
1003
1005
1002
1001
999
1000
1002
1003
1001
1000
999
997
1002
1004
1003
1001
997
998
999
1002
1001
997
995
996
1000
1002
999
995
994
994
998
998
1001
995
994
997
997
1000
998
997
996
995
998
999
999
998
993
995
1000
1000
1000
1000
996
997
1000
1004
1001
1001
1000
1001
1003
1006
1005
1005
1004
1003
1007
1010
1009
1010
1010
1012
1016
1023
1025
1024
1024
1028
1033
1040
1039
1043
1043
1049
1056
1058
1061
1063
1066
1067
1071
1077
1075
1074
1071
1071
1071
1072
1070
1066
1060
1058
1057
1060
1055
1050
1045
1043
1044
1043
1041
1038
1035
1036
1037
1039
1036
1034
1031
1034
1033
1037
1035
1035
1033
1030
1034
1034
1034
1034
1029
1028
1031
1031
1031
1029
1025
1027
1030
1032
1030
1027
1023
1025
1026
1031
1030
1027
1023
1025
1026
1028
1029
1026
1022
1024
1025
1027
1028
1028
1026
1028
1029
1032
1030
1029
1025
1027
1030
1034
1030
1030
1025
1028
1030
1031
1029
1029
1027
1027
1027
1031
1030
1028
1026
1027
1029
1029
1029
1028
1027
1026
1027
1030
1031
1025
1024
1025
1027
1029
1028
1027
1025
1024
1027
1028
1026
1027
1023
1025
1026
1029
1028
1025
1022
1024
1024
1028
1027
1026
1021
1021
1025
1027
1026
1027
1022
1023
1025
1026
1024
1023
1022
1024
1024
1027
1029
1023
1022
1020
1024
1027
1026
1026
1023
1023
1024
1027
1026
1023
1021
1023
1026
1027
1029
1027
1022
1022
1025
1027
1028
1024
1023
1023
1026
1028
1026
1026
1024
1025
1025
1028
1028
1026
1022
1024
1027
1028
1029
1026
1024
1025
1028
1033
1030
1028
1026
1031
1035
1037
1037
1035
1033
1035
1038
1041
1041
1039
1038
1039
1042
1043
1040
1035
1034
1033
1034
1039
1040
1041
1034
1038
1036
1040
1039
1038
1036
1036
1035
1035
1033
1028
1025
1026
1029
1031
1029
1028
1025
1025
1027
1029
1028
1025
1023
1024
1027
1030
1027
1024
1023
1023
1029
1030
1027
1025
1023
1025
1028
1032
1030
1030
1031
1031
1034
1040
1045
1052
1060
1073
1086
1100
1116
1140
1172
1204
1242
1274
1302
1333
1372
1416
1443
1437
1388
1300
1193
1106
1055
1031
1020
1015
1016
1023
1024
1023
1022
1020
1016
1014
1013
1014
1011
1009
1004
1005
1008
1013
1011
1008
1004
1006
1007
1008
1009
1007
1006
1004
1006
1007
1007
1005
1004
1004
1004
1007
1005
1002
999
1001
1005
1009
1007
1003
1000
1000
1003
1006
1006
1003
1004
1005
1006
1006
1007
1004
1002
1005
1006
1011
1008
1007
1004
1007
1009
1012
1013
1011
1011
1009
1013
1019
1018
1018
1018
1020
1023
1025
1026
1027
1030
1034
1036
1043
1043
1045
1047
1052
1058
1064
1064
1067
1067
1071
1077
1082
1080
1079
1075
1073
1075
1074
1073
1068
1061
1059
1057
1054
1052
1048
1044
1044
1044
1043
1041
1039
1036
1037
1037
1038
1038
1034
1031
1032
1036
1037
1035
1032
1028
1032
1030
1032
1031
1027
1027
1028
1028
1029
1027
1024
1024
1023
1025
1029
1026
1023
1018
1019
1023
1025
1024
1024
1022
1022
1023
1025
1026
1023
1021
1023
1027
1027
1026
1023
1023
1024
1026
1027
1029
1024
1023
1022
1027
1030
1026
1023
1024
1024
1024
1025
1025
1022
1022
1020
1024
1023
1022
1021
1021
1020
1024
1024
1021
1019
1016
1018
1020
1024
1024
1021
1019
1022
1021
1024
1023
1022
1018
1022
1021
1023
1022
1019
1014
1019
1018
1024
1023
1018
1017
1018
1019
1023
1021
1021
1016
1020
1019
1020
1020
1021
1020
1019
1022
1024
1021
1017
1016
1017
1020
1021
1021
1018
1018
1018
1021
1020
1021
1019
1017
1018
1018
1023
1022
1020
1016
1019
1020
1023
1023
1019
1018
1019
1019
1022
1020
1019
1017
1019
1020
1024
1023
1018
1018
1019
1022
1024
1021
1019
1016
1019
1021
1025
1025
1025
1025
1025
1029
1030
1030
1028
1028
1029
1031
1032
1032
1029
1027
1028
1028
1029
1027
1026
1024
1025
1027
1031
1029
1028
1026
1030
1031
1032
1030
1027
1022
1020
1023
1023
1021
1019
1017
1021
1022
1023
1023
1021
1018
1020
1021
1021
1019
1020
1017
1017
1019
1023
1021
1017
1018
1017
1021
1021
1021
1019
1015
1020
1021
1026
1026
1024
1020
1021
1027
1029
1028
1029
1031
1036
1047
1053
1059
1071
1077
1082
1098
1117
1141
1164
1188
1216
1246
1276
1301
1328
1363
1399
1424
1429
1396
1328
1236
1147
1087
1051
1028
1016
1016
1018
1022
1023
1020
1018
1014
1012
1012
1011
1005
1003
1000
1000
1003
1006
1004
1000
996
999
1001
1004
1004
1000
996
997
1002
1005
1002
1001
999
999
1000
1004
1001
997
996
995
1000
1003
998
994
994
995
998
1003
1000
995
994
997
998
1000
997
998
995
996
997
1000
1001
998
996
998
997
999
998
996
999
1000
1001
1004
1000
999
997
997
1001
1005
1006
1003
1002
1002
1005
1007
1008
1006
1004
1009
1011
1017
1013
1013
1014
1016
1020
1027
1027
1028
1029
1032
1036
1044
1044
1046
1049
1051
1058
1062
1064
1063
1063
1065
1070
1074
1073
1070
1071
1071
1068
1072
1065
1063
1058
1059
1059
1058
1056
1052
1047
1046
1044
1049
1046
1042
1038
1039
1043
1044
1041
1037
1038
1035
1041
1041
1037
1036
1034
1035
1039
1038
1039
1038
1034
1035
1038
1037
1036
1035
1033
1031
1037
1039
1035
1035
1029
1031
1031
1033
1032
1029
1027
1028
1029
1030
1029
1028
1027
1029
1030
1031
1030
1028
1026
1025
1027
1032
1031
1031
1029
1029
1032
1032
1031
1028
1026
1029
1032
1034
1034
1032
1029
1029
1031
1033
1029
1028
1026
1030
1030
1031
1031
1030
1028
1030
1031
1033
1033
1030
1030
1026
1029
1033
1033
1029
1027
1027
1028
1029
1030
1029
1025
1028
1030
1032
1030
1028
1023
1023
1028
1029
1028
1027
1023
1024
1028
1030
1029
1026
1027
1026
1027
1031
1028
1024
1025
1024
1027
1030
1031
1029
1025
1025
1027
1028
1029
1026
1026
1026
1027
1030
1028
1026
1024
1027
1027
1031
1026
1028
1022
1026
1030
1030
1029
1026
1025
1025
1028
1027
1030
1029
1028
1028
1032
1031
1032
1026
1027
1029
1032
1034
1030
1026
1025
1028
1027
1031
1031
1029
1025
1029
1031
1032
1030
1028
1027
1029
1031
1036
1033
1031
1030
1030
1033
1036
1038
1035
1036
1037
1040
1041
1042
1041
1037
1040
1043
1043
1043
1040
1039
1038
1037
1040
1040
1035
1032
1035
1038
1040
1038
1037
1039
1038
1038
1043
1040
1037
1031
1033
1033
1035
1032
1032
1027
1027
1030
1032
1031
1030
1026
1028
1030
1032
1031
1028
1026
1027
1030
1032
1028
1029
1022
1027
1027
1030
1031
1029
1024
1024
1027
1030
1028
1027
1027
1028
1033
1037
1038
1039
1043
1050
1061
1075
1086
1094
1104
1128
1156
1190
1223
1252
1282
1315
1352
1391
1433
1465
1472
1459
1417
1351
1269
1184
1119
1073
1043
1029
1023
1024
1022
1024
1026
1025
1024
1016
1014
1009
1010
1011
1008
1007
1003
1005
1007
1008
1007
1004
1002
1000
1006
1007
1006
1003
1002
1000
1002
1006
1003
1002
999
999
999
1000
999
997
995
994
999
1000
999
997
991
994
997
1000
998
995
995
995
998
998
997
996
994
998
999
999
999
994
993
996
998
1001
1000
998
996
997
1001
1003
1005
1003
1001
1002
1007
1008
1007
1005
1005
1010
1014
1017
1019
1019
1018
1023
1030
1035
1036
1037
1039
1044
1050
1058
1058
1058
1061
1063
1071
1073
1076
1074
1071
1071
1075
1076
1075
1067
1062
1063
1062
1061
1062
1056
1051
1049
1049
1049
1046
1042
1041
1040
1041
1042
1037
1038
1034
1034
1037
1039
1038
1038
1034
1036
1036
1037
1037
1036
1031
1034
1036
1039
1036
1035
1032
1034
1037
1037
1034
1033
1030
1030
1034
1034
1032
1029
1028
1028
1032
1033
1032
1030
1027
1030
1030
1032
1029
1027
1028
1026
1031
1034
1033
1029
1027
1030
1033
1038
1037
1034
1033
1032
1033
1037
1037
1035
1033
1035
1038
1039
1035
1034
1034
1035
1038
1039
1037
1035
1033
1033
1035
1038
1037
1034
1032
1031
1035
1035
1035
1032
1031
1031
1034
1035
1032
1031
1029
1031
1030
1032
1034
1030
1028
1029
1031
1035
1031
1029
1029
1029
1032
1034
1031
1030
1027
1029
1032
1032
1032
1029
1026
1028
1031
1033
1032
1030
1026
1028
1031
1030
1030
1027
1026
1027
1031
1035
1032
1031
1029
1030
1031
1032
1031
1029
1028
1030
1033
1033
1034
1030
1029
1028
1031
1036
1034
1030
1028
1031
1033
1035
1035
1032
1031
1029
1031
1035
1034
1031
1030
1033
1033
1038
1037
1032
1029
1033
1036
1037
1037
1033
1031
1034
1035
1038
1040
1038
1037
1041
1043
1042
1042
1041
1038
1042
1048
1048
1048
1044
1039
1040
1041
1044
1040
1039
1039
1039
1042
1044
1043
1042
1038
1041
1044
1045
1044
1042
1040
1035
1038
1039
1039
1034
1032
1033
1034
1035
1032
1032
1030
1032
1034
1038
1037
1033
1031
1032
1034
1036
1034
1030
1029
1031
1032
1036
1034
1031
1029
1032
1037
1040
1038
1038
1038
1043
1050
1058
1068
1077
1088
1102
1121
1144
1172
1207
1235
1269
1303
1333
1370
1408
1446
1457
1439
1380
1283
1176
1095
1053
1034
1027
1027
1026
1029
1028
1030
1028
1025
1021
1016
1016
1016
1019
1015
1013
1013
1013
1015
1015
1014
1011
1008
