1017
1018
1016
1018
1020
1018
1016
1015
1013
1019
1020
1018
1014
1013
1012
1014
1018
1016
1013
1011
1013
1013
1016
1016
1015
1013
1016
1018
1018
1019
1016
1013
1014
1018
1021
1022
1018
1016
1018
1020
1022
1023
1019
1017
1017
1021
1024
1019
1019
1016
1017
1021
1025
1022
1019
1016
1017
1019
1021
1021
1016
1018
1018
1019
1023
1019
1017
1015
1019
1017
1021
1019
1016
1014
1013
1017
1019
1017
1017
1012
1013
1017
1017
1014
1014
1012
1013
1014
1018
1015
1013
1010
1012
1013
1015
1016
1014
1011
1012
1013
1015
1012
1011
1007
1011
1013
1015
1014
1011
1010
1009
1012
1015
1014
1008
1010
1009
1012
1014
1015
1014
1012
1012
1012
1014
1013
1010
1007
1010
1015
1017
1018
1013
1012
1010
1014
1016
1015
1014
1012
1012
1015
1017
1017
1011
1012
1013
1013
1018
1016
1012
1011
1013
1016
1019
1016
1011
1012
1011
1013
1018
1019
1013
1014
1017
1021
1026
1023
1020
1019
1021
1025
1026
1027
1025
1022
1026
1028
1028
1024
1022
1018
1020
1022
1024
1025
1024
1022
1022
1026
1028
1028
1026
1020
1023
1022
1020
1019
1015
1015
1014
1019
1020
1020
1014
1014
1013
1016
1016
1018
1017
1015
1014
1016
1015
1016
1012
1012
1012
1016
1018
1015
1013
1010
1012
1016
1017
1016
1014
1014
1015
1018
1022
1025
1025
1029
1036
1048
1059
1070
1079
1090
1116
1144
1179
1207
1232
1259
1291
1332
1377
1412
1429
1414
1361
1272
1172
1088
1036
1010
1001
1006
1010
1014
1009
1004
1004
1004
1007
1002
999
992
993
995
997
996
994
994
993
996
997
992
991
988
990
995
995
992
990
985
985
989
989
988
986
983
984
986
988
985
985
983
985
988
989
988
984
981
983
986
987
987
984
983
984
986
988
989
985
985
985
989
989
988
984
985
985
991
992
993
988
988
990
993
999
995
994
994
999
1000
1004
1004
1004
1002
1005
1011
1016
1016
1016
1017
1022
1027
1031
1032
1034
1033
1037
1042
1046
1051
1048
1048
1052
1054
1057
1053
1050
1047
1047
1045
1048
1045
1038
1036
1034
1033
1033
1031
1026
1021
1021
1022
1020
1017
1013
1012
1010
1012
1015
1014
1009
1008
1007
1007
1012
1011
1008
1005
1008
1010
1010
1009
1003
1004
1004
1007
1009
1008
1003
999
1002
1005
1005
1005
1001
999
999
1001
1001
1002
996
998
998
999
1001
1001
995
996
996
999
1003
1001
998
996
997
999
1001
1000
1001
998
1000
1003
1005
1003
1000
996
999
1002
1004
1004
1001
998
999
1000
1002
1001
998
997
998
1001
1000
998
996
994
995
997
1000
999
998
995
997
999
999
996
995
992
996
1000
999
996
992
991
993
997
999
997
993
990
992
993
996
996
995
991
992
993
996
992
991
988
990
995
995
996
993
989
991
992
993
994
989
987
989
989
993
993
989
988
987
993
993
993
990
988
988
990
995
992
990
987
990
993
994
993
989
987
992
992
995
994
993
991
990
994
996
993
992
992
991
994
994
994
992
991
992
995
999
997
994
992
992
997
999
1000
999
997
1001
1003
1005
1004
1003
1003
1006
1009
1012
1009
1008
1006
1006
1009
1009
1008
1003
999
1003
1004
1005
1006
1005
1004
1006
1009
1009
1011
1007
1004
1005
1005
1005
1001
999
995
995
999
1001
1001
997
995
998
999
1002
998
996
993
997
1001
1002
1001
997
995
1000
999
1002
1000
998
998
998
1001
1003
1002
1002
1000
1006
1005
1008
1010
1007
1011
1014
1027
1040
1047
1053
1063
1073
1094
1122
1147
1175
1203
1233
1264
1296
1335
1373
1407
1414
1393
1327
1234
1135
1060
1018
1003
998
1000
999
999
1002
1001
1003
1000
994
988
990
991
991
986
985
984
983
986
988
987
983
981
979
985
985
984
980
979
980
984
983
982
978
976
980
980
983
983
979
977
977
977
980
978
977
977
978
979
981
979
976
976
978
980
982
981
978
978
979
979
982
983
980
978
982
985
985
983
980
980
984
985
988
987
986
984
985
988
993
992
993
991
994
996
1001
1001
1000
1003
1007
1012
1017
1018
1019
1022
1026
1033
1037
1038
1039
1039
1042
1048
1050
1050
1046
1042
1042
1043
1044
1041
1034
1032
1030
1030
1028
1027
1021
1019
1018
1021
1022
1019
1015
1011
1013
1017
1017
1016
1012
1009
1011
1016
1013
1014
1014
1011
1011
1011
1015
1012
1009
1007
1011
1011
1013
1011
1007
1005
1006
1008
1013
1008
1008
1007
1007
1010
1009
1009
1007
1003
1009
1010
1013
1010
1008
1005
1007
1012
1014
1012
1011
1009
1011
1011
1014
1013
1013
1012
1012
1016
1016
1016
1013
1011
1011
1013
1016
1015
1011
1010
1009
1013
1014
1015
1013
1008
1011
1013
1012
1013
1010
1008
1011
1014
1015
1013
1009
1007
1009
1011
1010
1010
1008
1007
1008
1010
1012
1008
1008
1004
1006
1010
1008
1007
1005
1004
1006
1009
1010
1008
1006
1004
1004
1008
1011
1010
1007
1007
1007
1008
1012
1008
1007
1007
1008
1009
1010
1013
1008
1005
1008
1012
1014
1012
1009
1006
1011
1009
1012
1011
1008
1008
1009
1012
1014
1012
1007
1008
1008
1013
1014
1012
1011
1009
1010
1014
1016
1015
1011
1009
1012
1014
1015
1011
1012
1010
1013
1014
1014
1014
1012
1011
1014
1019
1019
1018
1016
1015
1018
1021
1023
1021
1021
1020
1021
1023
1027
1029
1025
1025
1026
1028
1027
1023
1018
1018
1017
1022
1024
1022
1023
1021
1023
1024
1027
1025
1021
1023
1024
1024
1023
1017
1013
1011
1017
1017
1019
1017
1015
1013
1015
1014
1018
1018
1015
1015
1015
1014
1018
1016
1012
1014
1014
1018
1017
1014
1010
1010
1014
1018
1018
1017
1015
1016
1016
1022
1022
1024
1027
1030
1039
1051
1065
1075
1082
1096
1122
1154
1186
1219
1251
1280
1312
1352
1397
1434
1451
1441
1393
1315
1218
1132
1067
1031
1015
1011
1014
1014
1013
1008
1014
1013
1011
1008
1002
998
999
999
1000
999
995
993
994
998
998
994
991
991
993
997
996
991
990
987
988
989
990
988
986
984
987
988
986
985
984
984
986
989
987
986
983
983
986
989
987
989
988
983
983
989
988
987
986
986
988
991
993
989
991
990
991
994
994
993
992
993
994
999
1001
1002
997
1000
1001
1007
1010
1014
1013
1013
1018
1022
1025
1025
1029
1031
1036
1041
1045
1047
1047
1051
1055
1060
1058
1061
1057
1058
1059
1057
1057
1055
1053
1051
1050
1049
1046
1040
1039
1034
1034
1035
1036
1031
1028
1026
1027
1029
1031
1029
1025
1022
1024
1027
1026
1024
1022
1022
1024
1025
1025
1025
1021
1021
1022
1025
1026
1024
1023
1016
1020
1022
1020
1018
1016
1017
1016
1022
1020
1019
1017
1015
1013
1016
1018
1016
1014
1016
1015
1022
1022
1020
1019
1018
1022
1021
1024
1020
1019
1018
1019
1024
1024
1022
1019
1016
1018
1020
1019
1019
1017
1015
1018
1018
1017
1014
1014
1016
1017
1019
1020
1016
1013
1011
1014
1016
1015
1016
1013
1013
1016
1017
1018
1015
1010
1011
1013
1015
1014
1013
1006
1005
1009
1012
1015
1012
1010
1007
1010
1013
1016
1012
1011
1009
1011
1012
1014
1012
1010
1009
1011
1012
1010
1010
1008
1008
1010
1012
1013
1012
1009
1006
1010
1013
1014
1015
1010
1010
1008
1012
1011
1011
1011
1010
1010
1012
1015
1010
1006
1007
1008
1013
1014
1011
1009
1008
1012
1012
1014
1013
1011
1010
1010
1014
1013
1009
1009
1008
1013
1014
1017
1013
1011
1012
1014
1018
1021
1018
1015
1019
1020
1022
1024
1024
1020
1017
1013
1019
1019
1016
1016
1015
1018
1018
1020
1017
1016
1017
1017
1020
1020
1018
1012
1006
1008
1010
1011
1009
1007
1010
1011
1013
1009
1008
1006
1006
1010
1012
1011
1008
1007
1008
1010
1015
1012
1011
1006
1007
1009
1010
1012
1012
1011
1011
1009
1014
1014
1019
1017
1024
1032
1047
1059
1066
1073
1086
1110
1141
1173
1206
1237
1269
1302
1344
1387
1423
1438
1428
1383
1301
1201
1116
1057
1023
1008
1008
1011
1008
1007
1004
1004
1004
1004
997
990
988
992
992
993
988
985
984
985
991
989
987
981
981
983
984
986
985
983
983
983
987
983
982
978
978
981
984
983
981
976
976
978
981
983
980
977
976
978
979
980
980
975
976
977
980
978
978
977
978
979
982
983
982
983
978
982
983
985
984
981
982
983
988
987
985
984
984
988
990
992
990
990
991
994
996
1000
1001
1002
1002
1008
1010
1015
1015
1014
1014
1022
1027
1031
1031
1034
1037
1042
1048
1050
1050
1047
1047
1050
1054
1051
1049
1042
1043
1044
1045
1044
1040
1035
1031
1030
1033
1033
1033
1027
1026
1028
1030
1025
1021
1018
1020
1020
1022
1023
1018
1017
1017
1019
1020
1022
1021
1020
1016
1022
1019
1020
1020
1016
1015
1018
1021
1020
1015
1012
1013
1015
1016
1019
1017
1011
1012
1014
1015
1015
1013
1011
1011
1014
1017
1016
1015
1014
1015
1015
1021
1020
1016
1018
1014
1017
1020
1021
1018
1017
1017
1018
1021
1018
1017
1014
1015
1018
1020
1021
1019
1014
1015
1014
1019
1016
1018
1013
1013
1014
1017
1017
1017
1015
1012
1016
1017
1015
1013
1010
1010
1013
1015
1015
1014
1012
1009
1013
1018
1018
1016
1010
1008
1011
1013
1014
1009
1007
1008
1013
1011
1011
1014
1008
1007
1010
1010
1012
1011
1010
1009
1012
1012
1013
1013
1011
1013
1013
1014
1012
1012
1008
1009
1013
1013
1014
1011
1010
1011
1013
1014
1017
1014
1010
1005
1008
1012
1013
1011
1009
1009
1014
1016
1014
1013
1012
1010
1010
1015
1015
1012
1010
1013
1016
1017
1016
1016
1014
1012
1014
1016
1017
1015
1012
1015
1016
1020
1022
1021
1020
1021
1025
1029
1028
1028
1025
1026
1030
1032
1027
1023
1023
1022
1024
1028
1028
1027
1026
1024
1027
1030
1030
1031
1025
1023
1020
1023
1023
1023
1020
1020
1020
1025
1023
1023
1022
1019
1021
1024
1020
1017
1016
1015
1020
1024
1021
1019
1018
1018
1021
1025
1023
1024
1023
1025
1028
1032
1039
1045
1052
1064
1076
1091
1114
1141
1175
1213
1245
1278
1306
1338
1373
1415
1452
1471
1456
1407
1319
1222
1135
1079
1042
1019
1010
1015
1020
1021
1021
1018
1017
1011
1009
1007
1005
1003
1000
1000
999
1004
1003
998
995
993
996
1000
1002
1000
997
995
995
997
996
994
992
995
995
996
995
993
994
992
994
993
993
991
989
990
994
996
997
994
994
995
991
994
994
994
990
991
993
995
996
994
993
993
993
996
993
992
989
992
995
997
999
997
997
997
1000
1002
1001
997
997
1000
1003
1003
1005
1005
1005
1008
1012
1018
1017
1018
1016
1018
1023
1027
1028
1031
1031
1034
1041
1045
1049
1052
1051
1054
1057
1063
1064
1064
1060
1061
1062
1067
1066
1063
1059
1055
1052
1052
1049
1047
1044
1043
1043
1041
1037
1035
1031
1030
1027
1029
1031
1027
1024
1025
1026
1028
1027
1022
1020
1022
1022
1025
1023
1020
1015
1019
1020
1020
1019
1020
1018
1018
1020
1021
1020
1019
1019
1019
1018
1017
1016
1013
1015
1014
1017
1021
1018
1016
1013
1013
1014
1018
1019
1017
1016
1015
1019
1021
1020
1017
1012
1014
1020
1020
1023
1018
1014
1015
1017
1022
1023
1022
1020
1020
1021
1018
1020
1018
1018
1020
1019
1024
1024
1017
1017
1018
1019
1023
1018
1016
1014
1016
1018
1019
1020
1017
1013
1016
1020
1021
1018
1017
1014
1016
1013
1011
1011
1011
1011
1012
1014
1017
1013
1016
1013
1014
1014
1014
1017
1016
1015
1011
1017
1016
1016
1013
1012
1011
1013
1015
1014
1014
1013
1013
1014
1019
1019
1014
1012
1011
1015
1017
1017
1016
1017
1014
1018
1020
1015
1011
1011
1013
1018
1021
1020
1017
1014
1015
1018
1022
1022
1019
1018
1014
1015
1016
1020
1019
1020
1018
1022
1023
1025
1024
1017
1015
1019
1022
1022
1022
1021
1022
1024
1024
1022
1018
1018
1019
1024
1028
1029
1029
1027
1027
1031
1033
1033
1027
1030
1027
1032
1033
1031
1029
1025
1030
1030
1030
1029
1025
1027
1027
1029
1034
1033
1030
1028
1026
1027
1030
1032
1026
1022
1020
1020
1021
1018
1017
1014
1017
1024
1024
1022
1018
1017
1016
1020
1023
1023
1021
1018
1016
1019
1022
1021
1019
1015
1018
1019
1021
1020
1020
1019
1016
1018
1023
1023
1022
1021
1024
1031
1036
1041
1045
1051
1063
1076
1088
1100
1120
1146
1177
1213
1246
1272
1298
1323
1357
1400
1434
1451
1441
1401
1325
1232
1149
1091
1052
1030
1022
1021
1022
1021
1013
1007
1005
1008
1007
1005
1003
998
998
998
1001
1001
999
995
994
997
996
995
991
993
992
994
996
993
990
989
989
990
992
993
991
989
989
990
992
989
988
985
984
987
989
989
987
983
985
988
988
988
986
984
988
990
992
989
987
983
985
988
994
991
985
984
986
991
995
993
992
987
989
993
997
996
994
997
997
1001
1004
1004
1005
1005
1008
1013
1018
1018
1018
1018
1021
1023
1032
1036
1038
1043
1045
1048
1052
1052
1050
1052
1058
1059
1063
1061
1057
1054
1051
1051
1051
1051
1048
1043
1041
1042
1042
1037
1032
1029
1030
1030
1033
1028
1023
1020
1021
1021
1021
1018
1016
1014
1015
1016
1019
1017
1016
1012
1013
1014
1015
1016
1014
1013
1014
1015
1016
1015
1011
1010
1012
1012
1013
1010
1009
1010
1007
1009
1010
1007
1007
1005
1005
1008
1008
1006
1004
1002
1004
1007
1011
1009
1006
1004
1004
1009
1014
1008
1003
1001
1000
1004
1009
1008
1006
1004
1005
1006
1008
1009
1005
1005
1004
1008
1008
1008
1006
1005
1005
1010
1013
1013
1005
1000
1001
1004
1005
1005
1004
1003
1004
1006
1010
1009
1006
1001
1002
1002
1004
1002
1003
1001
1000
1003
1004
1002
997
998
997
1002
1003
1003
1001
998
1000
1003
1000
999
998
995
994
997
999
998
998
996
997
1002
1005
1004
1000
998
999
1004
1005
1005
1001
997
999
1001
1004
1005
1001
998
998
1001
1005
1004
1005
1004
1004
1004
1005
1003
998
998
1001
1002
1001
1002
999
999
1003
1006
1008
1007
1003
1000
1002
1005
1010
1009
1005
1000
1000
1002
1009
1007
1005
1001
1004
1006
1008
1009
1005
999
1001
1007
1011
1011
1005
1008
1009
1011
1014
1017
1014
1016
1019
1021
1023
1019
1016
1013
1012
1016
1016
1016
1011
1011
1015
1016
1023
1024
1021
1016
1016
1016
1021
1021
1017
1012
1007
1010
1013
1017
1014
1013
1012
1014
1013
1013
1010
1006
1007
1014
1018
1016
1013
1008
1009
1010
1012
1013
1012
1009
1009
1011
1014
1015
1014
1011
1017
1020
1022
1022
1018
1020
1026
1030
1041
1050
1058
1066
1077
1102
1132
1162
1194
1221
1253
1288
1321
1359
1404
1435
1453
1442
1404
1320
1219
1128
1066
1031
1015
1009
1007
1009
1008
1008
1007
1004
1001
993
990
992
995
995
986
984
982
984
983
984
983
982
982
980
982
983
985
981
976
981
985
984
982
976
972
977
979
982
981
977
977
980
981
978
974
978
979
982
981
979
978
978
979
980
984
981
979
975
978
983
983
981
982
987
987
989
988
987
982
982
986
990
993
995
991
989
993
996
996
997
994
991
994
999
1001
1002
997
996
998
1003
1008
1009
1008
1006
1013
1022
1025
1024
1025
1026
1033
1038
1042
1043
1044
1044
1046
1048
1053
1055
1054
1050
1047
1047
1050
1049
1049
1046
1045
1041
1041
1042
1035
1033
1027
1027
1031
1028
1025
1022
1022
1026
1029
1023
1018
1020
1022
1020
1021
1021
1018
1016
1016
1020
1021
1019
1017
1016
1021
1022
1020
1018
1011
1008
1017
1021
1025
1026
1020
1015
1015
1014
1013
1012
1011
1015
1018
1022
1022
1016
1012
1013
1018
1019
1018
1016
1014
1012
1014
1021
1025
1024
1020
1015
1018
1018
1021
1022
1019
1018
1020
1024
1026
1023
1021
1022
1027
1028
1030
1027
1020
1018
1018
1025
1030
1024
1023
1021
1022
1024
1028
1029
1026
1025
1028
1029
1029
1025
1025
1022
1022
1023
1024
1023
1023
1019
1022
1026
1027
1027
1026
1022
1019
1020
1022
1021
1020
1016
1018
1020
1025
1026
1022
1022
1021
1022
1022
1020
1018
1012
1017
1023
1025
1022
1019
1015
1017
1021
1022
1023
1022
1019
1022
1024
1023
1022
1020
1018
1021
1021
1024
1023
1019
1017
1021
1023
1023
1024
1021
1021
1022
1025
1028
1028
1025
1022
1025
1023
1027
1029
1026
1024
1026
1028
1030
1029
1029
1030
1031
1032
1034
1036
1033
1034
1037
1040
1041
1041
1040
1038
1037
1039
1043
1040
1039
1037
1037
1036
1036
1035
1030
1029
1028
1034
1036
1035
1030
1030
1031
1033
1036
1033
1031
1030
1031
1030
1030
1026
1021
1021
1021
1026
1027
1027
1027
1026
1028
1030
1031
1029
1024
1024
1027
1029
1030
1028
1025
1023
1025
1029
1033
1030
1025
1024
1026
1029
1033
1031
1031
1029
1031
1033
1036
1037
1038
1042
1046
1056
1067
1080
1086
1091
1109
1133
1162
1191
1215
1238
1270
1301
1332
1368
1405
1434
1444
1427
1373
1289
1196
1123
1074
1043
1027
1020
1019
1022
1022
1023
1019
1019
1014
1008
1008
1010
1009
1007
1004
1002
1000
1003
1005
1001
999
998
1000
998
999
1000
996
997
998
1001
1001
999
994
990
993
994
995
994
990
989
990
992
992
993
987
987
988
989
993
992
986
987
988
991
993
993
990
991
991
995
998
995
991
993
990
993
997
997
994
992
994
996
999
998
997
996
999
1002
1006
1006
1003
1004
1006
1010
1014
1014
1013
1015
1020
1025
1027
1028
1030
1031
1036
1043
1047
1050
1051
1051
1055
1060
1064
1065
1060
1059
1061
1061
1059
1056
1053
1050
1051
1052
1049
1043
1037
1033
1033
1037
1036
1030
1022
1021
1022
1024
1024
1022
1019
1017
1016
1020
1021
1017
1015
1013
1017
1016
1019
1018
1014
1015
1018
1019
1019
1018
1012
1010
1010
1011
1014
1015
1011
1009
1007
1012
1011
1009
1009
1004
1009
1013
1012
1011
1006
1005
1006
1009
1010
1008
1007
1005
1009
1011
1011
1007
1006
1005
1008
1010
1013
1011
1008
1008
1008
1010
1012
1009
1005
1004
1006
1009
1012
1011
1008
1006
1005
1005
1005
1005
1003
1002
1003
1006
1006
1006
1002
999
1002
1000
1007
1007
1003
998
1001
1002
1004
1001
999
998
998
1000
1002
999
999
1001
1001
1002
1005
1003
999
997
997
999
1001
1001
996
998
996
999
1000
997
996
998
998
1000
999
996
996
994
998
1001
1003
1001
995
996
995
998
997
998
996
994
995
997
997
997
993
992
996
999
999
994
993
990
994
999
1000
996
992
989
993
995
996
996
996
991
997
996
995
996
993
993
993
997
999
997
996
996
999
1002
1002
1004
1003
1002
1003
1006
1007
1006
1006
1007
1011
1014
1015
1009
1002
998
999
1005
1007
1008
1006
1005
1008
1011
1014
1013
1010
1009
1011
1012
1010
1007
1004
1000
1003
1006
1008
1004
999
998
999
1004
1007
1002
1001
1000
1004
1004
1006
1008
1006
1004
1003
1004
1006
1004
1006
1004
1005
1006
1006
1007
1007
1009
1018
1028
1039
1048
1059
1065
1081
1106
1135
1171
1207
1243
1279
1314
1350
1390
1430
1457
1452
1413
1332
1228
1135
1072
1030
1013
1007
1006
1003
998
1001
997
994
988
983
980
980
980
980
979
974
971
974
973
977
975
974
972
973
974
971
970
971
968
968
968
972
967
965
966
967
969
968
965
961
962
966
968
970
965
962
961
965
968
968
968
962
958
958
957
963
965
964
961
962
963
968
965
965
965
966
967
970
968
967
967
970
975
977
977
974
973
975
982
986
988
989
990
994
1000
1003
1004
1007
1012
1023
1028
1033
1034
1028
1031
1035
1039
1042
1042
1039
1035
1031
1031
1031
1026
1023
1018
1018
1018
1017
1014
1010
1008
1009
1008
1007
1004
1000
998
1000
1003
1001
998
996
997
997
996
995
995
996
1000
1003
1006
1005
999
995
996
994
996
995
994
991
991
994
994
995
995
991
988
989
991
990
989
987
990
990
996
997
998
994
996
995
999
997
1001
997
998
997
996
994
994
994
