1038
1046
1047
1046
1046
1052
1055
1060
1062
1059
1057
1059
1064
1066
1064
1059
1053
1053
1054
1055
1054
1047
1044
1040
1042
1043
1039
1031
1030
1026
1031
1032
1030
1026
1022
1025
1025
1025
1024
1022
1020
1021
1024
1026
1022
1021
1018
1019
1022
1023
1022
1023
1018
1019
1019
1021
1018
1018
1013
1017
1017
1019
1015
1011
1011
1010
1012
1017
1013
1011
1009
1009
1010
1013
1012
1011
1008
1010
1011
1014
1012
1010
1008
1010
1012
1013
1011
1013
1011
1013
1015
1014
1014
1013
1010
1014
1017
1020
1019
1015
1013
1015
1016
1020
1014
1014
1012
1014
1016
1018
1018
1014
1011
1012
1015
1014
1014
1010
1009
1011
1015
1015
1015
1012
1012
1013
1016
1015
1015
1013
1008
1011
1013
1017
1014
1011
1007
1009
1012
1014
1013
1012
1010
1012
1015
1016
1015
1012
1009
1010
1012
1014
1012
1010
1008
1009
1011
1012
1012
1012
1010
1009
1011
1014
1012
1010
1005
1009
1010
1016
1012
1011
1007
1008
1013
1015
1015
1012
1009
1009
1013
1012
1015
1011
1009
1012
1012
1018
1016
1012
1009
1010
1013
1015
1013
1010
1014
1013
1015
1014
1014
1011
1010
1010
1015
1013
1014
1012
1010
1011
1013
1018
1016
1016
1015
1017
1020
1021
1021
1022
1022
1023
1024
1028
1029
1027
1024
1026
1029
1028
1028
1025
1022
1021
1021
1021
1021
1022
1017
1022
1023
1028
1026
1023
1023
1023
1026
1029
1024
1022
1016
1013
1017
1019
1016
1015
1014
1014
1019
1020
1016
1014
1012
1012
1018
1018
1018
1016
1013
1015
1017
1019
1019
1016
1010
1013
1014
1018
1015
1015
1015
1017
1018
1020
1020
1018
1018
1023
1025
1032
1038
1044
1054
1068
1080
1091
1102
1125
1151
1180
1215
1248
1276
1301
1334
1374
1416
1443
1440
1405
1336
1247
1160
1094
1050
1024
1011
1011
1017
1023
1018
1015
1012
1009
1007
1006
1004
999
999
997
997
1000
997
995
990
991
994
998
994
992
989
990
993
997
993
991
990
991
992
995
994
988
986
989
992
992
990
986
984
986
988
990
990
988
986
986
990
989
990
989
986
986
986
990
985
984
982
984
988
989
989
986
984
986
990
992
993
988
988
989
990
992
995
993
993
997
997
1001
1000
1001
998
1002
1009
1014
1013
1015
1016
1017
1022
1028
1032
1030
1033
1038
1043
1048
1050
1051
1050
1054
1059
1061
1059
1053
1051
1051
1054
1056
1053
1046
1045
1040
1043
1044
1039
1034
1031
1032
1031
1032
1031
1028
1024
1028
1030
1028
1028
1026
1023
1022
1024
1026
1024
1022
1018
1022
1024
1024
1023
1018
1016
1018
1021
1021
1018
1015
1014
1015
1018
1019
1018
1015
1011
1014
1016
1016
1014
1009
1010
1011
1013
1013
1013
1011
1009
1011
1011
1015
1013
1011
1009
1011
1014
1014
1012
1013
1012
1014
1016
1016
1016
1013
1010
1013
1016
1020
1018
1011
1012
1014
1018
1016
1012
1010
1010
1012
1015
1018
1014
1010
1008
1009
1014
1016
1015
1009
1009
1011
1013
1016
1013
1010
1006
1011
1013
1016
1012
1011
1009
1008
1013
1011
1010
1007
1007
1008
1013
1013
1012
1007
1008
1008
1012
1013
1015
1007
1007
1009
1013
1011
1010
1008
1007
1010
1012
1011
1010
1008
1005
1008
1010
1011
1013
1008
1006
1008
1011
1013
1011
1008
1007
1007
1011
1011
1012
1009
1006
1008
1012
1014
1011
1008
1005
1007
1010
1016
1012
1010
1005
1009
1012
1014
1012
1012
1007
1009
1012
1013
1010
1009
1008
1010
1014
1015
1012
1008
1007
1011
1015
1016
1017
1014
1016
1016
1020
1022
1023
1019
1021
1021
1025
1027
1027
1023
1020
1021
1022
1023
1019
1017
1016
1017
1020
1021
1020
1018
1020
1024
1023
1024
1021
1018
1018
1015
1015
1016
1013
1009
1010
1014
1013
1014
1015
1008
1010
1011
1016
1016
1014
1013
1008
1012
1010
1015
1011
1008
1009
1013
1015
1014
1015
1011
1010
1011
1017
1017
1020
1017
1019
1022
1032
1041
1052
1063
1073
1087
1112
1140
1171
1206
1240
1275
1311
1350
1396
1432
1458
1452
1409
1329
1221
1126
1061
1025
1010
1012
1014
1013
1011
1010
1012
1009
1003
997
994
994
993
997
994
990
989
989
991
992
992
989
983
987
989
991
989
986
984
985
988
988
986
982
981
984
987
986
987
981
980
981
984
986
984
980
978
981
983
984
984
981
980
981
983
986
984
983
985
985
988
992
988
985
988
986
993
992
993
991
993
995
1001
1002
1002
1002
1003
1008
1011
1018
1020
1021
1021
1025
1030
1035
1039
1038
1042
1047
1051
1055
1058
1056
1058
1061
1065
1065
1067
1061
1060
1057
1060
1057
1054
1050
1047
1048
1044
1043
1041
1034
1033
1033
1035
1033
1030
1025
1024
1024
1025
1027
1025
1021
1023
1023
1026
1024
1021
1019
1018
1019
1021
1024
1023
1018
1020
1018
1020
1023
1022
1018
1016
1017
1018
1020
1017
1013
1014
1014
1017
1019
1015
1013
1012
1014
1016
1018
1013
1012
1012
1011
1014
1013
1013
1013
1011
1014
1013
1016
1013
1012
1013
1015
1018
1020
1019
1016
1015
1016
1020
1021
1022
1016
1018
1016
1020
1019
1020
1016
1016
1017
1018
1023
1017
1013
1017
1019
1020
1024
1020
1018
1017
1017
1020
1022
1020
1020
1018
1019
1020
1020
1017
1016
1015
1015
1019
1021
1020
1016
1015
1016
1020
1022
1020
1015
1015
1016
1017
1017
1017
1013
1014
1015
1018
1019
1017
1014
1013
1015
1019
1018
1018
1015
1015
1014
1017
1018
1018
1014
1015
1016
1017
1019
1018
1017
1016
1016
1020
1021
1019
1014
1014
1015
1018
1022
1022
1018
1017
1018
1020
1021
1019
1016
1017
1017
1019
1022
1020
1017
1016
1017
1022
1023
1022
1021
1018
1020
1022
1024
1023
1024
1024
1027
1031
1032
1030
1029
1028
1031
1036
1039
1036
1035
1032
1035
1038
1038
1033
1031
1029
1030
1031
1030
1028
1027
1027
1029
1031
1034
1032
1030
1028
1032
1033
1030
1026
1022
1019
1021
1024
1027
1024
1019
1018
1022
1023
1025
1026
1020
1020
1022
1024
1024
1023
1020
1021
1019
1025
1023
1023
1022
1019
1021
1025
1025
1023
1021
1023
1025
1029
1032
1032
1029
1030
1038
1048
1059
1071
1079
1088
1103
1123
1147
1175
1204
1228
1258
1286
1315
1351
1389
1420
1431
1416
1370
1288
1189
1105
1055
1032
1021
1019
1020
1017
1023
1024
1024
1022
1017
1012
1011
1013
1014
1009
1008
1005
1006
1009
1010
1008
1010
1004
1007
1008
1010
1008
1004
1005
1007
1008
1007
1007
1004
1000
1003
1006
1008
1002
1001
997
999
1004
1005
1005
1000
999
1001
1003
1006
1002
1004
999
1000
1001
1003
999
1001
1000
1001
1005
1004
1004
1003
1003
1005
1006
1006
1007
1004
1003
1007
1010
1013
1013
1010
1013
1017
1021
1022
1026
1026
1026
1031
1036
1039
1042
1040
1044
1050
1056
1063
1063
1065
1065
1070
1073
1075
1077
1074
1072
1070
1072
1073
1070
1066
1062
1061
1062
1059
1056
1053
1053
1050
1052
1048
1044
1041
1041
1043
1042
1042
1042
1039
1037
1040
1041
1041
1039
1037
1036
1037
1039
1042
1037
1035
1034
1034
1040
1040
1035
1034
1033
1033
1033
1034
1034
1033
1030
1031
1032
1031
1030
1030
1026
1030
1032
1031
1029
1027
1027
1029
1036
1035
1031
1028
1029
1033
1035
1036
1034
1030
1030
1033
1036
1038
1036
1032
1031
1035
1035
1036
1034
1031
1029
1032
1034
1037
1034
1029
1032
1031
1034
1035
1031
1032
1032
1034
1035
1035
1033
1030
1028
1030
1035
1036
1034
1031
1031
1032
1036
1037
1032
1030
1030
1033
1032
1032
1032
1029
1028
1030
1034
1031
1031
1029
1029
1031
1032
1034
1033
1029
1027
1031
1031
1034
1031
1032
1028
1030
1035
1033
1029
1027
1028
1028
1032
1032
1030
1028
1028
1029
1034
1033
1030
1030
1029
1031
1033
1033
1030
1028
1030
1031
1035
1035
1030
1028
1028
1030
1031
1034
1034
1030
1030
1030
1033
1036
1031
1032
1029
1034
1035
1038
1035
1031
1031
1035
1036
1040
1041
1039
1038
1041
1043
1043
1046
1045
1043
1046
1049
1049
1046
1043
1041
1041
1042
1045
1045
1041
1039
1043
1046
1046
1046
1044
1043
1045
1048
1047
1043
1038
1038
1039
1040
1041
1037
1036
1036
1039
1040
1041
1040
1038
1034
1038
1041
1043
1039
1037
1037
1039
1041
1042
1043
1037
1038
1041
1042
1046
1043
1039
1042
1046
1049
1052
1052
1053
1055
1065
1075
1090
1098
1110
1122
1147
1180
1213
1242
1271
1301
1338
1383
1426
1455
1454
1427
1367
1280
1191
1121
1073
1046
1035
1036
1043
1041
1040
1037
1040
1038
1035
1030
1026
1024
1027
1027
1025
1023
1018
1020
1022
1022
1026
1020
1017
1017
1017
1021
1021
1020
1016
1016
1017
1019
1019
1016
1010
1011
1013
1015
1016
1013
1012
1012
1012
1012
1013
1010
1011
1010
1011
1011
1012
1011
1009
1011
1011
1015
1016
1013
1011
1009
1009
1014
1015
1014
1012
1015
1013
1016
1016
1017
1014
1014
1018
1021
1021
1020
1016
1019
1022
1025
1025
1026
1026
1027
1032
1034
1035
1038
1039
1041
1045
1046
1051
1053
1051
1054
1062
1068
1072
1072
1072
1074
1080
1083
1084
1085
1081
1081
1081
1081
1080
1077
1074
1071
1071
1072
1073
1067
1062
1057
1056
1058
1061
1055
1052
1049
1051
1051
1050
1050
1045
1047
1050
1050
1048
1047
1044
1043
1047
1048
1048
1046
1044
1042
1046
1045
1045
1043
1041
1040
1043
1043
1045
1043
1038
1039
1037
1043
1044
1041
1039
1037
1038
1041
1043
1041
1037
1037
1039
1041
1041
1041
1038
1039
1040
1045
1043
1042
1039
1039
1042
1044
1044
1044
1042
1040
1040
1043
1042
1044
1042
1042
1044
1045
1047
1043
1039
1040
1041
1046
1045
1043
1040
1039
1039
1044
1042
1042
1039
1037
1040
1040
1041
1040
1038
1036
1038
1043
1040
1037
1036
1034
1037
1038
1038
1037
1033
1033
1036
1036
1040
1038
1032
1033
1035
1037
1038
1036
1032
1034
1035
1038
1038
1035
1032
1031
1034
1037
1038
1038
1033
1033
1036
1038
1038
1036
1032
1035
1035
1037
1038
1035
1033
1034
1036
1035
1037
1034
1035
1031
1036
1038
1038
1035
1034
1035
1037
1038
1037
1036
1035
1034
1035
1039
1037
1034
1032
1033
1034
1038
1039
1038
1036
1040
1040
1046
1045
1043
1042
1043
1043
1047
1049
1046
1042
1040
1040
1041
1043
1042
1040
1040
1042
1046
1047
1046
1043
1043
1041
1041
1037
1036
1032
1032
1036
1038
1038
1036
1031
1034
1034
1038
1039
1034
1032
1033
1034
1034
1037
1033
1032
1032
1037
1035
1036
1035
1031
1032
1035
1037
1038
1034
1031
1032
1036
1039
1044
1046
1048
1053
1065
1078
1088
1098
1109
1127
1157
1194
1224
1256
1284
1317
1353
1399
1435
1458
1457
1426
1363
1280
1193
1120
1068
1040
1030
1028
1032
1030
1028
1026
1027
1026
1024
1019
1015
1011
1012
1013
1013
1011
1006
1006
1009
1010
1012
1009
1006
1007
1007
1010
1011
1007
1004
1003
1007
1008
1009
1008
1005
1002
1006
1005
1005
1002
998
997
1000
1005
1004
1001
997
997
1001
1001
1002
1000
997
998
999
1002
1002
1000
998
998
1001
1002
1004
1002
999
1000
1004
1005
1007
1007
1005
1003
1005
1008
1007
1006
1005
1005
1007
1011
1010
1012
1009
1011
1015
1019
1020
1021
1021
1021
1027
1031
1031
1033
1031
1037
1041
1046
1049
1051
1050
1054
1057
1064
1065
1069
1067
1067
1071
1075
1074
1071
1069
1069
1070
1067
1068
1063
1059
1055
1053
1057
1053
1048
1046
1044
1042
1044
1045
1042
1036
1036
1036
1040
1037
1036
1033
1035
1036
1038
1037
1035
1031
1029
1032
1032
1034
1031
1030
1028
1030
1033
1033
1031
1028
1026
1029
1029
1031
1028
1025
1025
1026
1029
1025
1025
1023
1022
1024
1026
1027
1024
1024
1022
1023
1027
1026
1027
1026
1026
1028
1031
1030
1028
1026
1026
1030
1035
1033
1031
1029
1026
1029
1032
1034
1031
1027
1029
1032
1032
1033
1029
1028
1028
1030
1032
1032
1031
1027
1028
1030
1033
1031
1031
1028
1029
1028
1030
1030
1029
1026
1024
1028
1029
1030
1027
1023
1026
1025
1030
1027
1025
1022
1024
1025
1026
1027
1025
1022
1022
1025
1026
1026
1024
1021
1023
1026
1027
1026
1023
1022
1021
1023
1027
1026
1023
1020
1023
1024
1026
1027
1024
1023
1022
1025
1025
1027
1024
1020
1021
1024
1028
1028
1022
1020
1022
1023
1025
1025
1022
1020
1021
1023
1024
1024
1023
1021
1023
1026
1025
1026
1024
1022
1020
1023
1026
1027
1028
1024
1024
1029
1029
1028
1027
1023
1024
1030
1031
1033
1031
1028
1029
1033
1038
1035
1034
1033
1034
1036
1039
1040
1041
1036
1037
1037
1041
1039
1035
1030
1032
1035
1036
1035
1034
1030
1033
1034
1035
1035
1037
1032
1033
1035
1036
1034
1030
1023
1025
1027
1029
1029
1027
1028
1024
1027
1029
1028
1026
1022
1023
1026
1026
1028
1025
1022
1024
1023
1031
1029
1028
1024
1027
1026
1029
1028
1028
1028
1025
1027
1030
1031
1030
1030
1032
1038
1041
1047
1050
1053
1058
1073
1086
1094
1102
1119
1143
1173
1201
1229
1255
1277
1309
1351
1393
1419
1415
1382
1315
1225
1138
1074
1039
1019
1012
1016
1023
1023
1023
1021
1021
1023
1025
1020
1016
1012
1010
1011
1014
1013
1012
1009
1009
1010
1012
1013
1011
1007
1007
1010
1012
1016
1012
1009
1006
1012
1010
1011
1009
1006
1005
1008
1010
1009
1007
1005
1004
1007
1008
1007
1004
1002
1003
1004
1009
1008
1007
1003
1005
1004
1008
1005
1007
1003
1004
1007
1008
1008
1007
1003
1004
1007
1009
1010
1009
1007
1007
1009
1010
1010
1010
1010
1013
1014
1014
1014
1015
1013
1013
1018
1023
1025
1025
1023
1027
1029
1033
1039
1037
1039
1038
1045
1052
1053
1051
1055
1056
1060
1064
1067
1066
1066
1068
1069
1073
1074
1072
1069
1067
1068
1068
1064
1062
1054
1055
1057
1058
1054
1049
1046
1043
1043
1046
1042
1040
1036
1035
1036
1040
1041
1035
1033
1031
1034
1037
1035
1033
1029
1030
1031
1034
1034
1030
1028
1030
1031
1031
1031
1030
1025
1024
1029
1031
1029
1025
1026
1025
1028
1029
1028
1025
1023
1022
1023
1026
1026
1022
1020
1022
1021
1026
1025
1025
1022
1021
1025
1028
1027
1026
1022
1023
1025
1026
1027
1025
1021
1024
1025
1028
1027
1024
1023
1024
1024
1028
1029
1026
1023
1022
1027
1030
1028
1024
1019
1021
1024
1029
1026
1025
1021
1022
1024
1022
1024
1021
1021
1022
1022
1024
1023
1021
1019
1018
1019
1024
1021
1018
1018
1017
1020
1022
1021
1019
1016
1016
1019
1021
1022
1017
1016
1017
1018
1020
1020
1017
1017
1016
1019
1018
1018
1016
1015
1016
1019
1021
1020
1018
1015
1014
1017
1018
1020
1018
1016
1017
1019
1022
1022
1019
1016
1018
1020
1022
1021
1023
1018
1018
1020
1021
1022
1024
1021
1020
1020
1023
1020
1020
1016
1019
1020
1026
1021
1022
1017
1018
1020
1024
1024
1022
1019
1019
1022
1024
1024
1023
1020
1021
1024
1025
1024
1022
1020
1021
1024
1030
1029
1026
1026
1027
1031
1034
1034
1032
1031
1035
1037
1037
1037
1036
1036
1036
1035
1034
1035
1031
1030
1029
1034
1036
1036
1034
1034
1034
1037
1040
1038
1037
1033
1032
1033
1032
1029
1024
1025
1026
1027
1032
1031
1031
1026
1023
1030
1029
1030
1029
1025
1026
1032
1030
1030
1025
1023
1026
1029
1029
1031
1028
1024
1024
1028
1030
1031
1030
1028
1026
1031
1033
1035
1036
1037
1041
1046
1060
1069
1074
1083
1092
1113
1139
1166
1198
1225
1257
1288
1323
1360
1399
1428
1442
1435
1398
1326
1229
1142
1078
1041
1024
1015
1016
1019
1024
1022
1025
1023
1020
1014
1012
1012
1012
1009
1006
1001
1003
1009
1009
1009
1007
1005
1004
1004
1008
1008
1006
1002
1002
1005
1005
1006
1001
998
1001
999
1002
1000
1000
998
997
998
999
997
999
996
992
997
998
999
997
993
996
1000
1001
1002
998
995
997
996
1001
1003
998
998
1001
999
1001
1001
1002
1000
1001
1003
1005
1007
1003
1002
1002
1005
1007
1012
1009
1007
1010
1012
1015
1017
1016
1016
1019
1023
1028
1030
1029
1029
1031
1038
1043
1045
1047
1047
1050
1056
1059
1062
1062
1061
1066
1067
1072
1071
1068
1063
1064
1065
1066
1062
1059
1053
1051
1052
1054
1051
1046
1041
1043
1043
1044
1040
1039
1037
1035
1039
1039
1039
1036
1033
1030
1032
1036
1035
1033
1032
1029
1032
1035
1032
1029
1028
1028
1030
1031
1030
1027
1026
1026
1028
1032
1030
1026
1023
1024
1026
1030
1027
1025
1024
1023
1027
1028
1029
1026
1025
1026
1029
1030
1031
1028
1026
1027
1032
1031
1034
1030
1027
1029
1032
1035
1033
1030
1028
1026
1029
1033
1034
1031
1027
1026
1030
1033
1030
1027
1026
1026
1029
1032
1031
1026
1024
1022
1025
1028
1028
1025
1024
1023
1023
1028
1024
1021
1020
1021
1022
1023
1022
1019
1018
1020
1020
1026
1024
1021
1020
1018
1023
1024
1023
1022
1017
1020
1024
1022
1020
1020
1018
1017
1019
1022
1021
1017
1017
1019
1020
1023
1022
1019
1017
1018
1022
1024
1024
1020
1019
1018
1019
1021
1019
1018
1019
1019
1021
1022
1023
1021
1019
1018
1020
1024
1023
1021
1017
1018
1020
1024
1022
1021
1019
1020
1021
1025
1024
1022
1017
1020
1021
1024
1025
1022
1019
1020
1024
1028
1030
1027
1023
1027
1031
1033
1033
1033
1031
1032
1036
1038
1034
1033
1028
1027
1025
1031
1028
1027
1026
1025
1028
1034
1033
1029
1027
1030
1031
1031
1029
1027
1024
1022
1023
1023
1026
1023
1020
1022
1021
1023
1022
1021
1021
1021
1023
1026
1023
1022
1019
1018
1022
1024
1024
1021
1020
1019
1023
1027
1025
1021
1020
1021
1022
1024
1023
1023
1022
1025
1029
1035
1038
1043
1048
1058
1075
1087
1097
1112
1133
1162
1194
1227
1254
1283
1309
1344
1387
1422
1445
1434
1386
1307
1210
1125
1064
1029
1012
1007
1014
1021
1021
1019
1014
1013
1012
1011
1008
1004
1002
1001
1003
1004
1000
1001
999
999
999
1002
1001
996
995
996
999
1001
1000
998
996
993
998
1000
997
995
993
994
1000
999
997
994
994
993
995
999
997
994
992
992
994
998
996
994
994
992
995
997
997
995
994
994
999
1001
1001
998
998
998
999
1001
1003
1001
1001
999
1003
1008
1006
1004
1004
1007
1012
1014
1015
1015
1014
1017
1025
1026
1029
1028
1029
1033
1038
1043
1046
1047
1047
1051
1057
1059
1062
1062
1061
1064
1065
1068
1068
1064
1059
1058
1057
1060
1058
1052
1048
1046
1044
1046
1044
1040
1037
1036
1036
1039
1036
1031
1030
1031
1033
1034
1034
1032
1030
1028
1031
1032
1032
1029
1026
1028
1030
1029
1029
1028
1024
1025
1026
1027
1028
1024
1023
1024
1027
1030
1027
1022
1023
1023
1023
1025
1025
1022
1022
1024
1027
1027
1027
1023
1022
1024
1029
1030
1031
1027
1024
1026
1027
1032
1031
1028
1026
1025
1030
1032
1031
1029
1026
1026
1029
1034
1030
1029
1026
1025
1026
1032
1029
1026
1027
1026
1028
1028
1027
1026
1024
1024
1028
1029
1030
1026
1025
1026
1030
1030
1029
1025
1023
1023
1025
1029
1029
1026
1024
1025
1027
1028
1028
1026
1021
1023
1027
1029
1029
1024
1022
1024
1025
1028
1029
1026
1022
1022
1024
1026
1027
1021
1021
1021
1024
1027
1026
1021
1021
1021
1026
1028
1026
1024
1022
1025
1025
1026
1028
1023
1025
1027
1025
1030
1028
1026
1023
1023
1026
1031
1028
1024
1022
1025
1026
1030
1027
1025
1022
1024
1024
1029
1028
1026
1022
1025
1025
1027
1026
1025
1023
1023
1025
1030
1030
1026
1024
1026
1027
1029
1031
1029
1026
1028
1031
1035
1035
1034
1031
1034
1036
1039
1041
1038
1035
1038
1041
1042
1038
1036
1031
1029
1032
1037
1035
1035
1033
1032
1035
1038
1039
1033
1036
1038
1039
1037
1034
1028
1024
1027
1029
1030
1031
1029
1026
1024
1027
1030
1029
1025
1024
1024
1027
1025
1027
1026
1023
1026
1026
1025
1026
1023
1024
1023
1027
1030
1029
1027
1025
1026
1030
1033
1035
1039
1043
1050
1064
1077
1086
1098
1118
1145
1181
1214
1245
1273
1305
1346
1389
1424
1431
1402
1335
1244
1155
1084
1042
1017
1010
1011
1019
1024
1023
1019
1016
1014
1015
1014
1008
1005
1003
1005
1007
1006
1008
1004
1002
1002
1003
1007
1005
1003
1000
1000
1003
1001
1001
998
999
997
1001
1002
1001
996
995
994
999
1000
998
997
996
995
998
998
1000
997
998
994
999
1000
999
996
994
999
999
1001
999
1000
997
998
1001
1003
1003
1001
999
1001
1002
1005
1005
1004
1002
1004
1007
1008
1010
1008
1008
1010
1016
1020
1019
1018
1018
1021
1025
1031
1031
1032
1034
1036
1042
