1035
1033
1032
1031
1031
1035
1035
1035
1035
1032
1032
1035
1041
1042
1042
1038
1038
1042
1046
1047
1046
1044
1043
1042
1046
1045
1044
1040
1038
1039
1041
1042
1038
1039
1040
1041
1047
1046
1044
1041
1041
1039
1039
1038
1035
1033
1031
1033
1037
1034
1033
1032
1031
1033
1035
1036
1034
1029
1032
1031
1034
1034
1034
1032
1029
1031
1033
1035
1036
1034
1032
1035
1037
1038
1038
1037
1040
1044
1053
1058
1066
1078
1088
1099
1119
1142
1171
1200
1232
1268
1304
1337
1376
1417
1456
1475
1464
1410
1318
1214
1133
1083
1054
1039
1035
1035
1034
1033
1035
1033
1026
1017
1012
1012
1014
1014
1013
1008
1010
1010
1009
1011
1008
1006
1004
1006
1008
1007
1005
1001
998
1003
1005
1004
1002
998
998
996
999
1000
999
996
996
999
1000
999
998
996
995
997
999
1001
997
997
993
996
998
1001
1000
997
996
998
1002
1002
1000
1000
997
1000
1002
1003
1004
1002
1001
1003
1006
1007
1008
1004
1005
1013
1014
1016
1016
1016
1020
1023
1031
1032
1033
1033
1036
1040
1044
1050
1052
1052
1057
1060
1064
1068
1069
1066
1069
1070
1071
1073
1068
1064
1066
1066
1066
1065
1062
1055
1052
1055
1054
1052
1052
1048
1044
1048
1049
1047
1044
1041
1042
1042
1047
1043
1042
1039
1039
1042
1042
1042
1041
1040
1039
1040
1044
1042
1041
1037
1036
1040
1041
1042
1040
1036
1035
1035
1041
1039
1039
1034
1033
1037
1041
1042
1041
1039
1038
1041
1041
1045
1042
1039
1039
1043
1046
1046
1044
1038
1039
1042
1045
1046
1047
1043
1040
1041
1044
1043
1042
1038
1041
1043
1044
1041
1042
1036
1039
1041
1042
1043
1040
1038
1038
1039
1040
1039
1039
1039
1035
1039
1039
1041
1039
1036
1035
1036
1039
1039
1039
1040
1038
1038
1043
1040
1039
1039
1038
1039
1039
1040
1039
1036
1036
1039
1041
1041
1038
1035
1038
1040
1044
1042
1039
1037
1037
1042
1043
1043
1041
1038
1040
1041
1044
1044
1042
1038
1037
1040
1043
1044
1041
1041
1038
1042
1044
1044
1042
1042
1042
1043
1045
1048
1045
1045
1047
1050
1053
1054
1053
1050
1052
1054
1058
1061
1057
1055
1054
1058
1055
1054
1054
1052
1052
1054
1057
1056
1053
1053
1052
1058
1061
1060
1059
1054
1053
1051
1051
1051
1050
1047
1047
1049
1051
1051
1051
1049
1047
1048
1051
1051
1050
1045
1045
1049
1050
1052
1050
1047
1047
1049
1054
1051
1048
1050
1051
1051
1052
1053
1055
1055
1057
1064
1073
1079
1087
1098
1107
1123
1145
1170
1199
1233
1269
1306
1342
1376
1416
1457
1491
1514
1513
1482
1414
1322
1229
1157
1107
1076
1058
1052
1055
1057
1056
1055
1051
1047
1043
1042
1040
1038
1033
1031
1029
1032
1034
1032
1030
1028
1027
1028
1032
1031
1030
1025
1024
1025
1031
1026
1025
1023
1024
1025
1029
1027
1025
1020
1023
1024
1027
1027
1025
1022
1021
1022
1024
1027
1025
1023
1022
1023
1024
1026
1025
1023
1022
1024
1027
1029
1026
1025
1027
1028
1031
1031
1031
1027
1025
1027
1032
1031
1031
1026
1027
1028
1034
1035
1033
1030
1032
1034
1039
1039
1038
1038
1039
1045
1050
1052
1052
1051
1054
1058
1063
1066
1068
1067
1072
1077
1081
1084
1085
1087
1091
1094
1100
1100
1101
1099
1101
1102
1105
1102
1103
1100
1099
1099
1096
1092
1089
1082
1083
1083
1084
1083
1079
1075
1072
1075
1075
1077
1074
1071
1071
1070
1072
1073
1072
1067
1067
1071
1071
1069
1068
1065
1064
1067
1070
1069
1066
1063
1064
1065
1068
1068
1066
1066
1063
1068
1065
1065
1066
1063
1065
1065
1066
1066
1061
1060
1061
1063
1066
1067
1066
1062
1062
1064
1066
1065
1066
1063
1067
1069
1070
1067
1065
1066
1065
1068
1070
1070
1071
1066
1065
1069
1070
1070
1068
1064
1063
1065
1067
1066
1063
1064
1064
1067
1068
1064
1062
1058
1060
1065
1067
1067
1064
1062
1063
1060
1065
1064
1062
1062
1062
1063
1064
1063
1060
1060
1056
1060
1061
1061
1059
1056
1057
1055
1059
1060
1055
1055
1055
1057
1061
1062
1061
1059
1057
1058
1060
1058
1056
1056
1055
1058
1060
1058
1058
1057
1057
1060
1059
1059
1057
1055
1055
1059
1063
1060
1056
1054
1054
1059
1060
1059
1056
1053
1054
1055
1056
1056
1056
1056
1056
1057
1061
1062
1057
1056
1055
1058
1062
1063
1064
1060
1059
1063
1064
1063
1064
1063
1065
1069
1071
1068
1066
1063
1066
1065
1068
1069
1065
1060
1059
1060
1065
1066
1066
1067
1069
1068
1070
1067
1066
1063
1062
1061
1061
1060
1056
1055
1054
1057
1057
1057
1058
1056
1058
1057
1060
1059
1056
1056
1056
1056
1060
1057
1054
1054
1055
1057
1059
1059
1057
1052
1052
1058
1060
1061
1059
1057
1060
1064
1069
1072
1073
1076
1087
1098
1111
1116
1126
1137
1161
1192
1221
1251
1278
1306
1336
1369
1406
1445
1472
1485
1480
1449
1392
1307
1220
1152
1107
1081
1070
1064
1060
1060
1057
1055
1056
1055
1051
1046
1040
1036
1041
1039
1037
1032
1032
1034
1037
1034
1032
1030
1030
1033
1036
1036
1032
1030
1029
1031
1036
1032
1032
1025
1027
1029
1031
1028
1026
1024
1026
1028
1030
1027
1024
1021
1021
1024
1027
1028
1025
1023
1020
1023
1026
1026
1023
1022
1021
1021
1026
1024
1022
1020
1020
1023
1025
1025
1024
1020
1022
1025
1028
1027
1026
1024
1025
1029
1031
1030
1030
1029
1029
1033
1036
1039
1037
1038
1038
1042
1046
1048
1051
1051
1053
1057
1064
1067
1067
1068
1070
1074
1081
1082
1083
1084
1087
1090
1091
1091
1089
1085
1085
1086
1085
1082
1081
1075
1074
1076
1075
1073
1070
1066
1064
1067
1068
1070
1063
1062
1060
1062
1066
1067
1063
1059
1058
1060
1064
1062
1059
1055
1056
1057
1058
1060
1056
1055
1053
1057
1057
1055
1053
1053
1054
1054
1057
1056
1052
1049
1050
1053
1055
1054
1050
1052
1052
1051
1053
1051
1051
1048
1049
1054
1055
1052
1050
1051
1051
1054
1058
1056
1053
1051
1052
1052
1056
1055
1052
1051
1053
1054
1056
1055
1052
1047
1049
1051
1054
1052
1051
1049
1046
1049
1052
1050
1047
1045
1044
1048
1049
1044
1047
1042
1044
1045
1049
1047
1044
1044
1040
1046
1048
1044
1042
1040
1043
1042
1045
1043
1044
1039
1040
1043
1045
1043
1042
1039
1039
1039
1043
1044
1039
1039
1040
1042
1043
1041
1041
1039
1040
1045
1045
1044
1042
1039
1040
1042
1045
1043
1043
1040
1038
1044
1042
1044
1039
1039
1042
1043
1045
1046
1043
1042
1042
1044
1047
1045
1043
1041
1043
1045
1045
1044
1044
1040
1041
1046
1045
1047
1043
1042
1041
1044
1046
1047
1044
1041
1044
1045
1048
1049
1044
1046
1047
1051
1054
1054
1052
1050
1051
1053
1057
1058
1056
1055
1055
1056
1058
1054
1051
1048
1048
1051
1054
1054
1052
1051
1050
1052
1055
1057
1056
1053
1052
1056
1054
1052
1048
1043
1045
1048
1051
1051
1049
1046
1043
1046
1050
1049
1049
1043
1046
1048
1048
1047
1044
1042
1045
1046
1050
1049
1046
1044
1043
1047
1049
1049
1049
1045
1046
1052
1057
1057
1059
1063
1071
1081
1095
1104
1113
1124
1148
1177
1216
1247
1278
1307
1342
1382
1427
1470
1494
1494
1461
1390
1299
1201
1128
1081
1055
1048
1048
1052
1049
1044
1041
1041
1042
1038
1029
1029
1026
1027
1028
1028
1023
1020
1022
1026
1026
1022
1021
1017
1020
1020
1024
1023
1019
1017
1017
1018
1023
1016
1018
1014
1013
1016
1020
1018
1016
1013
1015
1016
1016
1019
1015
1011
1012
1016
1019
1017
1015
1013
1016
1017
1020
1019
1017
1013
1015
1018
1021
1021
1018
1015
1018
1020
1023
1024
1019
1017
1018
1024
1026
1023
1025
1024
1027
1028
1031
1032
1032
1030
1033
1039
1042
1044
1042
1043
1048
1054
1058
1058
1059
1062
1068
1073
1078
1075
1079
1081
1085
1087
1093
1092
1091
1085
1087
1088
1092
1087
1084
1080
1079
1078
1078
1074
1072
1065
1067
1069
1066
1065
1062
1059
1060
1062
1061
1061
1058
1054
1055
1057
1057
1057
1055
1052
1053
1056
1057
1054
1053
1050
1051
1055
1055
1055
1051
1046
1049
1050
1052
1055
1051
1050
1049
1049
1053
1050
1047
1045
1048
1051
1053
1051
1048
1045
1047
1047
1053
1051
1048
1046
1050
1051
1052
1053
1053
1049
1049
1052
1055
1057
1054
1051
1052
1054
1056
1055
1052
1050
1050
1056
1054
1056
1052
1050
1052
1051
1053
1051
1051
1045
1047
1051
1052
1049
1050
1046
1047
1049
1052
1051
1047
1044
1048
1050
1051
1049
1048
1046
1046
1047
1051
1050
1047
1045
1044
1047
1050
1047
1045
1045
1044
1046
1049
1047
1045
1043
1042
1044
1046
1048
1046
1044
1043
1047
1047
1045
1043
1044
1043
1044
1049
1048
1045
1041
1044
1045
1045
1047
1044
1044
1043
1044
1049
1044
1045
1044
1043
1047
1049
1049
1046
1044
1047
1051
1058
1056
1054
1052
1056
1057
1058
1061
1061
1055
1055
1058
1064
1058
1056
1050
1053
1055
1056
1054
1051
1051
1050
1055
1055
1058
1058
1057
1057
1055
1060
1056
1049
1044
1043
1045
1047
1048
1048
1043
1045
1046
1050
1047
1045
1042
1044
1046
1049
1047
1047
1041
1043
1046
1046
1048
1044
1043
1043
1045
1047
1047
1043
1043
1045
1051
1054
1055
1055
1056
1064
1074
1087
1099
1107
1114
1134
1162
1196
1225
1254
1282
1314
1350
1390
1433
1453
1451
1419
1355
1269
1182
1116
1073
1048
1041
1042
1044
1045
1042
1042
1043
1041
1037
1031
1026
1026
1028
1032
1028
1024
1022
1025
1024
1027
1028
1023
1023
1019
1023
1023
1024
1022
1019
1018
1020
1021
1023
1018
1016
1017
1017
1018
1019
1018
1015
1015
1018
1020
1019
1015
1016
1015
1018
1021
1018
1015
1014
1012
1015
1019
1017
1016
1016
1015
1017
1022
1019
1017
1015
1020
1019
1023
1019
1017
1019
1022
1024
1028
1027
1024
1024
1025
1028
1034
1032
1032
1032
1033
1038
1045
1048
1049
1047
1049
1054
1058
1060
1063
1064
1067
1074
1077
1080
1080
1080
1083
1085
1091
1086
1085
1082
1082
1084
1085
1080
1078
1072
1072
1073
1071
1065
1062
1057
1056
1058
1062
1057
1054
1051
1049
1050
1054
1054
1051
1047
1051
1051
1050
1049
1047
1045
1045
1047
1050
1049
1046
1044
1042
1041
1043
1044
1045
1041
1039
1043
1044
1042
1040
1036
1038
1037
1042
1040
1036
1034
1034
1037
1040
1039
1036
1034
1032
1035
1040
1037
1036
1035
1038
1039
1040
1038
1032
1033
1035
1041
1043
1039
1038
1033
1034
1037
1042
1039
1037
1035
1034
1035
1038
1037
1032
1033
1033
1039
1039
1036
1032
1031
1032
1033
1037
1033
1033
1029
1027
1031
1033
1035
1031
1029
1029
1032
1034
1032
1032
1028
1028
1031
1034
1031
1028
1026
1027
1030
1033
1031
1031
1025
1027
1032
1031
1032
1028
1027
1027
1029
1026
1030
1029
1027
1026
1028
1031
1028
1027
1024
1026
1031
1032
1031
1027
1026
1029
1029
1032
1029
1027
1025
1027
1029
1031
1029
1030
1028
1028
1030
1033
1032
1030
1029
1027
1028
1032
1029
1029
1029
1028
1032
1034
1033
1032
1032
1033
1039
1041
1039
1039
1036
1038
1042
1044
1044
1041
1038
1040
1040
1041
1038
1034
1032
1035
1039
1041
1037
1037
1037
1036
1042
1046
1046
1042
1040
1037
1039
1037
1031
1030
1028
1029
1032
1033
1034
1032
1029
1030
1035
1034
1033
1033
1030
1030
1034
1033
1031
1032
1028
1030
1036
1036
1037
1031
1032
1031
1033
1037
1035
1035
1033
1038
1039
1046
1048
1049
1056
1066
1077
1091
1096
1103
1120
1146
1181
1215
1242
1273
1300
1337
1379
1423
1456
1465
1439
1374
1278
1180
1104
1057
1033
1031
1032
1039
1036
1029
1026
1024
1025
1021
1019
1014
1010
1010
1014
1011
1010
1008
1006
1009
1012
1011
1009
1008
1004
1006
1008
1008
1008
1007
1003
1002
1003
1006
1004
1003
999
1000
1002
1005
1003
1000
996
996
1002
1004
1001
998
996
997
997
1002
998
996
994
995
998
1003
999
997
997
999
1001
1003
1001
997
999
1000
1003
1009
1006
1003
1002
1001
1006
1009
1009
1008
1006
1010
1014
1016
1017
1015
1017
1021
1024
1031
1030
1032
1032
1036
1043
1047
1045
1049
1049
1054
1061
1065
1067
1061
1061
1065
1064
1068
1066
1061
1059
1059
1058
1063
1056
1049
1049
1047
1046
1048
1046
1041
1039
1037
1041
1043
1039
1038
1036
1036
1039
1039
1036
1034
1033
1033
1037
1038
1036
1032
1029
1032
1035
1036
1035
1031
1029
1030
1032
1032
1033
1033
1030
1032
1033
1033
1035
1029
1027
1028
1032
1034
1032
1031
1031
1030
1031
1034
1037
1031
1031
1033
1035
1035
1036
1035
1031
1033
1036
1039
1037
1033
1030
1030
1035
1036
1033
1033
1030
1031
1034
1038
1035
1033
1030
1031
1033
1031
1033
1027
1027
1028
1029
1033
1031
1027
1025
1025
1030
1031
1031
1029
1026
1027
1029
1032
1027
1026
1025
1026
1029
1031
1030
1027
1025
1027
1030
1032
1030
1028
1026
1030
1030
1032
1031
1029
1026
1026
1030
1030
1029
1025
1026
1029
1032
1031
1030
1025
1026
1028
1030
1034
1034
1027
1027
1029
1033
1034
1034
1029
1030
1029
1032
1033
1031
1028
1028
1030
1033
1034
1036
1031
1029
1031
1035
1034
1035
1032
1030
1030
1033
1035
1035
1033
1031
1032
1037
1038
1038
1037
1036
1039
1042
1046
1046
1040
1040
1041
1045
1048
1046
1044
1042
1041
1044
1041
1040
1038
1037
1038
1042
1045
1041
1040
1039
1040
1043
1045
1043
1040
1033
1030
1031
1034
1031
1031
1032
1031
1034
1036
1034
1032
1028
1031
1033
1036
1033
1030
1029
1031
1035
1035
1035
1031
1029
1030
1034
1036
1036
1030
1030
1034
1036
1042
1044
1047
1051
1061
1076
1090
1100
1111
1130
1164
1206
1246
1279
1313
1345
1391
1441
1477
1485
1451
1375
1277
1175
1111
1062
1034
1027
1030
1035
1036
1034
1027
1023
1020
1019
1018
1016
1011
1008
1009
1012
1013
1011
1005
1004
1006
1006
1007
1007
1006
1003
1003
1003
1007
1003
1002
1001
1002
1003
1005
1005
999
998
998
1002
1005
1002
1000
997
999
1001
1004
1002
999
999
999
1002
1004
1003
1001
1001
1003
1005
1007
1006
1002
1002
1006
1009
1008
1010
1005
1006
1008
1014
1014
1016
1018
1018
1023
1029
1034
1034
1036
1039
1044
1051
1058
1059
1061
1063
1070
1075
1076
1077
1073
1072
1070
1073
1071
1066
1062
1058
1057
1057
1057
1051
1048
1043
1040
1044
1044
1041
1041
1038
1039
1041
1044
1039
1038
1036
1038
1039
1039
1037
1036
1034
1032
1037
1037
1034
1031
1028
1031
1034
1036
1034
1031
1029
1030
1031
1033
1031
1028
1025
1027
1031
1033
1033
1028
1026
1028
1032
1036
1035
1031
1028
1029
1033
1034
1033
1033
1030
1032
1036
1037
1036
1034
1032
1035
1037
1039
1039
1035
1033
1035
1036
1040
1038
1036
1034
1034
1036
1039
1036
1033
1032
1035
1036
1036
1036
1031
1028
1031
1034
1034
1036
1033
1031
1033
1037
1034
1035
1031
1032
1033
1034
1035
1032
1031
1027
1029
1033
1034
1032
1030
1028
1031
1034
1036
1034
1030
1028
1030
1032
1033
1033
1033
1028
1031
1033
1034
1033
1028
1027
1031
1035
1034
1034
1029
1028
1030
1033
1036
1033
1029
1030
1032
1032
1033
1031
1029
1030
1034
1034
1036
1032
1031
1031
1031
1036
1035
1032
1031
1030
1029
1035
1035
1033
1032
1030
1033
1038
1041
1041
1038
1039
1037
1042
1045
1045
1043
1043
1046
1047
1048
1050
1045
1043
1040
1044
1043
1042
1040
1039
1041
1043
1044
1041
1041
1040
1045
1045
1047
1044
1042
1037
1038
1035
1036
1033
1032
1032
1033
1034
1037
1037
1031
1031
1031
1035
1040
1035
1033
1029
1031
1031
1033
1033
1032
1031
1029
1035
1035
1035
1031
1032
1034
1036
1038
1037
1037
1035
1034
1039
1044
1052
1055
1061
1075
1089
1098
1105
1120
1141
1174
1207
1233
1258
1285
1313
1351
1398
1433
1450
1440
1402
1334
1248
1165
1100
1058
1033
1022
1027
1032
1030
1030
1024
1027
1026
1026
1023
1018
1013
1013
1015
1016
1012
1012
1011
1010
1013
1013
1014
1008
1005
1007
1008
1009
1009
1005
1006
1008
1009
1007
1006
1005
1002
1006
1008
1007
1006
1000
999
1002
1006
1009
1004
1002
999
1002
1006
1005
1005
1001
999
1001
1004
1007
1006
1000
998
1000
1002
1005
1004
1002
1003
1004
1008
1010
1008
1004
1004
1006
1010
1012
1010
1008
1008
1009
1012
1012
1013
1012
1011
1015
1021
1021
1019
1018
1018
1022
1027
1030
1030
1031
1030
1033
1039
1042
1044
1045
1048
1053
1055
1063
1063
1064
1065
1068
1070
1073
1069
1065
1065
1065
1067
1067
1065
1063
1059
1058
1056
1055
1051
1045
1044
1041
1043
1043
1040
1036
1036
1039
1041
1041
1039
1036
1034
1035
1039
1039
1037
1034
1032
1033
1033
1032
1032
1030
1028
1029
1031
1031
1031
1027
1023
1027
1029
1030
1028
1025
1024
1022
1024
1026
1022
1021
1022
1023
1025
1028
1025
1023
1023
1027
1028
1028
1024
1025
1024
1024
1029
1030
1028
1027
1023
1023
1028
1027
1026
1024
1025
1027
1029
1028
1028
1024
1022
1024
1027
1027
1025
1024
1023
1022
1027
1027
1026
1025
1022
1023
1025
1026
1025
1022
1023
1023
1025
1025
1023
1021
1021
1021
1024
1024
1024
1022
1020
1021
1023
1023
1024
1019
1021
1020
1024
1024
1022
1021
1020
1021
1024
1024
1024
1022
1019
1023
1023
1025
1023
1020
1018
1022
1025
1025
1024
1023
1021
1022
1025
1026
1023
1023
1021
1023
1024
1026
1026
1023
1022
1024
1027
1028
1027
1022
1023
1024
1026
1027
1025
1022
1022
1025
1028
1027
1028
1023
1024
1025
1029
1029
1025
1024
1020
1027
1027
1025
1028
1024
1023
1025
1029
1029
1032
1030
1030
1031
1036
1034
1035
1033
1031
1035
1039
1039
1038
1034
1033
1035
1033
1034
1033
1031
1029
1030
1034
1035
1032
1032
1031
1033
1038
1037
1035
1031
1029
1029
1028
1028
1027
1023
1022
1024
1029
1026
1027
1024
1023
1025
1025
1029
1028
1022
1022
1023
1025
1025
1027
1025
1024
1024
1027
1028
1026
1025
1023
1026
1030
1028
1028
1026
1026
1028
1031
1036
1040
1040
1046
1057
1073
1082
1087
1096
1111
1139
1170
1202
1231
1259
1292
1325
1366
1412
1447
1461
1444
1390
1304
1208
1126
1074
1041
1025
1025
1026
1026
1024
1021
1022
1024
1021
1015
1008
1007
1006
1008
1008
1005
1000
1001
1003
1006
1004
1001
998
999
1005
1005
1003
1002
1000
998
999
1001
999
999
997
995
999
1002
999
997
994
993
994
997
999
994
994
992
993
994
995
994
992
992
994
996
994
995
994
994
998
999
1000
1000
996
995
997
999
1002
1006
999
1002
1003
1004
1007
1007
1005
1006
1010
1013
1013
1012
1010
1012
1016
1023
1025
1022
1024
1026
1030
1032
1040
1037
1040
1041
1047
1053
1055
1058
1055
1061
1063
1067
1071
1070
1069
1067
1069
1070
1070
1068
1063
1062
1062
1062
1060
1055
1050
1047
1049
1050
1048
1045
1042
1038
1038
1041
1041
1040
1038
1037
1034
1037
1037
1035
1031
1031
1032
1035
1037
1036
1033
1030
1033
1035
1036
1035
1029
1030
1031
1033
1034
1030
1027
1030
1029
1031
1033
1030
1028
1028
1029
1030
1031
1029
1025
1026
1029
1031
1029
1030
1030
1027
1029
1032
1033
1032
1028
1028
1031
1033
1036
1033
1030
1029
1030
1032
1033
1033
1029
1028
1031
1034
1034
1032
1028
1029
1028
1033
1035
1030
1029
1028
1031
1033
1030
1028
1026
1028
1028
1031
1032
1031
1027
1027
1032
1032
1030
1028
1029
1027
1027
1030
1029
1027
1025
1025
1029
1031
1031
1027
1023
1024
1027
1029
1029
1027
1025
1025
1028
1030
1031
1028
1026
1025
1027
1029
1030
1027
1026
1024
1027
1027
1029
1026
1026
1022
1024
1026
1028
1026
1024
1024
1027
1028
1029
1028
1026
1025
1027
1032
1031
1029
1023
1025
1026
1028
1028
1026
1025
1025
1026
1031
1030
1030
1025
1024
1027
1029
1030
1027
1025
1025
1026
1029
1029
1027
1024
1024
1027
1028
1029
1031
1025
1028
1033
1036
1036
1037
1035
1034
1036
1041
1043
1042
1039
1038
1043
1043
1042
1036
1032
1031
1034
1037
1039
1033
1035
1031
1036
1040
1042
1040
1035
1035
1036
1036
1033
1028
1026
1025
1027
1027
1030
1029
1026
1027
1027
1030
1031
1028
1026
1027
1027
1030
1033
1030
1027
1026
1027
1031
1030
1027
1027
1025
1028
1030
1031
1028
1031
1030
1037
1043
1046
1051
1055
1067
1080
1094
1103
1121
1143
1174
1211
1250
1281
1314
1344
1385
1432
1466
1475
1455
1396
1309
1212
1133
1082
1046
1025
1021
1027
1031
1032
1026
1025
1022
1017
1018
1013
1012
1011
1008
1008
1013
1010
1010
1004
1004
1007
1009
1006
1005
1004
1004
1006
1006
1006
1005
1001
1002
1002
1005
1003
1002
997
998
1001
1002
