1004
1000
997
997
998
1002
1002
998
998
992
998
1000
1001
1000
997
998
999
1002
1000
997
998
998
1001
1005
1004
1004
1000
1003
1004
1007
1009
1005
1007
1005
1008
1013
1015
1016
1015
1019
1023
1026
1029
1032
1033
1036
1044
1047
1050
1054
1058
1059
1068
1071
1075
1071
1071
1072
1073
1074
1075
1073
1067
1066
1065
1065
1064
1061
1056
1054
1054
1053
1053
1049
1044
1044
1045
1046
1046
1044
1038
1039
1040
1045
1042
1042
1043
1042
1044
1045
1043
1043
1040
1039
1041
1044
1044
1039
1037
1035
1038
1039
1039
1038
1036
1035
1035
1040
1037
1036
1033
1033
1035
1037
1035
1034
1031
1034
1034
1037
1036
1034
1034
1030
1034
1037
1035
1036
1035
1038
1040
1041
1042
1039
1036
1035
1039
1043
1044
1040
1038
1038
1039
1043
1041
1040
1038
1038
1042
1043
1041
1040
1039
1041
1041
1042
1042
1042
1038
1038
1041
1041
1043
1042
1035
1037
1039
1041
1042
1040
1038
1039
1041
1043
1043
1037
1039
1036
1041
1044
1042
1039
1036
1036
1037
1041
1042
1041
1039
1038
1038
1039
1038
1038
1036
1039
1042
1044
1045
1043
1039
1040
1043
1043
1044
1038
1039
1039
1043
1044
1042
1042
1042
1039
1042
1045
1045
1039
1038
1040
1045
1046
1049
1044
1040
1039
1043
1047
1045
1046
1043
1042
1046
1048
1047
1047
1043
1045
1049
1051
1048
1047
1046
1044
1047
1049
1049
1053
1052
1050
1056
1058
1058
1056
1055
1057
1059
1061
1062
1060
1059
1059
1061
1062
1057
1054
1051
1052
1056
1060
1057
1055
1054
1054
1058
1062
1060
1059
1056
1055
1053
1053
1051
1049
1047
1048
1049
1052
1051
1050
1048
1048
1049
1052
1052
1049
1047
1046
1050
1053
1054
1050
1050
1048
1048
1053
1051
1050
1053
1054
1056
1059
1058
1056
1055
1056
1060
1068
1074
1079
1086
1096
1110
1120
1135
1153
1177
1209
1238
1270
1297
1327
1359
1404
1444
1465
1449
1399
1319
1227
1143
1093
1066
1051
1046
1050
1056
1055
1054
1048
1045
1041
1044
1042
1039
1034
1032
1033
1036
1038
1036
1036
1034
1031
1033
1031
1031
1031
1029
1027
1030
1033
1031
1029
1025
1026
1028
1031
1030
1027
1026
1023
1027
1028
1029
1027
1025
1023
1025
1026
1025
1023
1022
1023
1024
1027
1026
1024
1022
1022
1025
1029
1033
1030
1027
1024
1025
1031
1030
1029
1027
1028
1030
1032
1035
1032
1031
1031
1036
1038
1039
1041
1038
1043
1045
1050
1053
1055
1051
1053
1059
1062
1062
1063
1065
1072
1077
1081
1080
1083
1081
1085
1090
1096
1097
1096
1094
1093
1093
1096
1092
1091
1085
1085
1083
1084
1082
1079
1076
1074
1073
1075
1070
1066
1063
1063
1065
1068
1067
1065
1061
1058
1062
1061
1062
1059
1057
1059
1059
1061
1060
1058
1053
1054
1057
1059
1055
1053
1052
1051
1053
1055
1058
1054
1050
1052
1052
1055
1055
1053
1046
1051
1053
1054
1054
1053
1047
1049
1050
1058
1055
1052
1051
1051
1053
1055
1056
1054
1052
1051
1053
1055
1054
1053
1050
1051
1053
1054
1053
1049
1047
1048
1050
1054
1050
1050
1046
1046
1051
1049
1049
1046
1046
1044
1047
1047
1048
1047
1042
1044
1046
1047
1048
1046
1042
1043
1043
1046
1046
1045
1041
1043
1047
1046
1046
1044
1043
1042
1045
1046
1048
1044
1041
1040
1042
1047
1045
1046
1041
1041
1043
1045
1047
1046
1045
1041
1043
1045
1045
1043
1042
1040
1046
1047
1046
1045
1041
1041
1044
1048
1046
1045
1043
1041
1044
1045
1045
1044
1042
1042
1044
1047
1046
1043
1040
1043
1042
1048
1044
1042
1040
1040
1044
1047
1045
1043
1042
1042
1045
1050
1047
1042
1042
1043
1046
1052
1052
1049
1049
1049
1050
1055
1054
1052
1052
1052
1055
1056
1056
1052
1049
1047
1049
1051
1048
1046
1045
1045
1045
1052
1053
1051
1050
1048
1050
1051
1048
1046
1038
1041
1041
1045
1040
1040
1038
1036
1039
1045
1044
1037
1038
1036
1039
1042
1041
1041
1040
1039
1040
1044
1044
1038
1037
1038
1041
1043
1039
1041
1040
1039
1041
1045
1048
1047
1049
1053
1063
1073
1084
1093
1102
1116
1138
1167
1198
1228
1257
1291
1326
1369
1412
1454
1472
1460
1414
1330
1230
1143
1086
1054
1035
1034
1036
1036
1033
1032
1034
1037
1032
1025
1020
1020
1018
1022
1019
1018
1014
1014
1015
1020
1018
1016
1013
1013
1015
1017
1016
1011
1008
1009
1011
1014
1010
1010
1003
1006
1009
1010
1010
1004
1003
1003
1003
1008
1006
1006
1002
1002
1005
1005
1005
1003
1002
1003
1004
1005
1006
1004
1005
1006
1008
1009
1009
1008
1007
1005
1008
1011
1009
1011
1009
1011
1015
1016
1019
1015
1014
1017
1022
1024
1027
1027
1026
1029
1034
1039
1045
1044
1042
1046
1052
1057
1061
1063
1065
1067
1072
1078
1077
1076
1075
1075
1077
1077
1077
1073
1067
1066
1066
1064
1062
1059
1054
1051
1052
1051
1048
1045
1041
1042
1045
1043
1042
1039
1038
1038
1038
1040
1039
1037
1034
1037
1037
1039
1038
1035
1035
1033
1035
1036
1036
1030
1029
1030
1032
1034
1032
1029
1027
1027
1029
1031
1031
1029
1027
1028
1030
1032
1029
1028
1027
1028
1028
1030
1031
1028
1029
1027
1029
1033
1033
1030
1031
1031
1034
1034
1035
1031
1030
1032
1035
1033
1034
1030
1031
1031
1035
1037
1033
1029
1028
1029
1032
1034
1033
1031
1027
1028
1030
1030
1031
1028
1026
1024
1026
1030
1028
1027
1023
1026
1028
1029
1030
1027
1025
1023
1023
1028
1027
1025
1022
1022
1026
1026
1025
1020
1022
1021
1024
1024
1026
1022
1021
1021
1023
1028
1027
1022
1019
1021
1024
1023
1024
1022
1022
1022
1022
1022
1023
1020
1020
1020
1023
1025
1022
1019
1018
1019
1017
1023
1021
1020
1019
1018
1019
1021
1023
1019
1020
1019
1022
1022
1021
1019
1017
1016
1023
1027
1024
1023
1017
1019
1023
1026
1025
1023
1022
1023
1024
1025
1028
1028
1029
1030
1031
1035
1035
1033
1031
1031
1036
1036
1032
1031
1025
1027
1027
1031
1030
1031
1027
1029
1030
1035
1031
1023
1019
1020
1023
1025
1023
1020
1018
1020
1021
1022
1021
1020
1018
1018
1020
1021
1021
1019
1014
1017
1018
1023
1020
1015
1017
1020
1025
1028
1031
1032
1037
1047
1063
1077
1089
1105
1134
1167
1206
1240
1273
1306
1341
1387
1431
1455
1447
1398
1317
1216
1133
1076
1039
1020
1009
1011
1017
1021
1017
1013
1011
1006
1006
1004
1003
999
998
997
998
1001
999
996
994
994
996
998
998
994
991
990
996
993
994
991
990
990
991
995
990
988
987
990
993
992
988
985
986
985
989
991
989
988
985
985
987
989
990
987
985
989
990
993
991
989
989
987
992
996
994
992
989
992
994
997
996
996
994
996
998
1000
1003
1002
1001
1003
1012
1013
1015
1014
1013
1015
1022
1025
1028
1029
1031
1035
1040
1047
1048
1049
1049
1054
1058
1062
1064
1058
1060
1059
1061
1062
1060
1055
1054
1052
1051
1054
1048
1044
1038
1036
1038
1038
1036
1030
1026
1027
1029
1033
1030
1024
1021
1022
1024
1024
1024
1023
1018
1020
1022
1022
1022
1019
1016
1018
1022
1020
1020
1020
1016
1016
1019
1020
1020
1016
1015
1017
1016
1018
1016
1014
1011
1012
1016
1017
1015
1011
1009
1009
1013
1018
1015
1013
1010
1008
1011
1017
1014
1011
1014
1014
1017
1019
1016
1014
1012
1014
1017
1020
1019
1019
1014
1016
1018
1020
1021
1018
1012
1014
1016
1019
1018
1017
1015
1014
1020
1020
1018
1014
1012
1012
1015
1018
1015
1015
1012
1014
1015
1018
1017
1012
1011
1010
1015
1017
1016
1011
1008
1011
1014
1015
1014
1011
1011
1011
1012
1016
1014
1009
1011
1007
1011
1013
1011
1011
1009
1009
1014
1016
1015
1008
1009
1011
1014
1015
1016
1012
1012
1012
1014
1016
1016
1013
1007
1010
1011
1013
1013
1010
1008
1009
1013
1016
1012
1011
1009
1010
1012
1014
1014
1011
1009
1009
1011
1015
1013
1010
1011
1010
1013
1015
1014
1011
1011
1011
1014
1015
1015
1013
1012
1011
1016
1018
1020
1020
1020
1018
1023
1024
1024
1024
1022
1023
1026
1029
1027
1025
1021
1021
1020
1021
1020
1017
1018
1022
1025
1025
1025
1022
1020
1024
1028
1028
1025
1022
1019
1018
1017
1021
1017
1014
1013
1014
1017
1017
1016
1013
1011
1015
1017
1019
1017
1014
1015
1016
1015
1017
1015
1013
1012
1014
1017
1019
1019
1015
1012
1016
1016
1019
1018
1019
1015
1019
1021
1025
1026
1025
1027
1033
1043
1050
1063
1069
1073
1086
1106
1131
1156
1181
1204
1234
1265
1293
1325
1362
1396
1419
1419
1392
1328
1237
1147
1080
1042
1021
1009
1005
1007
1009
1013
1010
1010
1006
1003
1001
1001
1001
1000
996
993
995
998
996
995
996
993
995
996
995
994
990
988
993
995
996
994
991
988
988
990
994
991
991
989
987
990
992
988
986
984
985
989
988
987
984
982
984
985
987
986
984
981
984
989
993
988
986
984
985
987
991
991
989
990
989
992
992
994
990
991
990
996
998
998
995
996
997
1004
1005
1005
1007
1004
1010
1011
1017
1018
1018
1021
1027
1031
1037
1037
1038
1038
1044
1048
1054
1054
1053
1053
1053
1054
1054
1053
1049
1047
1045
1047
1042
1040
1039
1034
1035
1034
1035
1031
1027
1024
1023
1024
1027
1022
1021
1019
1020
1022
1024
1022
1019
1018
1016
1020
1019
1017
1016
1014
1014
1015
1019
1016
1014
1009
1013
1014
1015
1016
1014
1009
1013
1014
1015
1012
1010
1006
1010
1011
1013
1013
1010
1008
1009
1012
1014
1014
1010
1010
1010
1013
1014
1013
1011
1009
1011
1017
1017
1016
1010
1010
1012
1015
1016
1014
1013
1013
1013
1016
1018
1016
1012
1010
1012
1014
1017
1015
1011
1007
1011
1011
1012
1013
1011
1010
1011
1011
1013
1011
1009
1007
1011
1011
1014
1012
1006
1004
1006
1010
1012
1010
1009
1005
1008
1009
1010
1010
1006
1006
1006
1011
1011
1010
1006
1006
1006
1008
1011
1007
1009
1007
1006
1009
1011
1009
1007
1007
1007
1010
1012
1010
1005
1006
1005
1009
1011
1008
1008
1005
1007
1009
1010
1010
1006
1005
1004
1010
1010
1008
1007
1006
1006
1009
1009
1009
1006
1007
1010
1010
1010
1008
1006
1005
1006
1008
1011
1007
1007
1007
1007
1011
1012
1012
1008
1006
1008
1011
1013
1011
1005
1008
1011
1014
1016
1017
1015
1015
1014
1017
1019
1022
1017
1018
1022
1023
1025
1024
1023
1020
1020
1020
1022
1020
1017
1012
1017
1019
1021
1018
1019
1017
1019
1022
1023
1019
1019
1017
1016
1013
1013
1010
1011
1007
1009
1012
1015
1014
1011
1006
1009
1013
1013
1010
1009
1009
1010
1011
1010
1009
1007
1010
1008
1012
1013
1012
1007
1007
1006
1014
1013
1014
1011
1013
1016
1021
1025
1030
1034
1045
1058
1069
1082
1100
1124
1157
1190
1226
1258
1288
1322
1361
1409
1443
1449
1417
1350
1260
1169
1097
1052
1020
1003
1003
1005
1010
1012
1012
1004
1003
1001
999
998
997
993
992
989
994
995
991
987
987
988
992
991
991
989
987
987
990
988
990
987
985
985
988
989
986
983
984
986
986
986
987
982
980
984
987
985
986
985
985
985
985
986
984
983
983
984
988
990
989
985
983
985
988
990
990
989
987
990
991
993
991
989
991
992
997
997
996
994
993
996
999
1003
1002
1002
1001
1003
1010
1012
1014
1011
1011
1017
1021
1023
1027
1027
1028
1032
1037
1040
1042
1046
1047
1053
1055
1060
1057
1059
1058
1061
1065
1067
1064
1061
1058
1059
1058
1058
1055
1052
1049
1049
1047
1047
1042
1039
1036
1035
1035
1037
1035
1030
1029
1029
1031
1031
1030
1028
1026
1030
1032
1029
1027
1027
1025
1027
1030
1029
1028
1025
1024
1024
1026
1025
1024
1023
1021
1023
1023
1026
1023
1019
1018
1023
1024
1025
1023
1019
1018
1020
1023
1025
1023
1021
1019
1023
1024
1024
1024
1022
1021
1024
1026
1027
1025
1024
1023
1025
1028
1028
1026
1025
1023
1027
1027
1029
1027
1025
1023
1026
1028
1029
1026
1022
1022
1023
1027
1027
1025
1019
1020
1022
1023
1024
1024
1022
1021
1021
1025
1024
1022
1023
1020
1021
1022
1024
1021
1019
1018
1019
1023
1021
1021
1018
1016
1020
1025
1025
1023
1019
1019
1021
1023
1022
1020
1019
1020
1021
1022
1022
1021
1019
1019
1022
1023
1025
1025
1020
1019
1019
1024
1024
1025
1019
1020
1018
1022
1023
1023
1019
1018
1022
1025
1024
1023
1018
1019
1023
1024
1025
1022
1020
1018
1021
1027
1027
1022
1024
1021
1022
1024
1027
1025
1022
1021
1022
1029
1028
1026
1026
1027
1029
1033
1032
1031
1032
1031
1034
1039
1039
1038
1033
1033
1034
1034
1032
1032
1030
1030
1034
1036
1037
1037
1032
1031
1032
1033
1033
1028
1024
1024
1026
1027
1027
1026
1024
1024
1027
1028
1028
1027
1022
1023
1023
1028
1028
1026
1024
1022
1024
1026
1026
1022
1020
1022
1025
1027
1026
1025
1023
1025
1027
1029
1032
1034
1033
1038
1044
1053
1067
1075
1084
1095
1112
1139
1168
1201
1231
1263
1295
1330
1368
1408
1440
1453
1439
1398
1325
1233
1151
1090
1053
1031
1023
1019
1019
1019
1023
1025
1024
1018
1014
1008
1008
1010
1011
1008
1005
1003
1004
1004
1004
1003
1001
1001
1002
1005
1004
1002
999
997
1001
1004
1002
999
997
996
997
999
1000
998
995
994
996
999
999
997
996
995
994
998
999
996
992
993
994
999
998
997
998
995
997
1001
998
999
994
995
1001
1001
1001
1003
999
998
1000
1005
1005
1006
1000
1002
1004
1009
1009
1009
1008
1010
1015
1019
1021
1020
1017
1019
1025
1030
1034
1033
1034
1039
1044
1048
1050
1054
1056
1058
1063
1066
1067
1069
1066
1065
1067
1069
1066
1064
1061
1058
1059
1060
1058
1053
1048
1044
1047
1045
1046
1040
1036
1033
1035
1037
1035
1034
1029
1026
1030
1033
1032
1031
1027
1025
1026
1031
1030
1028
1023
1024
1025
1029
1027
1024
1020
1025
1026
1027
1025
1023
1021
1021
1022
1025
1025
1023
1020
1018
1021
1021
1023
1022
1019
1019
1021
1023
1021
1021
1018
1021
1021
1025
1025
1021
1021
1021
1023
1024
1026
1023
1023
1021
1024
1025
1024
1024
1022
1020
1021
1023
1025
1024
1020
1018
1022
1023
1023
1021
1017
1016
1018
1021
1022
1019
1016
1014
1017
1018
1018
1015
1014
1014
1016
1020
1016
1015
1013
1015
1019
1018
1017
1016
1011
1010
1014
1015
1017
1015
1013
1012
1014
1015
1017
1016
1012
1014
1014
1017
1016
1012
1009
1011
1013
1016
1018
1013
1011
1012
1011
1015
1017
1015
1012
1014
1013
1016
1016
1011
1011
1011
1014
1016
1015
1014
1010
1010
1013
1015
1016
1015
1013
1012
1015
1015
1016
1014
1012
1010
1013
1017
1016
1016
1016
1013
1012
1016
1014
1017
1012
1012
1016
1024
1023
1022
1023
1021
1023
1026
1027
1026
1023
1025
1028
1031
1029
1025
1022
1020
1021
1022
1021
1018
1021
1019
1021
1026
1025
1023
1023
1022
1024
1024
1024
1021
1016
1013
1016
1017
1020
1019
1014
1014
1015
1016
1016
1016
1012
1012
1015
1016
1017
1017
1009
1012
1013
1016
1018
1012
1010
1013
1013
1016
1018
1013
1012
1014
1019
1022
1022
1024
1022
1025
1035
1046
1055
1063
1071
1084
1100
1127
1153
1182
1205
1233
1262
1294
1331
1369
1400
1414
1396
1344
1259
1157
1079
1036
1012
1006
1007
1009
1008
1013
1010
1013
1009
1006
1000
993
996
999
998
999
994
995
996
995
996
993
991
993
993
996
995
993
989
989
992
995
994
990
987
986
987
990
989
987
984
981
986
988
987
985
983
984
985
988
985
986
982
984
986
987
989
986
987
985
985
987
988
987
983
986
989
989
990
988
987
989
993
995
997
995
992
994
998
1001
1003
1001
999
1004
1008
1013
1013
1014
1012
1016
1019
1026
1027
1028
1029
1031
1037
1044
1044
1044
1046
1049
1052
1055
1055
1055
1052
1051
1052
1054
1051
1047
1045
1038
1040
1040
1037
1033
1030
1027
1027
1029
1026
1024
1018
1019
1019
1023
1019
1018
1014
1012
1015
1018
1018
1014
1013
1013
1016
1017
1016
1012
1009
1011
1013
1013
1013
1010
1007
1008
1010
1013
1011
1007
1003
1005
1007
1010
1011
1007
1003
1002
1005
1009
1008
1006
1006
1004
1009
1009
1007
1008
1006
1007
1007
1009
1009
1008
1007
1008
1008
1011
1011
1008
1006
1004
1008
1010
1009
1008
1005
1005
1006
1010
1009
1006
1005
1004
1005
1011
1007
1008
1006
1003
1006
1008
1006
1003
1003
1001
1004
1008
1005
1007
1003
1005
1004
1007
1005
1004
1004
1001
1005
1008
1006
1004
1002
1002
1006
1005
1003
1005
1002
1001
1002
1004
1003
1002
1002
1000
1003
1004
1005
1004
999
998
1002
1004
1007
1003
1002
1001
1003
1008
1004
1001
1000
1001
1004
1006
1008
1003
1000
1000
1003
1005
1006
1006
1003
1003
1006
1005
1004
1003
1000
1001
1005
1007
1005
1005
1004
1001
1004
1007
1006
1006
1004
1005
1005
1007
1006
1004
1002
1004
1008
1009
1006
1007
1008
1010
1014
1017
1016
1016
1013
1015
1017
1019
1021
1018
1015
1014
1015
1014
1016
1012
1008
1010
1012
1015
1018
1013
1013
1016
1018
1022
1020
1017
1013
1011
1010
1010
1009
1009
1006
1006
1008
1008
1011
1009
1006
1003
1007
1010
1008
1006
1003
1003
1006
1008
1008
1007
1006
1005
1006
1009
1007
1006
1005
1006
1007
1012
1011
1008
1013
1019
1025
1034
1046
1057
1065
1078
1102
1132
1163
1198
1225
1261
1298
1339
1382
1415
1422
1396
1336
1253
1165
1092
1039
1015
1003
1004
1005
1002
1000
998
1001
1001
997
991
987
987
987
989
987
983
982
982
985
987
987
982
980
982
983
984
981
981
976
977
979
979
981
977
973
973
975
978
978
977
971
974
975
976
975
975
973
974
978
979
978
977
973
976
978
982
982
981
978
978
983
982
983
982
981
982
984
987
984
985
984
988
988
994
991
991
989
991
995
1000
1001
1004
1003
1006
1012
1016
1017
1018
1020
1022
1030
1035
1037
1036
1036
1040
1045
1050
1051
1051
1049
1046
1051
1052
1050
1048
1042
1039
1040
1039
1036
1030
1029
1027
1023
1024
1023
1017
1019
1017
1017
1020
1017
1017
1016
1018
1018
1020
1017
1014
1012
1016
1018
1019
1016
1014
1009
1010
1011
1017
1016
1012
1011
1009
1014
1015
1016
1014
1009
1009
1015
1015
1016
1016
1012
1014
1016
1017
1018
1017
1012
1016
1017
1020
1018
1019
1016
1018
1019
1019
1019
1017
1015
1015
1016
1020
1020
1017
1015
1014
1016
1018
1017
1013
1015
1016
1016
1018
1015
1015
1012
1013
1016
1016
1017
1014
1012
1014
1016
1015
1016
1015
1013
1014
1017
1017
1015
1015
1011
1013
1015
1019
1016
1015
1011
1013
1014
1018
1014
1016
1014
1013
1013
1016
1017
1012
1012
1015
1015
1017
1017
1012
1012
1011
1017
1018
1018
1015
1014
1015
1015
1017
1016
1014
1012
1013
1016
1016
1015
1013
1014
1014
1013
1017
1016
1012
1012
1011
1015
1016
1014
1014
1015
1014
1016
1018
1020
1016
1013
1013
1017
1019
1017
1015
1015
1016
1019
1020
1019
1018
1019
1021
1025
1027
1027
1028
1025
1024
1028
1029
1032
1030
1025
1029
1029
1030
1028
1023
1022
1022
1025
1028
1024
1023
1020
1025
1026
1029
1028
1027
1023
1021
1023
1021
1020
1018
1013
1015
1020
1022
1023
1017
1015
1016
1018
1023
1016
1016
1014
1013
1016
1018
1017
1015
1011
1012
1017
1017
1016
1015
1014
1014
1017
1018
1019
1015
1015
1016
1022
1026
1030
1031
1037
1049
1058
1073
1082
1091
1107
1136
1166
1195
1226
1250
1275
1306
1341
1381
1420
1442
1443
1418
1365
1284
1187
1106
1051
1022
1010
1009
1010
1012
1010
1009
1011
1013
1009
1004
1000
996
998
999
996
993
993
990
994
995
993
990
987
987
991
993
992
990
986
987
989
991
989
985
982
985
987
991
988
984
984
983
987
989
988
986
984
981
984
986
986
984
982
984
985
990
987
985
983
985
989
991
991
988
987
984
991
992
991
988
988
988
990
994
992
990
991
992
995
997
998
997
999
997
1002
1005
1007
1006
1007
1010
1013
1018
1020
1022
1022
1026
1032
1038
1040
1037
1041
1045
1051
1056
1056
1054
1055
1055
1059
1061
1060
1055
1053
1054
1055
1054
1048
1045
1039
1039
1037
1038
1035
1032
1027
1026
1027
1027
1027
1023
1022
1021
1022
1024
1020
1018
1018
1019
1020
1024
1022
1019
1014
1016
1020
1023
1020
