1029
1036
1033
1030
1029
1031
1030
1029
1020
1016
1015
1019
1021
1019
1017
1013
1012
1016
1017
1019
1013
1013
1010
1010
1014
1017
1012
1010
1008
1013
1011
1013
1009
1005
1007
1010
1013
1012
1010
1005
1006
1009
1009
1010
1008
1005
1007
1006
1012
1012
1011
1008
1006
1010
1012
1012
1010
1010
1009
1011
1015
1015
1011
1008
1009
1014
1016
1017
1016
1012
1015
1017
1019
1023
1022
1020
1022
1026
1031
1032
1034
1033
1036
1042
1047
1048
1049
1051
1054
1059
1065
1070
1071
1068
1073
1074
1076
1074
1075
1073
1071
1072
1075
1073
1068
1064
1061
1061
1062
1061
1054
1050
1050
1049
1052
1048
1045
1043
1042
1041
1044
1042
1041
1037
1037
1039
1039
1042
1039
1037
1036
1037
1039
1040
1039
1035
1031
1035
1037
1039
1039
1036
1033
1032
1037
1037
1037
1034
1034
1034
1038
1036
1034
1032
1030
1034
1036
1038
1036
1033
1034
1037
1037
1038
1039
1035
1034
1036
1038
1039
1036
1034
1035
1035
1039
1038
1037
1032
1033
1034
1037
1037
1035
1035
1035
1037
1038
1038
1036
1033
1035
1037
1038
1037
1036
1033
1031
1034
1037
1037
1036
1031
1031
1034
1038
1036
1034
1031
1034
1033
1035
1036
1034
1031
1031
1031
1036
1035
1033
1032
1031
1031
1035
1038
1034
1030
1031
1032
1034
1033
1031
1030
1031
1030
1035
1033
1030
1029
1030
1031
1034
1034
1030
1029
1030
1031
1034
1032
1032
1030
1029
1032
1035
1033
1031
1027
1029
1032
1035
1033
1032
1028
1030
1030
1036
1035
1033
1029
1030
1030
1034
1033
1032
1031
1029
1033
1031
1035
1031
1030
1032
1031
1035
1035
1032
1030
1029
1034
1037
1037
1037
1033
1036
1039
1043
1045
1043
1043
1044
1045
1046
1047
1042
1037
1035
1034
1042
1040
1040
1038
1038
1039
1045
1045
1041
1038
1032
1034
1034
1036
1033
1031
1033
1036
1035
1037
1031
1031
1032
1033
1034
1036
1033
1032
1031
1034
1035
1034
1032
1034
1034
1036
1037
1038
1039
1038
1045
1052
1060
1071
1078
1086
1094
1112
1133
1158
1183
1208
1236
1266
1300
1336
1376
1413
1426
1415
1370
1295
1196
1118
1066
1038
1025
1023
1027
1027
1028
1030
1032
1030
1024
1021
1017
1020
1018
1018
1016
1012
1012
1015
1014
1015
1016
1013
1013
1017
1016
1014
1014
1012
1013
1013
1015
1014
1013
1009
1008
1011
1012
1014
1010
1005
1007
1011
1013
1011
1009
1006
1006
1010
1012
1011
1007
1009
1008
1009
1012
1010
1010
1008
1005
1009
1012
1013
1009
1013
1009
1012
1014
1014
1012
1010
1011
1011
1015
1016
1014
1012
1013
1017
1022
1022
1021
1018
1020
1025
1031
1033
1033
1030
1033
1037
1041
1045
1045
1047
1048
1055
1057
1059
1061
1061
1065
1070
1071
1074
1074
1073
1073
1078
1079
1078
1077
1073
1073
1075
1076
1071
1068
1063
1060
1060
1063
1057
1055
1052
1050
1053
1051
1049
1045
1042
1041
1045
1045
1045
1041
1039
1041
1039
1040
1041
1041
1038
1040
1039
1043
1042
1038
1036
1034
1038
1042
1040
1039
1036
1034
1035
1038
1040
1038
1034
1035
1035
1035
1038
1033
1031
1032
1035
1036
1035
1033
1031
1033
1033
1035
1035
1033
1033
1032
1036
1038
1038
1034
1030
1033
1036
1038
1040
1037
1033
1034
1035
1040
1039
1037
1034
1035
1034
1040
1040
1036
1034
1034
1037
1041
1041
1036
1032
1030
1035
1039
1037
1036
1032
1033
1036
1037
1036
1036
1033
1031
1033
1035
1034
1034
1030
1031
1030
1034
1033
1034
1031
1029
1033
1031
1031
1033
1028
1030
1032
1033
1031
1032
1030
1029
1033
1035
1033
1031
1030
1032
1030
1032
1030
1031
1026
1025
1030
1035
1031
1030
1029
1029
1032
1035
1032
1031
1029
1027
1031
1035
1033
1032
1031
1028
1031
1034
1034
1030
1028
1028
1031
1035
1034
1032
1031
1030
1033
1034
1034
1033
1032
1031
1033
1035
1032
1031
1031
1032
1035
1036
1034
1033
1032
1032
1035
1037
1037
1036
1033
1033
1034
1035
1035
1036
1030
1033
1035
1038
1036
1037
1035
1039
1041
1042
1044
1042
1039
1042
1044
1048
1047
1045
1042
1045
1044
1046
1045
1041
1036
1036
1039
1041
1040
1041
1038
1039
1042
1044
1043
1042
1044
1040
1046
1046
1044
1037
1036
1030
1036
1037
1036
1037
1032
1036
1034
1037
1035
1033
1029
1033
1036
1036
1035
1031
1028
1031
1036
1034
1036
1033
1030
1031
1034
1033
1033
1033
1029
1030
1031
1033
1036
1031
1032
1030
1035
1040
1042
1042
1042
1050
1058
1070
1079
1087
1095
1106
1126
1152
1178
1202
1225
1251
1279
1309
1341
1377
1409
1436
1442
1428
1380
1302
1218
1138
1084
1048
1029
1021
1020
1025
1026
1029
1028
1026
1020
1019
1016
1019
1015
1010
1008
1009
1012
1011
1011
1009
1006
1005
1009
1012
1009
1006
1004
1005
1005
1007
1005
1003
1002
1006
1006
1008
1006
1002
999
1002
1002
1004
1004
1000
999
998
1001
1005
1002
1001
1000
999
999
1003
1003
999
997
1000
1001
1005
1004
1002
1000
1001
1003
1006
1007
1005
1002
1002
1005
1007
1007
1005
1005
1004
1009
1012
1010
1009
1007
1011
1013
1019
1023
1020
1020
1024
1030
1033
1036
1035
1034
1039
1043
1052
1050
1053
1053
1060
1065
1071
1071
1069
1065
1068
1069
1072
1072
1070
1065
1065
1065
1063
1062
1057
1050
1051
1053
1051
1048
1042
1039
1039
1037
1038
1038
1036
1032
1032
1035
1035
1034
1031
1030
1031
1032
1034
1032
1032
1030
1027
1030
1034
1032
1028
1026
1028
1031
1032
1030
1028
1027
1026
1029
1029
1029
1026
1023
1026
1026
1029
1027
1026
1023
1028
1027
1030
1029
1027
1028
1026
1029
1030
1031
1030
1026
1029
1032
1033
1032
1030
1026
1029
1031
1032
1034
1032
1031
1031
1034
1036
1035
1031
1032
1031
1034
1035
1033
1028
1030
1028
1033
1033
1032
1030
1029
1029
1032
1035
1033
1030
1028
1027
1029
1032
1030
1028
1026
1026
1030
1031
1029
1028
1026
1025
1031
1032
1031
1028
1026
1026
1028
1029
1029
1027
1024
1023
1026
1029
1030
1025
1024
1027
1029
1030
1030
1027
1027
1026
1026
1028
1027
1029
1027
1026
1027
1032
1029
1027
1024
1025
1026
1029
1028
1024
1025
1024
1029
1029
1031
1029
1023
1027
1028
1031
1030
1027
1026
1026
1027
1032
1030
1028
1024
1024
1027
1029
1029
1028
1028
1027
1027
1032
1028
1026
1027
1027
1029
1032
1031
1029
1027
1025
1031
1033
1030
1029
1028
1030
1034
1037
1037
1032
1034
1036
1037
1041
1041
1039
1037
1039
1038
1042
1039
1035
1033
1032
1035
1037
1034
1032
1032
1033
1038
1041
1042
1036
1033
1034
1036
1040
1035
1031
1025
1026
1025
1031
1029
1028
1024
1026
1030
1031
1030
1029
1026
1025
1027
1030
1028
1026
1026
1026
1026
1030
1028
1028
1027
1025
1029
1033
1031
1028
1027
1030
1035
1039
1041
1043
1045
1054
1066
1079
1086
1091
1100
1121
1149
1178
1205
1227
1252
1281
1313
1356
1392
1412
1409
1377
1315
1232
1146
1082
1043
1027
1025
1027
1028
1028
1026
1022
1022
1026
1021
1014
1012
1011
1012
1012
1010
1006
1005
1008
1009
1012
1010
1008
1004
1003
1008
1010
1010
1008
1005
1006
1008
1008
1007
1005
1004
1004
1006
1008
1005
1002
1000
1001
1004
1007
1004
1001
1001
1001
1001
1006
1005
1003
1001
1000
1004
1005
1005
1004
1003
1004
1007
1011
1007
1003
1003
1005
1008
1009
1009
1006
1005
1008
1009
1013
1011
1010
1008
1009
1014
1019
1018
1017
1015
1014
1020
1026
1027
1028
1027
1029
1030
1035
1035
1040
1040
1044
1048
1055
1056
1056
1055
1059
1066
1069
1069
1067
1068
1067
1071
1071
1068
1066
1064
1066
1062
1062
1059
1054
1051
1052
1050
1051
1048
1042
1041
1039
1041
1042
1039
1039
1036
1036
1040
1039
1040
1036
1033
1033
1037
1038
1037
1035
1033
1034
1037
1037
1036
1032
1030
1030
1034
1036
1031
1032
1029
1030
1031
1033
1031
1029
1028
1027
1030
1034
1032
1030
1028
1028
1029
1032
1029
1030
1027
1030
1032
1035
1034
1029
1028
1030
1035
1034
1032
1031
1029
1027
1033
1036
1033
1033
1032
1031
1034
1033
1032
1031
1029
1031
1033
1033
1033
1028
1028
1029
1032
1033
1034
1030
1027
1026
1030
1034
1030
1032
1027
1026
1029
1030
1030
1027
1022
1025
1031
1030
1031
1027
1027
1024
1028
1029
1030
1026
1024
1027
1027
1030
1028
1027
1024
1027
1029
1031
1027
1026
1023
1026
1029
1029
1027
1024
1023
1026
1028
1030
1028
1028
1025
1025
1030
1031
1028
1027
1026
1028
1027
1029
1027
1027
1027
1029
1029
1031
1029
1028
1026
1027
1029
1032
1030
1028
1023
1028
1030
1033
1033
1030
1029
1031
1031
1034
1032
1031
1029
1031
1034
1036
1033
1033
1031
1032
1037
1038
1040
1038
1035
1036
1042
1045
1043
1044
1041
1042
1044
1045
1044
1041
1039
1038
1041
1041
1040
1036
1034
1035
1038
1042
1043
1040
1037
1036
1041
1042
1040
1036
1034
1030
1034
1035
1032
1030
1027
1029
1031
1033
1031
1030
1028
1030
1032
1032
1032
1030
1026
1029
1031
1034
1031
1027
1027
1024
1032
1034
1032
1029
1028
1030
1035
1036
1035
1033
1031
1034
1038
1043
1045
1046
1051
1060
1075
1088
1096
1104
1120
1143
1174
1204
1230
1252
1280
1312
1349
1390
1423
1438
1429
1389
1314
1229
1146
1085
1046
1028
1021
1026
1029
1031
1027
1029
1031
1031
1024
1020
1015
1014
1017
1018
1018
1014
1010
1009
1014
1013
1013
1010
1010
1010
1015
1014
1012
1011
1010
1010
1011
1012
1012
1007
1007
1009
1008
1010
1011
1006
1003
1006
1009
1009
1008
1006
1003
1005
1009
1012
1010
1008
1003
1005
1009
1011
1011
1009
1006
1008
1012
1013
1012
1007
1007
1008
1011
1013
1013
1010
1008
1010
1013
1014
1015
1015
1014
1015
1015
1018
1017
1017
1017
1017
1025
1027
1027
1024
1023
1030
1033
1039
1039
1039
1040
1043
1049
1056
1055
1056
1057
1063
1069
1073
1072
1072
1072
1073
1079
1080
1079
1075
1074
1074
1073
1074
1072
1067
1063
1061
1062
1059
1057
1052
1049
1049
1051
1051
1050
1047
1041
1042
1044
1045
1043
1040
1040
1041
1039
1043
1044
1037
1037
1038
1041
1042
1041
1039
1037
1037
1041
1041
1040
1038
1034
1036
1038
1039
1036
1036
1033
1035
1039
1039
1038
1036
1035
1036
1038
1042
1040
1037
1037
1036
1040
1043
1041
1039
1037
1041
1041
1044
1044
1042
1039
1039
1044
1045
1044
1042
1040
1041
1045
1045
1043
1041
1039
1039
1045
1044
1044
1039
1036
1039
1040
1043
1042
1040
1039
1038
1040
1041
1041
1038
1035
1037
1040
1042
1041
1040
1037
1036
1039
1042
1039
1037
1034
1036
1038
1040
1038
1037
1034
1036
1039
1042
1038
1035
1035
1035
1039
1040
1038
1038
1035
1033
1036
1037
1037
1035
1034
1036
1037
1039
1037
1037
1036
1038
1037
1043
1038
1036
1033
1038
1039
1041
1039
1036
1034
1036
1041
1042
1039
1037
1035
1036
1039
1040
1038
1037
1035
1039
1040
1041
1039
1037
1035
1037
1040
1044
1043
1037
1038
1039
1042
1044
1042
1041
1036
1040
1040
1045
1043
1044
1041
1046
1049
1051
1050
1048
1046
1050
1055
1057
1055
1052
1050
1053
1052
1051
1052
1049
1046
1046
1049
1052
1053
1051
1047
1049
1054
1055
1055
1052
1051
1047
1047
1050
1047
1042
1040
1042
1046
1048
1046
1041
1042
1044
1044
1048
1045
1040
1037
1041
1044
1045
1044
1040
1038
1042
1043
1044
1042
1040
1038
1041
1044
1045
1048
1046
1044
1045
1052
1058
1059
1064
1069
1080
1095
1109
1118
1132
1156
1187
1220
1247
1272
1300
1330
1374
1416
1443
1440
1397
1319
1224
1140
1087
1054
1038
1031
1037
1043
1046
1040
1038
1038
1034
1033
1034
1031
1026
1025
1025
1025
1026
1025
1022
1023
1022
1024
1027
1026
1024
1018
1020
1024
1025
1022
1020
1020
1021
1023
1022
1020
1015
1016
1017
1020
1019
1019
1016
1014
1017
1019
1022
1020
1016
1014
1017
1019
1020
1021
1017
1016
1017
1018
1020
1019
1018
1016
1019
1022
1021
1021
1020
1019
1024
1026
1030
1027
1023
1023
1026
1032
1036
1034
1036
1034
1040
1042
1045
1048
1046
1050
1055
1060
1066
1066
1066
1071
1074
1081
1084
1089
1084
1084
1086
1087
1089
1088
1085
1081
1077
1078
1078
1074
1069
1065
1063
1064
1061
1060
1054
1053
1053
1054
1056
1051
1050
1047
1046
1049
1050
1050
1046
1044
1046
1048
1050
1049
1045
1043
1045
1044
1046
1046
1044
1043
1041
1045
1044
1040
1038
1037
1037
1041
1043
1040
1037
1035
1035
1039
1041
1039
1038
1037
1039
1040
1042
1041
1038
1037
1039
1042
1043
1040
1041
1038
1038
1041
1044
1044
1042
1040
1040
1043
1042
1043
1039
1039
1042
1044
1044
1037
1037
1038
1042
1041
1042
1038
1036
1037
1037
1041
1042
1039
1037
1038
1038
1040
1041
1038
1036
1033
1035
1040
1040
1037
1035
1033
1037
1040
1039
1037
1033
1035
1035
1037
1038
1038
1035
1034
1036
1036
1039
1036
1035
1034
1036
1035
1039
1036
1035
1031
1034
1037
1037
1037
1033
1035
1035
1037
1037
1037
1033
1032
1034
1036
1039
1035
1032
1035
1035
1037
1039
1036
1036
1034
1036
1037
1038
1036
1032
1032
1036
1038
1039
1035
1033
1032
1034
1037
1038
1037
1032
1031
1032
1037
1040
1039
1036
1035
1036
1038
1041
1039
1041
1040
1042
1044
1044
1044
1042
1042
1045
1051
1053
1051
1048
1046
1044
1046
1046
1047
1042
1039
1044
1044
1046
1049
1046
1048
1047
1048
1049
1048
1043
1039
1040
1041
1040
1039
1039
1037
1036
1041
1042
1039
1036
1034
1035
1037
1039
1037
1037
1036
1036
1038
1040
1038
1034
1034
1038
1039
1043
1041
1038
1036
1041
1044
1048
1050
1050
1052
1064
1072
1087
1095
1102
1112
1136
1160
1191
1215
1243
1271
1306
1341
1382
1422
1444
1437
1398
1324
1224
1136
1077
1047
1033
1032
1038
1037
1035
1032
1033
1036
1033
1027
1021
1019
1018
1020
1022
1021
1016
1014
1014
1018
1018
1019
1016
1013
1014
1016
1016
1013
1010
1008
1012
1014
1017
1015
1013
1011
1011
1015
1013
1014
1008
1010
1009
1012
1011
1008
1007
1008
1011
1011
1012
1009
1009
1005
1008
1014
1012
1013
1011
1008
1010
1014
1015
1015
1012
1010
1013
1015
1016
1014
1015
1017
1017
1018
1024
1023
1023
1023
1028
1029
1035
1034
1036
1035
1040
1044
1049
1049
1052
1054
1060
1065
1070
1070
1069
1071
1073
1073
1076
1075
1068
1066
1066
1066
1066
1061
1056
1051
1051
1052
1050
1049
1043
1039
1042
1043
1042
1040
1037
1037
1037
1039
1039
1038
1032
1035
1036
1038
1037
1036
1035
1033
1035
1037
1039
1036
1034
1032
1034
1035
1036
1032
1031
1032
1031
1035
1032
1034
1028
1029
1029
1035
1033
1034
1032
1031
1031
1036
1035
1036
1033
1030
1033
1036
1037
1034
1032
1029
1033
1038
1036
1034
1032
1030
1032
1036
1035
1035
1030
1029
1029
1033
1031
1030
1028
1027
1028
1031
1033
1028
1028
1028
1027
1027
1030
1028
1025
1023
1025
1029
1031
1028
1027
1026
1027
1027
1030
1030
1025
1025
1025
1026
1028
1026
1023
1023
1027
1026
1027
1024
1023
1025
1024
1027
1029
1028
1024
1022
1023
1027
1027
1027
1023
1021
1024
1027
1028
1025
1022
1023
1025
1027
1030
1025
1022
1023
1023
1029
1029
1027
1023
1022
1025
1026
1029
1027
1023
1024
1026
1029
1028
1027
1022
1023
1026
1029
1029
1027
1025
1024
1025
1028
1031
1030
1025
1025
1028
1030
1031
1027
1026
1026
1028
1033
1033
1031
1028
1029
1032
1038
1039
1039
1037
1034
1035
1039
1039
1039
1038
1040
1042
1041
1042
1040
1035
1034
1034
1036
1037
1035
1035
1035
1035
1037
1039
1038
1038
1037
1039
1042
1043
1040
1032
1031
1033
1032
1034
1034
1031
1029
1034
1035
1034
1033
1025
1030
1029
1033
1035
1031
1028
1028
1029
1031
1032
1033
1029
1030
1028
1033
1033
1032
1030
1030
1032
1034
1035
1034
1033
1034
1034
1041
1044
1046
1051
1059
1071
1087
1096
1105
1119
1142
1170
1199
1226
1252
1277
1303
1335
1372
1411
1438
1450
1443
1408
1344
1259
1176
1109
1066
1040
1031
1031
1032
1029
1027
1028
1031
1028
1022
1021
1015
1014
1013
1016
1015
1010
1008
1012
1014
1013
1011
1009
1010
1009
1013
1011
1010
1005
1006
1007
1009
1009
1005
1004
1004
1004
1008
1009
1005
1005
1003
1003
1006
1008
1007
1002
1003
1004
1005
1007
1004
1002
1002
1004
1006
1008
1004
1003
1002
1004
1009
1006
1006
1006
1005
1005
1007
1007
1009
1007
1004
1008
1012
1011
1014
1010
1011
1015
1015
1018
1018
1017
1019
1023
1026
1029
1031
1029
1033
1035
1040
1044
1046
1046
1047
1053
1060
1061
1065
1064
1066
1070
1074
1077
1079
1077
1076
1080
1081
1082
1080
1076
1074
1075
1075
1073
1070
1064
1062
1060
1061
1061
1056
1050
1047
1048
1051
1050
1046
1043
1045
1046
1049
1048
1044
1042
1040
1042
1046
1047
1044
1041
1039
1041
1044
1041
1042
1036
1036
1040
1041
1044
1041
1037
1034
1035
1041
1040
1038
1037
1036
1036
1038
1039
1036
1032
1032
1035
1037
1037
1033
1030
1030
1033
1034
1037
1033
1030
1031
1033
1036
1040
1036
1034
1035
1036
1035
1034
1037
1035
1032
1035
1036
1038
1040
1036
1035
1036
1036
1037
1037
1035
1034
1037
1037
1036
1034
1031
1031
1034
1037
1039
1037
1035
1034
1036
1036
1036
1036
1033
1034
1036
1039
1037
1033
1031
1030
1033
1034
1034
1034
1029
1030
1032
1034
1035
1033
1031
1029
1032
1034
1034
1034
1032
1029
1030
1033
1035
1036
1030
1032
1031
1034
1037
1031
1031
1031
1034
1034
1036
1033
1028
1028
1031
1033
1034
1033
1032
1030
1032
1034
1032
1031
1031
1030
1034
1035
1034
1031
1030
1029
1030
1035
1036
1034
1031
1031
1032
1035
1035
1033
1031
1031
1033
1038
1036
1037
1035
1032
1035
1037
1037
1035
1030
1031
1034
1037
1037
1036
1034
1031
1037
1038
1040
1039
1038
1041
1044
1044
1046
1046
1044
1046
1046
1050
1050
1048
1048
1048
1049
1049
1044
1043
1040
1039
1041
1044
1043
1043
1041
1042
1044
1046
1048
1046
1042
1042
1041
1042
1041
1036
1033
1034
1036
1040
1039
1038
1033
1033
1032
1036
1036
1035
1031
1031
1033
1036
1034
1034
1031
1031
1033
1034
1033
1035
1032
1031
1033
1038
1038
1038
1037
1037
1039
1046
1048
1053
1057
1068
1081
1092
1101
1114
1131
1157
1185
1214
1236
1261
1284
1311
1347
1389
1420
1432
1413
1360
1280
1194
1122
1074
1041
1031
1030
1034
1035
1030
1027
1026
1027
1024
1023
1018
1014
1011
1015
1015
1016
1013
1011
1007
1011
1012
1011
1010
1008
1006
1010
1011
1011
1008
1006
1003
1007
1010
1009
1008
1005
1005
1006
1011
1008
1007
1003
1004
1004
1007
1008
1005
1001
1002
1003
1008
1006
1005
1004
1005
1006
1008
1005
1003
1000
1002
1007
1009
1010
1007
1003
1002
1007
1009
1011
1011
1006
1004
1006
1010
1011
1010
1007
1010
1014
1019
1019
1018
1018
1018
1021
1024
1025
1026
1025
1026
1030
1036
1037
1039
1041
1042
1049
1054
1055
1056
1056
1058
1063
1065
1068
1069
1068
1069
1070
1073
1073
1069
1067
1066
1065
1067
1065
1060
1055
1053
1055
1054
1055
1049
1045
1043
1041
1046
1043
1042
1040
1038
1041
1040
1039
1036
1035
1038
1037
1042
1041
1036
1036
1032
1035
1040
1037
1035
1034
1035
1033
1036
1037
1034
1031
1030
1031
1036
1033
1033
1029
1027
1030
1032
1033
1031
1030
1028
1031
1032
1033
1033
1028
1028
1032
1035
1035
1032
1031
1028
1034
1035
1033
1033
1031
1032
1031
1035
1034
1033
1030
1029
1033
1035
1034
1030
1028
1029
1028
1034
1033
1031
1027
1024
1027
1031
1030
1030
1028
1026
1029
1030
1029
1030
1026
1025
1027
1031
1032
1028
1026
1027
1027
1031
1031
1027
1024
1024
1024
1029
1027
1028
1023
1024
1027
1028
1027
1022
1022
1023
1025
1027
1028
1023
1022
1021
1023
1026
1026
1026
1024
1024
1026
1026
1023
1023
1020
1020
1023
1027
1025
1022
1020
1020
1021
1026
1027
1024
1021
1019
1020
1025
1025
1023
1022
1022
1023
1025
1026
1025
1020
1024
1026
1028
1027
1027
1022
1024
1025
1027
1027
1026
1023
1026
1025
1028
1028
1027
1025
1027
1027
1030
1033
1033
1032
1032
1034
1035
1038
1038
1037
1038
1038
1043
1041
1039
1036
1037
1037
1039
1035
1033
1030
1031
1033
1036
1037
1038
1034
1035
1038
1039
1040
1037
1035
1032
1030
1031
1032
1029
1027
1029
1030
1031
1032
1029
1026
1028
1028
1031
1032
1030
1027
1025
1028
1030
1029
1030
1027
1029
1031
1031
1032
1030
1028
1029
1033
1035
1035
1038
1037
1045
1058
1071
1080
1087
1098
1111
1140
1173
1202
1231
1262
1292
1330
1378
1419
1445
1440
1400
1323
1230
1147
1085
1044
1025
1024
1030
1034
1029
1027
1025
1023
1022
1020
1016
1009
1010
1010
1011
