1078
1088
1103
1134
1166
1199
1229
1258
1287
1322
1368
1405
1415
1397
1342
1257
1161
1089
1037
1007
996
999
1007
1014
1013
1005
1002
999
999
997
997
995
991
993
992
993
995
991
990
990
992
993
991
991
988
990
990
992
991
991
987
987
989
992
990
988
986
987
989
992
990
987
985
984
989
991
992
989
990
988
992
992
990
989
986
989
989
995
995
994
991
992
994
996
997
992
993
992
996
999
999
999
997
1000
1003
1008
1010
1006
1006
1010
1014
1019
1022
1018
1018
1023
1028
1031
1033
1033
1035
1039
1043
1050
1051
1051
1051
1052
1058
1063
1062
1061
1058
1057
1058
1057
1054
1051
1049
1048
1047
1048
1045
1041
1035
1035
1033
1034
1030
1028
1025
1023
1022
1022
1023
1019
1018
1021
1021
1023
1022
1018
1016
1015
1016
1021
1019
1018
1016
1015
1018
1018
1018
1014
1014
1013
1014
1017
1015
1011
1010
1010
1012
1015
1014
1012
1009
1010
1012
1013
1012
1009
1009
1009
1011
1014
1011
1008
1009
1011
1012
1015
1015
1011
1010
1011
1013
1016
1015
1010
1009
1009
1014
1016
1014
1008
1008
1008
1011
1012
1012
1011
1008
1008
1009
1010
1012
1006
1005
1007
1008
1011
1012
1009
1004
1006
1008
1008
1009
1007
1003
1004
1009
1008
1008
1006
1002
1005
1006
1008
1006
1003
1000
1001
1004
1010
1008
1005
1001
1002
1004
1008
1006
1004
1004
1003
1006
1007
1004
1002
1003
1003
1007
1009
1007
1003
1000
1002
1008
1010
1010
1006
1000
1003
1005
1007
1008
1004
1002
1004
1007
1010
1007
1006
1004
1004
1008
1009
1010
1006
1004
1004
1007
1008
1007
1005
1004
1001
1006
1010
1008
1009
1009
1009
1014
1016
1017
1015
1012
1015
1017
1023
1023
1019
1020
1019
1020
1019
1019
1015
1013
1013
1013
1017
1011
1013
1013
1014
1020
1022
1022
1018
1013
1016
1016
1017
1014
1006
1007
1008
1010
1014
1012
1009
1007
1008
1009
1013
1011
1006
1007
1009
1010
1010
1008
1009
1006
1004
1009
1011
1010
1009
1008
1009
1011
1011
1010
1010
1011
1013
1018
1021
1021
1025
1030
1039
1051
1065
1071
1079
1090
1112
1139
1167
1192
1216
1240
1270
1311
1358
1391
1401
1382
1328
1241
1155
1085
1040
1010
1001
1003
1007
1010
1009
1006
1005
1005
1007
1003
995
993
992
996
994
995
993
991
990
992
994
992
990
989
988
991
991
988
987
987
986
990
992
989
985
983
983
986
990
987
985
983
983
985
988
984
985
984
983
985
986
986
983
982
983
986
988
986
984
984
982
985
987
989
987
986
987
990
994
993
989
989
990
993
996
998
995
994
994
1000
1002
1003
999
1001
1003
1006
1009
1013
1013
1011
1012
1021
1023
1027
1028
1027
1030
1037
1041
1041
1041
1042
1044
1045
1049
1049
1047
1042
1042
1044
1045
1041
1037
1036
1033
1035
1034
1030
1025
1023
1023
1025
1026
1023
1018
1016
1018
1019
1022
1021
1016
1017
1017
1019
1018
1018
1016
1013
1015
1014
1014
1014
1013
1009
1009
1011
1013
1012
1009
1008
1009
1010
1015
1012
1010
1009
1008
1010
1012
1012
1008
1006
1010
1012
1015
1014
1009
1008
1008
1011
1014
1014
1013
1010
1008
1010
1014
1014
1009
1009
1008
1012
1014
1011
1009
1006
1005
1010
1010
1008
1009
1005
1003
1007
1011
1008
1007
1005
1005
1007
1009
1006
1005
1001
1005
1005
1007
1007
1000
1000
999
1003
1007
1005
1003
999
999
1002
1004
1003
1002
998
1000
1002
1004
1003
1000
999
998
1002
1005
1002
1000
997
998
999
1004
1003
999
1000
1000
1000
1005
1003
1002
998
999
1003
1002
1002
998
999
998
1003
1004
1005
1002
1000
1001
1003
1003
1004
1001
1002
1002
1004
1008
1006
1002
1001
1002
1004
1006
1006
1004
1001
1002
1005
1006
1007
1004
1002
1002
1006
1009
1005
1003
1003
1006
1009
1011
1012
1008
1007
1008
1015
1016
1016
1013
1010
1015
1018
1022
1020
1016
1016
1014
1016
1015
1010
1009
1004
1008
1011
1013
1014
1009
1008
1009
1012
1015
1015
1012
1011
1013
1012
1011
1007
1002
1001
1002
1007
1010
1010
1005
1003
1003
1007
1009
1010
1004
1004
1002
1008
1009
1006
1004
1002
1004
1005
1009
1007
1004
1004
1004
1007
1014
1014
1007
1007
1009
1013
1023
1030
1034
1043
1053
1066
1081
1101
1126
1155
1186
1218
1248
1271
1300
1343
1387
1417
1418
1377
1297
1201
1117
1060
1025
1004
1000
1001
1005
1009
1007
1006
1000
995
992
994
993
992
989
986
986
989
993
992
986
985
984
988
988
986
985
984
984
985
987
987
983
981
985
984
984
982
981
979
979
983
985
981
980
978
978
981
982
984
982
980
981
983
985
986
981
980
984
985
988
986
986
983
985
988
993
988
990
987
988
991
992
994
990
991
993
997
1000
999
1000
1000
1005
1008
1014
1015
1014
1013
1017
1025
1029
1030
1032
1035
1035
1040
1045
1048
1049
1049
1050
1052
1055
1054
1050
1047
1048
1049
1048
1044
1039
1035
1031
1033
1034
1028
1025
1021
1021
1021
1023
1021
1018
1016
1017
1019
1022
1018
1015
1012
1015
1017
1018
1017
1013
1011
1013
1015
1015
1014
1013
1008
1008
1012
1014
1011
1010
1010
1010
1012
1015
1013
1009
1009
1007
1011
1014
1011
1008
1008
1010
1011
1013
1014
1012
1009
1007
1011
1015
1012
1010
1008
1010
1014
1015
1014
1013
1011
1011
1014
1015
1014
1010
1010
1009
1011
1014
1014
1010
1010
1009
1014
1013
1013
1009
1008
1010
1011
1011
1012
1008
1005
1007
1011
1013
1012
1011
1007
1008
1009
1011
1011
1008
1006
1006
1009
1010
1007
1007
1005
1006
1006
1009
1008
1003
1001
1004
1007
1008
1009
1004
1003
1005
1007
1007
1011
1005
1004
1006
1009
1012
1007
1007
1005
1003
1008
1011
1008
1008
1004
1006
1008
1012
1011
1006
1007
1006
1009
1013
1010
1008
1006
1008
1010
1013
1013
1009
1011
1012
1014
1019
1019
1017
1016
1018
1024
1024
1027
1022
1022
1023
1023
1023
1020
1013
1011
1011
1017
1022
1019
1017
1014
1017
1020
1023
1022
1022
1020
1020
1018
1018
1014
1009
1007
1013
1012
1015
1014
1012
1010
1010
1016
1016
1011
1010
1006
1009
1012
1014
1015
1010
1008
1008
1010
1015
1012
1010
1008
1010
1014
1017
1017
1016
1015
1016
1024
1032
1038
1044
1054
1066
1081
1097
1119
1144
1173
1199
1231
1257
1288
1324
1362
1395
1404
1384
1328
1240
1152
1076
1033
1011
1001
1001
1003
1010
1010
1012
1009
1006
1001
999
999
1001
999
995
994
997
998
1000
996
995
992
992
995
997
998
995
992
991
996
997
993
991
991
992
995
994
993
989
987
990
990
993
991
985
986
987
992
995
991
990
988
990
990
992
991
988
985
987
990
993
992
990
988
990
993
996
996
993
992
994
995
1000
1002
996
995
1001
1002
1006
1005
1003
1004
1006
1010
1015
1015
1014
1013
1018
1020
1026
1028
1028
1033
1034
1040
1043
1042
1044
1043
1049
1055
1059
1058
1058
1056
1057
1060
1062
1058
1055
1052
1052
1055
1052
1051
1044
1042
1038
1043
1041
1037
1032
1028
1028
1027
1031
1027
1025
1023
1023
1023
1024
1024
1020
1020
1018
1021
1021
1021
1017
1018
1017
1019
1021
1020
1017
1016
1016
1015
1019
1017
1014
1011
1014
1014
1018
1017
1013
1010
1011
1012
1014
1013
1007
1006
1008
1012
1012
1011
1012
1012
1009
1013
1013
1013
1009
1007
1008
1011
1015
1015
1010
1010
1009
1014
1014
1013
1012
1010
1011
1015
1015
1014
1009
1008
1010
1011
1014
1010
1011
1008
1009
1012
1013
1012
1008
1009
1009
1010
1011
1007
1006
1002
1004
1009
1011
1009
1007
1004
1006
1006
1009
1005
1003
1002
1006
1007
1011
1012
1007
1005
1007
1007
1009
1006
1005
1002
1006
1004
1006
1006
1005
1003
1006
1009
1008
1007
1003
1001
1002
1006
1009
1008
1006
1005
1004
1007
1009
1008
1007
1003
1004
1007
1008
1005
1004
1003
1002
1007
1008
1008
1006
1002
1003
1007
1006
1007
1003
1000
1003
1006
1010
1008
1004
1001
1002
1005
1005
1006
1005
1002
1004
1007
1009
1008
1007
1007
1007
1011
1011
1010
1007
1008
1008
1012
1017
1015
1014
1012
1014
1014
1017
1021
1017
1020
1018
1015
1014
1013
1011
1007
1008
1013
1011
1011
1009
1009
1010
1014
1018
1016
1013
1014
1015
1015
1014
1012
1008
1003
1003
1007
1010
1009
1007
1003
1005
1006
1009
1008
1004
1004
1006
1006
1009
1009
1006
1002
1005
1006
1009
1008
1006
1002
1007
1008
1010
1007
1001
1005
1006
1009
1012
1009
1007
1006
1008
1012
1016
1017
1023
1023
1032
1044
1057
1062
1068
1073
1092
1115
1141
1163
1185
1206
1233
1261
1294
1332
1367
1390
1391
1366
1308
1228
1143
1080
1038
1013
1004
998
999
998
998
1003
1003
1001
995
994
992
991
994
988
987
985
984
987
989
986
984
984
983
985
987
985
981
980
981
985
988
986
981
976
976
981
982
982
981
976
977
980
981
979
976
973
976
979
982
980
975
973
976
980
982
981
977
973
976
979
981
977
977
975
978
982
983
983
980
978
979
983
985
986
981
983
985
985
987
985
984
987
988
991
995
992
991
989
993
997
1004
1005
1002
1005
1008
1013
1015
1017
1016
1017
1021
1026
1030
1032
1030
1032
1035
1039
1041
1040
1039
1037
1035
1041
1040
1039
1034
1029
1029
1029
1029
1025
1023
1019
1017
1021
1021
1017
1014
1012
1013
1015
1016
1014
1010
1008
1008
1013
1013
1011
1008
1007
1009
1011
1010
1007
1003
1003
1005
1008
1007
1007
1004
1002
1003
1005
1007
1003
1002
1000
1000
1004
1004
1004
1002
1000
1002
1005
1005
1004
1000
1002
1001
1005
1006
1002
1003
998
1003
1004
1006
1005
1002
1001
1001
1005
1003
1003
1001
1001
1000
1003
1004
1003
1000
1001
999
1003
1004
1001
997
996
998
1000
1000
1000
997
995
996
999
1001
999
995
993
997
997
1002
998
996
994
994
997
999
999
995
991
994
999
1001
998
996
993
995
999
998
1000
996
994
996
1000
1000
999
998
993
997
998
1001
1001
996
994
996
1000
1000
1001
996
994
998
1000
1002
998
998
996
995
1001
1004
1001
999
995
996
1000
1000
1000
999
994
999
1000
1001
1000
995
997
997
1000
1001
1000
997
995
998
1002
1002
1002
999
1000
997
1001
1004
1002
1001
999
1001
1003
1005
1004
1001
999
1004
1008
1011
1012
1008
1009
1009
1013
1014
1014
1013
1012
1013
1017
1017
1016
1010
1008
1008
1010
1011
1009
1007
1007
1010
1011
1015
1015
1013
1011
1010
1014
1014
1010
1004
1003
1003
1004
1006
1007
1003
1000
1003
1007
1007
1005
1003
1001
1001
1004
1007
1006
1002
1000
1000
1006
1005
1004
1001
1000
1001
1004
1006
1005
1001
1000
1002
1005
1009
1009
1009
1013
1019
1027
1037
1046
1055
1063
1080
1103
1135
1164
1187
1215
1247
1280
1312
1352
1385
1405
1405
1374
1311
1222
1137
1071
1031
1006
997
996
995
995
998
999
999
996
988
984
985
986
986
985
980
982
983
981
983
982
980
979
981
983
983
980
977
977
978
980
982
980
975
975
973
978
980
977
973
973
972
975
977
976
974
974
975
978
979
977
974
971
975
978
980
977
976
974
975
978
982
980
979
981
980
982
986
983
981
981
984
987
990
986
986
986
991
995
999
1000
998
1001
1003
1008
1011
1012
1013
1015
1018
1021
1027
1029
1028
1029
1034
1040
1044
1046
1044
1046
1049
1052
1053
1052
1050
1048
1049
1048
1047
1046
1039
1038
1036
1035
1033
1030
1024
1022
1021
1023
1023
1019
1016
1013
1013
1013
1016
1016
1011
1011
1011
1014
1016
1012
1013
1009
1012
1014
1016
1013
1011
1009
1010
1010
1011
1012
1008
1005
1007
1010
1007
1007
1006
1002
1003
1007
1011
1005
1003
1001
1004
1005
1006
1004
1003
1003
1003
1008
1009
1008
1003
1004
1003
1008
1009
1008
1007
1005
1008
1011
1014
1011
1008
1007
1006
1009
1010
1010
1010
1007
1008
1011
1010
1008
1006
1006
1009
1012
1013
1009
1007
1005
1006
1011
1014
1010
1008
1005
1005
1006
1008
1010
1006
1005
1006
1008
1009
1007
1005
1005
1007
1008
1011
1009
1006
1004
1007
1009
1011
1009
1006
1005
1007
1010
1012
1010
1007
1008
1009
1012
1014
1012
1006
1006
1007
1012
1011
1010
1008
1005
1007
1010
1011
1012
1010
1007
1008
1012
1012
1010
1007
1006
1011
1013
1012
1009
1008
1004
1007
1011
1013
1009
1008
1008
1010
1012
1014
1012
1012
1009
1012
1019
1021
1019
1018
1016
1020
1024
1024
1023
1022
1020
1020
1023
1026
1024
1018
1018
1017
1017
1020
1017
1015
1016
1018
1021
1022
1020
1019
1017
1021
1021
1024
1020
1018
1013
1010
1013
1013
1009
1010
1009
1011
1013
1015
1010
1010
1007
1009
1010
1013
1011
1009
1007
1010
1012
1012
1009
1008
1005
1010
1012
1014
1012
1011
1008
1010
1016
1017
1015
1013
1014
1015
1020
1024
1026
1028
1034
1043
1059
1070
1072
1084
1098
1124
1151
1180
1202
1226
1252
1284
1325
1366
1395
1401
1381
1328
1250
1162
1089
1038
1012
1003
1003
1009
1010
1009
1004
1007
1008
1007
1003
1000
997
999
998
1000
995
993
992
996
997
998
996
993
991
992
994
995
994
990
992
992
995
994
992
990
987
989
992
993
991
987
988
989
992
992
991
986
986
990
992
990
990
990
989
992
994
993
994
988
990
990
993
997
995
991
991
994
995
997
997
995
994
996
1000
1000
998
996
998
1002
1007
1009
1008
1007
1005
1007
1013
1016
1015
1017
1019
1023
1026
1030
1033
1031
1034
1040
1046
1046
1049
1049
1053
1054
1060
1061
1060
1055
1055
1056
1057
1055
1054
1045
1043
1042
1039
1040
1037
1034
1033
1028
1032
1031
1031
1024
1026
1022
1025
1022
1024
1020
1019
1018
1022
1021
1019
1017
1016
1016
1021
1021
1018
1018
1015
1016
1017
1019
1019
1017
1016
1015
1016
1018
1016
1012
1010
1012
1015
1015
1014
1011
1010
1012
1014
1016
1014
1012
1009
1011
1012
1016
1013
1010
1010
1014
1017
1017
1015
1014
1013
1014
1017
1017
1013
1010
1011
1014
1014
1016
1012
1009
1011
1011
1016
1017
1014
1011
1009
1012
1012
1015
1013
1010
1010
1007
1011
1015
1013
1008
1008
1010
1011
1013
1012
1009
1008
1008
1011
1012
1011
1006
1006
1008
1010
1013
1009
1006
1006
1009
1011
1010
1008
1006
1008
1007
1011
1013
1011
1007
1007
1007
1010
1010
1012
1010
1004
1007
1010
1011
1008
1007
1008
1008
1009
1011
1010
1007
1004
1006
1008
1011
1009
1005
1004
1007
1012
1010
1008
1006
1006
1011
1009
1012
1010
1007
1006
1010
1012
1012
1011
1009
1006
1009
1013
1014
1011
1009
1008
1012
1018
1019
1016
1014
1013
1017
1021
1024
1022
1021
1018
1022
1025
1026
1021
1020
1017
1016
1017
1019
1018
1015
1016
1015
1021
1021
1021
1020
1018
1019
1022
1022
1016
1011
1008
1008
1012
1013
1014
1009
1010
1011
1012
1012
1012
1009
1008
1011
1014
1016
1011
1010
1009
1009
1014
1017
1015
1010
1008
1013
1014
1017
1014
1013
1013
1017
1021
1023
1022
1023
1030
1039
1051
1062
1067
1073
1087
1107
1133
1163
1187
1213
1241
1276
1316
1362
1402
1411
1384
1321
1230
1136
1068
1027
1009
1008
1013
1015
1013
1010
1008
1007
1008
1007
1003
1001
997
998
999
999
999
995
995
996
996
997
995
996
997
999
998
998
994
994
991
993
996
997
993
990
991
993
995
994
992
990
992
990
993
995
991
989
990
992
995
993
992
989
989
992
995
995
994
990
990
992
994
994
995
993
995
998
999
1000
999
998
998
1002
1005
1007
1004
1002
1000
1006
1010
1012
1014
1010
1014
1016
1020
1025
1023
1022
1025
1030
1034
1039
1039
1038
1042
1045
1051
1051
1049
1049
1048
1050
1052
1052
1049
1046
1045
1043
1048
1044
1040
1036
1037
1036
1038
1036
1031
1029
1026
1027
1028
1029
1026
1023
1021
1024
1024
1023
1022
1021
1020
1023
1024
1023
1021
1020
1018
1019
1022
1023
1019
1017
1015
1017
1019
1020
1017
1015
1015
1016
1017
1019
1014
1014
1014
1017
1019
1019
1018
1015
1014
1019
1021
1019
1017
1016
1015
1017
1019
1021
1020
1017
1018
1017
1020
1020
1017
1015
1015
1018
1021
1023
1021
1018
1015
1017
1019
1021
1020
1016
1015
1016
1019
1018
1015
1014
1011
1015
1017
1016
1016
1011
1010
1011
1016
1018
1016
1012
1011
1011
1017
1016
1013
1010
1007
1012
1015
1014
1016
1011
1009
1013
1013
1013
1013
1009
1008
1011
1011
1013
1013
1010
1010
1010
1011
1013
1011
1011
1009
1012
1013
1013
1014
1010
1010
1010
1015
1013
1014
1011
1012
1011
1014
1014
1011
1011
1012
1012
1014
1014
1012
1010
1012
1012
1015
1016
1014
1011
1011
1015
1014
1017
1016
1013
1013
1014
1016
1017
1013
1013
1011
1015
1015
1015
1016
1010
1012
1014
1018
1021
1020
1017
1018
1020
1025
1027
1024
1025
1023
1027
1029
1030
1027
1025
1025
1025
1023
1021
1022
1019
1020
1022
1024
1026
1027
1025
1023
1025
1027
1028
1026
1019
1017
1016
1018
1022
1019
1015
1016
1017
1020
1019
1018
1015
1014
1018
1019
1018
1018
1014
1014
1015
1017
1018
1018
1013
1013
1016
1017
1018
1017
1014
1014
1017
1022
1022
1024
1027
1030
1039
1052
1065
1072
1079
1092
1119
1154
1185
1214
1242
1272
1308
1350
1391
1422
1428
1395
1327
1237
1144
1073
1031
1012
1009
1016
1020
1018
1013
1010
1011
1012
1007
1004
1000
999
1000
1000
999
998
997
996
998
999
1000
997
994
994
997
1001
997
997
993
991
993
996
998
995
992
991
993
994
994
992
989
991
994
994
994
993
988
989
992
995
995
995
992
992
993
994
997
994
994
992
996
998
998
999
997
995
1001
1003
1001
999
1000
999
1005
1007
1009
1010
1010
1010
1017
1023
1022
1027
1028
1031
1035
1042
1047
1049
1051
1051
1059
1065
1067
1066
1064
1063
1065
1063
1064
1059
1055
1053
1051
1051
1048
1043
1038
1037
1034
1036
1034
1031
1030
1030
1031
1031
1032
1029
1027
1027
1029
1030
1030
1030
1025
1024
1026
1029
1027
1027
1024
1021
1026
1025
1026
1023
1020
1022
1024
1026
1024
1022
1022
1019
1024
1027
1024
1022
1019
1020
1021
1024
1025
1024
1022
1022
1025
1026
1025
1027
1022
1023
1027
1029
1028
1028
1022
1023
1026
1029
1029
1027
1024
1023
1025
1027
1028
1026
1023
1024
1025
1028
1029
1023
1021
1021
1023
1029
1028
1023
1023
1020
1022
1025
1025
1022
1020
1021
1022
1025
1025
1024
1019
1021
1020
1025
1023
1021
1019
1021
1020
1025
1024
1021
1019
1019
1021
1024
1024
1022
1020
1020
1021
1023
1025
1023
1021
1019
1022
1025
1023
1023
1020
1021
1024
1026
1025
1025
1020
1021
1023
1023
1023
1023
1020
1021
1022
1023
1025
1022
1019
1019
1022
1024
1024
1023
1019
1018
1022
1024
1025
1027
1020
1021
1023
1027
1025
1024
1022
1019
1023
1026
1025
1023
1020
1023
1025
1026
1027
1027
1026
1026
1029
1034
1033
1034
1031
1031
1034
1037
1039
1037
1034
1035
1037
1042
1039
1036
1031
1030
1033
1034
1034
1034
1030
1032
1033
1036
1036
1036
1036
1033
1034
1035
1034
1027
1023
1025
1026
1027
1030
1030
1025
1026
1028
1032
1029
1028
1025
1025
1026
1028
1028
1025
1024
1022
1024
1027
1027
1024
1023
1022
1024
1027
1026
1025
1026
1025
1025
1031
1031
1031
1027
1035
1040
1049
1051
1058
1066
1074
1086
1098
1115
1134
1156
1183
1211
1237
1261
1289
1323
1360
1390
1401
1385
1341
1266
1179
1106
1061
1034
1020
1011
1014
1022
1027
1025
1022
1019
1018
1018
1016
1013
1012
1006
1008
1007
1010
1012
1007
1005
1005
1009
1010
1010
1007
1005
1004
1007
1009
1008
1005
1005
1003
1005
1006
1005
1003
1002
1001
1005
1004
1006
1004
1002
1002
1001
1000
1003
1003
1002
1004
1002
1008
1007
1003
1001
1001
1003
1005
1005
1004
1004
1005
1004
1006
1005
1006
1004
999
1004
1009
1008
1004
1005
1007
1010
1011
1012
1011
1009
1010
1014
1019
1020
1018
1017
1017
1022
1027
1029
1027
1028
1031
1033
1043
1043
1043
1042
1045
1049
1056
1055
1058
1060
1060
1063
1070
1070
1070
1066
1062
1067
1068
1066
