1010
1015
1013
1017
1013
1011
1010
1012
1013
1018
1016
1013
1010
1009
1013
1017
1016
1014
1010
1011
1015
1017
1014
1012
1009
1007
1012
1017
1012
1011
1008
1008
1010
1011
1011
1008
1007
1007
1012
1015
1012
1008
1008
1008
1009
1014
1012
1010
1011
1012
1014
1012
1013
1010
1009
1010
1013
1015
1013
1012
1010
1009
1012
1013
1014
1012
1009
1010
1013
1016
1014
1011
1011
1010
1012
1015
1014
1013
1011
1012
1016
1016
1016
1015
1015
1018
1018
1025
1024
1021
1020
1021
1023
1028
1026
1022
1020
1020
1022
1024
1022
1020
1016
1019
1021
1024
1022
1021
1019
1023
1026
1027
1026
1022
1020
1019
1020
1018
1016
1014
1012
1014
1017
1019
1016
1011
1011
1014
1013
1018
1017
1012
1010
1011
1014
1018
1018
1013
1009
1012
1016
1018
1018
1014
1013
1015
1019
1020
1021
1018
1015
1021
1026
1031
1034
1036
1048
1060
1074
1087
1101
1121
1151
1182
1215
1248
1277
1308
1339
1382
1422
1442
1433
1390
1308
1208
1122
1066
1032
1015
1008
1012
1015
1017
1015
1012
1006
1005
1005
1003
999
998
992
993
995
995
995
993
991
990
994
994
993
990
989
990
989
990
989
987
985
986
986
991
986
987
982
982
984
985
986
984
982
982
984
983
985
982
980
981
983
987
984
982
978
980
982
987
987
984
980
983
984
986
987
985
982
983
986
992
986
987
986
989
990
997
998
996
994
997
1002
1007
1009
1008
1010
1008
1018
1026
1026
1029
1030
1035
1040
1046
1049
1047
1049
1051
1052
1054
1051
1050
1048
1045
1047
1046
1042
1041
1033
1034
1032
1034
1030
1026
1025
1025
1025
1026
1027
1023
1019
1018
1022
1022
1023
1020
1019
1018
1019
1021
1019
1016
1017
1015
1016
1017
1016
1013
1015
1014
1016
1016
1014
1013
1012
1011
1014
1018
1015
1012
1010
1012
1013
1015
1012
1013
1011
1011
1015
1019
1017
1013
1013
1012
1017
1019
1017
1014
1012
1014
1017
1020
1017
1014
1010
1013
1014
1018
1016
1014
1011
1012
1015
1016
1013
1010
1008
1011
1012
1015
1012
1010
1010
1009
1013
1014
1012
1010
1009
1010
1011
1013
1012
1010
1009
1009
1011
1011
1013
1009
1006
1008
1011
1013
1015
1011
1008
1008
1012
1013
1011
1011
1010
1008
1010
1012
1013
1011
1008
1009
1010
1012
1012
1011
1007
1008
1011
1014
1012
1012
1009
1008
1011
1014
1013
1011
1010
1010
1013
1014
1011
1010
1006
1009
1012
1013
1013
1011
1010
1009
1011
1013
1014
1012
1010
1011
1013
1017
1014
1016
1014
1018
1020
1024
1024
1021
1020
1022
1024
1027
1027
1024
1024
1025
1026
1026
1024
1021
1018
1020
1018
1023
1022
1023
1020
1021
1023
1026
1025
1022
1023
1023
1024
1025
1021
1014
1013
1015
1015
1017
1016
1015
1013
1011
1014
1017
1016
1014
1012
1013
1013
1016
1014
1012
1011
1010
1014
1016
1016
1013
1011
1010
1015
1016
1017
1014
1012
1013
1016
1021
1019
1022
1021
1028
1035
1046
1055
1065
1072
1090
1111
1139
1167
1197
1226
1259
1290
1320
1354
1394
1427
1445
1442
1408
1332
1238
1148
1084
1047
1024
1014
1011
1010
1011
1014
1014
1012
1009
1004
1002
999
1000
997
993
993
991
994
997
994
991
987
987
992
994
992
988
987
988
989
990
989
987
984
983
985
988
986
981
978
982
981
985
987
982
978
977
980
982
981
979
979
979
983
983
982
980
978
981
981
984
982
981
981
981
984
986
985
985
985
985
986
988
987
984
983
987
989
993
991
989
991
991
994
997
1000
1000
999
1003
1007
1014
1014
1013
1015
1018
1023
1029
1031
1034
1034
1036
1040
1047
1049
1049
1052
1053
1059
1061
1061
1060
1055
1057
1060
1060
1056
1051
1048
1047
1045
1048
1042
1039
1035
1035
1034
1033
1028
1026
1023
1021
1023
1024
1023
1021
1019
1019
1021
1023
1021
1017
1017
1018
1019
1024
1021
1019
1015
1015
1015
1019
1019
1015
1014
1014
1014
1017
1016
1010
1010
1011
1013
1013
1014
1012
1008
1009
1008
1010
1010
1007
1005
1006
1009
1009
1009
1006
1006
1006
1008
1011
1010
1008
1003
1004
1008
1011
1008
1008
1008
1009
1010
1015
1012
1010
1011
1009
1014
1016
1014
1011
1011
1012
1014
1016
1016
1014
1009
1010
1012
1015
1015
1010
1007
1011
1012
1017
1013
1011
1009
1010
1010
1013
1015
1013
1007
1010
1012
1012
1013
1011
1006
1008
1010
1014
1011
1008
1006
1007
1011
1012
1013
1010
1005
1007
1007
1011
1006
1006
1006
1004
1009
1011
1009
1006
1004
1005
1008
1010
1011
1005
1002
1005
1007
1012
1010
1008
1006
1006
1008
1008
1005
1004
1003
1006
1009
1010
1007
1008
1002
1003
1008
1009
1008
1003
1003
1006
1008
1008
1006
1003
1002
1004
1007
1007
1005
1003
1001
1002
1007
1010
1009
1005
1002
1005
1008
1017
1016
1016
1013
1015
1016
1018
1016
1017
1016
1018
1021
1023
1021
1017
1012
1012
1015
1018
1016
1014
1013
1016
1016
1018
1018
1018
1016
1018
1020
1022
1019
1017
1008
1009
1009
1010
1011
1011
1006
1009
1010
1013
1009
1009
1005
1008
1010
1014
1012
1010
1008
1008
1011
1011
1011
1011
1007
1008
1010
1011
1009
1011
1007
1011
1012
1014
1011
1012
1010
1012
1019
1023
1026
1028
1034
1044
1059
1071
1080
1093
1111
1139
1175
1204
1231
1254
1278
1311
1351
1388
1409
1410
1383
1322
1238
1149
1083
1034
1009
999
998
1003
1007
1008
1004
1006
1006
1007
1001
997
992
991
996
998
995
992
989
990
991
993
993
989
987
992
991
994
992
987
986
986
988
993
991
991
986
986
988
991
987
985
982
983
986
991
987
985
981
982
986
988
987
984
982
983
985
986
985
987
985
987
988
990
988
985
985
984
990
990
989
985
987
987
989
992
992
991
986
990
995
996
994
994
995
996
1003
1004
1005
1005
1006
1007
1012
1018
1019
1020
1018
1025
1031
1035
1036
1039
1039
1043
1049
1054
1054
1053
1051
1054
1057
1058
1058
1054
1050
1050
1049
1049
1049
1042
1039
1040
1036
1036
1033
1029
1025
1024
1027
1029
1024
1023
1018
1020
1021
1023
1023
1019
1019
1021
1021
1023
1021
1017
1016
1017
1022
1020
1019
1016
1014
1014
1013
1017
1015
1012
1009
1009
1011
1013
1009
1007
1004
1007
1010
1010
1012
1006
1004
1004
1009
1010
1009
1006
1007
1006
1009
1010
1010
1010
1007
1009
1011
1011
1011
1008
1006
1009
1014
1014
1013
1011
1006
1009
1012
1014
1013
1010
1008
1008
1010
1014
1012
1009
1006
1008
1010
1011
1010
1005
1003
1005
1009
1012
1009
1008
1003
1005
1007
1009
1009
1004
1003
1003
1004
1009
1007
1005
1004
1004
1006
1008
1005
1003
1001
1001
1006
1008
1006
1003
1002
1002
1004
1007
1004
1002
999
1000
1003
1006
1005
1000
1002
1002
1004
1005
1005
1002
999
1000
1004
1007
1003
1003
1002
1002
1003
1004
1004
999
998
999
1002
1007
1004
1000
999
1000
1003
1006
1004
1001
1000
1001
1005
1006
1004
1003
1003
1005
1008
1010
1008
1007
1007
1010
1013
1015
1013
1013
1012
1014
1016
1019
1018
1015
1014
1012
1014
1012
1012
1009
1006
1011
1013
1015
1015
1011
1011
1010
1015
1019
1017
1016
1012
1011
1007
1012
1006
1002
1001
1006
1008
1009
1006
1004
1001
1004
1004
1007
1007
1001
1001
1000
1003
1006
1004
1003
1001
1001
1006
1006
1003
1002
1001
1003
1004
1008
1007
1004
1003
1005
1010
1014
1013
1013
1019
1025
1034
1050
1058
1066
1073
1093
1120
1149
1177
1199
1223
1254
1283
1318
1355
1390
1409
1410
1380
1321
1230
1141
1075
1034
1012
1001
1002
1000
1000
1002
1003
1003
1003
997
991
990
989
992
991
987
986
986
991
990
989
985
984
986
989
988
988
984
980
984
986
986
984
983
983
983
983
986
982
981
979
982
983
987
983
981
977
979
983
987
984
981
981
982
983
985
984
982
983
983
987
987
989
985
985
986
990
991
991
987
987
988
993
993
994
990
990
992
995
998
997
998
999
1002
1006
1009
1011
1008
1010
1013
1019
1023
1026
1027
1027
1032
1037
1043
1044
1044
1044
1051
1056
1059
1055
1054
1052
1053
1056
1055
1054
1050
1044
1046
1044
1044
1042
1039
1035
1033
1034
1033
1031
1028
1023
1026
1029
1030
1026
1023
1021
1023
1023
1026
1025
1023
1017
1019
1019
1023
1021
1017
1015
1016
1018
1018
1017
1014
1011
1013
1016
1020
1016
1012
1010
1013
1014
1018
1016
1011
1011
1012
1014
1019
1016
1015
1012
1013
1018
1020
1019
1018
1013
1015
1020
1020
1019
1016
1013
1015
1019
1020
1020
1017
1014
1017
1017
1019
1018
1016
1015
1017
1018
1021
1017
1016
1014
1016
1017
1019
1017
1015
1010
1011
1013
1017
1017
1012
1009
1013
1013
1015
1014
1009
1009
1012
1013
1015
1014
1009
1009
1010
1010
1014
1011
1009
1008
1010
1010
1013
1010
1007
1008
1007
1009
1012
1011
1010
1007
1010
1011
1013
1012
1011
1008
1009
1013
1012
1012
1007
1008
1009
1013
1017
1012
1010
1008
1010
1011
1013
1014
1009
1005
1010
1011
1013
1012
1009
1009
1009
1012
1014
1014
1011
1008
1008
1012
1014
1012
1010
1007
1009
1012
1013
1013
1008
1009
1009
1013
1014
1014
1010
1009
1009
1014
1020
1018
1017
1015
1021
1021
1025
1022
1022
1021
1025
1027
1029
1026
1027
1023
1025
1025
1026
1020
1019
1021
1020
1020
1024
1022
1023
1018
1021
1024
1026
1024
1019
1020
1018
1020
1019
1013
1012
1011
1011
1014
1017
1015
1012
1011
1011
1013
1017
1017
1013
1011
1011
1017
1018
1018
1013
1014
1016
1016
1018
1016
1016
1014
1014
1017
1019
1017
1016
1015
1020
1025
1028
1028
1036
1037
1052
1069
1079
1088
1104
1124
1155
1191
1226
1255
1285
1311
1350
1394
1433
1452
1440
1396
1318
1222
1139
1071
1031
1014
1012
1016
1021
1018
1012
1010
1009
1006
1006
1002
997
997
995
998
999
997
993
991
992
996
997
994
990
990
990
992
993
994
990
985
985
989
990
988
986
984
988
990
989
990
986
984
987
989
989
989
984
986
987
988
990
990
986
987
988
990
990
991
986
984
989
993
995
993
990
990
989
995
997
995
992
993
996
997
1000
1000
998
999
1003
1007
1010
1008
1008
1007
1013
1017
1021
1025
1024
1025
1031
1039
1039
1043
1045
1045
1050
1056
1060
1061
1060
1061
1063
1068
1071
1066
1063
1061
1062
1061
1062
1057
1050
1049
1048
1046
1046
1043
1037
1036
1035
1035
1038
1035
1032
1029
1029
1032
1033
1031
1030
1028
1030
1031
1032
1029
1027
1027
1028
1030
1030
1026
1024
1021
1025
1028
1029
1028
1024
1020
1022
1024
1028
1026
1024
1020
1023
1025
1026
1024
1021
1018
1021
1022
1025
1021
1021
1020
1022
1024
1026
1027
1025
1022
1023
1026
1027
1026
1024
1023
1026
1028
1029
1027
1024
1025
1026
1031
1029
1026
1025
1024
1024
1030
1029
1027
1025
1025
1027
1027
1030
1026
1024
1024
1026
1027
1027
1024
1022
1020
1022
1025
1027
1024
1022
1019
1020
1024
1026
1023
1021
1018
1018
1022
1025
1024
1024
1019
1022
1024
1025
1023
1019
1019
1023
1024
1024
1022
1016
1018
1018
1022
1026
1023
1021
1019
1018
1022
1023
1022
1022
1019
1021
1022
1024
1021
1020
1019
1021
1023
1023
1024
1022
1019
1021
1023
1027
1024
1022
1020
1020
1020
1024
1023
1021
1020
1023
1025
1028
1025
1024
1026
1028
1030
1033
1031
1030
1030
1032
1035
1038
1036
1034
1030
1032
1032
1031
1031
1026
1025
1028
1032
1034
1034
1031
1031
1032
1034
1033
1032
1028
1023
1025
1025
1026
1024
1022
1020
1019
1024
1024
1023
1020
1023
1023
1023
1025
1024
1019
1021
1021
1025
1023
1022
1022
1021
1021
1023
1027
1023
1022
1021
1023
1025
1028
1031
1030
1036
1044
1052
1065
1076
1085
1100
1119
1149
1180
1211
1237
1265
1297
1330
1374
1411
1427
1418
1375
1293
1194
1108
1054
1026
1017
1017
1019
1023
1020
1017
1018
1017
1014
1010
1001
999
1002
1002
1004
1001
999
996
997
998
998
999
996
996
997
999
997
999
995
992
994
996
997
998
992
991
993
996
996
993
990
988
988
991
994
992
990
991
992
993
994
991
989
989
990
993
994
992
990
988
990
992
994
995
992
991
990
993
993
992
992
992
995
996
1000
997
995
996
996
1002
1006
1006
1005
1005
1009
1013
1019
1021
1017
1018
1024
1030
1033
1036
1039
1041
1046
1050
1055
1054
1052
1051
1049
1055
1057
1054
1049
1047
1047
1048
1047
1044
1039
1036
1036
1034
1034
1033
1025
1024
1024
1028
1027
1026
1021
1020
1023
1026
1023
1023
1020
1018
1021
1026
1022
1022
1017
1016
1019
1018
1020
1018
1014
1014
1014
1016
1017
1016
1012
1012
1014
1016
1015
1015
1011
1012
1012
1014
1014
1013
1012
1012
1013
1015
1015
1012
1014
1011
1015
1016
1017
1014
1012
1009
1013
1017
1018
1016
1014
1011
1013
1015
1015
1014
1012
1011
1012
1014
1017
1013
1010
1010
1012
1015
1014
1010
1009
1006
1011
1013
1013
1011
1008
1005
1008
1010
1012
1011
1005
1005
1009
1012
1012
1009
1006
1004
1005
1010
1012
1012
1008
1005
1006
1008
1009
1008
1006
1006
1007
1009
1009
1008
1006
1007
1007
1009
1007
1006
1002
1003
1007
1008
1009
1008
1006
1008
1009
1010
1011
1008
1008
1005
1006
1009
1010
1009
1005
1006
1006
1008
1010
1009
1005
1005
1008
1008
1011
1008
1005
1006
1009
1011
1010
1008
1007
1008
1009
1013
1014
1012
1011
1009
1010
1017
1019
1019
1017
1016
1014
1019
1025
1023
1020
1019
1019
1022
1024
1019
1016
1012
1014
1019
1017
1016
1015
1014
1015
1020
1020
1020
1017
1017
1017
1019
1015
1014
1011
1007
1010
1012
1011
1011
1009
1009
1010
1011
1011
1013
1013
1007
1009
1012
1011
1014
1010
1008
1008
1013
1014
1010
1010
1008
1011
1016
1017
1014
1012
1013
1016
1023
1027
1031
1039
1050
1067
1084
1106
1137
1177
1220
1266
1315
1371
1429
1449
1397
1277
1149
1059
1018
1005
1007
1013
1015
1015
1011
1002
998
997
999
996
995
992
991
991
995
999
993
990
990
989
992
993
991
988
987
989
989
989
988
986
984
985
986
987
986
981
982
982
988
988
986
982
982
985
990
990
988
985
985
987
990
991
990
989
989
991
992
994
991
991
989
993
995
997
997
995
995
997
1002
1004
1007
1007
1005
1012
1012
1016
1017
1018
1023
1030
1032
1037
1039
1041
1040
1047
1054
1058
1057
1056
1059
1059
1063
1065
1062
1056
1058
1056
1059
1057
1054
1047
1045
1045
1047
1045
1040
1036
1032
1035
1035
1035
1030
1029
1028
1027
1029
1028
1027
1024
1024
1025
1030
1032
1026
1024
1023
1023
1026
1027
1024
1022
1020
1024
1024
1024
1021
1021
1017
1021
1022
1022
1022
1017
1016
1019
1021
1022
1021
1017
1018
1018
1019
1022
1018
1016
1015
1016
1018
1019
1018
1016
1017
1019
1022
1023
1022
1021
1021
1022
1024
1024
1022
1019
1020
1021
1024
1028
1022
1021
1022
1022
1026
1025
1024
1023
1022
1024
1028
1027
1025
1021
1021
1023
1026
1027
1026
1023
1022
1022
1025
1026
1024
1022
1021
1021
1025
1024
1025
1022
1018
1022
1022
1023
1021
1018
1018
1021
1021
1022
1023
1018
1019
1021
1023
1023
1021
1018
1018
1018
1021
1020
1020
1019
1017
1018
1020
1022
1019
1016
1018
1019
1021
1020
1021
1016
1016
1017
1021
1021
1021
1019
1016
1018
1021
1023
1020
1017
1016
1018
1022
1024
1020
1017
1017
1022
1025
1023
1026
1022
1021
1022
1023
1023
1022
1019
1020
1021
1026
1024
1020
1020
1020
1022
1024
1026
1023
1022
1023
1025
1027
1028
1027
1027
1027
1031
1032
1033
1031
1030
1028
1032
1038
1037
1035
1031
1031
1033
1035
1037
1033
1027
1025
1026
1030
1031
1029
1028
1025
1029
1033
1033
1032
1031
1029
1030
1032
1032
1027
1023
1022
1022
1024
1025
1023
1021
1021
1023
1025
1026
1024
1022
1019
1021
1025
1024
1023
1021
1017
1017
1023
1021
1022
1020
1020
1021
1027
1025
1024
1023
1020
1024
1026
1028
1027
1024
1025
1030
1036
1041
1046
1051
1064
1077
1090
1100
1113
1136
1165
1199
1232
1264
1293
1319
1355
1396
1434
1445
1434
1399
1334
1253
1172
1104
1055
1026
1013
1011
1014
1022
1020
1014
1016
1016
1014
1014
1010
1006
1005
1004
1008
1007
1003
1000
1000
1004
1005
1004
1004
1001
999
1002
1002
1004
1004
1003
1000
1002
1002
1004
1000
997
996
998
1003
1002
1001
1000
997
997
1002
1003
1001
1000
999
1001
1000
1000
999
996
995
1000
1001
1004
1002
997
999
1000
1003
1001
1002
999
999
1001
1003
1003
1001
999
999
1002
1007
1006
1006
1005
1003
1003
1008
1008
1007
1009
1010
1012
1013
1015
1016
1015
1016
1022
1023
1030
1028
1030
1030
1035
1041
1043
1043
1044
1048
1054
1058
1061
1064
1065
1066
1067
1073
1075
1070
1069
1067
1067
1065
1065
1063
1058
1054
1052
1053
1049
1046
1043
1038
1040
1037
1038
1037
1035
1031
1033
1034
1030
1028
1029
1030
1031
1031
1029
1028
1025
1022
1028
1026
1028
1024
1021
1022
1022
1025
1025
1023
1020
1020
1022
1022
1023
1017
1015
1018
1017
1019
1020
1018
1014
1016
1017
1018
1020
1019
1014
1014
1016
1018
1019
1016
1017
1017
1019
1021
1023
1022
1018
1019
1020
1024
1023
1024
1022
1019
1020
1025
1024
1019
1021
1020
1023
1024
1023
1022
1021
1019
1021
1022
1022
1020
1014
1016
1017
1021
1021
1020
1019
1018
1018
1020
1022
1020
1018
1019
1020
1020
1018
1018
1015
1016
1020
1021
1019
1015
1014
1015
1018
1020
1020
1018
1013
1012
1013
1018
1018
1017
1016
1014
1019
1018
1021
1019
1014
1015
1014
1020
1018
1015
1014
1014
1017
1018
1015
1014
1014
1014
1017
1015
1016
1014
1013
1013
1015
1018
1017
1016
1012
1010
1014
1017
1017
1018
1011
1012
1016
1016
1017
1016
1014
1015
1017
1018
1019
1018
1014
1015
1015
1021
1020
1019
1018
1018
1020
1025
1024
1023
1023
1023
1029
1031
1028
1028
1024
1026
1027
1026
1024
1022
1017
1020
1021
1024
1023
1023
1023
1023
1025
1026
1026
1027
1023
1027
1028
1029
1026
1023
1015
1013
1020
1021
1021
1020
1018
1018
1017
1021
1020
1019
1015
1013
1018
1021
1022
1019
1013
1016
1016
1017
1019
1019
1020
1018
1020
1022
1021
1021
1018
1020
1020
1023
1024
1024
1024
1025
1031
1041
1049
1059
1065
1075
1085
1105
1122
1146
1171
1200
1228
1259
1284
1313
1345
1385
1421
1436
1417
1363
1269
1173
1092
1047
1023
1016
1014
1018
1018
1021
1020
1016
1011
1009
1006
1006
1004
1002
1001
1000
1000
1002
1002
1001
996
997
1000
1001
1000
999
995
996
998
999
999
997
994
993
995
997
997
994
992
992
992
995
995
994
991
989
991
993
993
992
989
989
993
995
995
995
989
989
991
994
992
993
990
992
994
996
996
995
992
993
994
996
997
996
995
995
998
1001
1002
1002
1002
1002
1004
1008
1010
1010
1011
1013
1014
1019
1021
1024
1022
1025
1031
1038
1039
1041
1041
1042
1048
1054
1054
1059
1056
1057
1058
1061
1061
1056
1054
1053
1052
1054
1048
1048
1041
1039
1042
1044
1042
1039
1035
1033
1032
1037
1035
1029
1030
1028
1029
1034
1032
1027
1024
1024
1028
1033
1031
1029
1026
1026
1027
1028
1026
1025
1019
1024
1024
1025
1025
1021
1019
1019
1021
1027
1026
1024
1021
1020
1021
1024
1025
1021
1020
1020
1022
1023
1025
1024
1018
1021
1024
1025
1026
1023
1021
1021
1022
1025
1025
1023
1020
1022
1023
1026
1026
1022
1022
1020
1021
1027
1023
1021
1019
1020
1020
1023
1023
1020
1017
1015
1019
1023
1022
1018
1018
1018
1020
1022
1022
1019
1015
1017
1021
1020
1022
1020
1016
1014
1019
1021
1018
1020
1016
1015
1019
1021
1021
1018
1016
1016
1019
1016
1021
1019
1016
1014
1019
1019
1019
1017
1016
1015
1018
1020
1019
1017
1016
1017
1018
1022
1020
1015
1016
1017
1018
1021
1020
1018
1014
1015
1019
1020
1020
1019
1015
1017
1018
1022
1021
1019
1017
1018
1017
1022
1021
1019
1018
1016
1019
1023
1021
1022
1020
1019
1023
1026
1023
1019
1021
1021
1024
1028
1026
1027
1024
1027
1031
1032
1037
1034
1031
1030
1034
1041
1036
1037
1036
1035
1034
1033
1031
1028
1027
1024
1030
1031
1032
1029
1027
