983
984
984
988
988
987
986
982
984
990
989
994
991
989
989
992
995
994
995
995
999
1002
1009
1008
1008
1007
1012
1019
1023
1025
1025
1024
1029
1034
1039
1043
1043
1046
1048
1054
1058
1059
1056
1055
1057
1059
1058
1056
1055
1048
1047
1047
1049
1042
1039
1035
1032
1036
1034
1030
1026
1022
1022
1025
1025
1024
1022
1018
1015
1019
1023
1021
1019
1015
1014
1017
1018
1019
1017
1014
1016
1016
1018
1018
1017
1012
1015
1015
1018
1015
1012
1009
1010
1013
1014
1013
1008
1008
1008
1009
1012
1011
1007
1003
1003
1008
1009
1009
1004
1002
1003
1005
1008
1006
1003
1005
1003
1007
1008
1007
1004
1005
1003
1006
1012
1010
1008
1004
1007
1009
1008
1008
1007
1006
1005
1009
1013
1011
1009
1006
1007
1012
1013
1013
1008
1009
1009
1011
1013
1012
1009
1005
1006
1010
1010
1013
1008
1003
1006
1005
1009
1009
1008
1007
1004
1008
1009
1006
1005
1005
1008
1007
1012
1008
1006
1004
1005
1007
1008
1009
1008
1005
1007
1009
1012
1010
1007
1005
1004
1006
1005
1005
1005
1003
1001
1008
1011
1009
1005
1003
1004
1008
1010
1008
1007
1005
1005
1008
1009
1007
1005
1003
1005
1005
1009
1007
1008
1005
1007
1009
1011
1011
1009
1003
1004
1006
1010
1010
1009
1008
1008
1010
1012
1009
1008
1009
1011
1012
1016
1016
1014
1013
1014
1016
1019
1020
1021
1020
1022
1026
1024
1022
1020
1016
1015
1019
1019
1017
1015
1014
1015
1019
1024
1024
1020
1016
1015
1016
1020
1015
1010
1009
1010
1013
1016
1013
1010
1008
1009
1011
1015
1012
1009
1006
1007
1011
1013
1011
1012
1008
1010
1010
1013
1013
1010
1009
1012
1016
1017
1018
1014
1015
1016
1020
1023
1023
1026
1029
1032
1040
1055
1064
1073
1084
1097
1120
1146
1176
1207
1235
1267
1299
1333
1366
1405
1430
1434
1408
1349
1258
1168
1101
1054
1028
1019
1016
1016
1013
1012
1013
1013
1011
1005
999
995
997
998
993
992
992
992
995
996
993
989
988
990
993
994
992
987
986
988
993
993
989
988
986
987
985
987
988
984
984
986
989
989
987
985
983
983
985
989
984
980
979
979
982
984
984
982
984
984
987
987
983
981
978
980
986
987
989
986
985
984
985
991
990
987
985
987
990
994
993
991
992
994
998
1004
1005
1005
1005
1007
1014
1017
1021
1021
1020
1025
1031
1038
1042
1043
1043
1048
1053
1058
1057
1055
1055
1057
1058
1060
1059
1055
1054
1052
1053
1052
1049
1045
1039
1036
1040
1039
1035
1031
1029
1030
1031
1033
1031
1028
1023
1024
1026
1029
1028
1027
1025
1026
1027
1029
1028
1025
1024
1025
1026
1028
1025
1019
1018
1017
1023
1025
1025
1023
1019
1021
1021
1023
1023
1020
1018
1019
1020
1023
1021
1020
1016
1015
1020
1022
1021
1019
1016
1016
1019
1020
1020
1017
1016
1017
1019
1020
1020
1017
1015
1017
1020
1023
1021
1019
1016
1016
1018
1021
1018
1020
1017
1016
1020
1023
1019
1017
1012
1015
1017
1019
1020
1015
1013
1015
1017
1020
1018
1015
1013
1017
1019
1018
1019
1016
1013
1014
1015
1018
1016
1013
1014
1009
1014
1016
1015
1014
1010
1012
1015
1017
1014
1010
1012
1011
1015
1019
1017
1014
1012
1014
1014
1018
1016
1015
1013
1015
1018
1017
1018
1014
1011
1014
1016
1018
1017
1012
1011
1016
1014
1016
1018
1015
1012
1014
1016
1019
1015
1016
1011
1012
1014
1017
1015
1014
1009
1012
1013
1019
1017
1015
1013
1015
1016
1017
1019
1014
1014
1015
1019
1020
1017
1017
1014
1016
1020
1025
1024
1025
1023
1023
1025
1028
1028
1027
1027
1028
1031
1032
1031
1027
1026
1028
1030
1030
1025
1023
1022
1022
1025
1028
1027
1025
1024
1026
1028
1033
1032
1025
1027
1025
1026
1026
1021
1019
1015
1017
1018
1022
1023
1019
1017
1018
1020
1023
1021
1016
1016
1019
1020
1023
1020
1018
1017
1016
1019
1023
1022
1020
1018
1021
1022
1025
1023
1023
1022
1026
1031
1032
1037
1041
1045
1060
1076
1087
1099
1112
1134
1169
1204
1238
1272
1297
1327
1364
1408
1447
1464
1462
1421
1345
1255
1171
1104
1059
1028
1018
1020
1024
1024
1023
1018
1016
1017
1014
1008
1004
1001
1004
1003
1004
1001
999
996
997
1000
1004
1004
999
996
997
999
1001
998
995
994
993
995
997
996
989
989
992
994
996
994
992
988
989
993
995
994
989
987
988
991
992
991
990
987
987
989
994
992
987
988
991
997
995
996
994
992
997
999
1002
999
997
995
999
1004
1005
1006
1007
1006
1009
1011
1016
1017
1015
1016
1019
1025
1032
1032
1031
1032
1038
1043
1049
1049
1054
1054
1055
1063
1067
1070
1069
1068
1070
1073
1074
1070
1064
1063
1061
1064
1063
1059
1054
1050
1052
1046
1048
1043
1043
1037
1037
1039
1040
1037
1033
1032
1032
1036
1037
1034
1032
1030
1029
1031
1035
1031
1029
1027
1028
1030
1031
1031
1027
1025
1027
1031
1034
1029
1027
1025
1024
1027
1030
1026
1026
1021
1023
1026
1025
1022
1022
1021
1022
1023
1025
1023
1019
1021
1020
1023
1026
1027
1021
1021
1021
1025
1027
1026
1021
1023
1024
1025
1029
1028
1023
1022
1026
1028
1028
1025
1024
1024
1024
1029
1030
1028
1025
1024
1024
1024
1027
1026
1022
1023
1023
1026
1029
1027
1021
1022
1023
1022
1027
1026
1021
1020
1020
1022
1025
1024
1021
1018
1017
1021
1024
1022
1019
1018
1019
1022
1023
1024
1019
1019
1019
1022
1022
1022
1019
1017
1019
1021
1022
1022
1021
1018
1020
1022
1023
1022
1019
1016
1021
1021
1024
1023
1020
1018
1018
1022
1024
1020
1019
1018
1018
1022
1023
1023
1017
1016
1019
1021
1022
1024
1019
1016
1021
1022
1024
1024
1021
1019
1020
1021
1024
1025
1020
1021
1023
1025
1026
1026
1024
1023
1023
1027
1033
1032
1029
1028
1029
1035
1037
1034
1034
1031
1032
1036
1037
1032
1029
1024
1025
1028
1028
1031
1026
1027
1027
1034
1034
1035
1032
1030
1033
1035
1033
1029
1025
1021
1021
1024
1026
1026
1022
1019
1021
1023
1024
1023
1023
1020
1024
1026
1025
1022
1019
1019
1022
1024
1024
1024
1020
1020
1023
1023
1024
1023
1021
1022
1023
1030
1031
1034
1035
1040
1051
1063
1077
1089
1096
1110
1138
1170
1200
1230
1253
1279
1308
1343
1382
1421
1441
1438
1404
1334
1240
1144
1074
1036
1019
1018
1020
1024
1021
1017
1014
1015
1017
1012
1008
1005
1004
1006
1007
1006
1005
1002
1001
1004
1006
1004
1001
1002
1002
1004
1004
1002
999
998
1000
1000
1003
1000
997
997
995
999
1001
999
997
993
994
998
1001
998
995
995
995
999
998
998
995
993
992
995
997
998
993
994
996
996
1000
999
997
996
996
998
1000
1001
1000
1002
1004
1005
1009
1007
1009
1007
1013
1019
1022
1025
1027
1028
1032
1037
1041
1041
1043
1047
1049
1052
1059
1061
1062
1062
1064
1065
1067
1063
1062
1061
1059
1056
1056
1052
1049
1045
1040
1044
1041
1040
1035
1033
1034
1032
1034
1032
1029
1026
1027
1029
1031
1027
1025
1023
1023
1024
1028
1026
1023
1021
1020
1024
1025
1021
1021
1020
1021
1023
1023
1020
1016
1013
1016
1019
1021
1019
1015
1011
1012
1016
1019
1015
1010
1009
1011
1013
1016
1015
1013
1013
1009
1014
1015
1013
1010
1011
1012
1015
1018
1017
1014
1012
1013
1017
1017
1018
1016
1013
1015
1016
1021
1018
1019
1014
1015
1018
1017
1016
1013
1013
1013
1017
1018
1016
1013
1009
1010
1013
1018
1014
1011
1009
1012
1014
1016
1013
1012
1010
1011
1015
1018
1013
1010
1009
1007
1012
1013
1012
1012
1009
1010
1010
1013
1011
1007
1008
1009
1011
1012
1010
1009
1007
1008
1011
1012
1008
1007
1007
1010
1012
1011
1010
1008
1006
1008
1011
1011
1009
1007
1006
1008
1011
1012
1009
1007
1007
1008
1011
1011
1010
1006
1006
1008
1009
1012
1012
1010
1006
1010
1012
1016
1015
1014
1013
1012
1020
1021
1021
1020
1019
1020
1023
1023
1020
1016
1011
1012
1016
1016
1018
1015
1015
1013
1017
1018
1020
1016
1015
1012
1012
1015
1014
1007
1009
1008
1013
1016
1014
1010
1008
1008
1012
1011
1013
1007
1006
1009
1014
1014
1010
1008
1007
1009
1012
1014
1011
1009
1012
1011
1013
1017
1016
1015
1016
1019
1024
1033
1035
1042
1054
1067
1085
1099
1119
1143
1177
1206
1238
1267
1293
1321
1354
1397
1431
1443
1425
1366
1274
1176
1101
1055
1026
1007
1004
1009
1015
1013
1011
1007
1004
1000
1000
1000
995
992
993
994
995
993
993
989
990
990
992
997
996
988
986
989
991
994
992
990
988
989
990
987
988
986
987
987
991
993
989
985
983
987
987
987
988
983
984
986
988
986
984
982
982
984
988
988
988
983
982
982
988
989
990
988
986
987
990
992
990
989
989
990
992
993
992
994
992
999
1000
1002
1003
1002
1003
1007
1015
1018
1021
1020
1021
1026
1031
1035
1036
1039
1041
1047
1055
1059
1058
1058
1058
1061
1064
1067
1066
1062
1060
1059
1059
1058
1055
1050
1048
1045
1046
1045
1042
1037
1034
1035
1037
1036
1033
1028
1027
1028
1030
1032
1032
1028
1027
1030
1031
1032
1034
1029
1029
1029
1028
1029
1027
1024
1023
1026
1026
1027
1028
1021
1019
1022
1025
1027
1021
1018
1017
1020
1023
1024
1022
1020
1020
1020
1023
1024
1022
1019
1021
1022
1025
1025
1025
1020
1019
1021
1024
1026
1024
1022
1024
1022
1024
1026
1025
1023
1019
1021
1024
1028
1025
1022
1020
1022
1024
1027
1024
1021
1019
1019
1022
1023
1023
1019
1016
1018
1023
1025
1023
1019
1019
1019
1020
1022
1020
1019
1016
1018
1020
1020
1017
1015
1014
1017
1018
1022
1019
1015
1013
1016
1019
1022
1019
1015
1014
1015
1018
1016
1017
1013
1013
1016
1018
1018
1016
1014
1014
1017
1019
1019
1016
1013
1014
1014
1019
1018
1019
1013
1015
1014
1016
1018
1017
1016
1011
1013
1015
1019
1018
1016
1016
1018
1021
1024
1024
1024
1022
1027
1028
1029
1029
1025
1026
1027
1030
1027
1025
1022
1022
1023
1026
1026
1023
1023
1022
1026
1031
1030
1027
1024
1019
1018
1018
1019
1020
1015
1014
1017
1018
1019
1019
1014
1015
1016
1017
1020
1018
1017
1016
1017
1022
1020
1020
1016
1017
1017
1020
1020
1022
1018
1020
1021
1021
1023
1024
1022
1027
1032
1042
1050
1057
1067
1076
1092
1107
1130
1159
1192
1223
1256
1289
1322
1354
1395
1434
1464
1469
1439
1373
1281
1191
1119
1070
1039
1023
1016
1018
1020
1022
1020
1018
1013
1008
1005
1005
1004
1003
997
998
999
999
1002
1001
997
993
995
995
997
995
992
992
992
995
996
992
991
989
990
993
994
989
987
985
985
991
988
988
986
985
986
990
990
987
984
986
989
991
989
987
987
985
990
993
995
990
987
985
986
994
994
991
990
987
990
992
994
994
992
993
995
997
1001
1000
997
1000
1002
1007
1010
1012
1013
1011
1018
1021
1026
1025
1026
1029
1036
1044
1045
1047
1047
1050
1056
1061
1065
1064
1064
1064
1066
1067
1067
1063
1064
1061
1061
1062
1062
1056
1052
1048
1049
1049
1048
1043
1040
1035
1036
1037
1035
1031
1029
1029
1028
1033
1030
1029
1026
1023
1026
1028
1030
1028
1025
1023
1025
1026
1028
1026
1021
1023
1025
1027
1025
1024
1020
1022
1021
1021
1024
1024
1017
1016
1019
1022
1021
1018
1018
1015
1020
1021
1019
1020
1015
1014
1017
1019
1019
1019
1017
1015
1019
1019
1021
1021
1016
1018
1018
1023
1023
1021
1018
1019
1019
1023
1024
1022
1021
1021
1022
1025
1024
1024
1023
1021
1022
1027
1024
1025
1022
1020
1024
1024
1027
1025
1022
1021
1024
1025
1026
1023
1022
1021
1023
1026
1025
1023
1022
1020
1021
1024
1023
1022
1019
1019
1020
1022
1021
1019
1016
1017
1019
1023
1023
1020
1016
1018
1019
1019
1019
1021
1016
1016
1018
1019
1019
1016
1015
1016
1018
1020
1021
1019
1014
1014
1018
1020
1020
1019
1016
1016
1017
1021
1021
1017
1016
1015
1017
1022
1021
1019
1015
1017
1017
1020
1021
1020
1018
1017
1021
1022
1022
1019
1018
1018
1020
1024
1023
1021
1018
1018
1021
1023
1025
1024
1023
1019
1023
1027
1030
1028
1027
1030
1032
1034
1035
1032
1028
1032
1032
1035
1036
1035
1029
1025
1025
1029
1029
1028
1026
1025
1028
1030
1031
1030
1030
1030
1033
1034
1032
1027
1025
1021
1021
1023
1025
1023
1021
1021
1019
1023
1023
1022
1022
1021
1025
1025
1025
1022
1020
1021
1022
1024
1024
1025
1022
1022
1023
1028
1024
1024
1024
1024
1027
1029
1032
1031
1035
1039
1046
1060
1066
1077
1082
1094
1113
1138
1166
1197
1222
1249
1281
1312
1344
1383
1420
1444
1446
1419
1357
1258
1164
1094
1052
1032
1022
1020
1022
1024
1023
1023
1022
1019
1015
1011
1010
1010
1010
1007
1003
1002
1006
1006
1005
1004
1002
999
1001
1004
1007
1004
1001
1001
1002
1006
1004
1002
997
999
999
1002
1002
1001
999
996
1000
1000
998
997
995
994
997
1001
999
1000
995
996
998
1004
1000
999
996
996
1000
1000
999
999
995
994
998
998
1001
1000
998
998
998
1002
1000
1001
997
998
1001
1005
1006
1006
1004
1004
1008
1012
1015
1016
1017
1020
1023
1027
1029
1029
1031
1034
1039
1045
1049
1049
1051
1053
1059
1066
1066
1066
1068
1068
1069
1074
1072
1069
1068
1066
1064
1065
1065
1059
1055
1052
1050
1051
1050
1047
1042
1038
1039
1040
1039
1037
1033
1033
1034
1035
1035
1033
1028
1028
1028
1035
1033
1032
1027
1028
1030
1031
1033
1031
1027
1028
1030
1031
1032
1028
1027
1026
1025
1026
1024
1023
1020
1020
1021
1023
1025
1024
1017
1020
1021
1022
1022
1019
1018
1020
1022
1023
1024
1021
1017
1018
1020
1021
1022
1023
1017
1019
1022
1023
1024
1023
1025
1023
1023
1026
1023
1026
1022
1022
1024
1028
1025
1023
1023
1022
1024
1026
1024
1023
1020
1022
1022
1025
1024
1023
1020
1023
1020
1023
1025
1022
1021
1022
1022
1023
1023
1020
1016
1015
1017
1018
1019
1016
1013
1014
1020
1021
1020
1016
1016
1014
1016
1018
1019
1019
1015
1013
1015
1014
1016
1013
1013
1013
1017
1017
1018
1017
1014
1015
1016
1019
1018
1014
1012
1011
1016
1018
1018
1020
1014
1014
1015
1017
1016
1017
1014
1016
1018
1017
1018
1016
1014
1014
1017
1021
1018
1017
1014
1013
1016
1018
1018
1018
1017
1016
1019
1023
1024
1023
1023
1025
1027
1031
1029
1028
1025
1026
1030
1031
1031
1030
1025
1024
1025
1028
1026
1023
1020
1023
1026
1027
1028
1026
1025
1024
1025
1024
1021
1016
1012
1011
1016
1022
1020
1018
1015
1015
1020
1020
1018
1017
1012
1016
1020
1023
1021
1017
1015
1015
1018
1021
1024
1023
1017
1016
1020
1023
1025
1024
1022
1023
1027
1032
1036
1037
1041
1052
1069
1082
1094
1105
1120
1145
1180
1215
1246
1273
1295
1326
1365
1406
1440
1449
1430
1377
1292
1200
1120
1066
1033
1019
1016
1025
1025
1021
1018
1017
1018
1016
1010
1002
998
1000
999
1002
1002
999
998
996
1000
998
1002
1001
997
997
997
1001
999
999
993
995
996
1002
999
995
994
994
996
1000
999
995
992
993
994
995
995
993
991
991
994
995
995
993
989
990
990
996
993
994
989
990
990
993
992
991
989
992
992
994
996
995
993
990
993
995
997
995
994
993
998
997
999
998
996
999
1002
1004
1009
1008
1005
1011
1014
1021
1023
1023
1023
1025
1031
1035
1040
1041
1045
1047
1053
1056
1059
1059
1059
1062
1064
1068
1067
1063
1060
1058
1059
1062
1057
1055
1051
1049
1048
1049
1048
1043
1039
1035
1039
1040
1040
1037
1032
1032
1032
1036
1035
1032
1030
1031
1033
1036
1035
1031
1026
1029
1030
1032
1032
1029
1025
1026
1027
1031
1030
1027
1026
1023
1026
1027
1026
1026
1023
1023
1027
1027
1025
1023
1020
1020
1023
1027
1026
1023
1021
1022
1021
1023
1022
1022
1021
1021
1024
1025
1024
1022
1021
1022
1024
1027
1025
1023
1023
1021
1025
1025
1025
1026
1023
1023
1025
1028
1027
1028
1020
1021
1022
1027
1028
1025
1022
1023
1024
1028
1025
1023
1022
1022
1023
1026
1024
1021
1021
1022
1023
1024
1024
1023
1020
1021
1023
1025
1023
1024
1021
1020
1023
1025
1024
1023
1019
1022
1024
1027
1024
1022
1017
1019
1022
1024
1025
1021
1022
1021
1022
1024
1026
1024
1022
1021
1023
1025
1025
1024
1021
1023
1025
1025
1026
1022
1023
1023
1026
1024
1025
1023
1021
1021
1025
1026
1025
1026
1024
1024
1024
1027
1028
1025
1023
1024
1027
1028
1028
1028
1029
1029
1034
1036
1036
1034
1033
1034
1037
1040
1041
1041
1036
1036
1036
1036
1038
1030
1029
1029
1033
1034
1036
1035
1032
1032
1039
1040
1038
1036
1033
1031
1031
1033
1029
1028
1026
1025
1028
1031
1030
1030
1025
1025
1026
1033
1032
1030
1027
1027
1029
1031
1032
1032
1029
1028
1030
1031
1030
1028
1026
1028
1029
1031
1034
1030
1029
1031
1034
1036
1040
1039
1043
1049
1058
1068
1079
1089
1095
1107
1128
1152
1182
1209
1235
1266
1303
1336
1371
1410
1445
1469
1470
1440
1367
1266
1177
1115
1072
1048
1034
1029
1028
1027
1029
1033
1030
1024
1018
1014
1012
1016
1013
1010
1006
1007
1008
1007
1008
1007
1005
1003
1006
1008
1006
1004
1001
1002
1004
1003
1006
1001
998
1000
1002
1003
1001
997
996
996
1001
1000
999
998
995
996
998
1000
999
997
995
995
998
1000
999
997
995
996
997
1000
996
997
994
995
999
1004
1003
999
997
998
1001
1004
1006
1004
1002
1004
1009
1011
1012
1015
1012
1017
1021
1027
1027
1029
1028
1031
1036
1043
1044
1048
1050
1051
1058
1066
1066
1070
1067
1072
1075
1077
1076
1074
1071
1069
1073
1072
1067
1063
1058
1057
1057
1056
1054
1048
1042
1042
1040
1045
1041
1039
1035
1034
1034
1037
1036
1035
1031
1033
1033
1035
1036
1033
1027
1030
1031
1032
1032
1030
1027
1028
1028
1029
1031
1030
1027
1025
1025
1028
1025
1022
1021
1021
1024
1026
1025
1021
1020
1020
1022
1025
1023
1022
1022
1022
1024
1024
1022
1021
1017
1021
1024
1026
1023
1022
1021
1021
1024
1026
1026
1023
1023
1023
1025
1028
1027
1026
1023
1023
1028
1028
1027
1024
1023
1023
1025
1028
1030
1025
1024
1022
1025
1024
1023
1023
1021
1019
1025
1023
1025
1022
1017
1019
1022
1024
1026
1022
1019
1018
1019
1021
1021
1020
1016
1019
1019
1021
1024
1018
1015
1019
1019
1021
1019
1017
1014
1015
1017
1020
1017
1017
1013
1015
1018
1021
1020
1018
1018
1020
1021
1022
1020
1018
1015
1016
1020
1022
1023
1022
1016
1016
1022
1024
1023
1021
1019
1016
1020
1022
1022
1021
1022
1019
1022
1022
1022
1022
1019
1021
1021
1024
1023
1021
1021
1021
1024
1028
1027
1030
1026
1028
1031
1034
1034
1032
1030
1031
1031
1035
1029
1026
1024
1024
1026
1029
1031
1027
1026
1028
1029
1030
1032
1028
1024
1022
1022
1022
1021
1018
1019
1020
1022
1021
1020
1019
1014
1019
1019
1021
1022
1018
1016
1017
1017
1021
1023
1021
1018
1018
1022
1024
1024
1019
1020
1022
1025
1028
1026
1024
1028
1035
1044
1058
1071
1079
1093
1112
1144
1179
1214
1243
1272
1303
1345
1389
1423
1434
1408
1340
1243
1146
1079
1036
1016
1011
1013
1018
1020
1016
1010
1010
1012
1013
1008
1002
999
998
999
1001
999
1000
995
993
998
1002
1001
999
997
995
997
998
997
995
992
993
994
997
997
992
987
991
991
995
993
992
990
990
991
992
992
991
988
988
992
994
993
989
989
989
994
993
992
991
987
989
992
995
993
992
991
992
993
996
997
993
992
993
998
999
999
1000
999
1003
1008
1015
1014
1015
1013
1016
1020
1027
1028
1030
1031
1035
1041
1047
1047
1045
1047
1049
1054
1059
1061
1059
1054
1055
1054
1059
1055
1051
1045
1044
1046
1045
1040
1037
1033
1031
1033
1033
1029
1027
1025
1024
1024
1028
1025
1023
1022
1021
1023
1025
1024
1023
1020
1019
1021
1025
1021
1019
1019
1019
1019
1020
1022
1016
1015
1016
1017
1018
1017
1016
1012
1011
1012
1015
1013
1011
1011
1009
1010
1012
1010
1011
1008
1010
1010
1014
1013
1010
1007
1009
1011
1015
1014
1011
1011
1012
1013
1016
1015
1013
1010
1013
1015
1018
1019
1017
1012
1015
1015
1021
1019
1016
