933
932
932
934
937
936
941
938
939
939
940
936
934
937
938
939
942
945
946
949
949
949
949
948
946
948
948
949
946
950
955
955
954
953
953
953
953
949
948
950
948
952
951
951
951
950
949
948
946
946
948
951
951
951
950
949
946
939
937
935
931
929
925
923
922
920
919
915
914
909
908
906
904
901
900
904
905
906
907
904
903
902
903
902
899
897
898
900
901
904
903
902
903
902
903
903
901
903
903
905
905
908
909
911
911
911
909
908
908
907
907
910
912
912
911
911
912
910
910
909
908
905
906
905
905
907
908
907
908
908
904
903
900
900
901
903
901
900
902
901
903
901
900
898
897
895
898
895
898
901
902
901
903
902
902
900
901
899
903
905
909
910
911
916
916
917
916
919
919
923
925
928
930
930
929
927
925
926
925
926
923
927
924
927
925
925
921
919
914
907
903
898
897
897
898
898
899
901
902
901
900
896
896
895
895
894
895
895
896
896
898
900
898
895
897
894
894
895
898
899
900
903
902
905
908
908
910
911
913
916
919
932
949
975
1015
1067
1136
1215
1294
1357
1394
1386
1324
1215
1087
959
831
749
742
778
831
881
921
943
950
949
943
936
932
929
928
927
927
928
926
927
929
932
934
933
936
933
936
936
937
935
931
935
932
933
936
934
937
940
940
939
937
939
938
937
936
938
942
942
945
947
945
945
944
942
942
942
943
945
943
946
948
950
952
951
949
947
946
949
950
951
953
953
955
957
958
957
958
957
957
956
958
958
963
965
967
968
968
967
968
970
969
970
969
970
974
977
981
982
982
982
981
980
980
980
981
984
985
986
984
987
986
986
986
983
985
983
986
986
986
985
985
985
979
975
970
965
964
958
956
953
951
951
948
946
944
941
938
936
933
929
931
929
928
930
931
929
928
928
928
926
924
923
925
923
924
928
932
931
931
930
931
931
930
931
929
932
935
937
939
941
942
941
938
940
940
939
940
940
942
942
943
945
946
944
942
941
941
940
938
939
941
941
942
940
941
941
937
939
935
934
934
936
936
935
940
940
936
938
936
935
930
931
931
930
934
935
935
936
935
936
935
933
931
933
931
932
934
934
934
936
937
935
933
933
931
932
932
930
932
933
934
936
936
935
936
935
938
941
942
946
947
950
954
956
955
959
961
960
961
963
961
961
960
961
963
963
963
965
962
962
959
955
952
950
951
946
947
943
938
935
932
927
928
930
928
927
930
930
931
930
930
925
927
925
923
920
920
923
924
924
927
928
927
923
925
925
924
925
925
929
932
933
935
936
937
938
939
939
941
946
960
984
1022
1066
1130
1205
1283
1350
1392
1398
1357
1264
1143
1015
887
791
758
772
813
867
912
943
960
965
963
956
950
947
943
943
942
942
944
943
942
938
941
944
944
945
949
950
949
948
946
946
944
945
942
942
941
943
947
949
945
942
940
940
939
939
944
945
947
946
947
948
946
948
947
947
943
944
944
944
945
946
950
947
949
949
949
948
947
944
946
948
947
949
950
952
950
950
950
950
949
947
948
950
951
951
952
955
954
954
951
950
949
950
952
950
955
958
959
960
961
961
959
959
957
957
958
961
963
963
964
968
967
965
965
963
962
962
961
962
962
963
966
967
964
963
960
962
957
954
955
952
954
951
948
947
944
939
933
932
929
923
920
921
918
917
918
916
914
913
908
909
906
906
904
907
902
903
905
907
906
903
902
902
899
898
900
900
902
902
904
906
906
905
905
902
898
898
905
903
906
905
910
908
910
909
909
908
906
908
907
910
911
913
912
913
913
910
908
907
905
905
905
905
906
907
907
907
907
907
905
905
901
898
900
899
902
903
902
902
900
897
897
896
894
897
895
896
897
895
896
897
896
898
896
894
893
892
890
891
892
895
894
896
894
895
893
890
891
890
888
891
889
893
890
894
894
892
891
890
889
888
888
888
889
891
892
893
891
891
889
889
886
887
885
886
888
890
891
893
893
897
899
901
902
903
904
907
909
911
915
915
917
917
917
914
916
913
910
911
911
913
915
916
915
912
912
909
904
901
897
895
891
888
888
889
885
882
882
883
881
879
877
878
879
880
879
879
881
881
880
878
876
877
877
874
877
876
880
882
880
881
880
880
877
878
879
881
883
883
888
890
891
892
891
903
917
948
993
1053
1128
1214
1291
1344
1353
1314
1215
1087
959
831
726
701
725
776
829
875
905
915
916
908
900
894
888
886
890
892
892
894
897
898
895
892
891
890
891
889
892
894
897
898
897
897
896
894
892
892
890
891
891
892
893
894
896
896
896
897
895
892
894
893
896
895
896
896
896
896
895
894
895
894
895
896
894
896
897
900
901
898
899
899
901
896
896
895
898
903
901
899
899
903
900
900
901
902
903
905
903
905
908
908
910
910
910
909
906
906
907
909
911
911
913
912
912
913
914
911
909
912
913
913
913
914
914
917
916
916
914
913
912
913
912
914
913
917
917
917
915
908
906
902
899
894
891
890
888
887
883
884
881
878
873
872
869
868
868
866
867
864
864
868
865
865
862
862
857
858
860
862
863
863
865
865
867
866
866
864
863
863
864
864
867
865
866
868
867
868
871
871
868
866
868
868
867
871
871
873
872
871
870
868
866
864
864
864
866
873
870
873
870
870
867
866
865
863
864
864
864
864
865
867
866
862
862
861
860
860
861
861
863
864
863
864
863
860
859
857
858
856
857
855
855
857
858
859
862
860
858
857
854
853
856
855
856
859
858
861
866
870
868
870
871
870
871
873
879
881
885
890
893
894
890
889
887
885
884
886
886
885
886
888
885
883
879
877
870
865
862
860
859
858
856
858
858
858
856
854
852
852
849
846
853
852
853
855
852
854
854
853
849
847
850
851
851
854
856
857
859
858
856
856
859
860
861
863
866
869
871
876
885
902
928
967
1023
1097
1182
1262
1316
1337
1299
1204
1076
948
820
705
685
715
770
825
866
890
901
900
888
879
875
873
870
869
872
871
877
878
881
879
880
882
881
878
875
876
875
876
878
879
877
880
880
882
881
881
882
882
881
879
882
881
882
885
886
884
884
883
880
881
881
880
882
883
884
886
887
885
885
884
883
881
881
882
882
886
887
890
889
888
888
887
885
886
886
887
890
892
897
897
898
897
897
896
895
894
896
898
898
901
902
902
904
905
906
906
905
905
901
901
901
902
903
906
907
908
905
904
904
902
900
902
903
904
906
909
910
908
906
905
899
897
894
893
890
888
886
884
883
879
876
872
869
867
865
864
864
863
863
864
861
861
862
857
855
855
854
854
855
857
859
860
860
860
861
860
858
857
858
858
861
861
861
863
863
865
866
866
866
864
866
867
868
868
870
870
872
871
869
867
868
866
868
866
869
867
868
867
867
866
865
864
864
863
860
860
858
859
862
863
862
862
859
859
858
857
858
857
858
859
857
861
860
857
854
858
857
860
860
864
865
871
873
876
878
882
880
880
881
883
885
888
888
888
889
890
891
890
888
889
885
885
882
880
877
877
873
872
868
864
862
859
857
854
855
856
857
858
858
858
859
857
855
851
851
849
852
851
852
850
853
855
853
856
854
857
854
854
852
854
857
862
864
866
867
868
870
876
886
908
940
998
1074
1163
1253
1326
1353
1326
1240
1112
984
856
728
686
707
757
816
863
892
905
903
896
887
878
873
874
874
877
877
884
884
882
883
881
879
880
880
881
882
885
885
885
887
887
886
884
883
883
882
884
884
886
887
886
886
885
887
887
887
886
883
884
887
888
889
890
890
891
890
889
889
887
886
889
889
891
891
893
893
894
896
895
893
894
892
891
893
896
895
899
900
900
901
902
903
901
901
902
904
902
903
910
910
910
911
911
910
912
909
913
915
917
920
921
922
923
922
922
922
920
920
921
922
923
923
925
924
924
921
922
920
921
921
922
921
923
920
919
913
907
905
900
897
894
891
884
886
887
884
882
880
877
875
872
871
865
862
861
864
864
863
866
865
864
863
863
862
863
861
858
861
864
863
866
866
865
867
865
866
866
864
864
866
868
870
871
871
875
876
875
875
875
875
876
881
880
882
884
885
883
884
883
883
878
877
879
879
880
880
880
881
881
881
878
879
876
876
876
874
878
878
879
881
880
879
876
875
874
875
875
873
877
876
878
880
877
876
877
873
873
872
871
872
874
874
876
877
874
878
876
875
875
873
873
873
873
875
875
876
879
876
874
872
872
872
873
873
875
875
877
877
877
877
874
875
874
873
874
872
877
878
880
882
883
887
887
889
890
891
896
897
901
904
906
911
910
912
909
906
904
902
903
903
904
907
906
906
904
902
896
893
888
885
882
880
881
880
884
883
883
883
882
880
876
873
875
876
877
878
881
882
880
877
877
878
875
874
876
875
878
879
884
885
886
887
887
887
888
888
891
891
898
908
930
964
1010
1076
1158
1243
1318
1368
1371
1318
1213
1085
957
829
732
721
753
805
858
899
921
928
923
915
908
901
898
896
895
899
901
901
901
902
902
903
904
902
905
904
905
905
901
901
900
900
905
906
908
911
910
911
910
908
906
905
907
906
909
909
912
914
913
913
912
909
910
908
909
908
911
914
911
913
916
917
916
916
913
913
914
913
917
916
919
921
920
920
917
919
917
918
918
920
922
924
924
926
926
929
927
926
927
927
928
928
929
932
935
936
936
937
937
936
936
937
937
938
941
943
944
944
945
945
944
944
943
941
942
944
944
946
946
948
949
947
946
949
947
949
950
949
949
952
950
952
949
947
944
940
936
933
929
928
926
925
925
926
923
922
919
918
914
913
914
915
913
913
917
918
915
916
915
913
913
912
914
913
916
917
919
920
921
923
922
921
918
921
922
921
923
927
929
931
929
932
930
931
930
930
928
931
932
934
936
936
939
939
939
938
936
934
931
932
935
937
938
941
939
939
939
937
937
935
935
936
938
939
942
942
941
941
941
939
937
938
939
937
940
941
943
943
944
944
941
943
940
941
941
941
940
944
946
948
944
945
946
946
944
943
944
944
945
946
949
951
952
951
949
952
949
948
948
950
953
952
952
957
955
956
953
955
951
952
952
952
955
956
959
958
958
958
956
954
957
959
957
956
961
962
964
966
965
967
968
969
973
974
977
979
983
986
990
991
993
994
996
994
994
994
994
993
992
995
996
999
1000
1000
999
997
995
991
992
989
986
981
982
983
981
979
975
975
971
971
973
973
975
974
974
977
977
976
974
975
973
970
971
970
972
973
973
976
975
978
976
975
975
975
977
977
981
983
986
988
990
988
990
991
995
1003
1020
1049
1093
1152
1226
1308
1380
1429
1440
1402
1313
1188
1060
932
845
813
828
873
923
968
997
1013
1018
1017
1012
1006
1006
1004
1005
1004
1007
1007
1007
1005
1006
1004
1005
1010
1009
1010
1012
1013
1013
1013
1013
1010
1011
1010
1010
1010
1007
1010
1012
1013
1013
1013
1012
1010
1010
1006
1008
1011
1012
1011
1013
1014
1015
1014
1014
1013
1012
1013
1014
1011
1016
1016
1018
1020
1019
1018
1018
1017
1015
1016
1015
1016
1017
1017
1018
1020
1020
1021
1020
1023
1022
1021
1020
1018
1019
1022
1024
1024
1026
1027
1025
1025
1023
1023
1026
1026
1025
1024
1030
1030
1031
1033
1029
1030
1031
1028
1027
1031
1031
1031
1031
1036
1034
1031
1032
1030
1027
1027
1026
1027
1028
1030
1030
1032
1031
1032
1032
1033
1030
1032
1028
1028
1029
1027
1027
1027
1025
1026
1022
1016
1014
1011
1008
1004
1004
1000
999
999
997
997
995
995
989
988
987
987
986
988
987
987
989
989
986
986
984
983
984
983
983
985
985
990
987
991
990
989
988
987
987
987
988
988
990
991
992
991
994
993
992
993
990
991
991
993
994
996
995
995
992
991
991
989
987
986
988
988
989
989
989
988
987
984
982
981
979
979
979
979
982
982
983
982
979
977
975
973
973
974
974
976
976
977
976
977
973
971
971
968
970
970
974
975
974
978
981
981
980
982
983
983
981
983
987
991
994
998
1001
1000
1001
1000
995
995
995
993
996
993
994
997
1000
999
997
993
989
983
978
975
971
967
967
968
968
968
965
964
960
960
958
958
958
958
959
961
962
961
959
957
956
956
953
955
954
958
961
960
960
961
959
960
960
961
961
965
967
965
970
974
978
989
1009
1038
1082
1138
1210
1285
1354
1407
1425
1402
1330
1218
1090
962
839
787
785
822
877
927
963
983
989
990
984
975
970
968
966
964
965
967
971
971
971
973
972
969
968
970
965
966
967
970
971
973
973
974
973
970
970
970
968
970
970
971
972
974
971
971
969
971
971
968
968
969
968
968
970
972
972
971
972
971
968
969
967
968
964
967
970
968
972
969
969
969
968
969
966
967
968
971
971
975
974
976
974
973
972
972
970
971
974
975
975
981
982
981
979
978
978
979
978
978
977
978
981
982
983
982
981
980
979
979
977
978
978
978
977
977
978
975
976
973
973
970
973
970
971
970
970
968
968
965
962
957
953
950
946
945
941
941
940
938
936
932
928
925
922
923
921
921
919
920
920
921
922
921
920
917
917
918
917
916
916
917
919
918
920
922
921
919
919
917
916
918
919
921
924
926
925
925
923
924
922
920
921
921
923
925
927
925
925
923
922
921
918
918
918
918
918
919
918
918
919
919
917
915
912
913
906
909
911
911
910
913
912
913
912
909
907
907
905
906
903
904
904
906
906
904
902
904
904
902
902
902
902
902
901
905
904
904
903
902
900
901
898
897
898
899
900
898
900
897
898
899
897
894
896
897
898
902
903
909
912
915
915
917
918
919
918
917
922
925
929
928
929
928
926
924
921
922
923
922
922
922
922
920
918
914
908
903
899
893
890
891
890
891
893
892
892
891
893
888
886
886
885
883
885
885
886
891
888
887
885
888
885
884
885
886
888
891
892
895
896
896
900
900
900
904
912
923
945
979
1024
1088
1162
1244
1318
1368
1377
1339
1251
1123
995
867
745
713
727
772
827
873
904
919
921
917
911
908
903
903
903
903
902
903
902
903
901
899
902
903
906
905
906
907
907
906
906
903
904
903
902
901
905
907
908
906
906
905
905
903
902
903
903
903
904
907
907
906
907
905
902
901
904
905
903
904
906
906
909
905
903
907
905
904
902
905
906
909
908
909
912
911
912
910
908
909
909
907
910
912
910
914
917
916
915
914
914
914
915
916
916
918
919
924
925
924
925
923
924
923
920
921
924
927
929
928
929
929
929
930
928
926
926
926
928
928
928
931
931
930
928
927
926
923
919
919
914
914
912
911
911
904
901
895
893
889
888
885
881
882
881
880
881
880
877
876
872
873
871
871
870
871
874
873
875
872
873
872
870
869
866
866
867
869
869
873
873
875
873
873
874
873
875
873
873
878
877
880
882
881
881
878
880
877
878
877
880
880
880
882
883
884
880
879
880
879
878
875
876
878
876
878
880
877
879
875
874
872
867
870
872
874
875
876
876
875
873
869
869
866
866
865
866
866
869
870
870
870
871
870
867
867
866
867
866
866
866
867
867
868
870
868
866
866
866
867
866
867
870
868
871
870
869
869
868
867
865
863
866
867
866
867
870
866
866
866
866
865
865
865
864
867
867
868
870
865
869
867
866
867
867
864
866
870
872
875
877
878
881
880
883
881
882
884
884
892
893
895
899
901
899
896
895
892
888
890
890
891
893
895
896
894
894
890
885
883
878
872
871
872
872
871
871
873
871
870
869
867
864
861
861
863
867
866
867
868
867
864
865
863
863
863
863
865
867
867
872
872
873
872
873
873
873
874
874
877
878
883
892
901
919
947
987
1035
1097
1171
1246
1311
1352
1358
1316
1228
1102
974
846
739
700
708
749
803
845
880
898
903
903
896
888
885
879
879
879
884
887
888
890
888
886
885
885
885
884
887
886
888
887
890
892
888
890
891
890
890
889
887
888
888
891
891
893
891
893
892
891
890
887
890
890
890
891
895
895
896
894
893
891
890
890
890
893
892
894
895
895
895
897
895
895
895
893
892
894
895
897
898
901
901
901
901
900
899
897
898
898
899
900
900
903
905
904
902
902
904
897
901
903
907
907
910
910
909
912
910
910
908
907
907
909
911
911
910
913
911
909
909
907
907
908
907
906
910
910
912
915
915
917
915
910
912
909
907
904
901
901
899
899
897
895
890
889
885
881
880
877
877
878
877
878
876
877
874
873
870
869
868
868
871
870
872
876
875
875
876
873
871
869
871
873
874
875
875
877
878
880
878
876
872
877
875
878
879
879
882
885
884
885
882
883
882
880
879
880
880
880
882
884
884
883
882
881
880
878
879
877
876
878
879
880
881
877
875
874
873
872
872
872
874
874
875
876
876
874
