874
874
877
874
872
866
867
866
867
867
869
871
870
869
868
867
864
859
856
852
848
849
845
844
844
844
844
841
840
838
839
839
841
841
842
843
839
839
838
839
837
837
839
839
840
838
842
842
843
842
846
843
844
845
845
844
851
849
850
854
860
867
877
891
912
948
990
1050
1117
1186
1244
1280
1282
1239
1150
1029
901
779
704
686
706
754
801
840
864
875
875
868
863
858
854
851
850
853
856
857
862
861
860
859
858
856
858
856
857
861
859
864
864
863
862
861
861
859
858
860
860
861
862
861
864
864
864
863
863
860
859
857
861
860
863
863
866
864
860
860
859
859
859
862
861
860
861
862
864
865
863
864
863
861
863
862
863
864
866
869
870
869
868
867
867
866
868
867
869
868
869
872
872
873
874
873
872
871
871
873
873
871
875
875
876
878
876
879
878
874
873
874
873
877
876
877
881
879
880
880
879
878
876
874
876
877
877
879
880
879
880
880
876
873
869
867
865
865
863
859
859
857
856
852
846
843
837
837
837
835
835
835
837
834
834
830
829
829
828
825
827
827
831
831
832
833
834
828
828
828
826
831
830
832
833
832
835
835
835
832
832
833
834
836
835
837
837
839
841
841
840
839
838
836
834
835
834
836
838
838
837
837
835
836
833
833
828
830
830
831
832
835
833
832
830
829
826
828
825
825
825
826
825
828
826
828
829
828
826
825
825
822
825
825
826
827
828
827
828
827
824
821
820
822
821
825
823
825
826
824
824
824
822
824
828
831
833
836
839
844
849
851
852
853
857
854
853
847
848
848
850
853
856
853
853
851
848
845
839
835
831
827
826
824
825
824
824
822
822
822
820
818
820
820
821
821
822
822
822
818
817
817
816
815
816
817
821
822
823
824
823
822
819
821
818
818
821
823
827
831
833
834
835
835
838
847
861
888
929
987
1060
1144
1220
1273
1289
1255
1167
1049
921
793
700
669
683
730
779
820
850
862
861
853
845
838
835
830
835
838
840
840
841
841
841
840
836
838
838
839
840
842
845
844
844
843
844
844
842
841
841
842
845
843
848
847
846
846
843
842
844
842
839
841
844
845
847
847
847
847
847
847
845
844
846
846
847
850
850
850
851
851
851
850
849
850
850
852
851
855
856
859
857
856
855
854
854
853
855
857
858
861
863
861
861
862
861
858
860
859
862
866
868
867
872
874
873
873
872
872
870
871
870
873
873
871
873
875
875
875
873
870
871
869
870
872
873
870
873
872
872
871
865
860
860
854
854
850
849
846
844
842
839
834
831
827
824
821
820
821
819
821
822
821
818
815
814
814
814
812
812
812
812
815
817
818
818
815
814
816
816
817
815
817
820
821
823
823
825
823
825
825
825
822
823
826
828
828
829
826
830
828
826
822
823
821
821
823
827
827
828
828
828
826
825
824
821
819
817
817
820
822
823
822
821
821
819
818
816
815
816
815
816
816
819
817
816
815
815
816
812
810
811
813
815
813
815
815
814
814
815
813
812
811
808
810
810
813
816
814
811
811
810
810
809
806
808
809
809
811
813
815
813
814
814
812
811
809
809
811
814
813
814
814
814
812
812
813
811
810
808
811
812
814
814
815
815
815
812
812
811
809
809
812
813
813
815
814
815
817
816
820
821
824
826
827
832
834
836
838
836
837
839
837
835
835
833
833
831
836
834
839
836
836
833
829
824
822
822
822
818
818
819
818
816
813
812
812
810
810
809
809
811
811
809
812
812
810
808
805
806
806
806
807
808
809
810
808
809
812
813
813
813
814
816
818
821
820
825
828
831
843
862
894
940
1001
1072
1150
1219
1262
1263
1214
1114
988
860
740
671
650
669
716
766
806
833
843
846
841
836
830
825
822
822
825
828
829
829
830
830
830
830
829
826
827
827
827
829
830
832
831
831
829
828
827
828
827
824
827
830
831
833
833
833
832
831
831
828
827
829
827
830
831
833
837
833
831
832
830
828
831
830
832
833
832
834
833
836
836
835
834
834
835
835
835
837
835
838
840
841
840
839
839
838
839
840
842
842
840
844
848
846
846
845
843
843
842
845
846
845
850
848
851
852
852
850
849
849
847
847
850
850
850
852
851
852
852
851
851
851
849
850
851
849
853
853
853
851
850
847
845
842
838
838
834
833
831
831
825
824
822
819
817
813
815
811
813
812
812
811
812
811
808
807
804
806
803
803
804
807
806
808
809
809
810
807
804
805
803
805
804
808
806
810
813
811
813
812
811
811
810
810
811
809
811
813
817
813
815
814
814
811
810
812
811
812
813
813
814
813
810
812
810
808
805
808
810
809
811
811
812
812
810
805
804
806
804
806
805
805
804
806
805
809
809
805
805
801
799
800
800
803
804
808
805
805
802
803
801
801
801
801
801
802
802
804
803
806
804
803
803
800
799
800
802
802
805
803
805
805
805
804
803
802
798
798
802
802
803
803
803
805
805
803
803
802
803
801
802
803
804
804
806
807
805
804
805
801
802
801
799
803
802
806
804
806
805
804
803
804
801
804
804
804
805
807
808
806
806
805
804
806
804
805
803
805
808
810
811
812
811
812
814
815
817
820
823
825
829
831
835
831
834
833
833
835
836
835
831
832
833
832
835
831
832
831
830
826
822
821
819
816
813
814
814
811
810
809
809
809
806
808
809
810
810
809
809
809
809
807
807
807
806
806
804
808
808
809
812
812
814
813
812
813
812
815
814
818
822
824
825
827
830
841
850
874
904
949
1011
1086
1161
1224
1258
1253
1202
1101
973
845
728
663
651
676
723
771
808
830
843
845
842
837
830
827
826
825
825
831
832
833
833
833
832
831
832
832
832
833
834
836
837
837
835
834
832
831
828
832
833
834
835
837
838
838
837
835
835
832
831
833
834
836
837
838
840
839
837
836
836
835
836
834
837
836
838
839
842
842
841
841
841
840
837
840
840
840
841
843
845
844
845
844
843
845
845
845
844
845
847
847
851
853
852
852
850
850
848
848
849
852
854
856
859
857
856
855
855
853
853
855
854
856
857
856
855
856
856
857
857
856
855
860
857
857
859
859
859
856
853
851
848
846
843
837
838
837
837
838
834
833
831
828
825
821
821
822
820
819
819
821
821
818
821
822
821
819
817
817
818
818
818
823
825
823
823
823
821
822
820
822
819
826
826
828
830
830
830
827
828
827
827
829
829
830
831
833
833
832
832
832
831
830
826
825
828
828
828
831
831
829
830
829
825
826
823
821
821
823
825
830
829
828
828
826
825
823
822
822
821
822
821
824
821
824
821
819
819
818
815
816
817
818
821
820
821
821
822
822
821
820
819
817
818
818
816
821
821
822
821
820
816
816
816
814
815
818
819
823
822
821
821
818
818
819
817
819
818
818
821
825
826
823
825
823
822
821
820
823
826
829
831
833
836
837
838
840
841
841
842
841
843
846
846
850
852
852
852
846
844
846
843
844
845
846
849
848
845
841
836
833
829
826
824
823
822
824
825
824
828
828
829
827
826
824
823
822
822
820
821
820
824
827
828
827
825
825
826
825
827
829
831
835
837
840
842
842
839
841
845
857
871
893
929
978
1038
1107
1177
1239
1275
1269
1217
1122
994
866
752
693
684
713
758
803
838
857
862
861
856
852
849
848
849
851
851
853
853
851
851
850
851
852
852
855
856
854
857
856
854
855
853
854
853
854
856
857
859
859
858
859
856
857
857
856
858
856
857
860
860
861
861
861
860
857
856
858
857
860
862
863
864
863
862
863
863
861
862
863
862
864
865
868
868
870
871
869
868
868
867
866
867
868
870
870
874
876
876
876
875
876
876
877
876
878
878
880
882
881
883
882
881
880
880
879
879
878
882
879
882
881
881
878
879
877
877
877
876
878
878
879
880
878
876
873
873
869
864
862
860
859
860
859
858
856
852
851
848
847
840
837
838
842
841
843
842
840
841
840
838
836
834
836
836
838
838
841
842
841
843
842
842
840
841
841
841
841
846
847
848
850
851
848
847
847
847
845
849
850
851
853
853
852
853
853
852
849
847
848
848
848
847
852
852
852
849
848
843
845
845
843
844
844
845
846
847
847
845
845
845
843
842
842
842
843
845
846
848
844
847
847
846
841
841
840
843
842
843
845
846
846
846
846
844
842
841
840
842
841
841
841
845
846
845
844
843
843
841
840
839
843
844
843
846
846
848
847
845
844
842
842
843
844
846
845
846
846
848
847
847
847
849
851
854
857
860
863
866
869
869
868
869
869
868
870
874
873
872
872
874
871
871
871
870
867
866
865
862
859
856
853
853
856
851
849
850
847
848
846
847
846
850
850
851
851
851
849
847
850
848
849
848
852
852
852
856
855
857
859
858
858
858
862
864
864
869
874
882
898
918
953
997
1057
1127
1200
1264
1307
1316
1286
1211
1102
974
853
763
716
717
747
792
836
869
889
897
895
889
879
875
867
870
870
872
873
879
880
882
879
879
880
878
877
875
876
877
879
880
879
883
884
883
882
882
882
882
879
880
880
883
882
884
886
883
884
881
881
881
882
882
884
883
884
886
888
886
885
886
883
883
885
887
888
889
888
890
890
890
888
888
888
887
889
889
890
893
893
897
898
898
898
894
892
892
894
895
896
901
903
905
906
907
906
905
906
904
906
906
908
910
912
914
917
915
915
914
914
913
909
910
913
915
914
916
916
917
918
917
916
916
915
915
916
917
919
920
918
915
914
911
907
903
902
900
895
895
894
893
891
890
887
882
880
879
875
875
874
875
874
876
873
873
872
869
867
867
866
865
866
867
868
871
871
872
873
869
869
870
869
869
868
874
878
879
880
879
878
880
879
879
878
879
879
881
882
884
887
885
883
883
882
881
882
880
883
883
885
886
889
886
886
883
883
881
880
881
880
881
884
883
886
884
884
883
882
881
879
876
876
881
881
881
883
884
880
880
878
877
876
878
879
880
883
885
883
883
884
879
880
876
879
878
880
882
882
881
884
882
884
880
878
879
879
878
880
884
884
883
885
885
886
885
885
884
882
881
879
881
886
888
885
888
885
885
883
882
882
885
887
887
888
890
893
893
893
893
892
895
892
893
896
900
904
907
909
907
910
914
913
914
915
916
920
920
919
920
922
920
921
921
920
917
916
915
912
911
910
908
904
903
902
899
897
896
896
899
899
899
900
902
900
900
901
900
899
899
898
897
900
902
902
903
905
903
905
905
905
903
900
906
908
910
910
914
918
919
918
921
923
931
946
966
998
1044
1100
1173
1246
1314
1352
1350
1298
1199
1071
943
828
768
753
782
828
875
912
933
942
941
939
934
931
930
927
930
931
930
932
933
933
931
930
932
934
936
938
941
942
942
941
938
939
942
939
940
940
944
944
945
947
948
948
947
947
947
943
942
946
946
946
949
951
950
951
950
948
950
949
952
951
951
952
953
954
957
958
955
955
955
951
953
954
958
960
961
962
962
962
962
964
962
961
963
965
967
969
971
973
975
975
976
974
975
975
975
978
982
982
984
985
985
987
987
986
983
983
984
982
987
989
990
992
991
992
989
987
987
986
988
990
992
990
991
994
994
993
992
988
992
993
993
994
994
997
993
995
993
989
988
985
979
979
975
970
972
970
971
969
967
965
965
961
960
960
959
959
959
960
960
961
959
956
961
959
960
960
959
962
962
962
965
969
968
967
967
968
968
966
968
969
971
974
975
977
977
978
976
976
975
976
975
973
980
978
980
981
979
982
980
981
978
979
978
978
981
981
983
982
982
982
982
981
980
977
978
977
976
979
981
981
977
977
978
978
976
973
973
974
977
979
980
979
979
978
975
974
973
976
975
974
975
976
977
978
979
979
977
977
977
975
974
975
976
980
983
983
981
984
981
978
975
975
976
976
978
979
981
984
981
982
981
979
978
977
979
979
979
983
983
983
984
983
982
982
984
986
987
989
990
994
999
1000
1004
1003
1007
1008
1007
1008
1010
1011
1013
1013
1014
1013
1016
1014
1013
1011
1011
1008
1005
1007
1006
1004
1000
999
996
994
991
990
989
987
984
983
983
987
987
988
987
989
987
985
984
983
983
985
982
984
987
986
987
988
986
986
983
984
985
986
987
992
993
997
998
998
999
1000
995
997
999
1002
1009
1023
1042
1070
1106
1156
1221
1289
1354
1398
1409
1373
1290
1170
1042
921
854
839
863
911
957
992
1013
1023
1024
1021
1016
1012
1008
1009
1008
1008
1009
1008
1009
1010
1013
1014
1013
1015
1016
1017
1016
1014
1012
1011
1011
1011
1015
1019
1018
1018
1018
1018
1018
1016
1011
1010
1014
1011
1015
1017
1018
1021
1020
1018
1017
1017
1013
1014
1013
1014
1016
1018
1018
1019
1019
1017
1018
1018
1016
1013
1014
1015
1017
1017
1020
1020
1020
1020
1019
1019
1020
1019
1018
1019
1019
1019
1019
1021
1023
1022
1022
1025
1024
1023
1023
1021
1026
1024
1026
1029
1030
1031
1029
1029
1028
1026
1027
1023
1027
1028
1028
1028
1030
1030
1029
1027
1026
1022
1022
1024
1024
1027
1028
1028
1029
1028
1026
1023
1024
1023
1023
1023
1024
1027
1025
1027
1022
1021
1018
1016
1011
1007
1006
1004
1003
1000
999
996
997
994
993
988
987
984
983
981
984
985
983
986
984
984
982
977
979
980
980
981
980
982
982
985
985
985
984
981
982
981
983
983
984
986
988
990
991
989
991
988
986
985
985
986
986
986
986
990
990
985
984
983
985
982
982
980
983
982
983
982
982
980
977
978
978
975
975
974
976
978
978
979
977
976
974
973
970
969
970
969
970
970
972
972
972
969
969
969
967
964
964
966
966
969
968
968
971
969
968
968
963
964
964
964
967
965
967
968
967
966
964
963
962
962
962
964
964
963
967
970
972
972
973
973
974
974
977
977
980
983
985
988
989
990
990
989
991
986
988
986
985
988
987
991
989
988
985
983
979
975
976
968
968
963
962
962
962
961
962
959
959
956
954
956
955
957
957
957
957
956
956
950
952
951
951
951
954
953
956
957
957
959
958
959
958
959
958
961
961
963
966
970
971
976
984
999
1020
1053
1097
1153
1216
1281
1339
1378
1395
1377
1325
1234
1119
998
893
827
809
828
872
917
953
977
989
989
985
977
971
965
965
967
970
972
972
973
973
971
971
969
969
970
972
973
973
975
975
973
973
972
971
969
969
971
970
972
972
975
976
975
974
971
971
970
969
971
971
972
975
975
975
976
974
971
968
969
969
969
972
974
972
975
975
974
975
972
973
973
972
973
976
975
976
978
978
979
979
976
976
975
976
976
979
980
982
983
983
984
984
984
985
983
984
982
985
987
989
989
988
990
988
989
987
985
985
986
988
989
991
991
993
990
990
988
990
988
988
988
988
988
989
992
989
988
986
981
980
977
975
972
969
966
964
966
962
959
954
950
947
945
943
940
944
940
940
940
939
938
938
934
932
930
929
929
930
931
935
936
935
934
938
934
936
933
933
931
935
935
940
943
943
944
943
942
942
940
938
939
941
943
943
944
945
943
942
941
938
938
939
939
940
938
940
941
939
938
938
936
934
934
933
933
931
934
933
934
935
933
933
930
929
930
927
929
930
927
929
930
930
929
927
929
929
926
924
925
926
925
926
928
926
925
924
924
921
922
920
920
922
920
922
923
925
923
919
920
918
918
919
919
921
921
922
923
923
923
922
920
921
919
920
919
918
920
920
922
923
921
923
925
926
929
928
932
934
937
938
944
944
945
945
945
945
945
945
943
942
941
942
945
948
945
946
941
938
933
932
928
925
923
919
920
920
918
916
915
915
913
911
910
909
909
911
911
912
911
909
908
908
907
909
907
907
907
910
912
913
911
910
908
911
910
911
911
915
918
920
923
926
924
929
935
946
964
991
1026
1079
1140
1208
1271
1317
1343
1332
1277
1185
1066
943
838
781
770
797
838
883
919
941
949
944
936
928
921
920
919
921
925
927
928
930
928
925
924
924
923
925
927
929
929
931
930
931
928
928
926
926
923
926
925
926
928
928
926
926
925
924
925
923
926
924
924
925
927
925
924
926
926
927
924
924
925
926
927
928
928
930
930
931
928
924
925
927
927
928
927
929
928
929
930
932
929
930
928
928
932
929
929
936
936
937
940
939
936
937
937
935
938
938
939
942
944
944
945
942
943
942
940
941
941
940
938
941
944
946
946
945
943
942
938
939
940
941
943
942
944
946
945
944
942
941
941
936
935
934
933
930
932
931
925
924
919
916
915
914
909
908
908
906
907
907
903
900
896
895
896
892
890
891
896
893
892
897
895
895
891
893
892
890
888
893
894
895
896
896
896
898
896
896
895
895
895
895
898
897
902
903
901
902
899
902
901
900
900
900
901
901
904
904
902
901
899
900
896
897
898
899
