858
860
858
858
860
859
862
864
866
868
867
867
868
867
866
866
870
874
875
879
882
894
913
939
980
1034
1105
1190
1264
1313
1319
1268
1167
1039
911
783
715
705
737
785
831
872
895
905
904
899
891
884
878
879
878
879
882
885
885
887
887
889
888
886
884
885
885
884
885
884
887
889
890
892
889
888
888
888
888
886
887
886
887
889
893
891
892
892
888
887
888
887
888
887
890
891
891
894
892
888
891
885
886
883
884
887
888
890
892
897
894
895
895
895
895
892
895
896
897
898
900
902
901
902
902
901
899
899
903
902
906
907
910
909
908
909
909
910
908
909
909
909
911
910
913
915
913
911
913
910
911
908
908
908
912
912
915
916
915
915
913
913
910
909
908
905
904
903
903
901
895
892
887
884
880
877
875
873
874
872
873
873
872
872
870
868
865
863
864
862
864
864
867
870
868
868
866
864
861
862
862
865
866
868
871
871
870
871
870
870
866
867
868
870
872
873
876
877
878
877
875
875
877
871
874
874
874
874
877
878
877
878
875
871
872
869
869
868
871
873
871
873
874
874
871
870
869
868
866
868
871
869
870
871
869
871
870
869
867
867
864
865
865
867
870
870
870
869
867
868
863
861
862
862
863
866
868
868
866
865
864
864
863
862
865
866
868
874
880
882
883
884
884
886
886
888
891
894
898
897
897
896
896
895
896
897
894
894
892
888
890
886
884
882
877
873
871
867
865
864
863
864
864
865
865
868
870
867
866
864
862
860
861
863
862
861
864
863
865
866
864
864
864
862
862
864
867
874
876
876
878
879
879
880
885
891
909
937
977
1038
1111
1192
1266
1315
1322
1276
1181
1053
925
797
715
701
728
777
827
864
886
896
896
892
887
883
882
884
885
886
884
886
886
885
883
883
884
881
887
885
887
889
889
890
888
887
886
886
885
887
888
888
889
890
889
889
889
889
888
888
888
889
889
888
888
892
893
894
892
890
890
888
887
888
889
890
893
896
897
895
894
892
890
891
891
894
897
898
899
901
900
901
899
896
896
896
896
895
898
899
902
904
904
907
903
901
901
903
900
904
906
907
908
911
911
910
909
908
907
910
907
907
911
912
913
914
915
916
917
914
913
910
910
911
912
913
912
915
915
916
916
914
914
913
913
911
904
905
902
903
898
898
896
889
888
885
883
881
882
881
879
878
878
878
871
869
866
866
866
867
869
872
872
874
874
871
874
871
872
870
870
871
874
873
876
878
878
878
877
877
876
875
873
874
875
877
879
881
881
882
882
882
881
880
877
876
879
879
882
882
880
880
879
878
876
874
874
875
874
874
875
876
876
874
871
874
872
869
868
870
871
872
874
876
875
875
874
871
869
866
869
871
873
872
877
882
882
886
885
886
889
889
890
891
895
900
903
905
906
907
902
900
897
898
899
900
902
902
900
900
898
895
891
884
879
875
869
871
871
870
873
877
877
877
876
875
874
870
868
869
870
870
872
878
876
876
874
873
873
872
873
874
879
882
884
885
888
890
889
891
891
890
894
900
911
929
956
996
1050
1122
1200
1275
1327
1337
1295
1198
1070
942
814
733
727
758
810
857
894
912
919
917
911
906
902
901
901
902
902
905
904
902
899
899
902
904
904
906
910
910
909
906
907
906
905
904
905
905
909
912
914
914
913
911
910
911
910
911
915
914
916
917
918
918
916
915
914
915
914
914
917
917
917
923
920
922
920
921
920
919
919
921
921
922
921
924
931
929
929
925
925
926
927
929
930
932
933
933
933
935
936
936
937
936
933
937
939
941
942
944
945
948
946
947
949
948
948
951
951
951
951
954
953
954
955
952
953
953
951
953
955
955
956
960
960
959
954
956
954
953
950
950
947
944
947
945
943
941
939
933
932
927
924
921
920
918
917
916
915
915
911
909
907
905
903
903
903
905
907
910
909
907
906
907
906
905
905
904
904
907
906
909
911
911
909
909
911
911
912
911
914
916
919
921
921
919
920
921
919
918
916
919
919
922
925
926
925
923
923
921
921
920
918
921
919
919
917
921
923
925
925
922
919
920
917
917
918
918
921
921
920
922
921
919
919
917
918
917
918
922
924
924
927
930
930
932
930
933
933
936
939
943
946
950
951
955
951
951
949
944
945
945
946
948
949
950
949
946
941
938
933
927
923
921
918
918
919
920
923
919
917
914
915
914
909
912
913
915
915
920
920
920
917
915
913
911
914
914
915
917
919
922
926
924
925
925
926
926
930
930
932
935
941
952
965
983
1011
1042
1086
1139
1202
1270
1331
1370
1376
1339
1255
1129
1001
873
781
758
781
829
886
930
955
970
968
962
952
944
938
935
935
938
941
945
943
944
947
944
945
944
942
941
943
943
942
943
944
944
946
946
947
946
946
945
945
946
946
946
947
947
949
950
946
946
947
947
946
948
947
949
951
952
953
954
953
952
950
948
949
950
947
951
954
955
956
956
955
954
954
953
951
951
952
955
957
959
962
960
961
959
960
963
960
963
962
967
968
970
972
973
972
969
972
970
971
971
974
974
978
978
978
978
981
980
980
978
979
979
981
982
983
986
984
981
985
984
983
982
982
981
980
979
980
982
979
976
976
970
964
960
958
957
952
952
950
948
943
941
938
935
931
930
927
924
923
921
926
923
922
922
917
919
918
917
916
916
917
919
920
920
922
922
923
922
919
919
920
922
923
924
925
927
929
931
928
927
929
927
928
927
926
931
933
932
935
935
934
929
929
926
928
928
927
928
929
929
930
930
928
927
926
924
922
923
923
923
924
925
926
925
922
923
921
921
919
915
917
918
922
923
923
923
924
922
920
919
919
917
919
921
921
922
926
925
927
930
931
930
932
933
938
942
944
949
949
950
950
948
945
944
943
944
945
948
949
948
948
945
942
938
932
929
924
919
916
918
916
919
919
915
918
914
914
912
910
911
910
910
911
913
913
914
914
912
911
908
906
910
909
911
911
915
916
914
917
916
919
917
919
921
924
927
932
939
952
972
1007
1058
1123
1204
1282
1343
1364
1338
1255
1129
1001
873
775
743
766
809
860
901
932
946
950
946
941
935
930
927
920
922
925
927
929
930
931
932
933
932
932
930
928
927
928
928
928
931
932
935
936
937
936
932
932
931
931
930
931
929
932
931
935
937
935
933
934
931
930
930
932
931
933
934
935
934
935
934
932
931
932
932
934
935
937
938
940
940
936
937
936
935
935
935
934
937
936
942
945
945
946
941
943
942
942
942
942
943
943
947
951
951
953
950
950
947
946
950
951
952
956
955
956
955
958
956
955
954
956
956
955
957
959
962
961
960
962
962
962
958
958
957
956
956
954
951
950
948
941
938
935
929
924
923
919
917
914
915
914
910
910
906
903
902
899
897
899
901
900
904
903
903
902
899
897
897
896
893
895
897
899
900
904
901
906
903
904
903
902
903
903
905
906
908
907
910
905
903
901
904
904
906
906
909
907
908
911
910
910
908
909
907
905
904
906
903
903
905
905
906
906
903
898
900
898
898
899
899
899
899
899
899
902
900
899
896
896
895
898
898
898
899
901
902
903
903
900
902
904
904
906
910
911
914
920
923
924
927
926
926
926
924
922
922
923
925
927
926
924
924
918
918
915
914
911
907
903
899
899
894
893
893
894
892
890
892
888
887
888
889
890
890
889
888
885
885
883
883
885
885
888
885
890
889
890
891
891
891
891
891
893
895
899
901
903
907
908
914
926
947
983
1031
1102
1185
1265
1324
1347
1322
1239
1116
988
860
756
724
741
786
836
878
906
921
923
915
911
904
900
899
901
903
905
907
908
908
907
908
905
903
903
902
904
904
907
909
909
909
909
908
906
905
905
907
907
908
906
909
908
911
911
910
908
908
905
904
905
904
905
909
910
910
910
910
912
908
907
909
910
909
912
911
912
914
916
916
915
913
911
911
914
915
916
917
918
917
918
917
917
917
917
918
918
920
922
922
923
925
927
925
925
925
925
926
928
929
932
933
935
933
934
932
930
931
927
930
929
928
931
932
934
934
935
935
932
933
929
929
927
925
921
921
920
918
917
910
906
900
896
896
891
888
885
884
884
884
884
881
879
878
876
874
874
877
875
878
877
877
878
877
873
874
874
872
873
875
873
876
877
878
877
878
878
878
877
878
877
876
880
882
885
885
886
883
882
884
878
882
879
880
884
883
885
885
884
884
882
881
878
877
876
880
879
878
881
879
879
879
877
877
875
873
873
872
873
878
879
875
877
875
877
875
876
878
878
880
883
887
890
892
893
895
896
893
896
899
902
901
901
900
901
902
899
902
900
899
895
897
894
895
891
888
886
884
878
876
872
869
866
866
866
868
869
869
870
867
867
865
866
861
860
860
861
863
862
863
864
866
868
868
865
863
867
864
863
864
867
868
874
876
876
879
879
880
880
882
886
897
911
936
972
1019
1080
1150
1223
1285
1327
1333
1296
1213
1095
967
839
750
711
722
763
811
857
885
900
905
901
895
890
884
883
884
881
882
882
884
882
883
884
886
887
887
889
885
886
885
887
884
886
886
888
889
889
890
888
887
887
887
887
887
888
888
889
892
893
894
891
891
891
890
889
890
889
890
890
891
894
894
893
893
893
892
891
892
891
892
893
894
896
900
899
899
897
896
896
896
899
900
901
904
906
907
907
907
908
904
902
904
907
908
910
911
914
914
914
916
916
917
915
916
916
918
920
922
925
926
926
925
921
920
920
924
922
923
924
926
927
929
930
930
927
926
922
918
917
913
914
910
909
907
903
901
897
893
888
885
881
881
878
875
876
876
874
872
869
869
866
865
865
867
865
865
866
867
866
863
862
861
859
859
859
862
864
864
865
868
866
867
865
863
866
862
866
866
868
870
872
872
871
872
873
871
872
869
870
873
875
877
875
877
877
875
874
871
870
870
871
871
872
875
875
874
872
871
871
869
869
869
867
868
870
869
871
872
871
871
867
868
868
866
866
867
866
868
871
870
869
868
867
865
864
864
863
865
866
865
866
868
868
868
867
865
865
864
864
864
865
867
866
866
869
870
870
866
863
865
864
867
865
870
874
875
877
879
878
881
882
882
885
886
889
892
898
898
900
900
898
897
893
892
893
894
895
897
898
897
894
893
887
886
881
876
877
875
870
871
872
872
870
871
870
869
865
862
867
864
865
867
866
869
868
868
864
864
864
865
867
867
867
869
870
873
875
874
876
873
876
874
875
879
882
885
892
899
915
937
970
1017
1079
1158
1237
1305
1340
1329
1269
1159
1031
903
775
719
717
752
804
856
893
914
920
917
906
900
893
889
888
889
889
894
894
895
899
899
900
897
897
897
896
897
897
897
900
899
904
903
903
903
902
902
899
899
899
901
902
904
906
906
906
907
906
906
905
905
904
902
904
906
909
912
908
909
908
911
911
911
911
912
913
915
917
917
917
916
916
916
914
918
918
919
922
923
925
927
927
926
926
927
928
928
929
931
934
937
938
939
938
940
940
940
940
939
939
939
942
944
948
951
950
951
952
952
952
951
953
954
954
957
959
960
961
961
960
961
959
959
958
955
957
956
957
956
952
951
947
943
940
937
934
931
930
929
929
929
929
925
923
918
916
915
915
917
918
918
917
919
918
919
917
917
914
912
913
914
915
915
918
916
919
920
918
917
916
917
919
920
925
925
928
931
931
929
928
926
929
929
927
931
932
933
937
938
937
938
939
936
934
935
933
936
938
941
940
941
940
940
939
937
937
935
935
935
938
939
938
942
938
941
941
937
937
935
934
935
937
937
941
942
941
943
939
935
936
935
936
934
936
935
938
941
939
938
939
939
938
939
940
939
941
943
944
943
943
945
949
952
951
953
956
958
960
963
967
971
975
978
981
980
979
977
976
976
977
977
979
979
979
981
978
975
969
967
961
958
954
952
954
956
952
951
952
951
950
948
948
948
950
952
955
954
954
952
952
953
952
948
950
950
953
953
955
956
956
957
958
956
960
960
963
966
969
969
974
980
988
1007
1036
1084
1150
1230
1308
1366
1386
1353
1257
1129
1001
873
804
808
852
906
954
989
1005
1010
1003
994
986
980
981
981
979
982
986
985
988
991
989
987
988
987
985
988
987
986
988
989
990
992
989
992
991
990
990
990
989
989
991
989
990
992
991
993
996
995
995
991
987
989
990
992
994
994
995
995
998
993
994
994
993
996
992
994
996
996
1000
1004
1002
1003
1001
1000
999
998
998
999
1000
1002
1004
1008
1005
1007
1006
1005
1004
1004
1006
1007
1007
1011
1013
1016
1016
1019
1016
1017
1015
1013
1013
1014
1013
1018
1019
1021
1021
1019
1019
1016
1017
1014
1014
1017
1017
1019
1022
1022
1023
1023
1021
1018
1018
1013
1011
1009
1010
1010
1007
1005
1002
999
994
990
986
981
979
975
974
974
974
973
969
970
970
965
965
962
963
961
963
963
965
964
965
965
963
965
961
961
960
961
962
964
964
964
965
962
964
964
963
963
962
963
962
965
969
968
971
971
970
968
966
967
967
965
968
968
966
968
970
970
970
966
966
963
962
962
962
961
963
965
965
960
961
958
958
957
957
957
959
961
958
958
956
958
957
955
953
952
952
952
955
958
960
964
965
967
968
967
969
969
969
972
975
979
984
987
987
985
982
980
977
975
975
973
976
981
980
976
977
973
969
965
962
957
952
948
951
949
950
950
950
951
948
946
944
941
941
940
942
942
939
941
942
940
938
940
937
936
937
939
939
941
940
943
944
942
945
946
946
948
948
951
955
960
968
985
1010
1046
1097
1161
1228
1294
1348
1371
1362
1310
1217
1093
965
849
789
782
814
863
913
950
973
980
978
972
963
957
952
951
953
954
953
955
957
957
956
959
957
958
956
956
954
954
953
954
954
957
955
959
957
957
959
956
957
955
954
955
954
954
956
957
956
956
954
955
953
952
953
954
955
956
957
959
959
959
957
958
955
954
952
954
957
955
958
959
959
957
959
959
958
958
955
956
958
961
962
962
962
963
961
963
962
962
961
963
964
967
968
968
969
968
967
968
969
969
969
969
971
973
976
977
979
978
976
976
974
975
974
973
971
975
977
977
977
977
977
974
974
968
967
967
964
964
960
958
955
951
950
942
935
931
928
925
926
921
919
922
923
920
917
915
914
911
908
906
907
906
907
906
907
909
906
904
903
900
901
897
898
901
903
905
907
906
903
903
903
904
903
903
905
907
908
909
910
910
911
911
910
909
909
908
908
911
911
916
912
911
912
911
910
908
909
907
908
909
908
910
910
907
907
906
904
901
901
900
900
901
901
903
902
903
901
898
899
896
895
897
898
896
898
900
897
899
898
896
894
892
892
893
892
892
895
896
898
896
895
894
893
891
890
887
889
889
891
892
891
889
890
888
887
887
886
885
885
889
890
891
894
889
892
894
894
895
896
900
904
906
906
907
910
913
914
914
914
914
913
914
911
913
912
913
915
914
913
911
908
906
902
899
898
894
891
888
887
885
883
882
879
880
881
880
879
877
880
882
882
881
880
877
877
874
874
875
873
875
877
880
880
880
876
876
876
875
878
878
879
882
885
888
889
890
895
897
903
917
938
971
1021
1082
1158
1231
1290
1319
1315
1260
1164
1037
909
798
732
715
739
784
830
871
897
908
909
906
898
894
891
891
891
892
892
895
893
892
893
892
891
891
891
894
891
894
894
893
893
894
891
889
887
886
890
890
893
894
897
894
895
895
891
892
889
889
891
892
891
892
895
893
894
891
888
887
889
887
890
889
890
893
893
893
893
895
894
890
891
892
892
893
894
898
896
898
897
895
897
894
894
896
896
898
898
902
904
903
904
902
903
902
901
902
902
904
906
910
910
910
909
909
909
906
906
906
906
910
911
912
915
912
914
911
912
911
910
911
912
912
914
915
918
917
914
913
910
908
907
903
903
899
899
897
895
890
886
881
878
876
870
867
863
862
865
866
865
864
864
861
861
859
857
856
857
856
855
857
857
856
856
854
856
854
850
852
853
855
856
855
855
856
855
855
855
852
853
855
854
856
861
863
861
861
862
859
859
859
858
859
858
860
860
862
864
863
862
861
860
858
857
857
857
856
856
859
857
857
856
853
851
849
849
848
851
851
851
851
852
851
850
847
848
847
845
846
849
848
849
848
847
844
846
845
845
843
842
844
845
846
844
847
848
847
846
845
846
844
843
843
843
845
847
845
848
847
845
845
844
843
842
840
842
842
844
846
847
847
846
845
841
843
839
839
840
841
841
843
846
846
847
845
845
842
842
842
844
845
847
847
851
852
855
856
858
860
859
860
864
866
866
872
