871
869
868
868
868
868
869
870
874
873
875
879
877
878
875
876
874
874
875
876
877
879
882
882
881
881
882
880
881
878
879
878
879
879
880
881
880
878
878
875
876
874
874
874
876
877
876
878
877
877
875
875
871
872
871
871
873
872
877
876
875
874
873
871
871
868
871
871
870
870
873
875
873
873
872
870
870
869
867
867
870
873
873
875
874
876
875
873
871
870
870
872
871
874
874
878
879
880
884
884
885
891
893
893
895
901
903
905
904
901
900
899
896
896
895
896
898
896
895
895
891
889
883
879
875
872
869
870
871
871
873
875
876
873
872
869
868
865
865
865
867
865
868
872
871
871
869
871
868
868
868
870
872
872
874
878
878
881
878
881
882
881
880
885
889
897
909
931
958
1005
1066
1139
1217
1281
1308
1287
1213
1094
966
838
758
734
751
798
843
884
907
917
915
909
898
893
885
888
890
889
889
891
891
893
893
893
895
896
895
898
894
894
894
893
894
894
896
895
898
900
898
898
899
898
892
893
894
896
896
898
900
902
901
902
900
898
898
898
900
900
901
903
904
903
902
905
905
905
905
903
904
904
905
909
908
909
910
913
909
908
906
905
907
906
905
910
914
914
915
916
915
915
915
914
914
914
916
916
919
924
924
922
923
923
923
923
924
925
924
926
929
929
931
928
927
928
927
926
925
927
924
927
928
931
930
929
928
926
924
920
920
917
915
912
912
910
906
902
899
893
891
886
885
879
881
880
882
885
882
880
879
876
875
872
871
869
869
872
873
876
876
877
876
875
874
874
875
875
875
874
878
881
883
882
883
882
882
882
881
883
885
885
885
891
888
889
890
888
886
884
886
886
888
888
888
889
889
890
889
887
887
883
883
885
886
886
886
887
887
884
884
885
883
879
875
878
879
881
882
883
883
883
882
879
879
878
878
875
875
878
877
878
879
881
880
879
875
872
872
874
877
879
880
882
881
881
880
878
877
877
875
876
878
877
877
881
881
879
879
879
876
876
875
876
877
877
878
882
881
882
879
878
877
874
876
876
877
878
881
883
885
887
884
887
887
889
893
895
899
903
904
907
907
910
909
909
906
905
901
902
900
903
901
904
904
905
901
898
895
892
888
885
883
882
881
882
884
881
881
878
876
875
877
875
876
878
880
881
882
882
882
882
880
879
879
880
882
884
884
888
889
889
888
890
887
890
890
891
896
898
899
906
911
922
944
979
1028
1094
1172
1246
1299
1312
1275
1188
1061
933
820
755
742
767
809
857
890
914
924
925
918
911
907
901
899
899
898
902
905
907
908
911
910
908
908
908
906
909
906
907
908
909
911
914
913
913
914
912
913
912
908
911
911
913
915
916
917
917
917
917
915
915
913
914
914
918
918
919
920
921
923
920
920
918
920
918
919
921
923
925
926
926
925
926
927
924
924
925
929
930
928
933
932
934
935
933
932
932
930
933
936
939
939
942
942
942
946
944
943
943
944
943
943
946
946
950
951
950
950
951
948
949
947
948
950
950
950
952
952
951
951
950
949
950
950
952
954
955
958
959
957
960
955
957
953
952
952
949
946
945
945
946
946
943
942
938
935
931
929
929
927
927
930
929
928
929
929
926
926
926
925
925
928
930
930
932
935
930
930
931
931
929
930
931
933
934
937
940
941
942
943
943
944
940
939
943
944
944
948
949
950
948
952
949
950
946
947
946
948
949
950
955
956
955
954
951
952
949
947
948
952
951
953
954
956
954
954
954
953
952
952
951
952
953
954
954
952
953
952
952
955
951
951
953
953
953
956
957
959
959
958
957
956
953
955
956
955
955
957
960
960
959
959
962
958
958
957
959
957
960
963
963
966
966
962
958
961
959
960
958
961
963
963
966
967
966
966
967
965
966
967
969
973
974
979
981
984
986
990
988
990
992
992
996
996
997
999
999
999
1000
999
998
997
995
994
992
994
994
990
990
989
988
983
981
978
977
974
976
976
977
979
979
982
978
979
978
976
976
975
975
977
978
981
982
983
984
983
982
982
980
982
980
986
988
989
993
996
994
996
997
999
1001
1008
1021
1041
1074
1120
1177
1241
1305
1353
1375
1360
1294
1186
1060
943
869
846
869
911
961
997
1020
1029
1027
1018
1011
1007
1004
1004
1009
1012
1014
1015
1015
1014
1011
1008
1009
1009
1012
1015
1015
1018
1017
1018
1017
1017
1013
1013
1012
1013
1015
1017
1019
1021
1021
1022
1019
1018
1018
1015
1016
1017
1017
1021
1020
1020
1021
1022
1021
1020
1016
1016
1018
1018
1020
1020
1025
1023
1024
1023
1022
1021
1019
1021
1022
1022
1024
1026
1027
1028
1029
1029
1026
1026
1027
1023
1024
1028
1028
1029
1034
1032
1033
1034
1032
1033
1032
1029
1031
1032
1035
1035
1035
1040
1039
1038
1037
1036
1036
1035
1035
1033
1037
1034
1036
1037
1036
1036
1035
1033
1033
1032
1032
1034
1036
1034
1038
1040
1040
1040
1038
1037
1036
1034
1031
1029
1029
1027
1028
1027
1026
1023
1017
1014
1012
1006
1007
1006
1004
1005
1004
1005
1002
1003
1000
997
997
993
994
995
998
997
999
1000
1000
1001
1000
1000
997
996
999
999
1003
1004
1007
1006
1005
1007
1004
1005
1004
1004
1004
1006
1008
1008
1010
1011
1008
1006
1006
1008
1005
1003
1003
1004
1005
1007
1006
1007
1007
1006
1004
1002
1001
1000
1000
1000
1001
1001
1002
1004
1002
1003
1002
999
999
996
994
993
995
996
999
1000
997
998
999
998
996
994
994
993
995
997
996
998
998
999
1000
1000
1001
1000
1005
1005
1006
1012
1014
1016
1018
1019
1020
1021
1022
1020
1020
1019
1020
1021
1021
1022
1023
1021
1023
1019
1015
1012
1008
1005
1002
1000
1001
998
998
997
995
996
994
994
993
994
994
995
995
995
993
991
989
990
990
989
990
988
992
991
991
995
993
992
991
995
995
996
998
997
999
1004
1005
1007
1010
1015
1029
1045
1075
1119
1174
1242
1309
1359
1386
1377
1328
1242
1125
1009
913
857
848
874
918
965
1003
1024
1032
1032
1024
1016
1014
1011
1009
1009
1009
1014
1014
1016
1017
1016
1017
1015
1015
1014
1014
1013
1015
1018
1016
1019
1020
1018
1019
1017
1018
1016
1016
1017
1016
1018
1021
1021
1022
1022
1021
1020
1019
1018
1016
1017
1019
1019
1018
1020
1022
1021
1022
1022
1020
1021
1020
1021
1023
1023
1025
1027
1028
1029
1027
1028
1023
1026
1024
1024
1026
1029
1029
1031
1030
1032
1030
1030
1029
1029
1030
1032
1033
1034
1037
1036
1039
1038
1038
1037
1037
1035
1034
1035
1036
1038
1039
1042
1042
1042
1040
1037
1038
1036
1037
1035
1037
1039
1041
1041
1040
1036
1035
1035
1034
1035
1033
1033
1029
1031
1030
1028
1027
1022
1015
1016
1011
1009
1006
1002
1001
1001
999
1001
999
997
995
994
992
991
989
988
990
990
992
992
993
990
991
988
986
982
986
984
988
990
991
992
995
994
993
993
990
990
991
993
994
996
997
997
998
997
997
997
996
995
994
994
995
994
994
999
996
996
995
996
996
992
991
991
993
992
993
995
995
993
992
991
989
987
985
985
984
986
989
989
990
989
989
986
986
984
984
982
982
984
985
986
987
985
984
981
981
981
981
980
981
982
984
985
984
983
982
979
981
980
980
982
985
986
987
992
995
996
997
997
999
996
999
1001
1002
1004
1005
1008
1009
1006
1005
1003
1003
1003
1000
1004
1004
1002
1001
1002
998
994
989
987
983
977
975
975
975
976
975
978
977
976
975
971
970
970
969
969
971
971
971
972
973
972
972
970
968
969
967
968
970
971
970
974
972
975
975
974
977
975
976
979
981
986
990
1000
1012
1030
1058
1099
1151
1211
1273
1326
1355
1349
1297
1204
1078
955
866
825
834
869
919
962
992
1007
1010
1007
996
988
982
979
978
979
980
978
982
984
985
986
984
986
984
982
981
979
980
980
980
984
984
981
985
984
982
984
982
981
980
976
980
979
980
983
984
984
979
981
978
979
979
977
977
978
980
984
983
982
982
981
979
977
979
978
978
979
980
982
983
983
983
984
981
980
981
982
982
985
985
986
987
987
988
987
986
986
986
986
988
988
991
990
993
993
994
991
990
991
990
991
993
995
997
999
997
998
996
998
995
995
992
994
994
996
998
1001
999
999
1000
998
997
996
995
995
995
995
990
991
989
985
983
978
974
970
967
966
962
961
958
957
956
953
952
950
944
942
939
940
939
938
939
940
943
940
937
936
936
933
934
934
935
936
937
937
938
938
938
938
935
932
935
936
936
939
937
940
944
942
942
940
940
938
938
939
938
939
940
943
943
942
945
943
940
940
938
938
938
938
940
939
941
939
937
937
934
935
934
931
932
935
934
935
936
932
931
929
929
930
927
928
928
930
930
931
931
929
931
926
925
923
923
921
922
921
920
922
924
925
923
923
921
920
918
919
919
920
922
922
924
923
921
922
919
917
916
915
916
916
918
919
923
919
921
920
919
917
917
917
921
924
927
928
931
932
932
935
933
930
933
936
938
939
942
946
945
944
942
940
936
934
935
934
933
936
937
936
939
934
930
927
922
914
911
908
907
910
909
911
914
915
913
909
908
905
903
906
905
909
907
909
912
911
911
908
906
905
905
904
904
906
909
910
913
915
918
916
917
915
917
919
921
930
946
969
1003
1049
1109
1173
1233
1279
1300
1281
1218
1124
1006
893
808
767
768
797
842
883
909
926
934
934
927
922
917
913
912
911
913
912
910
912
912
914
916
917
917
918
918
916
914
916
914
914
912
915
917
919
921
917
920
920
917
912
911
912
916
918
917
920
920
919
917
914
914
913
911
913
914
915
915
917
918
917
919
918
916
915
914
913
913
915
917
918
919
918
918
915
917
916
915
914
916
917
921
920
923
922
921
921
920
920
919
920
919
924
925
925
927
928
928
928
927
925
926
926
925
928
930
933
934
933
934
931
933
928
925
928
932
933
931
934
934
936
933
935
934
931
929
924
924
923
922
921
919
916
914
907
902
901
898
894
890
891
891
890
890
891
886
886
883
881
880
877
877
877
877
879
880
881
880
876
874
873
877
873
873
876
874
880
880
878
878
878
877
877
875
878
875
879
881
881
883
884
884
881
879
881
879
879
878
881
882
882
885
884
886
882
882
878
875
879
878
878
876
880
881
879
881
877
876
875
874
873
874
876
875
876
875
874
873
871
869
867
863
867
867
869
869
871
871
871
872
868
865
863
867
867
867
868
867
870
869
868
868
868
869
869
871
873
873
878
884
885
889
889
890
891
891
892
891
892
890
890
890
891
893
891
891
890
889
885
882
881
879
875
872
870
868
866
864
861
862
859
858
859
858
857
858
856
860
860
860
856
855
854
853
852
851
855
856
857
858
857
858
859
858
858
859
862
863
863
866
866
868
870
875
882
896
918
953
1011
1081
1161
1227
1268
1266
1208
1099
971
843
742
703
715
756
803
846
876
891
893
888
882
875
868
867
867
868
871
874
876
877
876
876
875
873
874
872
872
874
871
873
877
876
875
874
876
874
875
874
873
875
875
872
877
877
878
881
877
878
876
874
875
875
874
877
878
880
879
881
878
877
877
876
875
875
877
876
877
877
879
878
879
877
878
878
880
880
883
884
887
884
886
886
886
881
879
879
878
880
885
888
889
892
892
890
891
891
891
892
890
891
894
893
894
896
895
895
895
895
895
892
895
896
897
896
896
896
895
896
896
895
897
896
897
894
897
898
897
895
892
890
888
883
881
878
871
869
866
862
862
862
859
857
856
855
853
851
851
848
849
850
850
850
851
852
848
849
845
844
843
844
844
848
848
849
848
847
849
847
848
847
848
848
850
850
851
854
851
853
853
852
851
852
852
850
853
855
854
856
857
855
854
854
853
851
850
850
851
850
850
853
852
853
848
849
847
844
847
842
845
846
846
846
847
846
846
846
845
843
846
849
851
855
856
857
859
861
861
862
863
865
866
869
873
873
872
872
870
870
869
870
870
867
868
867
867
865
863
861
857
855
851
846
840
839
834
835
836
838
839
841
840
840
839
835
832
835
831
833
832
833
835
836
837
834
835
836
837
834
836
836
838
842
844
847
849
851
853
855
862
873
894
927
973
1031
1103
1172
1233
1267
1264
1211
1112
984
856
743
696
695
732
783
829
860
873
876
869
858
854
849
849
850
850
851
854
852
852
851
852
849
851
852
851
854
855
855
859
859
856
857
857
855
852
855
854
857
852
854
858
855
856
853
853
853
856
856
858
858
861
863
861
863
860
859
861
859
859
861
861
864
864
864
864
863
866
865
864
864
863
864
865
867
868
870
871
871
872
869
867
868
866
869
870
873
874
877
878
878
877
877
875
876
877
875
878
883
883
886
886
885
887
887
888
886
885
887
887
888
890
891
894
895
893
891
890
890
891
892
890
892
891
892
896
892
892
888
884
883
881
876
873
870
871
867
865
863
860
856
852
846
844
843
840
840
838
838
837
838
836
834
833
833
830
829
828
828
830
830
831
829
832
828
830
829
829
832
834
835
835
837
837
837
837
836
836
835
834
836
839
838
840
843
844
845
846
840
841
840
841
840
842
844
845
846
847
846
846
846
843
841
840
838
838
840
841
842
842
840
840
839
838
837
836
835
837
836
838
836
836
836
838
834
833
831
836
832
832
836
839
842
843
844
844
844
844
842
844
849
850
852
857
861
865
865
865
864
861
862
858
857
858
858
861
861
860
858
853
851
844
837
835
836
834
834
833
833
837
833
833
829
828
827
827
827
826
828
830
832
834
833
831
829
830
829
829
830
831
834
834
837
839
841
842
843
844
843
844
847
852
858
869
886
911
945
992
1050
1118
1183
1239
1265
1250
1188
1081
953
825
735
694
701
736
782
826
858
874
878
875
865
858
850
848
849
850
852
849
853
851
854
854
856
857
857
859
859
858
857
855
855
853
854
857
859
861
861
860
858
854
855
854
855
858
860
861
862
864
864
862
859
861
859
859
858
860
863
863
863
865
863
861
862
863
862
862
863
864
865
867
867
867
868
867
866
868
867
865
867
869
871
873
872
875
875
875
875
877
876
874
874
874
877
878
882
883
883
883
886
887
885
886
886
886
888
894
897
898
897
896
898
896
895
896
897
897
899
901
901
905
901
902
901
897
898
895
894
895
895
892
892
891
888
884
880
876
871
870
866
864
861
860
861
859
857
854
851
846
843
840
841
842
842
841
845
844
843
839
840
840
837
835
839
838
839
842
841
845
844
843
843
841
841
839
839
840
843
843
847
848
847
849
850
848
849
849
850
851
851
850
851
852
852
854
848
846
847
848
847
847
850
849
851
850
850
851
850
847
846
844
843
845
846
845
844
849
846
846
845
843
842
840
840
841
842
841
843
843
843
845
844
842
840
837
840
839
841
843
844
845
844
843
843
840
838
840
840
839
838
843
844
845
847
847
851
853
853
855
855
855
859
861
864
867
870
871
873
873
870
869
867
867
869
869
870
871
870
868
867
864
863
862
857
855
854
851
849
849
847
844
840
842
841
841
840
839
838
841
841
842
841
840
840
838
838
836
836
837
836
839
841
840
844
844
844
843
843
843
845
847
849
851
856
858
859
860
861
862
865
874
891
913
945
986
1041
1108
1173
1230
1262
1261
1216
1135
1021
897
794
731
713
730
769
812
841
859
867
869
864
861
860
862
863
864
865
865
862
860
858
859
861
860
862
864
865
867
864
865
866
863
861
861
862
863
865
866
868
868
870
870
867
866
865
863
862
865
865
867
867
872
870
870
870
869
868
864
865
865
868
870
872
873
872
873
873
871
873
871
870
872
874
873
874
878
876
878
877
876
877
874
875
875
878
879
882
881
880
883
883
883
883
884
883
886
886
888
889
892
893
890
895
892
890
889
890
894
893
894
896
899
900
901
901
900
903
900
900
898
902
899
901
904
905
905
905
907
905
903
901
901
906
906
902
906
903
899
898
892
889
884
880
876
876
874
872
873
872
868
867
865
866
863
861
861
862
861
860
863
864
864
864
864
861
860
858
862
862
863
866
867
870
868
867
867
868
867
868
869
870
873
873
877
876
875
875
875
875
875
874
873
875
878
879
881
883
879
882
882
881
881
880
880
880
882
883
883
884
882
881
880
879
877
876
877
880
883
883
885
884
886
884
881
883
880
879
879
884
883
885
884
885
884
884
888
886
888
891
892
894
897
901
904
907
911
913
915
917
917
919
920
921
917
920
920
922
921
923
918
920
919
917
915
913
908
908
907
902
900
897
895
895
896
894
896
897
900
899
902
898
898
898
898
895
895
896
897
899
902
902
901
904
901
904
906
908
908
910
909
911
913
917
918
918
919
922
924
926
932
941
957
980
1013
1056
1109
1173
1232
1282
1312
1313
1275
1200
1090
966
864
804
790
816
859
900
934
954
956
950
946
940
936
936
937
939
940
941
941
942
942
939
942
941
942
944
948
947
948
948
947
946
944
945
947
948
949
950
953
954
952
955
952
952
952
950
951
953
953
955
957
957
957
957
957
957
954
954
954
956
