893
890
887
885
881
878
873
866
863
863
862
859
858
854
855
851
850
849
846
842
842
841
842
843
843
844
842
842
840
836
836
836
836
839
842
841
843
844
843
843
843
842
843
842
843
843
847
847
849
848
849
852
850
851
848
848
849
849
852
855
855
857
854
857
852
853
850
852
850
851
851
851
851
854
853
851
851
849
848
846
847
847
847
848
849
852
850
849
848
847
849
846
846
848
848
849
848
851
847
847
847
847
845
844
842
843
846
847
854
856
858
859
862
864
865
863
866
868
869
876
880
881
879
878
877
875
874
872
873
874
876
875
875
872
870
865
862
856
853
848
845
845
845
848
847
850
848
848
845
845
842
841
840
843
844
843
846
847
848
845
845
843
843
843
843
845
846
850
851
855
856
857
857
858
859
860
861
867
875
887
908
939
981
1036
1104
1175
1238
1279
1279
1235
1149
1035
912
807
736
714
724
762
801
838
862
874
878
878
878
875
871
869
866
866
866
866
866
867
869
869
870
872
868
872
870
869
868
866
867
870
871
869
872
873
873
872
871
870
870
870
870
870
872
870
871
872
874
875
874
874
871
872
871
871
873
875
876
878
878
878
878
878
875
877
876
876
881
879
880
882
880
880
879
881
879
878
879
879
880
882
882
883
882
886
883
884
884
885
887
887
888
890
891
895
895
893
893
895
895
895
896
897
898
902
902
904
905
904
901
904
903
901
901
902
905
902
904
903
907
906
906
904
901
898
896
898
897
893
894
891
888
884
882
879
876
872
867
867
868
865
864
865
866
861
859
860
857
854
855
855
854
855
854
857
858
857
857
857
855
853
854
853
855
856
856
858
858
857
859
856
855
856
858
859
861
863
864
864
866
864
864
862
862
859
860
859
859
864
865
865
865
866
863
864
861
861
862
861
859
863
861
863
863
863
862
859
858
857
858
858
858
859
859
860
860
861
861
856
856
854
854
854
856
855
858
860
860
858
855
857
856
852
851
854
856
857
857
859
859
859
860
858
855
857
855
855
858
858
860
860
859
859
857
856
854
854
856
855
855
855
859
862
862
861
857
856
855
851
856
858
859
860
860
862
865
865
868
867
868
868
871
876
879
880
880
884
888
889
886
887
885
881
879
880
880
881
883
885
885
883
884
880
878
875
872
869
867
865
862
860
861
863
862
860
858
858
856
857
858
860
860
861
861
860
859
858
856
855
856
857
857
860
860
861
864
864
864
864
865
865
863
866
869
872
874
879
879
882
888
898
915
944
984
1036
1101
1173
1237
1283
1291
1258
1185
1077
955
841
760
723
726
756
797
837
863
878
885
885
882
877
875
875
873
876
878
879
879
880
879
877
877
878
878
878
878
878
879
882
882
881
881
882
878
876
875
879
883
885
884
885
881
884
884
883
881
879
880
881
883
884
882
887
884
883
882
880
883
879
880
882
884
883
884
887
885
888
887
889
886
882
883
885
887
890
888
887
890
890
888
890
889
888
888
892
892
895
895
898
898
899
897
897
896
896
896
897
899
899
902
904
902
901
901
900
896
898
897
897
896
897
899
900
901
901
902
901
900
901
899
897
900
900
898
898
898
895
893
888
885
879
876
876
875
873
873
877
871
871
868
866
865
863
863
861
862
863
865
868
866
864
863
860
859
861
857
861
863
862
863
863
863
863
863
864
862
863
865
863
867
868
868
870
869
871
871
869
868
868
864
865
868
868
869
870
871
871
870
867
867
865
867
863
867
869
869
872
869
870
867
865
866
865
864
865
863
865
863
864
865
865
862
862
861
861
860
861
862
861
863
865
864
866
864
864
861
861
862
863
865
867
870
875
875
877
877
877
880
879
882
885
888
892
893
894
891
889
888
886
886
886
884
884
885
883
884
882
881
876
872
866
865
860
859
858
860
862
864
865
864
862
861
858
858
857
855
855
856
857
859
860
861
861
856
856
858
856
856
856
860
861
863
866
868
866
868
868
868
867
870
870
876
877
881
892
906
930
966
1018
1084
1159
1233
1283
1301
1275
1204
1092
964
841
761
726
737
772
815
854
883
895
898
895
889
884
878
874
873
873
876
876
880
882
881
883
880
880
881
878
879
879
880
881
879
883
881
883
883
883
883
879
881
880
880
881
883
886
886
886
884
882
883
884
885
883
883
882
885
885
886
888
886
885
888
887
886
884
884
883
885
886
888
890
891
891
892
890
890
891
888
889
887
889
891
895
897
896
896
894
895
894
896
896
898
902
902
905
905
905
905
905
904
903
906
905
907
908
911
912
912
910
910
907
907
906
904
903
907
907
908
907
908
907
909
907
906
903
903
903
901
900
897
896
892
888
885
880
878
873
869
866
866
866
865
865
866
864
864
859
859
856
856
855
856
857
859
860
859
860
860
858
858
856
857
858
859
857
860
864
865
867
865
866
864
864
863
862
867
869
869
872
873
869
867
871
872
868
868
869
867
870
872
875
874
875
874
873
871
871
870
870
870
871
872
873
873
871
871
867
867
866
865
867
866
867
868
870
870
869
867
867
865
864
864
863
865
865
866
866
870
867
868
866
867
865
864
864
863
865
866
871
872
873
876
875
875
876
880
880
883
885
887
890
893
893
896
895
894
892
890
891
892
893
896
896
897
896
893
891
889
886
883
882
880
878
876
873
873
871
871
868
865
866
866
866
866
866
867
867
869
866
865
865
864
863
862
863
864
865
867
870
871
870
870
868
868
868
871
869
871
873
876
881
880
885
887
889
897
910
927
957
1000
1055
1120
1193
1257
1303
1319
1290
1222
1115
993
873
784
743
743
776
821
859
890
904
909
904
897
890
885
884
886
887
890
891
890
889
889
889
887
889
889
890
889
893
892
895
894
894
893
891
888
890
891
892
894
893
895
895
892
893
893
891
892
893
892
894
896
896
896
899
900
896
896
897
896
896
896
894
898
899
899
899
900
902
901
899
898
899
900
902
904
906
906
907
905
905
907
907
907
909
910
912
914
914
917
916
918
916
917
918
917
917
919
924
924
924
928
929
927
927
927
929
930
929
930
931
932
936
938
935
934
935
933
932
935
931
932
934
932
929
929
927
925
920
915
912
908
904
901
901
898
897
894
893
891
887
886
883
880
879
879
881
881
883
882
881
878
877
876
876
872
872
876
877
878
880
877
881
880
878
879
875
878
879
881
882
883
885
887
887
887
887
888
886
887
886
887
889
890
891
891
892
889
892
888
888
885
886
884
887
887
888
889
888
887
886
884
884
884
881
884
883
884
885
887
885
884
884
885
882
880
883
878
882
883
884
886
886
885
884
883
883
880
882
882
882
883
885
887
884
886
884
885
882
880
881
881
881
883
883
887
885
886
886
884
884
885
880
883
885
884
887
888
888
889
886
887
886
889
891
892
895
900
901
905
907
908
908
908
909
910
911
911
912
913
912
911
910
910
912
909
909
907
906
905
905
902
902
898
896
895
890
888
887
885
887
887
889
891
890
890
890
889
885
886
884
880
882
883
883
885
886
887
887
888
888
886
886
887
888
885
889
891
895
896
898
904
903
903
905
909
918
936
963
1002
1054
1116
1187
1251
1303
1328
1315
1260
1165
1049
928
832
769
757
776
817
860
892
914
922
923
918
913
908
907
907
906
908
908
907
905
903
905
908
909
908
913
913
912
911
910
908
907
905
907
907
907
906
907
911
911
913
913
912
914
910
911
913
912
910
914
914
914
914
914
912
910
908
909
911
911
912
914
914
916
915
916
916
915
914
915
916
919
918
921
922
923
924
922
922
919
919
918
920
923
924
925
926
928
928
930
928
929
928
927
930
931
933
935
935
935
935
935
934
934
932
933
932
937
942
940
941
941
941
940
941
938
938
938
941
942
943
943
945
945
945
945
940
936
933
930
929
926
925
923
922
919
915
913
911
907
903
901
900
901
899
902
903
903
899
898
894
896
895
891
894
897
897
898
899
895
897
897
896
893
893
893
896
897
898
898
901
901
902
900
900
900
899
899
896
901
904
905
907
908
909
906
905
904
902
901
902
904
905
905
909
908
907
909
906
903
902
900
902
898
897
899
901
900
904
904
903
900
898
898
897
898
900
902
901
903
903
901
902
901
899
899
899
898
901
901
901
902
903
899
898
898
899
896
897
899
900
900
901
901
901
901
898
896
897
896
899
901
903
907
912
913
916
916
916
916
918
917
921
924
927
929
930
929
928
925
925
923
922
925
923
925
925
926
924
923
919
914
908
905
899
897
898
898
901
905
906
904
902
900
899
897
896
898
896
896
898
899
902
901
902
900
899
898
897
895
897
899
899
902
901
903
906
906
905
907
905
906
909
911
916
920
928
939
958
984
1029
1093
1166
1242
1302
1334
1319
1254
1146
1018
890
804
765
772
807
849
892
919
932
937
933
928
923
919
917
918
915
917
918
920
919
924
925
926
927
926
923
922
923
922
921
923
925
925
927
930
927
927
926
924
926
925
925
925
927
928
926
927
927
928
925
926
926
925
926
927
928
929
932
930
930
929
927
927
926
929
931
932
930
933
935
934
933
934
933
931
932
931
932
929
933
934
938
938
937
941
939
940
938
938
939
941
942
942
944
946
946
946
945
944
942
943
942
945
950
950
952
954
954
953
950
951
948
948
948
950
951
953
955
953
953
953
950
949
948
946
948
949
950
952
953
953
953
954
951
948
946
942
937
937
935
934
933
930
929
925
919
918
916
914
911
913
911
913
915
913
914
911
909
908
908
904
907
909
908
909
913
912
913
912
909
908
906
908
909
908
909
910
914
913
914
915
913
913
913
912
913
913
917
917
918
919
919
917
912
915
914
914
914
914
916
915
917
918
915
916
913
915
910
909
912
913
911
914
913
912
913
913
908
910
906
907
906
908
908
909
910
910
910
910
909
906
905
903
902
904
907
905
908
910
909
909
908
907
907
909
909
915
915
917
921
923
924
924
926
927
928
928
932
935
935
934
934
934
932
931
932
934
932
931
930
929
928
927
925
923
918
915
909
905
904
904
903
904
903
906
905
906
902
904
903
900
898
897
896
898
899
901
904
904
904
903
903
901
901
898
900
901
903
905
908
911
910
911
913
911
913
914
916
921
923
930
939
956
979
1014
1061
1119
1192
1260
1321
1356
1362
1319
1236
1118
990
865
790
764
779
821
866
906
932
943
945
939
933
927
924
920
918
921
922
925
928
925
927
927
927
928
925
925
923
925
926
927
927
927
927
929
930
930
930
929
926
924
924
927
927
930
929
935
933
932
932
930
930
927
928
930
931
931
932
934
935
935
934
933
932
932
932
930
933
935
939
940
940
940
939
936
936
939
938
937
941
942
944
946
946
945
946
947
945
944
944
948
948
948
950
952
952
956
957
954
955
955
956
957
958
960
960
961
963
961
961
961
959
961
958
958
958
959
963
963
964
964
960
959
955
954
954
950
948
947
946
943
938
938
933
928
925
922
917
917
915
916
914
915
914
912
912
911
908
908
907
906
906
906
907
909
907
904
906
906
904
905
908
906
909
911
909
913
914
912
913
915
913
911
913
914
916
917
917
920
921
920
918
917
918
916
916
918
919
919
920
921
920
917
916
918
917
914
915
915
913
916
917
919
918
918
914
914
913
910
912
909
912
913
915
917
913
915
914
912
911
911
910
910
912
913
912
914
914
912
912
911
910
909
910
907
909
910
914
915
915
913
911
911
911
908
908
909
910
908
914
913
913
913
912
910
911
905
909
910
911
913
915
918
921
923
922
925
925
926
927
929
931
931
936
940
941
943
943
938
937
937
935
936
937
938
939
941
941
938
935
933
928
926
920
917
917
914
915
916
914
914
913
914
914
910
910
908
910
911
913
914
915
912
913
909
909
910
910
908
911
912
914
916
917
919
919
918
920
920
920
924
927
928
931
935
943
952
966
990
1023
1071
1133
1200
1269
1323
1353
1347
1298
1207
1085
961
853
790
775
798
841
885
920
942
953
951
944
938
930
925
923
922
927
929
934
936
935
936
934
934
932
933
932
932
933
933
936
937
937
935
937
936
934
932
933
935
935
937
937
939
938
938
937
934
935
933
935
936
936
938
938
938
940
937
937
938
935
938
939
937
941
941
942
943
943
940
943
942
941
943
942
943
944
945
949
950
950
950
950
950
949
947
948
948
951
951
954
957
956
956
955
954
955
953
955
958
956
960
962
965
964
963
961
961
960
961
958
960
961
961
962
963
965
964
964
958
960
959
960
958
958
957
954
950
950
946
942
936
930
929
924
926
927
922
924
923
923
921
921
920
916
916
913
915
913
917
916
916
918
917
916
915
913
913
914
916
917
920
920
919
919
918
920
920
919
920
917
916
918
920
924
926
927
926
926
922
920
922
922
922
923
923
927
927
927
927
926
922
924
920
920
918
921
922
923
927
924
925
920
920
919
917
916
915
917
918
918
920
920
919
918
916
913
910
911
910
915
914
916
915
916
916
914
913
909
912
912
912
912
914
913
916
913
914
913
912
910
909
909
908
909
910
913
912
911
911
912
909
909
907
906
908
908
911
912
916
911
915
912
911
912
909
909
910
913
913
915
917
917
917
915
914
912
910
910
909
912
913
915
915
916
915
916
914
915
912
913
911
913
914
917
917
917
917
917
918
917
918
919
919
923
926
932
935
938
938
939
938
938
938
937
941
942
941
940
940
940
939
940
940
938
935
933
931
930
931
927
924
924
920
920
917
918
916
915
914
915
915
914
916
915
914
912
908
910
909
910
912
914
917
916
917
920
920
920
920
918
919
919
921
926
928
928
932
934
941
946
958
979
1012
1057
1115
1183
1249
1307
1341
1339
1293
1207
1090
970
866
799
776
790
827
870
906
930
941
946
942
940
935
932
930
930
929
933
937
937
937
936
934
934
931
935
934
935
939
940
937
937
939
937
932
934
934
932
933
937
939
937
940
941
941
938
937
938
937
938
939
936
938
940
943
942
942
941
941
938
937
937
937
938
940
942
945
945
946
943
943
942
939
942
941
942
946
946
949
948
948
947
943
944
942
941
943
945
947
949
951
952
951
951
951
951
951
952
952
951
952
951
957
957
954
954
954
951
951
952
951
950
949
952
955
954
953
952
952
952
949
946
950
948
952
956
955
958
957
957
954
951
948
951
946
947
945
945
946
946
942
937
933
929
927
926
927
927
926
925
924
923
923
921
921
918
918
916
916
917
921
920
924
922
922
922
920
917
918
917
918
917
921
921
924
927
926
925
924
923
923
923
924
925
927
930
927
930
928
928
926
927
926
928
928
929
928
929
930
928
924
928
927
924
923
924
921
923
925
922
924
924
924
922
923
921
918
919
917
918
920
919
924
922
922
921
918
917
916
916
915
916
918
916
919
917
918
917
917
915
916
914
911
914
916
917
917
919
918
918
917
916
915
912
914
916
917
919
924
926
927
930
931
931
934
933
935
939
943
944
946
948
945
944
940
940
939
939
938
939
939
940
941
943
937
934
932
925
920
918
914
914
915
918
918
921
920
918
914
916
914
913
913
913
913
912
914
914
915
917
915
915
911
912
912
916
917
919
924
924
926
925
926
928
925
927
931
935
949
967
997
1038
1095
1165
1238
1301
1340
1346
1310
1229
1119
995
882
808
782
796
834
880
916
938
948
949
946
941
941
939
937
939
939
938
938
938
938
939
941
940
941
943
943
941
939
940
938
937
939
939
941
942
944
942
942
943
941
941
941
941
942
941
941
944
944
945
943
943
943
942
939
940
938
942
944
944
946
948
945
945
945
944
941
941
943
944
943
945
947
947
947
948
946
946
946
945
946
944
947
950
952
955
954
953
952
953
954
949
951
953
952
956
958
958
959
958
957
959
957
958
956
957
961
961
960
963
961
959
961
961
961
959
958
957
957
957
958
959
961
957
957
956
956
953
956
955
956
957
956
955
951
948
946
943
937
934
934
933
932
929
928
927
925
925
920
916
916
913
911
910
914
916
914
914
916
917
914
913
912
911
910
914
914
916
916
916
916
919
915
915
914
916
913
917
917
915
920
920
921
921
920
920
917
919
919
920
920
921
923
922
924
923
921
918
918
916
917
917
916
918
921
922
921
920
917
915
910
912
910
911
912
913
915
916
916
916
913
912
910
910
912
913
913
912
913
912
912
910
908
910
909
908
908
908
910
910
913
915
914
913
912
910
911
909
906
910
913
915
916
918
920
921
921
922
923
922
924
926
932
934
939
939
940
944
942
940
937
933
935
934
938
938
939
940
936
937
932
926
923
916
914
