927
927
925
930
932
932
936
936
936
937
935
935
932
932
933
937
938
938
940
940
941
938
936
932
930
931
928
926
924
922
918
914
912
909
902
898
896
894
891
890
890
889
887
885
887
883
883
881
879
879
878
880
880
880
879
880
882
878
876
875
875
874
874
875
876
879
880
881
879
878
878
877
875
875
876
875
876
878
880
881
883
883
883
884
881
883
881
882
883
884
885
886
888
884
886
881
881
878
880
882
880
879
880
881
882
881
878
878
876
877
875
875
878
877
880
879
877
877
877
875
874
875
875
877
877
878
879
877
876
877
877
876
876
875
873
875
873
875
878
877
876
875
873
873
871
873
872
875
876
879
881
881
882
885
885
884
888
889
893
892
894
900
906
906
905
904
905
902
900
898
899
900
900
902
904
902
900
895
892
886
882
880
878
875
872
875
877
877
876
876
877
874
873
873
873
872
874
874
875
874
873
873
873
871
871
872
871
870
870
872
877
880
878
878
878
881
878
881
883
885
890
890
893
895
902
907
924
954
995
1051
1123
1195
1257
1295
1296
1254
1168
1051
928
823
756
736
755
798
839
873
898
908
910
905
898
890
889
889
886
889
891
896
894
895
894
893
893
893
890
891
892
891
895
895
895
897
895
896
894
892
894
895
894
894
896
898
896
897
898
896
896
895
893
893
892
894
895
896
897
897
899
897
895
896
894
896
896
898
897
899
902
901
899
897
895
895
896
894
899
899
902
903
906
906
906
905
902
902
903
902
905
907
907
910
912
912
910
911
910
911
912
908
907
909
913
916
919
919
920
919
917
917
918
920
919
919
921
920
924
923
925
922
920
922
920
921
920
923
922
923
925
928
924
923
924
920
917
915
910
911
909
907
906
902
899
895
890
889
886
884
883
881
881
880
881
880
879
877
874
871
871
870
871
870
872
875
875
874
873
872
873
873
871
872
873
874
876
876
878
876
879
876
877
876
876
874
876
877
877
881
881
879
880
880
881
881
880
878
876
879
878
880
881
882
880
880
879
878
878
877
875
875
877
881
880
880
879
878
875
875
874
872
870
872
873
872
871
877
877
874
874
873
870
873
874
872
873
873
875
874
875
875
874
872
874
874
875
876
877
880
885
885
885
887
889
886
888
888
892
895
897
902
903
904
902
901
900
900
894
896
896
896
895
894
894
894
892
890
883
882
877
874
870
867
869
871
873
874
872
872
868
867
868
864
864
864
866
865
870
868
867
867
867
866
866
868
866
869
871
872
874
877
877
876
875
876
879
879
878
882
886
888
893
899
906
917
935
961
1000
1055
1118
1189
1250
1291
1304
1280
1217
1125
1011
898
806
759
751
774
812
849
876
893
896
894
890
888
884
884
883
884
889
888
889
889
887
887
886
886
886
886
884
882
886
888
887
892
891
891
891
891
890
887
888
890
890
890
891
891
889
889
892
890
889
889
888
890
892
890
894
893
894
895
894
893
891
892
892
892
894
896
895
897
896
896
895
895
893
893
892
892
896
898
898
901
900
897
897
896
897
898
896
898
899
901
903
904
904
904
902
903
904
901
902
904
906
907
910
912
912
910
913
912
908
907
910
910
911
915
915
915
914
914
913
910
908
907
909
909
909
913
914
913
913
913
910
905
905
901
899
897
896
895
894
891
890
885
882
882
877
874
872
872
872
871
875
873
872
870
867
865
859
863
859
860
861
864
865
865
865
865
864
862
863
859
861
863
860
866
869
869
872
868
869
866
868
868
869
870
871
870
873
875
875
876
874
875
872
870
871
868
871
874
877
877
876
877
874
873
870
869
869
869
872
871
871
871
869
868
867
865
865
863
862
865
865
865
866
869
868
866
864
865
866
863
860
863
864
863
864
865
866
866
864
863
860
862
861
863
863
863
865
866
868
867
865
863
860
862
861
861
864
864
864
866
866
870
871
870
872
873
875
876
878
882
883
885
885
886
889
889
888
889
890
888
891
890
891
891
891
891
889
890
885
884
882
878
876
874
874
873
870
868
867
866
862
865
867
864
865
865
869
869
867
866
866
864
859
861
861
862
865
864
865
866
863
866
863
865
864
865
868
870
873
876
880
882
883
888
892
902
921
949
989
1044
1113
1184
1246
1288
1300
1273
1209
1111
999
886
798
753
748
772
812
850
875
891
898
894
891
884
878
877
878
877
881
882
882
882
883
881
880
880
880
879
880
882
884
886
885
886
883
883
881
878
879
879
883
883
886
884
885
884
882
881
880
878
881
882
883
882
885
887
886
885
884
883
883
880
881
881
884
883
887
888
887
887
887
885
883
885
883
882
885
886
887
888
889
891
892
891
888
888
888
890
891
893
896
897
896
898
896
897
895
894
898
899
902
902
902
905
902
905
904
903
903
905
905
907
909
911
910
914
912
913
910
910
909
910
911
911
913
912
915
917
914
911
910
907
902
900
898
897
893
891
889
888
885
885
881
876
874
870
869
869
868
865
866
867
865
865
862
862
858
857
858
858
860
860
858
861
862
860
858
859
856
856
856
858
859
860
861
861
862
860
860
858
859
856
857
860
863
866
866
866
868
867
868
867
866
864
865
863
867
865
867
868
869
866
867
865
863
861
860
861
860
862
861
861
859
861
862
856
857
858
854
856
858
858
858
861
860
861
862
857
857
855
855
855
856
857
860
860
860
858
858
856
857
854
856
856
856
856
858
858
859
857
857
855
852
852
851
848
851
854
854
856
856
857
857
855
851
852
855
852
856
855
859
859
861
861
861
861
860
860
865
864
869
872
874
876
877
879
878
878
878
882
880
880
878
880
880
882
881
882
881
879
876
874
870
868
865
865
865
862
861
862
859
859
855
856
857
855
853
857
858
858
859
858
856
855
851
851
853
852
854
856
859
859
859
862
861
862
862
862
862
862
869
869
873
877
879
882
887
894
913
942
981
1034
1099
1172
1234
1274
1274
1234
1147
1038
921
819
754
733
749
783
824
859
879
887
889
884
878
873
870
871
872
875
876
880
880
880
881
877
875
875
877
877
878
878
880
882
883
880
879
879
878
875
875
876
877
877
880
878
879
882
882
881
880
879
878
879
876
877
879
881
884
881
881
880
879
878
879
880
879
878
880
884
885
884
885
883
882
883
882
884
885
886
887
887
889
889
888
885
886
885
886
888
889
890
891
893
895
896
894
894
893
897
896
897
897
901
901
903
903
904
905
904
900
901
901
899
902
904
907
907
909
906
904
904
903
904
904
906
909
907
909
912
909
908
906
901
899
895
893
891
887
887
884
883
882
878
878
874
868
868
870
868
867
866
866
867
866
863
862
861
857
858
857
855
854
858
861
861
863
858
861
861
859
860
857
859
860
861
865
863
867
866
866
865
864
863
861
862
864
867
867
870
868
868
868
866
865
864
866
866
866
868
868
871
871
868
867
865
865
861
862
861
862
861
864
865
864
863
863
861
860
858
857
856
858
859
859
859
860
862
861
859
856
856
858
858
859
861
861
862
861
861
858
856
858
857
857
857
858
861
864
863
862
861
861
864
864
864
865
869
873
872
875
875
880
881
883
884
882
883
883
883
884
884
886
889
890
891
887
882
882
875
874
871
869
866
867
865
861
863
862
865
861
860
860
858
857
856
859
861
862
862
861
860
859
857
855
858
858
860
859
862
863
864
864
862
862
861
863
865
865
870
871
873
876
877
877
876
878
880
887
898
911
933
965
1008
1064
1126
1191
1240
1267
1253
1195
1096
974
857
776
739
750
783
826
860
882
892
889
888
882
881
879
876
879
879
882
879
879
877
878
879
879
879
881
881
883
882
885
883
880
881
881
882
883
882
881
883
886
888
886
886
886
884
884
885
885
888
886
890
889
888
888
889
887
885
885
887
884
886
889
889
890
890
889
887
886
886
884
886
887
884
889
889
889
887
889
888
888
890
886
891
894
892
894
897
899
898
898
898
898
897
895
894
897
898
902
904
904
906
907
906
906
903
904
905
906
905
910
914
913
912
912
908
908
909
909
907
908
909
908
911
912
912
912
910
909
909
907
906
905
903
904
903
902
897
897
894
889
884
881
882
878
877
877
879
876
875
873
871
868
866
863
864
862
866
864
866
865
867
867
866
864
863
860
862
866
867
869
871
873
873
873
871
874
870
870
871
872
872
873
876
877
873
875
875
875
874
873
873
875
875
876
876
877
879
875
873
874
872
872
871
871
872
872
874
875
874
874
873
871
871
870
869
870
871
872
874
874
873
871
871
871
868
867
868
869
870
870
873
873
873
870
873
872
872
873
875
879
880
884
886
888
890
892
890
893
894
893
893
896
894
894
896
896
896
895
896
895
891
889
886
887
883
882
880
880
877
874
872
871
870
867
869
868
867
867
871
868
869
870
869
868
865
865
867
866
869
869
872
873
873
871
871
874
870
873
873
874
876
880
884
887
887
888
889
894
899
912
933
968
1013
1073
1144
1213
1266
1296
1292
1248
1165
1060
947
850
783
758
770
797
834
867
888
900
902
901
897
892
892
891
889
890
890
890
890
891
890
890
889
889
890
893
893
893
895
894
892
893
893
892
892
894
894
897
897
899
897
896
896
893
892
893
894
894
891
893
894
897
896
898
900
895
895
896
896
897
899
900
901
902
901
902
901
901
899
897
899
901
901
903
904
908
907
909
906
906
905
902
906
907
910
910
914
913
914
913
912
914
914
913
915
915
916
918
918
921
925
922
921
926
921
924
925
927
927
930
931
932
933
934
931
929
928
928
928
929
931
932
931
935
934
933
932
930
931
927
925
920
919
920
916
915
912
907
902
900
896
894
892
891
891
889
890
890
888
888
884
883
880
881
880
879
877
880
881
884
883
881
882
878
880
881
879
882
884
884
886
890
889
888
888
888
887
886
889
891
889
893
896
896
897
895
895
893
894
890
891
893
892
893
893
897
897
897
894
892
889
888
890
888
892
892
894
894
896
894
891
888
889
887
887
884
886
888
889
889
891
891
889
889
888
888
886
885
889
889
888
892
890
892
889
888
888
888
887
888
890
893
894
897
899
900
901
901
898
899
903
904
907
912
914
916
917
918
918
917
913
913
912
912
914
915
917
914
914
911
907
905
899
895
893
890
889
891
893
892
893
893
891
889
888
884
884
885
887
887
888
892
891
887
890
888
887
887
885
884
888
893
892
897
896
896
896
895
898
898
902
905
907
909
918
929
946
969
1000
1045
1100
1162
1226
1279
1310
1313
1269
1185
1073
948
842
775
757
779
818
863
899
921
930
930
924
917
911
906
900
901
903
902
905
909
906
910
911
910
908
908
907
906
908
908
909
910
910
913
912
913
911
909
910
908
908
908
909
911
912
913
913
914
912
911
907
909
910
910
911
912
913
915
914
914
911
913
913
912
913
914
916
917
917
919
919
920
919
918
915
914
916
917
917
921
923
925
924
927
922
922
922
921
920
922
926
929
930
933
935
934
934
931
933
932
931
933
932
933
936
936
937
935
935
934
934
935
936
936
936
939
939
939
937
940
939
938
939
936
935
933
932
928
927
927
923
921
917
914
910
907
904
904
904
900
902
902
900
898
898
896
892
890
890
890
890
891
892
894
896
895
895
892
889
890
891
891
892
895
894
897
897
896
897
898
896
896
896
895
895
898
899
902
902
902
901
901
898
897
895
896
897
899
897
900
900
901
901
898
897
894
894
894
895
896
896
899
897
895
896
896
892
892
890
894
896
893
895
896
896
896
896
893
891
889
890
889
888
893
893
894
895
894
892
891
892
890
888
890
891
893
892
893
893
893
890
891
889
888
887
886
889
891
891
894
894
894
894
892
893
890
888
891
890
890
894
894
894
889
894
891
891
887
889
890
891
891
893
895
900
899
901
901
903
900
901
905
907
911
912
915
917
918
920
918
918
917
915
911
914
915
915
917
916
916
916
914
911
907
902
899
897
894
895
894
893
891
893
891
889
889
886
886
887
889
889
890
891
888
887
888
885
885
884
884
885
886
888
892
890
891
893
894
892
892
894
897
896
900
904
907
910
912
916
925
939
963
997
1044
1101
1164
1223
1277
1305
1303
1262
1178
1069
950
847
778
754
769
808
854
888
915
924
925
917
910
902
898
898
899
899
904
905
905
907
904
906
905
902
902
901
904
905
907
906
904
908
906
908
905
904
903
906
905
910
908
909
906
907
905
906
904
904
904
905
906
907
910
910
910
911
911
910
909
907
907
907
909
912
912
914
911
909
910
912
910
909
908
909
908
911
914
916
914
915
913
909
911
916
916
917
920
920
922
925
925
923
922
921
919
919
919
920
920
922
926
926
926
925
923
923
918
916
920
919
923
922
926
926
927
927
927
927
925
920
919
920
920
920
918
917
915
911
909
904
902
898
897
894
896
894
894
893
889
888
887
885
886
885
885
885
886
885
886
887
886
887
885
885
885
881
882
883
885
886
886
886
887
885
888
886
886
883
887
885
889
889
891
893
893
894
893
891
891
891
889
889
891
890
895
894
894
893
889
890
888
886
886
885
886
887
888
889
889
888
886
886
883
884
883
883
882
882
885
885
885
885
882
882
877
879
879
879
882
882
883
882
880
879
878
877
877
878
878
878
878
881
881
882
882
883
883
882
883
884
886
888
890
893
897
898
899
900
901
901
902
903
903
904
906
906
909
907
907
907
905
904
903
902
899
898
897
897
893
891
888
886
880
881
879
879
879
880
880
881
883
881
881
879
877
874
874
875
871
873
874
873
877
878
876
876
876
875
875
874
875
877
879
883
885
888
886
888
888
888
886
890
893
901
915
937
973
1021
1082
1153
1222
1280
1309
1301
1250
1158
1042
919
821
761
749
771
809
850
880
899
907
907
903
897
897
896
894
892
895
896
895
894
895
893
893
895
897
900
899
902
899
898
897
896
896
896
898
901
901
903
903
903
899
901
897
895
896
898
900
901
902
901
902
901
900
899
897
896
896
899
896
902
903
906
906
905
903
903
902
899
903
900
902
906
905
908
908
907
905
907
906
902
906
907
911
911
912
915
916
916
915
914
915
913
913
911
916
918
919
921
923
921
922
921
920
920
919
922
920
920
922
923
925
922
921
920
917
918
918
919
920
921
922
925
924
925
922
921
916
917
913
915
913
911
912
908
908
905
898
896
893
890
889
884
885
886
886
889
885
885
885
881
879
878
878
879
877
878
878
880
881
881
881
881
879
881
880
880
882
883
885
886
884
885
885
882
883
883
883
885
886
886
888
891
890
891
890
891
890
889
889
890
891
892
891
891
892
893
890
889
888
888
885
889
888
889
891
890
890
891
888
886
884
883
884
884
883
886
888
886
887
888
886
886
884
882
881
882
881
883
883
886
886
886
885
884
882
881
882
880
881
884
885
888
887
885
885
886
883
880
882
884
884
886
886
888
888
888
888
883
881
882
880
881
887
888
892
894
896
899
899
898
900
900
902
903
907
910
912
917
916
914
913
909
907
908
908
909
911
910
913
913
910
908
903
898
893
892
888
888
888
888
889
893
890
891
888
889
886
885
885
886
885
884
886
889
890
888
887
887
886
885
884
887
888
890
891
892
894
893
896
894
894
894
899
901
902
909
918
930
944
973
1010
1062
1124
1194
1260
1308
1322
1292
1208
1088
960
836
769
754
778
821
870
906
928
933
930
924
913
904
903
901
903
901
907
910
910
912
912
913
914
912
912
910
909
906
909
908
909
910
912
910
913
914
911
912
912
910
907
909
913
913
914
917
917
916
913
913
910
909
912
912
914
912
915
919
917
916
915
913
915
916
916
915
917
916
917
921
922
921
923
922
920
922
920
919
925
929
929
930
931
933
931
928
930
928
929
933
933
935
934
935
935
939
936
936
936
935
938
939
942
940
944
945
947
944
943
944
941
939
941
942
943
943
946
948
947
949
947
945
944
939
938
936
934
933
931
930
927
923
919
916
912
909
906
903
904
904
902
905
903
901
897
898
897
894
894
894
896
896
896
896
896
896
895
894
895
893
896
896
897
898
901
901
903
903
902
903
903
902
901
902
904
906
906
909
908
910
908
905
905
905
905
904
907
906
909
910
911
910
906
906
902
904
904
904
907
905
908
907
910
906
907
905
903
902
901
902
901
903
902
904
905
905
903
900
900
898
900
899
897
900
902
901
901
901
901
900
898
895
896
896
901
902
901
904
903
904
904
902
899
896
896
900
899
901
900
904
904
903
901
902
898
899
899
901
899
901
903
905
906
902
903
902
903
903
900
902
903
904
904
908
905
907
