936
937
939
940
943
942
943
939
938
937
938
937
937
938
940
942
944
942
940
943
943
941
938
939
940
943
943
945
946
946
946
946
943
944
945
945
946
948
946
952
952
952
953
952
952
951
951
952
952
953
954
956
960
957
956
956
954
952
952
954
952
951
954
954
955
954
955
953
953
950
952
951
955
955
956
958
955
956
954
950
946
942
940
936
935
933
931
930
929
925
923
922
918
919
917
914
915
914
916
916
913
914
913
913
911
913
911
912
913
913
914
916
915
917
916
916
916
914
913
912
912
912
916
917
921
922
922
920
919
920
918
919
920
922
925
928
930
930
927
929
927
923
922
921
920
921
921
924
923
924
922
922
918
919
919
917
918
919
920
921
920
920
919
920
917
915
916
913
914
914
915
915
914
913
916
914
913
912
911
909
912
912
913
915
915
911
913
911
909
907
907
907
910
910
909
910
912
914
914
913
913
912
909
910
909
910
910
911
915
912
913
910
911
910
908
907
912
912
912
913
915
915
917
915
913
914
917
918
920
921
927
931
933
935
935
938
938
938
939
940
941
940
939
940
939
940
941
941
937
935
934
932
929
928
927
923
921
917
915
910
910
907
907
903
905
907
908
909
909
909
907
907
907
903
903
904
903
903
905
907
909
909
908
907
907
903
906
906
905
909
911
915
919
920
919
920
919
920
926
939
963
1001
1049
1109
1182
1257
1322
1366
1376
1349
1275
1165
1037
909
797
742
742
775
827
876
908
929
935
935
933
929
927
926
926
925
927
925
926
926
924
922
924
926
927
928
931
929
931
930
927
929
925
924
927
928
929
931
934
933
931
932
933
933
930
930
931
933
934
934
935
935
935
934
935
934
931
932
931
933
934
935
938
938
936
935
935
934
934
933
933
934
934
935
939
939
941
939
940
938
938
938
938
941
941
944
943
945
944
946
945
942
944
943
944
945
946
946
951
950
950
951
949
948
948
945
944
949
951
953
954
953
953
950
948
947
945
944
944
943
946
946
945
946
946
945
943
940
941
944
944
945
948
945
947
946
942
939
935
932
928
925
924
923
924
923
921
919
918
915
913
908
906
906
906
908
908
910
911
910
909
908
907
901
904
904
905
904
906
908
911
911
913
911
913
911
911
910
910
914
915
915
918
920
921
921
918
917
917
917
915
916
918
920
921
918
918
916
916
914
915
913
911
913
915
915
912
914
914
914
910
910
904
909
906
908
910
910
911
910
910
910
906
906
905
904
904
904
902
905
910
910
909
906
906
904
905
903
903
906
904
905
908
908
908
904
905
904
904
903
904
903
904
907
908
905
904
902
901
901
901
902
906
907
911
911
915
918
921
922
922
920
923
926
925
931
935
935
940
938
935
935
935
936
936
934
935
937
934
935
934
933
928
924
921
913
910
907
907
908
907
911
913
912
912
911
907
905
904
908
905
908
908
907
911
910
910
909
909
906
908
908
908
911
914
916
918
917
918
917
918
919
921
921
926
933
945
967
998
1042
1099
1176
1253
1330
1384
1400
1370
1289
1165
1037
909
792
747
755
796
850
899
931
951
956
957
952
949
944
940
940
938
938
938
938
939
942
944
944
948
943
944
942
944
946
945
947
944
946
948
951
953
950
949
947
949
949
948
951
949
951
951
954
955
956
955
958
953
952
955
954
953
952
955
958
959
961
961
959
959
959
960
960
960
962
964
963
964
967
970
968
966
966
967
968
968
971
970
973
976
977
977
977
977
976
977
976
978
979
982
984
986
988
989
990
989
989
989
988
989
992
992
995
997
998
999
998
996
995
995
994
995
996
998
998
1000
999
999
997
999
998
997
998
998
999
1001
1000
1002
998
998
994
990
985
982
978
976
975
973
968
969
968
967
965
962
960
961
958
958
958
957
960
959
962
961
959
960
958
957
956
958
958
962
962
965
968
966
965
965
965
964
965
965
966
972
968
972
975
976
975
976
975
972
971
971
973
975
977
980
979
979
978
975
974
972
972
972
974
976
973
977
977
976
977
973
973
974
972
971
972
971
969
973
972
976
971
972
969
970
969
968
969
968
972
974
975
973
974
973
969
968
969
970
972
971
971
974
974
974
975
973
972
972
969
968
967
969
970
973
975
976
977
973
974
974
971
973
973
975
977
979
979
978
978
978
973
975
972
973
978
979
983
987
991
993
995
997
998
996
999
999
1005
1007
1006
1006
1006
1004
1003
1003
1001
1001
999
1000
998
997
995
996
994
989
986
983
979
975
971
972
974
972
973
976
977
975
976
971
970
968
968
969
971
971
973
976
976
973
975
974
972
972
971
973
973
974
974
978
979
979
981
982
982
982
983
990
995
1012
1035
1078
1136
1210
1290
1363
1411
1420
1377
1279
1151
1023
895
813
803
841
900
955
996
1018
1026
1021
1009
1000
992
990
991
995
997
996
998
996
996
995
994
996
997
997
998
996
997
998
997
996
995
994
996
998
998
1001
999
999
998
999
998
995
995
995
994
996
996
998
997
996
993
996
997
994
993
989
993
993
994
998
999
997
996
996
996
997
997
997
998
998
1001
1003
1003
1001
1001
1001
1000
999
1001
1001
1002
1003
1002
1006
1006
1007
1007
1007
1006
1005
1004
1003
1006
1007
1007
1009
1010
1008
1009
1008
1007
1006
1005
1006
1005
1007
1006
1006
1009
1008
1008
1007
1004
1003
1000
1002
1003
1005
1008
1009
1011
1011
1010
1007
1003
1000
999
998
996
995
995
994
991
987
987
983
974
972
970
969
967
968
965
969
968
967
966
966
965
962
963
963
963
962
963
966
965
963
961
963
963
963
962
965
966
968
967
970
970
969
968
968
969
966
966
964
965
967
967
969
969
972
969
968
971
967
966
966
966
968
970
971
971
970
969
967
967
963
963
962
961
964
962
962
960
960
960
961
957
958
954
954
957
959
958
958
959
959
958
954
954
954
951
952
953
954
953
953
954
953
953
951
950
948
949
947
946
947
950
953
953
953
949
945
946
944
943
944
943
944
947
947
949
948
949
948
946
946
946
945
946
945
944
947
949
950
948
946
943
942
937
943
944
946
945
948
950
949
954
954
955
956
956
957
961
964
966
967
972
975
974
974
973
971
967
966
966
969
970
970
970
967
966
964
959
955
949
947
943
940
941
940
942
938
939
939
939
938
935
931
934
934
935
933
935
935
932
931
930
930
928
930
929
931
933
934
935
936
936
937
936
935
935
935
938
941
942
948
956
970
996
1036
1098
1176
1263
1335
1370
1345
1254
1126
998
870
765
756
792
850
905
947
970
975
971
963
952
944
940
939
940
945
945
947
949
949
950
950
952
951
951
949
948
948
945
946
946
948
950
951
952
951
950
950
950
948
948
945
948
948
949
950
953
952
954
950
948
947
947
946
946
950
950
953
953
950
952
952
952
950
948
949
947
954
953
956
957
955
956
955
954
952
950
952
951
953
956
954
954
956
956
956
953
951
954
956
957
959
958
958
960
960
959
959
958
957
956
956
956
956
961
959
962
961
960
957
957
954
954
953
952
953
953
956
956
956
958
956
953
955
953
953
952
952
954
956
953
949
947
943
940
934
931
927
926
925
925
924
926
923
923
918
917
914
910
910
908
908
910
914
913
914
913
910
907
908
907
907
909
910
913
911
914
915
914
913
912
913
912
911
913
915
917
916
916
921
921
918
919
916
919
917
919
920
918
920
923
921
920
913
915
917
914
914
915
915
916
916
917
918
915
915
914
911
909
909
909
907
908
909
911
911
910
908
906
904
905
905
904
905
907
907
908
905
906
906
904
905
902
903
902
902
903
903
904
903
903
903
902
900
901
900
901
901
901
902
905
905
907
905
901
902
902
900
903
906
907
911
913
915
918
922
921
921
920
923
923
925
929
932
934
935
933
934
932
931
931
930
930
930
927
926
924
922
918
914
908
902
901
897
896
896
898
899
902
899
901
901
899
898
896
898
896
897
897
900
901
899
900
900
900
899
897
896
897
899
902
903
906
906
910
910
909
911
912
917
928
946
978
1018
1074
1144
1220
1291
1344
1367
1346
1278
1167
1039
911
783
730
734
778
832
884
920
938
944
939
933
924
917
917
917
920
922
924
923
924
923
921
923
921
925
924
923
924
924
923
925
926
924
923
923
924
928
930
930
929
931
929
926
927
928
927
928
928
929
931
929
930
929
929
929
927
926
927
929
931
934
933
935
932
931
931
932
928
928
930
930
933
935
933
936
934
935
934
933
934
934
933
937
937
938
938
942
941
940
940
939
937
935
939
939
941
944
947
947
946
946
944
943
942
943
940
944
943
944
944
947
945
945
943
940
938
937
937
937
938
939
939
939
939
940
939
937
934
934
936
938
939
938
939
938
935
934
928
927
924
921
915
917
915
915
912
912
910
906
906
906
902
901
901
901
901
900
900
901
900
901
900
898
897
896
897
897
900
901
902
906
904
904
904
904
902
901
902
904
908
907
911
911
911
910
910
908
907
905
906
907
909
908
911
912
910
909
907
905
904
905
904
904
904
907
907
907
906
906
903
901
902
899
897
899
898
901
901
901
899
899
898
898
896
895
895
895
897
895
895
896
897
897
895
893
894
892
891
891
893
892
896
895
894
893
893
892
890
890
889
890
891
891
891
894
893
893
893
889
892
890
889
890
892
892
895
895
896
897
896
898
900
901
901
906
910
911
915
919
920
919
918
920
919
917
915
913
916
915
919
918
918
915
914
913
909
904
902
903
898
897
894
893
891
891
890
889
886
886
886
888
890
888
888
889
888
890
885
885
884
884
882
883
885
885
889
892
892
892
891
891
891
893
894
897
898
899
906
919
935
965
1009
1065
1140
1224
1297
1354
1367
1336
1248
1122
994
866
739
702
718
769
826
876
911
929
933
929
918
910
904
898
897
900
899
902
903
905
907
907
908
907
905
907
906
906
906
908
909
910
910
912
909
908
907
909
905
906
906
908
909
911
911
910
911
911
909
907
908
906
907
907
909
909
913
912
912
910
909
909
910
910
911
912
914
913
916
915
916
914
914
914
914
913
914
913
914
915
916
919
918
918
917
917
917
919
916
919
919
920
921
922
923
924
923
923
924
924
926
925
925
926
929
930
929
932
927
927
926
922
925
924
923
925
926
929
928
928
925
929
925
925
927
925
926
926
925
925
922
922
917
915
911
907
904
901
899
897
896
894
893
889
885
883
882
881
882
881
876
880
878
884
880
877
878
878
874
874
877
875
877
878
878
880
881
881
878
878
876
878
879
880
882
883
883
888
889
887
889
887
886
884
885
883
887
888
887
889
890
890
889
886
886
884
883
884
884
883
886
887
885
883
881
880
877
873
874
876
877
877
877
877
878
876
873
874
874
873
872
869
871
871
874
876
874
872
870
872
869
868
869
869
872
874
873
874
873
874
871
871
868
867
867
868
869
869
871
868
869
869
869
868
866
867
864
865
866
867
869
870
868
868
868
869
866
867
866
867
870
871
874
874
878
878
880
881
883
886
885
888
890
891
893
895
896
899
896
895
892
890
889
889
890
891
893
893
891
889
884
877
873
870
868
866
867
867
866
869
867
866
865
864
861
859
859
859
859
858
860
863
861
862
860
860
857
857
857
859
861
862
864
865
869
869
870
870
871
871
874
880
891
911
939
979
1035
1105
1181
1252
1309
1330
1308
1234
1115
987
859
733
688
697
739
793
839
874
892
899
895
890
886
883
879
874
876
879
877
878
876
877
880
881
882
883
881
881
879
876
878
879
879
879
882
881
882
885
885
884
884
883
881
880
881
880
880
880
881
882
884
883
883
882
881
880
880
881
883
883
884
884
886
886
884
884
883
883
882
884
883
884
887
889
890
890
889
887
887
886
888
887
888
889
891
893
893
893
892
891
890
891
889
889
891
891
895
895
897
897
896
897
894
893
893
894
896
895
898
897
896
895
897
894
891
889
887
890
889
893
892
895
896
899
898
898
896
893
894
891
890
891
887
890
888
887
883
879
876
874
870
868
867
863
866
865
864
864
863
861
856
855
858
858
859
860
860
863
863
860
860
858
859
859
858
858
862
859
861
863
862
864
866
863
863
863
864
864
865
866
868
871
870
871
871
872
869
868
871
870
872
872
871
873
875
873
870
869
869
869
867
869
866
869
869
869
871
871
871
873
869
868
864
864
866
865
866
868
867
865
865
865
864
861
860
861
862
862
865
864
866
867
868
867
865
861
860
862
861
864
865
866
865
866
864
862
861
860
860
859
862
862
864
866
868
869
868
865
865
863
861
862
863
865
864
868
869
867
868
867
865
865
864
867
870
874
878
881
883
885
886
884
886
884
887
887
889
894
896
901
900
899
896
891
889
888
891
891
891
893
893
893
893
891
885
882
877
873
871
870
871
872
870
872
871
871
867
868
867
866
864
863
864
864
867
869
868
868
868
868
866
865
864
866
866
868
868
871
873
874
875
877
878
877
880
879
881
886
894
910
928
957
999
1055
1125
1201
1270
1317
1336
1314
1245
1131
1003
875
760
707
708
743
794
842
877
897
905
906
904
899
897
890
890
886
887
890
889
892
894
895
896
896
896
896
895
896
896
896
897
898
900
899
901
901
899
899
898
895
897
897
896
895
896
901
899
899
898
899
898
897
895
896
896
897
899
900
900
901
902
900
900
897
898
899
902
904
905
904
906
908
907
903
905
902
903
904
904
906
909
913
912
910
911
911
909
909
905
908
908
911
914
917
914
916
916
914
912
911
912
911
913
916
917
919
919
918
918
918
915
914
913
914
913
916
917
918
915
912
911
907
909
910
912
913
912
917
917
918
917
918
917
915
912
907
903
901
900
903
904
905
902
899
898
891
888
885
881
880
881
881
881
884
881
881
880
878
877
877
878
873
874
878
878
879
880
881
879
879
879
880
879
880
880
882
884
887
890
888
888
888
883
880
882
882
885
887
887
893
892
891
891
890
886
885
885
884
888
890
890
891
891
888
892
888
885
884
881
882
883
883
886
887
886
886
885
882
881
881
880
880
881
881
879
878
879
881
879
879
878
878
876
879
879
877
876
878
879
878
879
879
879
878
878
879
880
883
886
890
892
894
897
897
895
896
898
902
904
908
911
911
910
908
907
905
906
905
904
905
906
904
901
902
902
898
892
888
882
877
875
874
874
877
877
879
879
880
877
876
873
872
870
870
869
870
872
873
874
874
874
873
872
873
869
869
873
876
877
881
881
881
877
881
879
880
883
886
888
898
911
934
967
1018
1083
1162
1239
1308
1349
1347
1292
1186
1058
930
802
710
703
739
794
848
888
911
918
915
909
901
895
893
892
892
894
893
893
897
895
899
895
897
900
900
901
898
897
896
896
898
896
899
900
900
903
901
901
905
903
900
900
901
902
901
900
903
904
902
903
902
903
900
899
899
901
903
903
906
908
904
906
907
903
903
903
905
906
908
909
913
913
914
913
912
910
910
909
910
912
910
913
914
917
918
917
917
917
914
916
914
916
919
922
921
925
927
926
925
924
922
920
921
923
924
925
926
930
928
928
926
923
922
922
917
918
922
921
923
924
923
922
921
919
919
919
918
918
920
918
918
919
915
912
906
903
899
896
895
894
893
889
889
891
888
885
883
883
881
880
878
879
881
878
882
882
879
880
879
876
876
875
877
878
879
881
883
881
885
885
884
884
884
883
884
883
886
889
889
892
892
892
891
890
890
888
887
888
889
889
891
892
889
892
889
886
887
886
886
885
886
886
887
888
889
887
885
883
881
878
877
879
882
881
884
885
885
881
879
880
879
880
879
880
878
880
879
879
878
879
877
878
875
874
876
876
878
878
880
881
879
879
878
876
875
875
874
876
877
879
880
881
881
883
883
886
889
889
890
893
896
898
900
906
909
908
908
906
907
904
904
904
906
906
910
908
906
907
903
900
895
891
888
883
883
883
881
880
882
881
881
879
879
876
875
874
876
875
875
875
878
880
876
870
872
873
873
872
874
879
882
882
884
885
886
888
887
887
889
888
893
904
923
956
998
1057
1133
1220
1298
1355
1373
1337
1250
1122
994
866
738
703
718
764
820
869
901
919
924
920
911
907
901
897
897
895
896
896
898
899
898
895
902
903
904
903
903
902
901
899
899
901
902
903
902
906
905
905
905
903
901
900
900
902
905
905
907
907
906
908
907
906
903
904
902
903
903
903
906
909
909
910
909
906
905
903
905
907
906
908
909
910
912
913
914
912
911
909
911
911
912
911
915
917
919
917
917
915
915
914
915
917
920
922
921
924
925
927
924
925
926
925
923
925
928
930
930
933
933
932
931
930
929
927
928
928
928
929
928
931
931
931
931
929
