906
902
900
899
898
896
895
891
891
887
884
879
874
872
866
865
863
863
860
864
863
860
859
856
854
850
850
849
850
849
850
852
852
851
851
848
848
841
845
845
845
846
850
852
852
852
852
850
850
851
850
852
854
855
856
858
859
858
858
857
858
857
857
859
860
860
861
863
863
863
864
861
859
858
855
857
858
859
857
859
861
861
860
859
856
855
855
853
852
853
854
856
855
854
856
853
852
848
850
850
850
852
851
854
853
854
852
851
853
850
849
850
851
853
852
853
854
851
852
851
852
848
850
850
850
852
852
852
852
854
853
854
851
852
849
851
852
853
853
855
854
852
853
852
853
851
851
851
854
855
860
864
864
868
870
869
870
872
871
873
875
878
882
881
882
883
880
879
878
880
876
876
876
877
878
879
877
875
873
871
866
862
858
856
855
854
853
857
855
852
854
853
852
852
851
851
851
852
852
852
856
852
853
851
852
850
850
851
852
854
855
858
859
860
861
859
859
863
863
864
866
867
872
874
882
890
903
925
956
997
1049
1112
1173
1226
1254
1245
1200
1116
1005
892
806
757
746
764
798
834
861
880
888
886
884
875
873
869
868
869
871
874
873
876
879
875
874
874
874
876
873
873
874
877
875
877
879
876
878
878
877
875
876
875
873
877
879
878
879
881
880
879
878
877
878
877
879
877
880
880
882
881
881
880
879
878
876
876
877
877
879
882
881
883
879
885
882
883
881
882
883
885
887
887
886
889
891
890
888
886
885
885
886
889
892
895
894
893
893
894
891
893
894
893
893
896
898
898
899
900
903
900
900
899
897
898
899
900
900
901
903
903
904
902
900
899
900
901
902
898
900
897
900
896
893
890
886
883
880
880
877
877
875
873
876
871
870
868
867
864
862
860
860
861
863
864
865
863
860
859
860
858
859
857
857
861
862
863
863
864
866
865
864
864
859
861
864
866
869
871
872
871
872
872
871
870
869
872
869
872
873
875
875
877
877
873
874
872
873
872
871
874
875
871
874
874
874
870
870
870
868
868
869
872
869
874
874
873
873
874
872
871
871
873
870
871
871
873
874
874
875
873
871
870
870
869
871
871
872
875
874
876
876
872
874
873
871
872
874
876
875
876
876
876
878
876
875
873
875
875
877
877
878
878
881
879
879
881
881
877
878
876
879
880
882
883
884
885
884
884
882
881
881
882
884
885
884
890
892
891
891
890
887
887
888
893
893
896
900
903
906
909
911
911
913
913
911
913
918
920
920
923
924
923
920
919
920
919
918
919
919
920
921
917
915
913
910
905
901
899
898
899
900
903
902
903
905
903
902
902
901
903
899
900
903
902
905
905
908
908
907
908
907
908
907
909
909
914
918
922
927
930
932
934
936
948
961
983
1017
1067
1124
1187
1252
1296
1308
1280
1210
1102
981
876
809
790
810
849
891
927
948
958
956
951
946
941
936
938
940
943
949
950
951
950
949
947
944
947
949
951
952
955
956
954
958
952
954
951
949
949
953
955
957
956
958
958
958
959
957
958
957
956
955
957
958
960
960
962
963
960
959
961
963
959
961
962
962
964
967
969
969
967
968
967
966
965
967
970
972
972
974
974
974
976
975
976
975
976
976
978
978
981
982
984
983
984
984
982
980
979
981
984
984
984
986
984
985
984
980
980
980
979
979
979
983
983
983
985
985
984
984
983
984
984
985
985
983
983
981
980
980
977
975
973
966
966
963
965
966
963
966
965
964
963
961
956
956
955
954
954
954
956
954
957
959
958
956
955
954
953
957
954
954
958
961
959
960
960
960
960
958
960
959
961
961
962
965
969
968
966
964
964
962
962
960
962
963
967
968
966
965
963
962
962
960
962
961
961
966
966
968
968
965
964
960
960
960
958
961
959
960
961
963
962
959
957
956
955
956
953
953
955
957
958
958
960
960
958
957
956
953
952
954
958
959
963
965
967
971
972
971
971
968
971
971
978
981
987
987
987
988
985
982
981
981
981
978
979
982
981
982
977
973
971
966
962
958
956
954
953
956
956
961
958
960
958
957
953
950
949
948
951
953
954
955
954
954
953
951
952
950
951
951
952
956
956
959
956
960
962
960
963
963
964
967
976
993
1018
1057
1113
1177
1244
1301
1335
1330
1274
1175
1047
919
841
814
835
878
928
965
987
996
994
984
977
973
969
970
972
973
977
974
974
972
971
973
970
975
975
978
979
978
979
975
977
975
973
973
975
980
978
980
981
980
980
978
973
976
974
973
976
975
977
977
977
977
977
976
975
974
972
973
975
976
977
977
978
977
976
977
977
978
976
974
977
979
981
982
981
981
981
980
978
977
977
977
980
980
981
985
985
984
982
982
982
982
980
980
981
985
987
989
989
988
987
988
985
984
984
983
983
987
987
986
987
987
985
984
983
981
981
978
981
982
982
982
982
981
980
980
978
977
975
972
969
966
966
965
964
957
954
948
947
944
942
941
940
941
940
941
941
936
934
933
933
932
929
931
930
932
933
934
933
932
933
931
932
931
930
927
931
932
934
934
936
934
936
934
931
932
933
931
934
933
934
937
937
939
939
937
935
934
934
933
934
936
935
936
935
935
936
933
930
930
927
927
928
930
929
928
928
927
926
925
923
922
921
920
921
920
923
921
920
920
919
918
916
912
914
916
918
917
917
919
922
920
919
915
916
915
913
914
915
916
915
918
918
920
920
921
921
923
925
927
927
931
933
937
941
941
940
940
940
934
933
934
935
936
939
940
939
936
938
935
929
926
920
915
916
914
911
909
907
904
906
904
903
903
901
902
900
901
901
903
905
902
901
902
903
899
897
899
900
901
902
902
906
907
907
907
908
907
910
911
913
919
928
944
963
995
1044
1100
1164
1225
1273
1294
1279
1223
1132
1021
908
815
765
756
778
817
860
895
917
930
929
927
924
917
914
912
911
908
910
911
912
913
914
916
917
914
914
913
911
911
912
912
912
912
914
915
916
915
915
913
911
911
911
912
913
913
914
915
916
911
911
912
912
910
909
910
908
909
914
916
917
915
913
915
912
910
912
911
913
913
915
917
918
917
918
916
915
913
914
916
912
915
918
918
917
920
919
919
919
917
917
918
919
920
924
923
927
924
927
926
925
923
923
924
924
929
929
934
932
933
932
933
931
931
930
930
929
929
931
934
933
932
931
929
932
931
930
927
928
927
928
927
925
925
920
916
910
908
903
900
895
895
895
895
893
890
888
886
884
881
881
880
880
880
880
880
880
881
877
877
875
875
873
875
874
872
876
878
878
879
877
876
878
873
874
876
878
879
882
883
884
883
881
882
883
882
881
883
883
883
883
886
885
886
888
885
886
884
882
882
880
882
881
883
884
885
884
881
882
880
878
877
879
877
877
878
881
880
882
879
877
878
877
878
877
876
879
878
882
880
881
879
875
874
873
876
876
878
877
879
882
881
881
878
880
877
875
877
877
876
875
876
880
880
880
879
879
877
876
876
878
878
879
878
881
879
881
880
878
877
877
878
879
879
881
881
882
880
880
880
881
881
879
880
881
882
881
883
882
884
885
886
883
883
885
887
887
893
894
899
902
903
904
903
900
902
900
903
905
910
909
910
910
907
908
907
903
903
901
900
900
901
898
897
896
892
892
888
885
886
884
881
883
884
883
884
887
888
887
886
886
886
882
882
884
885
886
887
887
890
889
891
890
890
886
887
890
894
895
898
899
901
903
904
905
904
907
914
928
948
975
1012
1057
1112
1171
1225
1264
1285
1279
1239
1167
1069
961
860
787
756
767
799
841
880
907
923
926
925
917
913
910
906
907
906
907
909
907
906
908
910
909
910
911
914
915
914
914
912
911
911
910
911
913
914
915
917
917
917
916
914
914
915
915
915
916
919
920
921
920
917
916
914
914
914
914
917
918
919
920
917
917
917
920
915
916
918
916
918
919
922
922
923
921
921
920
921
918
915
921
922
923
924
927
926
927
925
926
924
921
922
925
926
928
930
930
933
931
931
930
929
925
927
927
931
929
931
935
935
936
936
932
932
930
932
931
932
932
935
934
935
935
934
933
933
932
931
931
935
936
935
935
931
930
929
927
924
921
920
919
920
914
916
916
914
911
911
908
907
904
902
900
901
902
901
903
902
902
901
900
898
898
899
901
901
903
903
902
904
903
904
904
901
899
899
898
900
900
905
908
911
910
910
907
907
905
905
905
905
906
909
909
912
911
909
909
908
907
905
905
906
907
907
908
908
907
906
905
903
900
901
901
901
902
902
905
902
904
903
902
899
899
897
896
898
899
899
900
903
900
899
898
896
892
894
895
896
896
901
903
902
902
898
898
897
895
894
895
896
898
897
899
899
898
898
896
896
895
892
892
893
893
894
896
897
897
896
896
894
893
893
894
893
895
895
894
897
898
897
898
895
896
893
895
896
897
901
902
904
905
906
907
906
909
908
912
913
916
918
921
924
924
922
919
918
914
916
916
917
920
918
920
919
916
913
906
900
898
893
893
895
894
892
897
898
898
895
894
893
890
890
889
889
890
891
893
894
896
895
893
891
890
887
890
893
893
896
897
900
901
899
902
901
901
902
902
905
908
910
918
925
942
966
997
1043
1100
1160
1221
1265
1280
1260
1197
1093
969
851
773
745
761
798
849
888
911
926
927
925
917
914
908
908
908
908
910
914
915
916
915
916
915
915
915
914
913
914
914
914
917
916
918
919
918
917
917
914
913
911
912
914
915
919
919
920
921
920
916
917
915
913
913
916
916
917
917
917
918
916
913
915
912
912
913
912
915
917
918
920
917
921
919
918
917
919
917
917
920
920
921
922
922
923
920
920
920
918
920
919
922
925
927
926
925
924
924
923
923
924
925
926
926
928
931
930
926
926
926
922
922
921
921
923
918
920
921
920
920
920
921
921
918
916
918
920
921
922
925
925
922
920
917
914
911
907
908
907
906
905
903
903
899
896
895
892
888
888
887
885
884
884
886
886
889
885
886
886
885
884
884
885
886
887
889
890
891
889
889
889
889
888
889
887
889
890
891
893
893
894
893
894
892
891
890
891
891
893
895
897
894
892
894
890
890
888
888
887
884
887
888
890
889
888
885
884
881
882
878
880
879
882
886
885
884
882
878
877
877
877
874
876
878
878
882
883
881
879
878
877
875
876
875
876
877
879
881
884
883
885
885
887
887
887
890
891
893
894
898
903
907
904
904
904
898
895
898
899
897
896
900
903
901
899
895
889
888
884
880
875
872
874
874
874
875
872
869
866
867
867
864
865
866
867
867
868
870
867
866
865
865
863
864
864
867
870
871
871
871
872
872
875
873
876
878
877
882
886
893
901
917
943
980
1029
1089
1157
1218
1263
1278
1255
1195
1097
978
860
775
736
738
771
818
857
888
902
906
902
893
887
880
876
879
880
879
882
886
887
886
889
886
886
885
884
882
883
882
883
885
886
887
889
889
890
887
887
888
886
886
887
889
890
889
890
891
891
890
890
889
888
886
886
889
891
892
894
893
889
890
889
887
886
890
890
889
892
890
893
893
893
894
893
890
892
893
894
894
896
897
898
897
900
898
898
896
896
895
897
898
901
902
904
904
904
904
902
902
902
901
903
903
907
907
908
909
908
908
906
905
903
903
903
905
905
905
906
905
904
902
903
900
901
902
901
900
903
902
903
899
896
894
890
886
885
882
880
876
876
874
873
872
868
868
864
864
859
859
859
860
860
861
862
860
860
859
858
857
854
853
856
856
858
860
860
858
860
859
856
858
860
858
862
862
863
864
868
863
864
865
868
867
867
865
868
868
869
871
870
868
870
867
867
863
863
864
865
866
866
866
868
865
865
865
864
861
858
860
860
862
862
861
863
862
861
858
856
857
854
856
857
857
857
859
859
859
860
859
856
854
855
855
855
854
856
857
858
858
858
857
856
854
853
853
853
856
856
857
859
858
856
855
856
854
853
853
853
852
851
856
858
859
857
853
853
851
854
853
852
855
853
858
858
858
858
858
856
858
855
858
862
867
869
872
876
878
880
879
877
876
879
881
883
882
881
883
882
883
883
880
880
880
878
877
875
873
873
871
868
867
864
859
856
856
856
855
855
855
856
856
858
860
856
854
854
852
852
849
850
851
851
854
855
856
856
857
855
854
854
855
855
860
862
865
865
869
868
870
871
875
875
884
899
923
955
993
1041
1097
1159
1212
1253
1267
1246
1191
1103
995
884
795
743
732
754
791
828
858
878
887
887
886
880
879
874
875
873
872
873
873
872
872
871
871
873
877
876
876
875
876
876
876
875
874
876
877
879
879
881
879
879
878
878
878
873
877
875
876
877
878
880
879
880
877
877
877
876
880
878
878
880
880
881
884
883
880
880
877
880
880
878
881
881
885
885
885
884
881
882
881
881
882
882
882
885
885
888
889
892
891
889
888
886
887
889
889
893
892
894
897
897
896
896
897
895
895
895
898
897
898
901
901
902
902
898
899
899
897
899
898
900
901
904
905
903
902
901
898
897
900
900
901
901
899
900
897
892
893
889
886
880
881
878
874
871
871
872
869
866
863
862
860
857
855
856
857
856
858
859
858
860
858
855
854
853
852
854
855
854
857
858
861
860
859
857
856
857
858
856
861
862
862
865
866
867
864
866
864
861
863
864
864
866
869
868
867
865
866
868
862
864
862
863
864
867
866
866
866
865
861
863
863
861
861
859
860
859
862
862
864
862
861
860
860
860
858
857
858
862
862
864
863
863
861
861
859
857
857
860
859
859
861
859
863
862
862
860
858
854
855
855
857
858
860
864
862
863
860
860
858
856
856
857
860
862
862
863
863
861
859
858
857
857
857
858
858
861
861
863
864
864
863
860
858
860
859
857
858
860
859
863
864
864
861
859
860
860
859
861
862
866
867
870
870
869
869
870
869
870
871
871
875
875
880
883
887
887
885
887
885
887
889
889
890
892
891
893
892
892
889
887
885
885
884
882
882
882
880
880
878
875
873
871
868
868
868
867
867
871
870
872
871
871
869
868
868
868
865
865
865
868
867
874
874
873
874
873
872
871
872
874
877
879
880
883
885
890
888
890
894
900
908
925
952
986
1034
1092
1148
1203
1241
1257
1246
1197
1119
1017
911
824
769
757
773
807
842
869
888
896
894
894
893
889
889
889
891
892
892
891
891
890
892
893
894
896
895
897
898
897
897
895
895
895
894
896
895
898
897
899
902
900
899
898
896
897
895
897
897
897
897
898
897
899
899
897
897
899
899
898
897
898
902
902
902
902
901
900
899
898
896
899
899
900
903
904
904
903
904
901
899
899
901
901
900
904
906
909
910
910
909
908
910
909
909
909
908
910
911
914
915
916
915
911
911
912
911
911
914
914
913
916
917
916
915
913
911
910
906
905
908
909
912
914
917
915
915
915
913
909
906
906
904
902
901
903
899
898
898
891
888
887
884
882
881
882
881
882
879
878
879
877
876
874
874
874
875
878
878
880
880
880
877
878
876
878
876
874
879
881
883
884
885
884
884
882
881
886
884
884
886
887
887
888
889
889
888
886
885
885
884
883
881
884
884
886
886
884
884
881
880
876
879
881
880
879
878
882
881
881
881
880
877
874
874
875
877
878
879
880
881
880
877
878
875
873
873
873
875
876
878
877
878
876
877
873
872
871
873
869
871
875
875
877
879
876
876
877
875
876
875
880
883
884
887
890
893
894
894
893
896
897
899
902
903
903
903
903
903
901
902
901
899
897
899
899
896
896
896
895
892
889
884
882
877
876
875
876
876
874
876
876
878
876
875
873
873
870
869
870
870
872
873
873
874
873
874
871
873
871
873
872
872
877
880
881
885
885
886
886
888
889
890
897
907
929
959
1000
1055
1117
1183
1240
1279
1287
1259
1190
1088
971
858
782
751
762
797
836
871
894
904
907
902
899
895
894
893
893
893
893
897
896
895
895
893
894
896
897
897
896
897
896
895
894
892
892
895
897
899
901
902
900
902
900
899
898
897
896
897
898
900
900
904
903
902
903
900
898
898
897
895
899
900
900
902
902
903
902
900
899
900
902
903
905
906
906
906
907
906
903
904
903
903
906
906
908
908
911
914
911
912
910
908
909
909
908
910
912
915
913
917
917
916
916
913
913
912
912
914
913
913
915
916
917
915
913
911
909
908
908
910
909
911
911
913
914
915
912
910
907
907
903
903
902
900
895
897
894
893
890
887
883
880
878
875
878
877
875
875
874
870
868
870
869
867
865
866
867
867
870
870
