961
961
963
963
963
964
962
963
964
961
960
964
965
965
968
970
970
969
967
968
966
968
970
971
972
975
978
979
980
978
977
978
976
978
978
980
982
985
986
986
989
989
987
987
985
987
987
988
990
990
993
992
993
991
991
988
985
988
989
991
991
991
994
993
992
990
987
985
983
980
979
976
973
971
972
970
965
963
959
956
953
949
945
945
944
944
947
946
945
944
941
941
941
939
936
938
939
939
941
938
937
941
937
936
939
939
941
941
942
943
943
945
947
945
943
943
942
942
945
946
950
949
954
952
952
949
951
950
949
949
948
948
949
947
953
950
954
949
947
947
944
942
945
946
945
948
947
949
947
948
946
945
942
942
943
943
943
945
945
945
945
944
943
942
939
940
939
940
942
941
941
944
946
947
947
949
949
950
954
954
958
961
965
967
967
970
970
968
966
964
963
963
964
965
969
970
970
968
965
964
957
953
951
947
945
942
942
943
942
942
941
939
936
936
935
935
937
936
935
935
933
931
930
929
931
932
929
930
933
935
936
941
935
936
937
937
935
936
936
940
944
944
949
954
960
968
981
1005
1043
1097
1161
1235
1295
1332
1336
1298
1217
1101
978
871
812
799
822
864
909
945
968
980
977
970
962
954
950
947
947
949
952
955
954
954
956
954
955
952
953
952
952
952
955
955
957
958
956
957
955
955
952
949
950
952
954
954
957
958
955
955
956
954
952
951
949
951
953
956
954
955
954
953
954
951
951
950
951
950
954
953
955
956
957
954
954
956
956
954
954
953
957
959
959
959
961
962
960
961
959
959
960
961
963
964
966
968
966
968
967
966
966
968
969
970
970
977
976
978
978
978
977
974
977
975
977
977
980
980
982
982
982
981
979
979
975
975
970
968
968
965
964
962
958
953
949
945
942
937
934
931
931
930
927
927
923
923
922
920
918
915
914
913
915
913
915
916
915
914
914
912
911
908
908
907
909
909
910
912
912
910
910
909
908
910
908
911
913
910
915
916
915
915
913
914
911
910
910
911
914
914
914
915
914
915
913
910
911
913
913
910
912
911
910
910
911
910
910
906
904
905
904
904
907
907
907
907
905
907
904
903
902
898
897
899
898
900
903
902
901
898
899
897
896
898
897
894
897
899
900
900
899
899
897
896
894
894
892
894
895
895
897
898
897
897
896
895
895
891
891
896
896
899
901
905
908
908
913
908
909
911
911
915
919
918
924
924
920
921
920
919
917
918
915
915
914
917
917
914
912
907
904
898
896
894
892
888
889
888
890
890
890
891
890
889
886
886
883
885
882
884
885
887
884
884
884
882
883
884
883
883
885
885
887
889
889
890
892
894
890
889
892
893
892
897
899
904
910
921
936
961
997
1046
1109
1175
1234
1270
1269
1227
1145
1042
926
833
774
757
773
809
848
880
903
915
915
911
903
897
894
891
891
891
894
897
899
898
900
901
899
898
896
896
893
895
898
898
899
900
901
900
897
898
895
894
894
892
895
896
895
893
893
895
896
897
895
893
892
892
894
896
898
898
898
898
899
898
895
894
895
894
895
895
897
899
899
900
897
897
897
895
897
897
899
899
898
900
900
900
899
896
898
898
900
900
904
904
906
909
909
908
908
908
907
907
905
907
909
911
911
911
913
913
911
913
912
912
912
913
914
915
917
918
916
917
914
914
914
913
915
915
915
916
918
917
918
917
915
911
909
904
904
900
901
901
897
896
895
890
883
880
875
871
869
868
865
868
869
868
868
868
866
864
862
861
860
859
858
860
860
858
862
861
857
857
853
854
857
853
858
861
863
861
861
863
861
860
857
859
860
858
860
861
862
864
863
864
862
863
862
859
860
860
863
864
864
865
863
863
862
859
858
855
855
857
860
859
861
861
859
857
854
855
855
853
853
854
854
855
854
855
855
854
854
852
848
849
850
849
850
851
852
851
853
850
849
850
848
849
849
848
850
851
851
852
850
852
846
844
846
846
846
846
846
846
849
849
850
850
850
847
847
847
849
851
854
859
860
863
866
865
868
867
867
865
869
871
874
875
874
876
872
872
872
871
870
869
871
869
868
867
868
868
865
861
856
851
849
847
846
843
845
847
847
848
848
847
847
844
845
841
843
842
842
840
846
847
846
846
844
843
843
843
844
845
846
850
851
855
855
858
858
859
860
859
865
869
883
904
934
976
1026
1082
1137
1181
1203
1193
1150
1077
976
873
793
751
744
763
794
826
847
860
867
867
862
859
860
859
860
860
859
860
858
858
858
856
860
860
865
867
865
866
865
863
860
860
860
861
864
863
866
867
869
865
868
867
864
863
864
865
867
866
865
866
868
864
865
865
865
863
864
863
864
866
868
867
868
867
867
866
864
862
864
865
865
867
870
871
870
872
871
871
871
867
868
868
868
871
873
875
875
873
871
870
870
871
870
870
873
875
880
881
880
880
878
877
878
875
875
876
876
877
880
883
881
877
878
876
876
870
872
871
872
876
878
879
881
876
878
874
873
873
870
871
872
868
870
869
866
862
861
858
854
851
848
847
847
845
844
842
841
842
839
838
837
834
831
832
833
835
837
838
835
839
834
835
831
830
831
833
833
836
835
837
838
839
838
838
837
836
835
833
837
837
840
843
841
843
840
840
839
837
838
837
837
841
841
842
841
841
842
842
839
837
836
836
835
837
837
838
837
837
835
834
833
831
829
830
828
830
831
832
832
831
828
831
827
824
826
825
827
828
828
829
828
828
828
826
824
824
826
826
830
833
836
836
840
842
842
843
844
844
846
849
850
849
851
853
852
852
852
851
849
848
847
843
841
839
835
836
833
831
828
825
822
821
821
820
820
822
825
825
824
820
819
818
818
815
816
818
819
820
821
822
824
824
823
823
823
823
824
823
825
827
830
832
834
837
839
841
844
850
864
885
919
966
1030
1099
1162
1204
1211
1173
1096
989
876
786
734
724
743
777
813
838
854
857
854
847
840
836
835
836
839
843
843
843
842
842
841
840
838
839
840
843
846
846
846
845
846
843
843
843
842
841
841
841
842
845
848
842
844
842
844
840
840
842
844
843
845
845
847
844
846
844
844
843
839
840
843
843
845
847
849
851
848
848
846
846
845
844
845
849
849
852
854
855
855
853
853
853
851
853
852
855
857
860
860
860
862
860
860
861
860
862
862
863
866
869
868
870
868
869
868
866
865
866
867
867
869
871
872
870
872
867
867
864
865
865
865
866
865
864
862
858
854
850
845
842
836
835
837
832
830
830
828
827
820
820
818
814
813
813
812
813
815
815
814
815
813
813
811
810
810
810
811
812
813
816
816
813
814
814
814
813
812
813
815
815
819
822
821
821
821
819
820
818
815
818
819
820
819
823
823
821
821
821
822
821
820
817
818
819
820
819
821
818
820
817
816
813
814
815
814
814
815
815
816
813
815
813
813
812
809
808
809
809
811
814
813
813
810
808
808
806
804
807
806
808
809
810
812
811
810
811
809
808
808
809
809
808
810
810
812
812
812
811
812
810
808
810
812
813
814
816
820
818
820
823
824
823
823
828
828
833
835
839
839
839
839
837
835
835
832
833
832
833
831
833
832
832
831
828
824
820
815
815
813
814
812
814
815
813
816
812
812
809
808
807
809
808
809
811
810
810
809
810
808
808
807
807
807
810
813
816
818
817
818
819
818
819
821
824
826
826
831
836
839
848
862
883
909
951
1006
1067
1126
1171
1193
1182
1132
1050
950
847
770
726
717
735
765
795
818
836
843
844
841
835
832
826
827
826
827
829
832
830
834
835
833
829
830
829
829
830
830
829
831
833
833
835
834
831
832
830
830
831
832
831
832
835
838
837
836
835
835
831
833
830
832
834
836
836
838
835
836
833
834
833
833
833
835
835
837
839
839
836
838
834
833
834
833
832
832
837
838
837
840
840
841
841
840
839
839
841
841
844
844
845
847
850
845
849
847
845
844
846
847
849
848
851
853
853
854
855
856
855
851
852
854
854
856
856
858
858
858
855
854
853
855
854
854
857
857
857
860
858
858
855
851
850
850
848
847
844
843
841
839
834
835
829
826
824
820
818
818
819
818
817
818
817
816
816
814
811
809
810
811
810
811
816
814
815
812
810
813
812
811
811
812
812
815
815
819
820
818
816
817
814
815
813
815
816
818
819
820
821
822
819
818
816
816
815
816
817
817
819
819
817
817
817
815
812
812
813
814
811
813
813
813
814
813
813
810
809
811
808
808
811
810
809
812
814
811
811
810
808
806
808
807
808
809
809
811
811
810
807
806
808
809
809
808
806
810
812
812
810
811
812
810
809
807
809
810
810
812
813
815
812
813
812
813
811
811
810
811
812
814
816
819
817
817
815
815
812
812
814
816
820
819
821
827
828
829
829
830
831
830
833
837
839
842
840
843
842
841
836
834
834
836
835
837
836
837
836
834
830
826
825
822
817
815
815
815
816
816
818
818
816
817
813
815
814
812
810
808
811
812
812
814
814
815
814
810
811
810
813
816
819
822
824
829
827
831
831
831
832
832
833
837
846
858
878
909
947
996
1056
1119
1168
1202
1199
1154
1073
964
858
772
723
715
729
762
797
824
839
845
849
845
843
839
839
838
837
835
837
836
838
837
839
838
842
842
842
842
843
840
838
840
839
839
843
842
843
844
843
842
844
842
842
842
843
843
845
845
845
846
846
846
846
846
844
845
846
844
844
844
846
848
846
846
847
847
845
844
845
844
847
847
849
850
849
851
852
850
850
849
849
851
852
851
852
854
858
857
858
859
855
856
856
859
861
862
865
865
865
865
867
866
864
864
861
860
863
863
866
867
868
869
864
863
865
864
862
861
862
864
870
869
871
870
867
866
867
866
867
866
867
868
868
868
868
864
862
858
855
851
847
845
842
839
839
839
840
839
838
835
830
832
829
830
830
833
835
833
831
833
831
831
829
829
831
831
829
835
835
839
837
840
840
839
837
837
837
837
838
838
841
844
843
844
843
844
841
841
840
839
841
842
846
846
844
845
844
844
843
842
841
840
840
845
841
842
841
841
839
836
835
834
835
835
837
839
839
838
837
836
835
836
832
831
832
832
832
836
837
838
837
837
836
833
833
830
832
830
832
835
835
839
841
842
842
842
840
840
842
842
844
845
847
851
855
857
858
860
862
862
861
860
860
863
862
861
861
863
864
863
861
860
858
857
858
858
857
855
853
849
845
842
838
836
838
840
839
840
841
839
840
839
839
836
835
834
835
835
834
838
837
839
841
840
839
838
839
840
838
841
842
846
849
852
854
855
856
855
856
858
863
875
895
924
964
1020
1088
1163
1227
1270
1277
1234
1150
1033
907
797
729
711
730
771
813
847
867
873
872
871
866
864
865
865
867
866
865
866
863
861
861
861
863
866
867
868
869
869
869
866
864
865
864
867
867
870
872
873
875
875
874
873
873
870
867
867
869
871
874
875
877
875
876
875
875
875
873
873
873
876
877
877
881
880
878
877
876
876
875
876
876
879
880
882
884
885
885
882
881
880
878
882
880
885
888
891
891
889
890
888
889
889
888
889
892
893
896
900
898
899
900
897
898
897
895
897
899
898
902
902
902
900
901
900
898
896
897
897
898
899
901
901
904
902
897
897
896
891
889
886
886
886
885
883
883
881
878
873
869
866
865
864
863
860
862
860
862
859
862
859
858
859
856
856
855
856
859
860
862
861
860
862
859
858
858
856
856
859
861
863
866
866
867
864
866
866
867
867
867
868
870
873
875
871
875
873
871
871
872
869
868
873
873
873
873
873
874
873
872
870
870
870
873
874
876
876
877
874
871
873
870
870
871
872
870
874
873
874
873
872
871
873
871
873
870
870
872
872
873
874
876
878
875
871
874
874
874
873
876
876
878
880
880
882
881
882
883
881
882
884
886
890
892
897
899
902
901
902
902
903
905
910
913
915
917
916
919
917
915
914
914
917
915
916
914
914
915
912
912
907
904
900
897
894
892
892
892
896
897
897
897
896
895
897
898
896
896
898
898
899
900
902
903
904
905
904
903
903
901
903
905
907
910
911
917
919
922
923
923
922
926
935
948
968
1000
1041
1096
1166
1233
1295
1334
1338
1295
1203
1083
958
853
799
791
822
864
907
939
959
963
961
955
948
944
941
944
944
946
943
945
945
946
945
946
948
951
952
952
953
953
952
949
949
951
951
951
954
955
956
959
958
957
954
955
955
955
956
957
959
960
961
963
963
961
962
962
959
961
959
962
963
967
968
969
969
968
968
967
967
968
968
970
973
974
976
979
980
979
978
981
978
974
977
978
981
983
987
988
988
990
988
988
986
987
989
991
994
993
995
999
1002
1000
1003
1001
1002
1001
1001
1002
1004
1006
1008
1008
1005
1008
1008
1008
1005
1004
1007
1009
1009
1011
1012
1010
1010
1008
1008
1003
999
996
993
991
990
987
983
980
978
976
974
970
966
963
962
959
963
962
963
963
961
961
959
957
957
957
956
958
960
959
959
961
959
961
961
962
958
959
958
961
963
964
965
967
970
968
968
966
965
967
967
967
970
969
971
973
972
974
972
971
968
968
968
969
971
971
973
975
975
973
972
968
968
969
966
968
969
970
969
970
970
971
969
968
967
967
966
965
964
969
969
969
970
968
963
965
964
963
964
964
966
966
967
969
970
968
968
964
963
962
963
963
964
965
965
968
966
967
965
965
964
963
962
964
965
964
967
968
966
967
965
966
968
965
968
967
968
968
970
968
972
970
968
965
965
966
965
964
967
968
969
970
969
969
969
967
965
964
963
965
965
963
967
970
971
970
969
968
970
968
971
972
975
980
982
987
989
993
992
991
989
993
993
995
997
999
995
998
995
993
993
991
992
990
990
989
990
990
988
987
985
981
976
974
970
969
968
967
969
970
970
971
970
972
968
968
966
965
964
964
964
967
969
969
969
967
968
965
965
967
966
966
971
972
975
980
980
979
980
981
982
986
998
1014
1037
1071
1117
1176
1240
1301
1353
1385
1383
1341
1257
1144
1022
916
846
824
840
878
921
958
983
994
997
995
987
987
985
984
983
984
985
986
984
982
981
983
983
987
987
989
989
989
987
985
985
984
985
985
986
986
987
989
989
986
986
986
986
984
981
983
984
985
986
988
987
985
984
987
986
982
983
984
985
986
985
986
984
984
986
987
983
984
985
984
987
986
989
989
989
989
988
987
987
987
988
989
989
990
992
993
995
994
993
991
991
992
989
990
992
994
995
995
995
997
996
995
994
994
993
994
997
1000
997
998
1000
1001
997
993
995
992
994
992
994
996
999
998
998
997
996
997
996
995
996
994
995
996
997
997
995
994
989
986
984
981
977
976
975
973
972
971
968
965
964
960
958
955
953
951
953
955
954
956
955
954
952
951
950
950
946
947
949
950
950
953
951
952
950
950
952
951
950
951
952
955
953
956
955
957
956
956
954
952
952
952
953
953
955
957
952
952
957
953
950
952
950
952
951
954
951
954
952
951
950
950
948
946
944
944
946
945
947
947
946
948
946
943
941
939
939
939
940
939
940
943
940
941
941
938
936
935
939
938
939
939
937
939
940
938
937
937
937
934
932
934
935
935
935
937
935
936
934
934
931
932
934
933
934
935
934
937
936
934
933
934
934
933
932
935
937
939
943
948
947
949
951
952
950
954
955
957
961
963
961
963
960
958
956
953
952
954
951
955
952
953
951
949
945
940
937
932
929
926
923
923
923
924
926
929
928
926
923
921
919
918
919
916
919
921
922
924
923
922
921
921
919
920
920
922
921
921
924
925
926
927
928
927
927
930
932
933
938
945
963
988
1021
1069
1136
1205
1273
1328
1355
1347
1297
1208
1095
973
866
799
779
796
829
874
910
935
947
950
947
945
941
937
935
936
936
933
934
934
937
935
937
941
938
938
938
935
934
936
936
935
937
939
939
940
939
938
940
938
939
937
936
934
937
938
941
939
939
939
937
936
935
935
937
936
935
940
939
942
942
941
940
939
938
939
937
936
938
940
939
940
941
944
941
941
944
941
942
940
943
943
943
945
947
947
947
947
948
946
947
946
947
950
952
954
952
953
952
948
948
948
949
951
952
955
956
957
958
954
953
950
949
947
946
946
945
951
952
954
955
953
952
952
950
946
947
945
944
943
943
942
941
938
931
930
924
922
918
917
914
913
913
910
910
908
909
906
903
900
900
901
900
898
898
901
898
901
901
901
898
895
899
898
899
900
900
903
904
905
905
903
905
904
901
902
900
903
906
909
908
907
907
904
904
902
