963
963
961
959
959
963
965
965
963
961
963
967
969
969
968
968
969
974
975
976
977
977
978
981
982
982
979
981
982
985
985
985
980
977
977
977
977
974
973
970
970
970
969
968
965
962
961
961
962
960
957
956
955
956
957
956
955
951
953
955
956
956
955
952
954
954
956
956
956
952
953
954
957
957
957
958
960
966
969
974
973
975
984
1000
1022
1044
1068
1089
1112
1131
1155
1178
1195
1192
1172
1136
1087
1041
1002
974
951
938
941
951
960
962
960
960
960
956
953
950
950
952
953
951
952
951
952
954
953
956
953
953
955
954
955
958
957
955
957
957
958
958
960
960
960
961
964
964
964
962
962
965
967
967
966
965
966
969
971
971
971
969
973
974
977
976
976
978
979
980
984
983
985
983
987
989
991
994
995
995
996
999
1001
1003
1003
1003
1006
1008
1010
1011
1007
1008
1009
1011
1013
1012
1010
1008
1008
1007
1007
1006
1004
1001
1000
1001
1000
997
994
990
989
987
988
985
982
981
980
980
979
979
976
976
976
977
978
975
974
973
972
971
975
974
971
970
972
973
975
974
973
972
972
974
975
975
974
971
973
975
976
974
973
972
973
975
976
975
974
971
973
974
975
975
972
971
973
974
975
976
974
973
970
974
975
975
973
972
973
972
974
975
974
973
972
973
975
975
972
972
973
972
974
974
973
970
970
971
973
974
972
971
971
972
973
972
972
969
970
972
972
970
970
969
970
970
974
970
971
969
970
971
971
970
972
970
970
970
972
969
969
966
966
970
971
970
969
967
968
970
972
971
970
968
968
971
971
972
970
968
970
971
970
969
968
965
969
967
969
968
969
967
967
969
969
969
969
966
969
970
970
970
968
966
966
967
970
968
969
968
968
969
970
971
968
966
968
969
972
972
970
968
967
969
971
971
970
969
968
970
973
972
971
970
972
972
972
974
971
969
969
972
972
974
970
969
969
971
973
972
973
970
973
971
975
975
972
970
970
972
974
973
973
970
971
972
974
973
972
969
971
972
974
977
975
974
975
974
976
975
975
972
971
971
976
975
975
974
975
976
976
977
978
979
983
985
989
989
988
989
991
995
998
998
996
991
995
995
999
1000
999
994
992
992
993
991
987
986
986
988
989
988
984
980
978
979
977
976
973
970
969
970
971
972
970
969
968
970
969
972
970
967
968
968
969
971
968
967
968
970
971
971
969
967
968
970
973
973
978
978
983
986
989
997
1009
1023
1042
1062
1084
1108
1126
1142
1161
1179
1181
1166
1135
1096
1062
1030
1006
988
971
962
963
973
979
981
978
975
973
970
972
970
969
967
967
968
968
968
968
967
967
966
969
969
969
967
968
970
969
971
969
968
969
970
973
972
973
970
970
973
973
974
972
971
974
973
975
976
974
972
974
977
978
976
977
977
979
980
981
982
981
980
983
986
988
987
987
986
989
992
995
995
996
996
999
1001
1003
1005
1004
1003
1006
1010
1013
1012
1011
1011
1012
1014
1019
1017
1018
1017
1016
1017
1021
1019
1015
1013
1014
1013
1013
1012
1010
1007
1004
1003
1005
1003
999
997
994
992
993
991
988
986
984
983
986
983
981
980
978
981
979
979
975
974
976
975
977
976
975
975
977
976
977
976
971
971
974
976
976
975
972
971
972
974
975
974
972
970
971
972
973
973
972
970
970
972
974
973
972
972
971
971
973
970
970
969
969
970
973
972
970
967
969
970
973
971
971
970
971
971
972
974
971
970
970
972
973
971
972
970
970
971
974
972
972
969
969
970
972
971
969
970
972
972
973
972
969
967
969
969
969
972
969
967
968
968
968
970
969
967
968
968
971
969
967
965
965
966
967
966
966
965
966
967
967
967
963
965
965
965
966
966
966
964
965
965
968
968
967
964
965
967
967
966
966
965
965
968
968
967
966
964
966
967
968
967
965
965
965
966
969
968
966
964
966
967
968
968
967
965
964
968
968
967
966
964
965
967
968
968
966
965
964
967
969
967
966
963
965
965
968
968
965
963
965
966
968
968
964
962
964
966
967
966
965
962
965
965
969
967
965
966
966
968
969
970
968
966
966
967
968
969
967
966
967
969
968
968
965
965
966
964
966
967
966
963
966
966
969
966
966
966
966
966
967
967
968
967
966
968
970
971
969
967
968
971
974
975
974
975
976
978
979
981
982
981
985
986
985
987
988
985
987
992
993
992
990
988
986
988
986
986
983
980
980
982
981
980
976
973
971
970
970
969
966
964
963
965
965
962
960
961
961
962
964
962
961
961
960
962
963
962
960
960
959
962
963
961
961
960
962
963
966
966
965
967
972
977
981
984
985
991
1004
1023
1044
1065
1088
1109
1130
1152
1177
1198
1209
1201
1182
1148
1110
1069
1031
1003
979
960
948
945
948
956
966
969
970
969
965
960
961
960
961
960
960
956
957
958
962
958
959
957
959
960
959
960
959
957
958
960
963
961
960
958
958
959
961
963
961
958
962
963
965
965
966
963
965
967
967
968
968
969
969
972
975
974
976
973
977
977
979
982
981
981
984
986
990
991
992
993
994
996
999
1001
1000
1001
1003
1006
1008
1010
1008
1006
1010
1011
1013
1014
1012
1010
1013
1015
1016
1014
1014
1011
1010
1010
1008
1008
1006
1002
999
1000
999
995
992
989
988
985
984
984
982
978
979
980
981
980
977
975
975
975
977
977
977
974
974
976
979
977
977
977
975
978
979
975
975
972
973
975
978
977
975
975
976
975
978
978
977
975
976
976
979
978
977
973
975
976
978
977
975
974
974
974
975
978
976
973
976
976
977
976
977
973
974
975
977
977
975
970
973
975
975
976
973
973
973
975
975
973
972
971
971
972
973
974
972
971
971
973
974
973
972
970
969
971
972
971
970
969
968
971
970
968
968
966
969
970
970
970
967
965
967
968
969
969
968
966
968
968
971
969
968
967
968
968
970
969
966
966
966
968
970
969
968
966
967
966
969
968
968
966
965
967
969
968
967
967
967
969
969
968
967
967
967
968
969
969
969
965
966
968
971
969
968
968
968
968
969
970
970
968
968
970
971
972
970
967
971
970
972
972
970
968
966
968
971
968
969
967
969
971
975
971
969
969
970
972
972
971
969
970
969
969
971
971
970
969
970
972
973
973
970
969
971
972
974
973
968
971
973
972
973
973
972
971
973
976
975
975
975
974
978
981
987
986
987
985
986
990
994
993
993
993
992
993
995
996
996
995
997
995
995
993
990
985
987
988
988
987
985
982
982
980
980
976
974
971
972
972
974
969
966
966
967
967
969
969
965
966
968
969
967
969
967
966
964
968
967
968
965
965
966
967
969
971
971
971
976
983
986
989
998
1013
1037
1060
1084
1109
1128
1147
1169
1184
1182
1159
1125
1086
1048
1017
996
978
966
962
967
975
981
977
973
971
968
968
968
968
966
963
963
965
965
965
965
965
966
966
966
966
965
964
965
966
969
968
966
966
967
968
971
970
970
969
969
972
974
974
972
970
973
974
975
975
976
976
977
978
981
982
980
981
983
986
990
991
991
992
996
999
999
1002
1003
1003
1005
1008
1010
1012
1012
1010
1012
1014
1016
1017
1017
1016
1016
1018
1019
1018
1016
1014
1011
1011
1011
1010
1005
1002
1001
999
1001
999
993
987
985
987
987
984
982
977
978
979
982
981
978
976
976
977
978
978
974
972
974
976
978
976
974
972
975
977
977
975
975
973
975
974
976
972
972
971
974
975
975
975
975
972
973
973
975
974
973
972
973
973
974
975
973
971
971
973
975
975
973
971
971
972
975
974
972
970
969
972
973
972
971
970
971
971
972
972
971
968
970
971
973
971
969
968
969
971
972
971
969
969
970
969
973
970
970
967
969
968
968
967
967
966
969
967
969
966
965
965
967
967
967
965
965
964
966
966
969
968
966
965
965
967
965
966
965
964
965
966
968
965
967
965
965
966
967
966
964
963
965
964
966
966
965
962
964
964
968
966
964
963
963
963
966
966
965
961
962
966
967
965
965
965
965
964
966
969
966
963
963
965
968
967
966
964
963
965
967
965
965
963
964
963
967
966
964
963
965
967
966
966
964
963
965
966
967
967
963
962
962
965
968
967
963
962
965
964
966
962
963
961
962
965
967
966
963
962
965
966
968
966
965
964
966
966
968
964
964
964
963
964
966
966
967
965
966
966
966
968
968
965
966
968
969
969
968
964
966
968
968
969
970
967
966
969
971
972
971
970
971
974
978
981
980
980
980
981
983
983
980
980
981
982
985
989
986
983
980
980
980
980
979
977
978
980
978
978
974
971
971
974
974
973
971
967
969
970
969
970
967
965
966
968
969
970
970
966
969
967
971
968
968
967
967
967
970
971
970
969
969
972
975
983
983
984
985
996
1008
1027
1046
1067
1094
1120
1136
1152
1175
1194
1209
1206
1183
1143
1094
1055
1022
998
972
954
949
951
965
973
976
975
970
967
964
965
966
965
962
961
962
964
965
963
962
960
961
963
964
962
960
961
963
964
966
967
965
966
963
967
969
968
968
965
967
970
972
971
970
970
972
974
974
975
974
972
973
977
980
981
980
979
981
983
986
986
988
985
991
993
995
998
997
994
1001
1003
1006
1007
1008
1006
1009
1013
1014
1014
1013
1014
1017
1019
1021
1022
1020
1018
1021
1023
1023
1020
1017
1015
1016
1015
1016
1014
1011
1007
1005
1004
1002
999
998
992
992
992
990
989
986
984
985
986
984
981
979
980
977
983
983
980
979
978
979
980
982
982
980
979
982
982
982
982
979
977
978
979
980
979
977
974
979
980
982
981
981
977
978
981
983
981
979
977
979
979
980
983
979
978
978
982
981
979
978
977
977
981
981
981
979
976
977
978
980
979
978
976
978
979
980
979
978
975
976
978
978
980
978
977
976
977
979
977
977
975
975
976
977
977
976
972
975
977
976
976
971
970
971
974
975
974
973
971
973
974
973
973
972
972
973
976
974
975
971
972
974
973
973
972
972
970
971
973
974
972
972
972
972
976
975
973
972
971
973
975
975
975
973
972
974
975
976
976
972
971
973
973
974
974
973
971
973
972
974
976
975
972
974
976
975
974
972
969
972
974
975
975
973
970
973
974
976
974
974
973
974
973
974
974
971
970
973
975
975
973
973
972
974
975
977
974
973
973
974
974
975
973
972
970
973
974
975
974
973
973
973
975
975
974
971
971
974
975
975
975
973
974
974
975
975
974
972
972
973
977
977
975
974
974
976
976
977
976
974
972
973
974
978
976
975
974
976
977
977
977
976
977
978
980
980
981
982
981
982
987
990
992
991
990
993
995
998
999
997
997
998
998
1000
999
999
999
1000
997
995
993
994
992
991
993
993
992
987
984
985
984
983
980
976
974
973
975
976
974
971
971
971
972
972
971
972
969
972
972
974
970
968
967
969
969
973
970
968
968
971
970
972
974
973
974
980
987
991
990
993
1000
1017
1036
1055
1073
1096
1116
1136
1152
1171
1182
1182
1168
1142
1114
1082
1047
1016
995
982
971
968
969
975
977
976
978
975
971
968
965
966
967
968
965
965
962
963
966
966
965
964
963
965
965
967
966
964
963
965
966
967
969
964
964
964
968
968
969
967
966
966
969
969
972
969
968
969
972
974
973
972
972
973
975
975
976
976
976
979
980
980
981
982
982
982
985
984
987
989
990
991
996
997
997
999
996
1001
1004
1006
1006
1006
1005
1009
1014
1014
1014
1014
1012
1017
1018
1018
1018
1017
1015
1018
1018
1017
1016
1015
1011
1010
1011
1012
1010
1007
1002
1002
1000
996
997
992
989
987
985
986
984
979
974
978
980
978
977
976
973
973
972
975
974
971
970
971
972
974
973
973
970
972
973
973
974
971
971
971
973
972
972
973
970
971
971
973
973
970
969
970
973
972
971
969
968
969
970
973
971
968
970
970
972
974
973
970
968
971
973
973
972
970
970
968
972
972
972
971
968
970
970
973
973
968
970
971
971
975
973
971
970
970
970
972
971
968
969
969
971
971
971
971
966
971
972
973
971
969
969
969
972
975
973
970
968
969
972
972
972
970
968
969
971
971
971
970
969
969
972
972
970
969
968
969
968
970
969
968
966
967
971
970
968
969
967
968
970
970
970
970
966
968
969
970
970
968
969
968
970
972
971
968
967
970
973
972
969
967
966
969
970
971
971
970
969
969
970
969
971
970
968
969
970
972
971
969
969
970
972
973
971
969
969
969
971
972
973
971
969
970
971
973
969
971
970
971
971
972
971
969
970
972
974
974
973
970
971
971
969
972
971
970
968
971
970
973
971
969
969
969
974
973
973
971
969
971
973
974
972
970
969
971
971
970
970
971
970
971
971
971
973
970
970
969
972
975
972
971
969
973
973
975
973
971
971
973
974
974
973
971
970
972
975
974
974
972
972
973
974
975
975
973
971
974
976
977
978
977
973
975
978
981
979
979
979
983
985
985
987
987
984
986
988
989
987
987
986
986
990
993
992
987
984
985
986
984
984
985
982
983
982
982
982
981
979
980
979
979
980
978
976
973
974
973
974
973
972
973
972
974
974
973
972
973
973
975
975
974
972
973
973
976
975
974
974
974
973
978
979
983
984
991
994
995
999
1008
1025
1046
1067
1095
1120
1137
1158
1182
1202
1209
1194
1161
1119
1079
1046
1019
994
971
959
960
968
979
982
980
975
976
973
974
970
969
968
971
971
970
968
968
966
968
971
971
970
969
968
967
969
971
971
969
970
971
972
972
974
972
972
974
974
974
974
974
973
974
977
980
977
978
975
979
981
980
981
980
980
981
983
986
986
985
985
990
992
995
997
997
997
1000
1002
1003
1004
1004
1005
1008
1010
1013
1015
1015
1014
1015
1018
1018
1021
1018
1018
1020
1023
1022
1022
1020
1019
1021
1019
1020
1017
1017
1014
1013
1012
1009
1006
1001
1001
998
998
998
996
993
990
989
989
989
987
985
982
983
985
986
985
982
981
984
982
982
982
981
981
983
981
980
980
979
979
981
980
984
980
979
978
979
982
983
980
979
979
980
983
983
981
980
979
981
982
983
981
981
979
980
982
982
981
979
978
980
983
982
981
979
979
981
983
984
981
981
981
982
981
983
982
980
978
982
982
983
981
979
979
979
982
982
981
980
977
979
978
982
981
979
977
977
979
980
979
978
973
976
976
977
977
976
975
976
978
977
977
977
974
974
976
976
975
974
974
974
975
977
975
973
972
974
975
975
974
975
972
974
975
974
976
976
973
975
976
974
974
974
972
973
975
975
974
972
970
973
975
974
973
972
974
973
975
974
974
974
974
974
975
976
974
973
974
973
976
976
973
973
970
972
975
976
973
975
974
975
975
973
973
973
972
973
976
976
975
973
970
973
975
974
972
973
972
974
975
975
975
975
972
974
974
975
975
974
974
974
977
977
976
974
973
976
975
977
976
975
972
974
976
976
975
975
972
975
977
976
976
974
972
975
975
977
975
974
973
974
976
977
977
974
976
977
979
980
976
977
976
976
979
979
978
976
976
977
979
978
977
976
976
976
979
976
977
975
976
977
979
979
979
977
976
978
978
976
977
977
976
978
979
981
979
979
979
979
982
984
984
985
983
984
987
986
989
990
990
991
993
992
994
990
989
990
992
992
994
994
993
989
988
988
988
986
984
986
988
989
985
980
981
979
980
979
978
976
974
977
976
974
976
974
973
976
976
977
975
972
969
971
974
975
974
971
972
974
977
977
974
972
973
977
981
988
989
991
993
998
1008
1023
1042
1059
1082
1108
1129
1145
1163
1178
1184
1174
1147
1114
1074
1039
1012
992
979
971
965
969
976
982
982
979
978
973
970
971
971
968
967
966
965
968
969
968
969
966
966
967
968
971
970
967
965
969
971
973
970
971
970
971
974
974
973
971
971
973
975
974
975
974
973
976
978
979
977
976
976
977
981
982
981
979
982
983
986
987
987
986
985
990
994
995
995
996
996
998
1001
1002
1003
1004
1004
1007
1010
1011
1013
1012
1013
1015
1018
1019
1020
1019
1017
1020
1021
1021
1018
1019
1016
1016
1018
1017
1014
1010
1007
1006
1005
1001
999
996
994
993
991
992
987
986
982
981
984
983
982
980
978
977
980
980
979
978
976
978
978
979
979
976
976
977
978
978
977
975
975
975
977
979
978
976
975
978
978
979
978
972
974
974
979
978
975
975
973
976
977
976
977
974
974
975
976
978
977
974
974
977
976
978
978
974
973
975
977
978
976
976
974
976
977
974
976
973
975
977
979
978
975
976
975
975
977
976
975
974
974
975
977
978
976
972
974
975
977
977
974
974
973
974
976
975
973
974
972
974
976
973
976
972
971
975
973
974
974
972
971
975
975
974
975
974
972
973
974
976
973
973
973
975
974
975
975
972
972
973
973
975
975
974
973
975
974
976
975
974
973
974
974
974
973
974
973
974
976
974
973
973
970
972
975
975
975
971
971
975
975
976
974
974
971
973
977
975
974
971
972
973
974
974
976
973
970
971
974
