991
995
993
992
988
989
991
998
996
997
996
996
999
1004
1008
1009
1015
1020
1035
1055
1081
1108
1145
1188
1231
1271
1307
1342
1373
1388
1374
1343
1290
1223
1160
1104
1059
1031
1015
1010
1011
1011
1012
1011
1006
1001
994
992
993
993
989
987
984
984
986
988
987
987
982
982
983
984
985
984
981
981
986
987
988
985
983
982
985
988
985
984
982
986
988
990
992
991
988
987
991
997
997
995
996
993
997
1001
1002
1000
1003
1003
1008
1011
1010
1012
1014
1013
1017
1024
1028
1026
1026
1031
1036
1041
1045
1047
1047
1050
1057
1064
1066
1065
1066
1069
1074
1077
1079
1078
1075
1074
1077
1080
1076
1070
1064
1063
1058
1056
1051
1045
1036
1033
1032
1029
1025
1020
1014
1011
1013
1012
1008
1003
1003
1000
1000
1002
1001
995
992
995
997
999
998
994
991
993
996
998
998
997
994
996
996
999
1000
995
993
993
994
1000
999
999
998
999
999
1001
1000
996
996
999
999
998
1001
997
995
995
999
1000
1002
1000
997
998
999
1003
1002
1000
997
997
999
999
1001
1002
998
998
999
1000
1002
999
997
994
997
999
999
997
995
993
995
997
999
996
993
995
997
999
998
995
994
994
991
996
999
997
994
992
992
996
995
994
991
989
996
999
996
991
988
991
993
993
991
988
991
989
993
995
995
994
986
991
995
998
997
996
991
993
995
1000
1000
993
990
989
994
996
997
995
992
995
997
1000
1001
996
994
999
1000
1001
1001
998
994
995
997
1002
999
1001
995
997
997
1002
1002
1001
998
997
1001
1002
1000
999
997
996
1000
1006
1006
1004
999
1001
1004
1004
1004
1004
1000
1002
1004
1006
1006
1003
1002
1000
1002
1007
1007
1006
1003
1005
1006
1008
1006
1004
1003
1005
1006
1010
1011
1005
1006
1007
1011
1018
1018
1017
1012
1014
1018
1019
1018
1019
1018
1020
1023
1029
1028
1028
1024
1022
1023
1024
1023
1023
1020
1018
1019
1018
1012
1011
1007
1005
1007
1009
1008
1006
1000
999
1000
1003
1001
997
997
997
1000
1001
1003
1001
1000
1000
1004
1006
1005
1003
1003
1005
1007
1008
1009
1008
1005
1006
1011
1015
1013
1013
1019
1023
1032
1039
1049
1067
1089
1120
1160
1205
1244
1283
1313
1354
1390
1408
1407
1375
1325
1259
1203
1150
1098
1054
1025
1017
1019
1024
1025
1015
1010
1006
1003
1004
1002
997
990
992
994
996
994
989
989
989
992
994
993
991
990
988
992
994
994
993
987
992
992
993
993
992
990
990
994
998
997
993
991
990
997
1000
1000
998
997
998
1001
1004
1003
1003
1003
1005
1006
1011
1011
1009
1007
1011
1015
1022
1021
1019
1020
1023
1027
1033
1034
1033
1035
1037
1042
1049
1047
1049
1051
1054
1058
1065
1064
1066
1064
1068
1073
1077
1075
1076
1074
1074
1075
1075
1071
1064
1061
1057
1057
1055
1049
1041
1035
1031
1034
1032
1026
1021
1014
1013
1013
1012
1010
1003
998
999
1000
1001
999
994
991
995
997
999
1000
996
993
991
993
998
998
995
992
991
994
999
996
992
990
990
991
996
997
995
992
994
995
999
996
996
992
993
998
999
999
1000
997
998
1001
1002
1001
999
996
996
999
1002
999
998
994
995
1000
1003
1002
1000
998
998
1000
1003
1005
1001
996
995
996
1003
1000
996
996
995
999
1001
1002
995
994
994
997
998
997
994
992
993
996
997
997
995
992
991
995
998
999
994
991
991
992
996
997
996
991
992
995
997
996
996
991
994
995
997
996
997
995
995
992
998
995
995
993
993
997
1000
999
997
996
996
998
997
994
995
989
994
996
998
999
995
995
995
995
997
998
997
992
996
995
1000
997
993
993
994
998
999
998
995
994
993
997
1000
995
994
992
994
996
1000
997
994
990
994
996
1000
997
998
993
995
999
1000
999
998
993
995
998
999
998
996
992
992
992
997
994
993
990
990
995
998
1000
997
993
994
996
1000
999
998
999
997
1000
1001
1000
997
996
996
998
1000
1000
998
995
998
1001
1005
1010
1008
1007
1010
1011
1016
1015
1016
1013
1010
1012
1017
1017
1016
1013
1016
1021
1023
1019
1014
1012
1012
1014
1018
1019
1013
1014
1012
1012
1013
1008
1006
1002
1000
1002
1004
1003
1001
997
995
998
998
997
995
992
994
999
1002
999
998
994
996
999
1001
1001
996
997
1000
1002
1006
1007
1000
998
1000
1003
1010
1012
1010
1011
1018
1024
1034
1043
1060
1085
1115
1154
1189
1226
1261
1291
1330
1365
1392
1396
1379
1346
1301
1248
1196
1145
1090
1052
1026
1019
1019
1020
1018
1013
1007
1004
1004
998
992
990
986
989
990
988
985
983
980
984
987
987
983
980
982
985
990
990
987
984
984
986
990
989
988
984
985
989
992
991
986
987
987
988
991
991
992
987
988
990
996
997
994
991
994
997
1003
1001
1001
998
996
1000
1008
1011
1012
1010
1009
1014
1018
1020
1022
1023
1025
1029
1035
1036
1038
1039
1043
1048
1055
1055
1055
1054
1058
1062
1071
1074
1075
1071
1075
1079
1083
1082
1079
1076
1074
1077
1074
1072
1063
1059
1056
1054
1050
1045
1040
1033
1031
1025
1026
1023
1018
1009
1010
1010
1009
1004
1000
1000
999
1000
1001
1000
996
992
991
991
996
995
992
991
992
991
999
996
994
989
991
994
995
996
995
992
993
992
999
993
993
988
991
994
996
995
993
989
990
993
995
994
992
988
988
992
991
990
990
989
990
992
995
994
991
988
987
990
991
990
989
983
985
989
993
993
992
986
989
990
991
992
990
988
988
990
996
993
991
987
985
991
995
995
993
988
988
991
992
990
986
983
985
984
989
991
990
987
986
983
989
990
991
988
991
989
990
993
992
990
988
992
993
992
991
989
989
986
989
989
986
987
985
989
990
988
983
982
984
989
985
988
987
986
986
989
991
991
989
987
988
989
991
991
989
988
990
991
995
994
989
988
989
990
994
989
989
987
987
991
994
992
991
988
992
991
994
994
991
989
989
993
995
996
990
989
989
990
994
991
989
989
990
994
994
992
990
989
990
990
993
991
988
987
989
992
997
995
992
989
991
991
993
995
995
992
990
991
995
996
993
992
992
994
999
999
995
994
994
994
1000
1001
998
1001
1002
1007
1007
1006
1006
1005
1006
1004
1010
1012
1009
1008
1012
1016
1016
1014
1013
1010
1010
1013
1012
1013
1010
1005
1007
1004
1006
1002
999
997
997
996
999
996
995
993
992
995
996
994
992
992
993
993
997
996
993
992
987
993
995
995
995
994
994
997
1001
999
999
994
996
1000
1000
1000
998
1001
1004
1010
1019
1023
1028
1034
1049
1077
1110
1146
1181
1220
1259
1298
1339
1375
1403
1417
1411
1389
1347
1286
1223
1165
1115
1076
1043
1016
1007
1007
1014
1017
1018
1012
1006
999
996
998
997
993
988
985
987
989
992
987
981
981
983
986
988
988
984
981
982
985
987
991
988
987
985
988
990
991
987
984
986
989
995
994
992
989
991
996
999
999
999
995
995
997
1002
1002
1003
999
1003
1008
1013
1012
1011
1008
1013
1016
1021
1023
1021
1022
1023
1026
1033
1035
1035
1033
1038
1044
1049
1051
1050
1049
1053
1058
1062
1063
1062
1062
1067
1069
1075
1074
1073
1072
1072
1076
1073
1074
1065
1058
1054
1051
1050
1042
1038
1031
1031
1026
1027
1023
1017
1011
1012
1010
1013
1009
1006
1000
999
1001
999
998
995
992
993
994
997
996
996
994
993
993
995
996
994
991
992
995
998
993
994
989
993
994
996
995
993
989
993
994
999
997
996
995
993
997
999
1001
995
995
996
997
999
999
998
995
992
995
1001
998
1000
993
994
993
1000
1000
998
992
995
996
999
999
994
992
992
992
996
998
996
994
994
996
997
998
995
994
992
994
996
995
990
991
990
993
994
992
990
989
988
989
993
992
990
987
990
993
996
996
996
992
994
993
996
993
993
991
994
992
994
995
991
990
988
992
993
992
990
989
991
996
996
994
991
991
991
993
994
992
991
988
990
994
991
993
992
990
991
994
996
994
993
989
991
994
997
995
992
990
991
995
995
994
992
990
992
995
996
994
992
990
991
991
997
996
992
991
993
995
997
996
995
990
994
995
999
997
995
990
992
996
997
996
994
988
992
994
1000
998
996
992
991
996
1000
998
996
991
990
993
999
996
996
992
994
1000
1000
999
995
996
993
998
1000
1003
1000
1000
1002
1009
1012
1014
1014
1009
1009
1013
1017
1017
1013
1011
1012
1014
1021
1021
1020
1015
1013
1013
1016
1018
1013
1008
1012
1014
1015
1014
1009
1000
1004
1006
1004
1004
1001
997
997
999
1002
998
996
993
995
996
999
997
995
994
996
999
1001
1001
999
994
995
999
1000
1002
1001
997
997
1000
1002
1004
1005
1002
1002
1003
1009
1011
1016
1020
1025
1032
1047
1066
1090
1117
1152
1192
1228
1265
1297
1329
1364
1391
1395
1378
1343
1290
1234
1179
1138
1090
1051
1029
1021
1022
1025
1021
1020
1013
1007
1007
1005
1000
996
993
993
993
995
994
990
987
986
987
989
989
988
985
987
989
992
990
990
986
986
989
991
988
989
988
987
991
990
991
989
990
990
993
995
994
992
993
992
998
1000
1000
999
999
999
1004
1004
1002
1000
1000
1003
1007
1011
1011
1013
1014
1015
1018
1022
1023
1022
1024
1028
1032
1038
1041
1041
1040
1043
1049
1052
1054
1057
1056
1060
1065
1071
1070
1067
1071
1071
1074
1079
1078
1071
1068
1066
1068
1065
1061
1054
1045
1041
1039
1038
1034
1028
1021
1017
1016
1014
1009
1004
1003
998
998
1000
998
997
993
994
994
995
994
989
984
989
989
994
992
988
987
985
988
993
992
990
986
988
991
993
990
988
986
986
990
992
993
990
986
987
989
991
993
987
985
986
989
992
989
989
984
987
990
991
989
987
985
986
990
992
991
988
986
985
990
993
990
986
986
989
990
991
992
990
985
984
987
992
990
987
982
984
984
989
988
987
982
982
986
987
990
987
984
986
987
991
988
983
982
983
986
989
988
990
982
985
987
990
984
987
985
985
986
986
990
988
986
984
987
990
989
990
986
988
990
993
989
986
984
985
987
992
990
986
983
985
989
992
988
987
986
985
988
991
990
988
986
985
989
992
989
989
987
990
989
995
991
988
986
987
987
991
991
990
986
987
989
992
991
988
987
986
989
991
992
992
989
988
991
994
993
989
986
984
990
991
992
992
985
988
990
992
994
993
990
989
993
994
993
992
989
990
991
996
992
989
986
987
991
997
992
992
989
991
995
999
998
996
995
995
998
1001
1003
1005
1004
1004
1008
1011
1009
1005
1004
1006
1014
1016
1016
1011
1009
1010
1012
1015
1012
1013
1008
1007
1007
1013
1011
1008
1005
1005
1004
1005
1002
998
999
997
999
997
998
995
993
995
995
999
997
995
993
994
998
998
994
992
992
996
998
1002
1003
1002
1001
1001
1003
1007
1008
1006
1005
1009
1019
1029
1036
1050
1069
1104
1147
1194
1237
1276
1313
1355
1396
1418
1416
1385
1335
1272
1206
1157
1101
1055
1020
1006
1011
1015
1019
1012
1006
1004
1001
1004
1001
994
990
991
992
995
992
990
984
987
985
991
991
987
986
986
987
989
987
987
985
986
990
993
989
987
985
987
989
993
992
991
988
992
990
996
996
992
991
993
996
1000
997
998
999
1000
1005
1007
1008
1004
1006
1007
1014
1017
1016
1014
1013
1019
1022
1027
1030
1028
1033
1037
1042
1047
1043
1046
1047
1050
1053
1060
1059
1059
1063
1065
1072
1075
1072
1071
1067
1064
1064
1068
1061
1053
1048
1044
1040
1038
1034
1027
1023
1017
1017
1015
1011
1003
1002
997
1001
1002
1000
995
990
991
992
994
994
991
985
986
989
991
991
988
984
984
986
987
989
987
984
982
987
986
986
987
984
984
985
989
988
986
984
984
989
991
993
988
987
988
989
991
991
987
984
986
989
995
993
989
987
989
989
993
992
989
985
985
986
990
987
985
984
983
982
986
985
982
982
982
987
990
986
982
979
981
983
986
984
981
978
980
982
985
984
980
979
980
977
981
981
978
975
977
979
985
982
976
975
975
978
984
980
977
973
977
979
978
978
975
974
974
979
981
981
976
972
974
979
979
978
976
973
975
976
978
979
976
975
974
982
984
982
976
973
973
976
979
979
974
976
978
979
980
980
978
972
975
977
979
977
976
973
977
975
980
980
977
975
974
979
980
979
977
976
976
978
980
979
976
977
979
980
983
983
980
978
977
980
983
983
982
980
980
981
983
983
981
980
980
983
986
985
983
981
980
984
986
987
982
983
984
989
991
994
997
997
994
998
1000
999
999
1000
997
1000
1006
1008
1006
1000
999
1002
1005
1003
1000
995
1000
1003
1001
998
995
988
988
989
992
989
986
982
984
989
989
989
986
981
984
984
986
986
984
982
984
986
990
987
986
985
987
990
994
994
990
989
991
995
1002
999
999
1003
1010
1018
1030
1044
1070
1100
1139
1179
1221
1260
1291
1328
1360
1385
1388
1363
1322
1264
1201
1145
1097
1050
1019
1005
1003
1008
1010
1002
995
991
986
985
988
987
981
977
978
981
981
979
978
975
975
978
979
979
974
971
974
977
979
981
978
975
974
978
982
980
978
974
977
981
986
983
982
978
980
985
989
988
988
986
985
992
993
994
993
989
997
998
1004
1005
1003
1006
1009
1010
1017
1020
1020
1019
1023
1030
1034
1038
1038
1040
1040
1047
1055
1055
1055
1056
1059
1063
1069
1067
1065
1063
1061
1061
1064
1059
1052
1043
1040
1037
1035
1030
1020
1015
1011
1007
1006
1002
997
989
990
991
992
990
984
982
984
983
986
984
981
979
978
980
983
981
976
974
978
979
982
980
977
976
978
979
983
980
978
977
978
979
979
980
977
976
978
978
980
978
978
977
976
978
981
980
977
976
974
980
985
984
979
976
978
980
982
981
977
974
977
979
982
980
976
975
977
981
983
980
978
976
977
979
979
978
977
971
973
977
979
976
974
973
972
976
978
979
976
974
976
975
980
980
976
973
975
978
982
977
977
976
977
977
978
975
976
970
974
978
979
979
976
971
972
974
979
979
973
972
975
974
978
979
974
973
974
972
977
975
973
972
971
974
977
976
974
972
971
972
976
979
975
977
978
977
979
979
977
974
973
977
981
982
975
972
973
977
980
978
977
974
976
976
981
979
976
974
976
977
982
979
979
976
975
978
980
982
980
978
978
978
982
982
979
978
976
976
978
983
979
980
978
983
985
985
982
977
979
982
982
984
981
978
979
981
983
986
984
982
982
984
991
991
988
986
987
990
995
994
993
991
994
995
1002
1001
1002
997
1002
1003
1006
1008
1005
1002
1001
1002
1001
1000
1000
996
997
1000
1004
1001
997
991
991
992
994
991
987
984
984
990
992
988
986
985
984
987
988
988
987
985
984
986
990
992
989
986
988
987
990
988
991
990
991
996
997
995
996
992
997
1003
1010
1012
1017
1020
1035
1057
1084
1115
1148
1181
1223
1260
1299
1332
1362
1384
1393
1383
1349
1292
1225
1161
1107
1068
1039
1015
1006
1005
1009
1007
1004
998
993
987
989
988
988
985
979
977
977
982
983
981
979
978
978
979
983
980
978
974
975
979
984
981
983
973
977
979
983
984
983
980
979
982
985
986
983
983
982
986
990
990
986
984
985
989
994
995
990
992
993
997
1001
1001
999
998
1000
1006
1010
1010
1010
1010
1013
1016
1021
1022
1023
1023
1027
1032
1036
1038
1036
1038
1037
1043
1051
1053
1052
1051
1054
1057
1065
1063
1065
1064
1064
1065
1069
1068
1064
1061
1055
1055
1053
1049
1043
1037
1032
1030
1026
1020
1016
1010
1009
1005
1004
1001
997
994
994
990
992
991
986
985
986
987
989
986
982
984
981
986
988
985
982
982
984
983
985
987
984
983
982
984
988
986
984
982
984
985
985
982
982
978
981
982
986
986
983
983
983
986
987
987
985
985
982
982
985
988
986
984
985
987
985
984
985
979
983
984
989
991
986
982
984
985
986
985
984
983
983
986
988
985
982
982
980
985
986
985
984
980
981
980
985
985
981
980
980
982
983
983
981
980
981
984
986
985
982
978
977
981
984
986
983
978
980
982
986
982
979
975
976
978
980
981
979
979
977
981
981
979
977
976
977
977
981
978
976
975
974
976
978
977
975
973
973
978
979
978
974
974
974
979
982
980
972
971
972
973
977
974
977
973
973
976
980
978
977
973
973
975
978
978
976
976
975
976
977
976
975
971
973
974
977
976
974
970
971
977
979
979
975
975
977
976
979
978
976
973
975
979
980
982
978
975
977
980
979
979
977
979
976
979
981
980
977
976
979
982
985
983
982
981
983
985
990
988
990
987
990
991
995
996
993
990
993
996
999
998
996
996
995
996
997
996
995
991
993
994
998
996
991
987
986
988
989
987
982
979
977
981
984
983
979
977
980
979
984
983
977
975
976
979
984
981
979
976
978
980
981
982
981
979
981
984
985
986
984
979
985
988
991
996
996
999
1007
1015
1027
1044
1069
1097
1134
1171
1208
1243
1274
1305
1340
1368
1382
1374
1348
1306
1254
1200
1154
1102
1055
1023
1001
997
1001
1004
999
995
989
988
985
982
979
975
973
973
976
971
967
966
967
966
970
970
967
965
964
969
969
969
966
964
966
968
970
969
965
965
965
965
970
972
967
964
966
967
972
970
970
967
968
972
973
976
975
974
974
980
982
982
982
980
982
986
989
988
985
986
989
993
997
1000
998
1000
1001
1007
1012
1012
1013
1014
1018
1024
1027
1031
1029
1030
1034
1041
1043
1047
1044
1046
1047
1053
1058
1057
1053
1055
1053
1054
1058
1055
1052
1047
1043
1041
1038
1032
1028
1020
1016
1013
1012
1008
1001
994
992
991
992
989
985
978
981
979
981
980
975
973
970
971
976
976
976
970
972
974
972
970
968
966
967
972
972
973
970
967
967
970
971
969
970
966
968
966
972
974
971
967
967
968
971
972
970
967
970
973
972
973
972
971
971
971
976
972
970
970
969
974
975
974
971
968
969
971
972
973
970
970
969
970
970
972
971
967
967
969
970
969
968
964
964
967
971
968
965
964
966
968
970
969
966
964
966
