968
967
964
962
963
965
966
961
960
959
959
961
963
965
966
966
967
967
967
960
955
950
954
958
958
955
956
957
960
963
956
954
952
955
961
969
972
968
964
967
972
972
969
967
963
963
962
965
966
961
961
962
965
967
972
966
962
962
962
965
965
965
962
958
957
959
963
967
966
964
963
965
968
966
961
956
956
958
958
957
954
950
950
955
960
961
957
955
955
958
958
960
959
960
960
961
966
965
961
954
954
954
957
958
954
953
951
955
961
961
962
962
965
969
965
960
958
957
962
965
966
962
953
952
951
958
967
976
975
968
970
974
985
986
985
979
982
986
984
978
970
965
965
966
968
967
970
972
974
972
966
960
953
952
959
964
964
965
964
963
965
968
968
968
969
971
977
979
985
990
993
993
999
1009
1030
1056
1081
1106
1135
1163
1187
1208
1231
1250
1260
1252
1222
1182
1132
1083
1039
1003
973
958
948
951
959
966
968
961
951
945
949
956
957
955
948
943
938
940
941
942
936
930
932
934
936
940
942
940
937
934
930
934
937
939
937
934
930
928
931
934
935
936
934
933
930
931
932
936
938
940
937
938
939
944
948
947
946
944
946
948
948
946
941
943
947
955
959
955
954
956
958
961
965
969
971
971
974
979
985
984
979
985
986
990
992
994
996
999
1006
1010
1015
1010
1006
1003
1003
1007
1007
1006
1001
996
988
980
976
971
968
957
953
948
946
941
936
935
940
944
944
941
936
935
935
936
939
936
933
933
935
938
938
937
934
932
929
925
928
929
931
931
930
928
929
929
927
925
922
924
927
928
932
935
943
945
944
940
934
933
936
936
935
936
937
932
935
938
936
937
937
937
934
936
936
933
934
933
934
935
940
938
935
936
939
943
945
942
940
934
931
933
935
936
938
936
938
936
938
936
932
931
932
935
936
940
939
938
938
939
945
945
940
937
936
935
936
939
934
941
938
939
943
944
944
944
944
945
942
939
935
935
944
950
951
946
937
935
935
937
942
939
938
938
943
947
945
941
938
937
940
946
943
940
933
937
942
947
948
944
943
939
940
938
944
943
943
940
937
940
943
945
948
943
941
946
948
947
941
941
946
947
948
949
945
943
943
946
950
948
947
948
953
960
960
957
953
951
952
952
953
945
938
936
937
939
937
939
935
931
934
935
934
934
932
931
932
935
938
937
934
931
936
940
943
944
943
939
940
945
952
955
954
963
978
1003
1030
1052
1066
1087
1118
1148
1177
1203
1227
1245
1244
1232
1205
1163
1117
1071
1031
1001
977
964
957
950
950
949
947
940
932
923
917
920
922
922
918
917
919
922
923
922
916
911
911
910
914
913
914
916
920
924
925
921
918
916
918
921
921
919
920
914
913
916
918
917
917
921
924
928
932
931
924
924
923
931
935
935
935
936
939
944
949
948
943
939
943
951
951
950
950
956
965
973
978
981
982
979
977
984
984
991
991
993
996
999
1002
1002
997
999
1006
1011
1017
1017
1012
1010
1009
1007
1008
1003
996
990
987
989
989
984
975
967
967
972
973
968
963
955
950
952
951
947
946
947
950
948
944
939
934
934
939
948
947
947
944
939
936
937
943
939
942
941
942
944
946
945
941
937
937
937
937
936
936
936
935
935
939
937
932
930
935
937
942
938
933
934
934
935
938
936
935
933
932
934
936
935
935
933
936
940
941
941
941
939
936
935
931
933
932
933
939
943
943
941
934
932
933
939
940
941
939
938
940
940
939
936
932
934
936
939
938
936
933
935
940
942
946
943
941
940
940
943
939
935
937
937
937
937
941
939
936
936
939
941
941
940
933
929
933
935
938
942
943
939
935
936
939
937
938
935
938
941
942
941
935
934
935
941
945
941
940
936
938
938
936
934
931
930
932
936
936
938
936
936
934
936
938
939
939
939
937
938
942
939
935
935
938
944
945
945
943
943
945
946
951
950
948
948
953
954
954
950
949
945
941
942
942
940
938
933
940
942
946
944
940
938
938
942
945
944
939
940
939
941
941
940
937
938
944
950
955
960
963
969
978
991
1009
1027
1050
1079
1107
1139
1165
1192
1217
1242
1266
1278
1268
1237
1193
1144
1095
1057
1021
984
954
941
940
942
949
952
948
944
944
944
945
942
939
937
938
939
937
937
932
927
928
932
933
933
932
929
930
933
936
936
933
930
935
940
944
946
941
938
936
937
938
937
936
940
940
943
945
945
941
941
942
944
946
949
948
950
953
956
960
958
954
956
960
963
964
963
964
964
967
973
978
980
977
978
983
987
991
993
994
992
996
1002
1009
1008
1010
1008
1012
1016
1018
1015
1014
1011
1016
1018
1020
1014
1010
1007
1002
1000
1001
997
991
987
984
979
979
970
960
957
956
958
957
956
950
944
946
946
945
944
943
940
942
947
946
945
941
936
939
940
943
940
940
935
933
936
938
937
937
940
940
940
942
942
938
936
940
944
947
943
941
939
945
944
945
941
940
938
944
950
951
950
944
941
940
941
943
940
935
933
938
941
946
944
941
939
940
943
942
941
939
939
936
937
940
940
937
935
935
933
935
939
937
936
933
933
933
937
933
930
929
934
937
936
935
933
931
931
932
930
927
926
925
927
932
932
929
927
930
929
930
928
926
926
928
933
935
934
933
930
931
936
938
936
935
934
934
937
937
936
930
930
931
937
940
940
935
930
929
930
928
932
928
927
929
934
937
937
936
932
936
935
937
937
931
931
932
938
940
938
930
929
935
939
947
947
943
943
943
948
951
950
949
947
945
945
946
943
938
937
940
939
943
939
936
934
936
936
942
937
933
926
930
937
938
937
936
937
939
943
946
948
950
951
957
964
972
982
994
1011
1033
1057
1078
1102
1128
1158
1185
1215
1246
1263
1252
1223
1184
1137
1088
1039
999
975
959
959
965
965
960
954
951
952
951
947
937
934
936
941
943
939
941
941
941
940
937
938
932
932
935
939
937
934
934
934
936
933
937
939
938
934
937
945
950
952
948
942
940
940
946
945
944
945
947
954
955
954
953
952
957
961
968
969
968
964
969
973
979
977
975
978
984
994
1000
1003
999
1002
1001
1007
1004
1000
999
1008
1017
1028
1036
1036
1032
1027
1025
1026
1029
1028
1025
1024
1022
1025
1022
1015
1007
1000
995
995
992
991
985
981
975
976
976
970
967
959
964
967
965
963
960
956
949
954
955
951
949
946
947
953
962
962
956
949
951
949
948
946
945
946
950
951
953
952
953
951
957
964
968
970
969
963
959
956
954
950
951
955
957
961
962
962
962
961
960
964
967
966
957
953
955
960
964
959
958
960
963
966
967
966
965
965
962
963
965
965
967
965
967
964
964
961
961
960
962
969
972
970
964
957
959
964
968
966
964
960
959
960
965
967
961
958
955
958
963
965
960
957
957
960
967
967
964
962
964
965
969
966
961
958
959
963
966
965
963
957
962
967
967
968
967
965
969
966
968
964
962
963
965
964
966
966
966
961
968
972
970
971
972
971
976
979
978
979
975
972
970
974
978
982
984
985
982
985
988
986
987
984
988
988
990
985
984
981
982
983
986
982
980
977
976
979
982
984
979
976
977
981
983
981
980
976
982
980
980
984
985
989
999
1008
1017
1026
1042
1063
1095
1123
1152
1182
1207
1231
1262
1292
1311
1302
1268
1222
1164
1117
1079
1039
1006
986
981
990
1002
1007
1003
997
991
987
987
989
986
984
982
984
989
987
985
983
984
985
982
988
985
987
989
992
994
992
985
984
984
984
994
991
986
985
986
988
997
1003
1002
998
995
1000
1005
1015
1010
1006
1003
1000
1001
1001
999
996
1001
1007
1017
1020
1021
1019
1017
1019
1023
1022
1027
1032
1037
1040
1047
1046
1044
1039
1046
1055
1061
1060
1057
1056
1056
1059
1062
1058
1053
1051
1053
1056
1056
1051
1044
1035
1030
1029
1023
1014
1003
999
999
1003
1000
994
991
987
985
986
989
980
972
969
969
972
973
973
968
964
965
966
973
974
969
970
969
974
977
973
970
969
969
974
979
980
975
972
972
971
968
965
960
960
963
966
969
968
960
952
954
956
958
960
961
964
971
974
975
976
976
972
973
976
979
982
975
964
953
949
952
949
946
942
945
945
946
946
942
939
941
945
946
948
943
939
935
937
941
940
939
936
937
939
943
945
948
947
948
942
938
926
921
920
925
931
931
929
925
924
931
936
937
938
935
936
939
943
943
937
935
934
934
935
937
933
931
928
935
933
936
935
933
931
929
928
930
929
929
931
938
951
962
962
953
938
931
935
950
954
952
943
934
933
929
927
925
920
925
928
934
938
939
943
947
945
947
945
943
938
938
936
942
938
936
937
940
939
942
943
942
941
936
936
933
931
933
934
935
938
943
942
939
937
938
940
942
949
952
956
963
971
976
981
994
1015
1042
1069
1098
1122
1149
1176
1206
1241
1267
1282
1274
1248
1209
1162
1117
1071
1027
996
973
964
970
970
965
962
955
957
956
952
945
941
937
943
949
948
944
938
940
942
942
941
939
938
942
943
942
941
935
935
940
946
947
947
944
943
946
951
956
958
957
953
952
957
962
958
956
955
961
969
974
971
969
970
975
980
984
983
980
978
982
984
991
991
993
992
994
1002
1008
1010
1012
1015
1019
1023
1027
1028
1026
1024
1029
1035
1036
1040
1038
1036
1038
1041
1037
1033
1025
1018
1015
1016
1012
1006
997
983
975
971
968
975
977
976
973
970
968
967
965
962
962
965
967
963
954
953
953
950
951
952
951
947
948
949
945
942
943
943
945
949
950
945
938
936
936
941
949
943
942
940
939
943
947
947
944
938
942
946
950
948
944
945
943
942
944
943
941
940
940
944
943
942
939
938
939
940
942
938
937
937
939
942
942
939
939
942
945
946
949
949
947
944
947
946
948
946
945
945
943
947
950
949
944
941
938
943
948
949
948
940
939
940
945
944
942
940
941
941
944
944
939
935
937
940
946
952
957
959
958
957
957
953
946
945
946
949
952
950
946
946
947
947
951
947
942
937
939
944
944
943
940
938
940
943
946
948
944
943
940
942
944
945
945
942
943
946
951
950
945
936
932
935
942
946
941
933
936
941
951
952
946
945
949
953
958
959
957
954
954
953
956
953
949
946
946
948
949
941
932
926
924
927
932
927
921
912
910
913
916
918
919
918
921
924
928
930
933
938
942
952
963
974
979
982
997
1022
1047
1068
1091
1110
1140
1166
1196
1214
1238
1242
1231
1208
1173
1121
1067
1019
987
972
967
962
960
953
957
958
958
949
943
940
935
938
939
943
941
940
940
939
939
940
937
933
935
937
940
940
939
938
939
939
937
938
935
936
942
945
948
947
942
941
942
947
950
951
947
946
948
949
952
954
954
956
959
961
966
963
961
957
957
968
975
978
976
978
980
984
989
993
992
992
997
1002
1007
1009
1008
1008
1013
1016
1018
1018
1016
1020
1021
1027
1031
1030
1029
1026
1027
1030
1027
1020
1011
1006
1003
1004
1000
994
988
984
980
977
980
975
971
965
963
963
967
964
959
957
956
957
962
961
954
952
948
950
954
953
951
951
950
952
957
957
954
953
950
955
957
958
954
953
954
957
958
958
954
953
952
955
956
954
950
951
954
957
956
957
959
956
952
957
961
960
954
951
953
955
960
956
955
954
955
957
960
957
954
950
952
953
956
959
960
956
955
952
952
951
949
947
946
947
950
950
949
950
953
955
956
953
948
943
942
946
948
946
945
943
945
947
948
948
945
940
942
945
947
946
945
942
943
947
949
948
946
942
941
941
944
944
943
940
941
941
947
943
939
940
941
943
946
946
941
936
939
941
945
944
943
943
942
944
942
944
941
938
941
944
944
945
944
943
942
940
942
943
940
938
940
944
948
946
946
943
944
945
948
947
944
940
937
940
946
947
947
946
947
954
954
955
951
949
949
953
956
953
949
948
950
951
953
949
946
946
946
947
949
946
943
942
943
947
948
950
949
946
948
947
950
947
946
943
946
950
953
955
956
958
967
982
990
1001
1014
1035
1059
1088
1118
1149
1173
1199
1226
1253
1265
1259
1231
1195
1159
1114
1078
1038
1002
979
968
965
968
967
964
962
962
962
962
960
952
948
949
951
953
951
946
944
943
946
948
947
945
938
941
946
949
948
946
944
946
948
951
955
951
946
945
949
952
955
953
953
955
955
956
952
945
948
951
958
961
963
960
957
961
962
967
966
964
963
968
973
976
980
980
982
985
988
991
993
992
989
992
995
1002
1004
1006
1003
1002
1009
1013
1016
1013
1012
1014
1020
1026
1029
1025
1026
1023
1026
1024
1019
1010
1003
1003
1003
1007
1001
994
984
979
976
971
967
962
955
955
959
959
957
956
951
951
949
952
950
945
943
940
942
941
940
936
936
940
942
945
942
940
939
939
942
949
948
947
949
950
956
959
959
956
953
956
956
958
959
957
958
960
960
962
960
954
953
954
957
956
953
951
946
949
952
951
951
947
945
943
948
949
948
941
938
941
946
951
953
952
950
949
948
953
951
951
949
951
954
956
952
951
954
950
955
953
955
951
951
951
955
957
954
952
947
950
951
954
950
949
946
946
948
951
952
949
949
949
952
955
955
956
952
953
958
960
958
961
959
960
964
962
963
963
963
964
965
966
961
956
957
957
957
960
962
960
956
957
959
963
962
957
956
956
960
964
962
961
958
956
961
961
959
956
955
955
958
960
962
960
959
960
960
963
964
961
962
961
965
969
966
966
963
966
966
967
967
964
965
970
974
977
979
979
975
975
979
983
979
976
971
971
973
975
973
972
968
968
967
971
969
966
964
966
968
974
971
968
964
963
966
971
971
967
967
964
967
970
972
975
975
980
988
994
1000
1006
1016
1033
1056
1082
1109
1134
1158
1179
1205
1228
1252
1271
1279
1265
1237
1199
1148
1096
1057
1028
1003
985
973
967
969
973
978
977
974
969
968
964
965
963
962
960
958
959
963
965
961
960
954
956
956
961
959
957
954
960
957
958
958
956
953
956
961
963
965
959
960
961
963
967
970
966
967
966
968
965
965
963
961
961
963
967
968
966
963
966
971
975
977
977
977
979
986
990
994
998
998
1002
1002
1006
1009
1009
1010
1010
1007
1009
1010
1012
1016
1019
1023
1026
1029
1029
1029
1033
1035
1040
1041
1034
1033
1034
1037
1036
1031
1024
1023
1021
1021
1017
1006
1000
990
983
985
983
978
972
966
964
963
963
961
962
959
960
960
951
948
939
935
934
938
949
953
956
954
950
952
955
953
954
956
955
951
948
945
944
942
944
945
953
958
961
955
948
943
947
947
944
941
938
947
955
962
967
965
962
964
964
954
948
946
949
955
959
958
960
960
959
962
967
968
966
961
961
969
977
977
972
965
965
965
972
970
966
958
956
957
959
961
964
966
967
965
965
961
961
965
965
963
965
965
968
968
968
969
974
975
981
981
979
970
958
950
948
950
953
957
964
963
960
958
959
963
968
969
964
958
955
954
957
952
950
951
960
970
967
959
948
942
936
938
941
942
940
941
940
945
946
941
936
930
935
937
942
942
945
946
951
952
955
952
954
956
960
965
971
966
957
945
938
938
945
949
954
952
950
948
950
949
948
945
943
943
943
939
935
934
936
941
945
946
943
942
939
938
942
946
944
942
940
941
945
946
942
942
946
946
946
943
939
939
945
952
960
960
958
962
969
983
999
1014
1035
1063
1091
1119
1150
1177
1207
1230
1261
1285
1295
1280
1246
1205
1154
1107
1068
1029
1001
981
968
965
963
962
956
952
949
946
946
942
934
938
944
946
946
943
940
940
939
935
935
933
934
941
946
951
951
951
951
948
949
953
954
951
949
949
947
953
957
957
955
949
953
956
958
959
959
962
963
961
964
969
969
969
974
978
978
978
978
977
981
985
992
995
991
986
997
1001
1006
1005
999
998
999
1008
1020
1028
1032
1036
1038
1036
1038
1037
1036
1036
1039
1045
1050
1051
1044
1036
1034
1031
1027
1019
1008
1002
1001
1002
1002
997
991
986
983
982
985
982
980
974
973
973
973
971
965
962
964
974
976
974
970
966
964
966
968
965
960
957
955
959
960
961
959
958
958
963
962
963
960
962
962
963
964
961
958
956
959
964
968
968
970
968
968
967
970
972
971
969
969
970
971
970
964
963
966
966
970
967
960
963
970
972
974
966
960
956
956
957
962
965
964
959
955
961
967
966
963
958
957
960
960
961
962
959
957
954
954
956
962
961
962
965
966
964
958
956
955
960
960
958
955
953
952
955
957
957
957
952
952
953
953
954
951
946
947
951
951
949
942
944
943
944
947
947
944
941
937
941
942
943
941
938
938
939
941
943
939
938
934
938
940
940
938
934
938
937
942
940
938
934
936
940
945
943
942
934
935
937
937
939
941
943
942
945
950
945
943
943
944
945
947
942
933
929
927
930
934
929
926
924
928
934
937
930
929
925
929
932
936
935
931
931
932
936
940
936
936
940
948
958
965
973
981
999
1023
1050
1080
1108
1132
1153
1174
1205
1226
1222
1194
1152
1105
1053
1017
984
956
940
936
937
942
938
933
926
922
921
920
918
914
914
913
909
910
908
904
901
901
901
