964
962
965
964
968
971
965
964
964
966
970
969
968
966
967
966
971
970
970
970
967
970
971
972
973
966
969
971
973
974
975
972
973
976
976
978
978
977
973
974
980
980
979
973
973
976
982
983
985
981
984
986
990
994
988
989
988
987
987
988
983
979
978
980
982
980
976
976
977
975
978
981
977
977
976
977
981
981
982
978
980
983
988
989
991
992
994
1001
1008
1018
1027
1042
1063
1089
1119
1150
1176
1199
1219
1245
1266
1278
1265
1235
1197
1154
1120
1083
1051
1022
1006
1001
1004
1006
999
996
988
985
984
982
978
975
970
972
973
974
972
966
964
969
972
971
968
963
966
969
973
973
966
964
966
969
971
973
971
970
970
971
972
974
974
971
967
973
975
979
975
973
976
976
982
979
981
978
980
983
987
988
987
986
988
989
994
995
995
995
997
1001
1006
1007
1005
1005
1009
1014
1021
1022
1020
1017
1023
1026
1029
1031
1034
1033
1033
1037
1040
1040
1042
1037
1040
1039
1041
1040
1038
1035
1033
1030
1030
1027
1019
1014
1008
1007
1006
1002
998
990
986
986
987
985
981
976
976
977
976
974
973
972
972
973
975
971
972
970
970
972
973
972
972
970
969
972
972
974
972
970
968
973
972
975
974
968
967
972
971
973
974
970
971
973
977
976
974
973
971
975
977
975
974
973
972
973
975
974
975
971
970
970
975
975
970
968
968
970
973
972
969
968
966
970
972
969
966
966
964
964
969
970
968
964
963
964
967
967
966
965
964
966
968
967
965
964
964
965
968
967
964
963
961
964
965
965
963
960
962
964
965
965
965
960
963
963
966
967
966
962
962
966
966
968
966
963
963
965
967
968
967
964
964
965
968
966
965
963
964
965
965
968
966
961
963
967
970
969
966
966
964
962
969
970
970
967
967
969
971
971
968
966
967
970
973
973
971
968
969
969
972
972
970
967
968
971
969
973
970
969
969
971
976
975
975
970
971
971
975
975
975
971
971
971
977
977
975
973
971
973
979
978
977
973
972
978
979
983
980
976
975
977
980
979
981
979
983
987
989
992
990
992
990
990
992
994
993
988
987
984
988
984
983
980
980
981
980
983
983
983
981
982
986
988
987
983
984
986
989
989
988
985
984
988
994
995
997
1002
1005
1013
1020
1028
1042
1056
1082
1104
1131
1160
1184
1205
1227
1253
1274
1274
1256
1224
1187
1149
1114
1083
1051
1025
1010
1007
1013
1013
1009
1000
998
996
992
991
986
985
981
981
984
984
983
976
977
977
980
979
979
975
978
978
978
978
980
976
975
979
981
984
979
978
975
979
983
980
980
979
979
983
986
987
986
986
986
989
990
993
992
990
992
995
994
999
997
998
996
1000
1004
1004
1005
1004
1005
1009
1012
1013
1016
1014
1016
1019
1024
1024
1026
1024
1029
1031
1035
1039
1037
1038
1036
1040
1044
1042
1044
1043
1044
1043
1051
1051
1049
1043
1040
1041
1039
1037
1032
1023
1024
1021
1019
1015
1011
1003
1002
999
997
994
993
989
986
983
986
986
983
980
979
979
980
976
979
974
974
977
978
978
974
973
974
975
979
978
973
972
972
974
975
977
976
976
974
975
977
980
976
972
971
975
973
972
972
971
971
975
976
975
973
971
972
974
974
975
974
972
972
972
976
976
970
970
969
970
973
975
973
970
971
973
974
974
970
969
970
972
975
975
973
968
967
968
973
971
969
966
965
966
971
971
968
968
966
968
972
972
971
966
967
968
973
973
969
967
967
967
971
971
967
966
965
970
971
971
970
967
967
969
972
971
972
967
964
969
973
971
971
967
966
968
970
970
969
966
967
968
970
970
969
966
965
967
971
970
969
967
967
968
973
972
970
967
966
969
972
970
971
967
970
971
971
969
970
970
969
969
973
972
973
971
969
971
975
974
971
970
970
972
973
974
973
972
970
971
974
974
971
969
969
973
973
974
971
973
972
975
979
977
978
973
971
974
978
978
975
972
968
973
979
981
977
976
979
979
985
988
986
987
983
985
988
988
983
981
978
978
977
978
977
975
972
975
976
981
979
977
976
979
981
980
976
974
976
976
979
981
980
978
980
984
987
989
989
988
992
1002
1008
1014
1020
1030
1047
1071
1099
1127
1154
1179
1199
1226
1253
1272
1278
1269
1245
1209
1170
1129
1092
1061
1027
1008
997
994
995
995
993
992
992
990
986
976
978
976
976
977
974
968
969
969
974
970
968
967
962
967
969
968
966
962
962
966
969
967
965
961
964
964
971
970
964
965
964
966
971
967
972
968
969
971
971
975
972
970
970
973
977
977
978
976
977
980
983
984
986
981
984
986
991
994
995
991
994
998
1005
1007
1007
1005
1007
1012
1016
1017
1017
1017
1014
1021
1026
1028
1029
1028
1029
1033
1036
1038
1037
1035
1036
1038
1041
1040
1038
1031
1030
1028
1028
1026
1022
1017
1014
1011
1010
1004
1001
994
990
990
991
988
983
980
976
978
980
978
974
969
969
970
973
973
970
965
965
966
968
970
967
965
964
964
968
967
967
966
964
966
968
967
964
965
964
967
967
969
969
965
967
968
970
970
969
964
966
969
971
971
971
968
966
969
972
969
967
962
966
968
972
970
966
965
966
965
969
968
966
962
964
964
969
968
967
961
960
967
966
966
961
958
960
959
966
965
963
959
959
959
964
962
960
957
957
960
963
964
963
959
959
957
962
964
961
959
956
961
965
965
961
957
958
959
963
961
962
960
960
960
961
963
962
960
958
962
968
967
964
962
961
964
966
966
965
961
961
962
967
965
964
961
961
963
964
965
965
962
962
965
970
970
967
963
963
965
969
968
963
965
960
963
968
966
967
963
962
964
970
969
966
963
962
962
968
969
968
962
961
966
967
967
967
965
963
968
969
970
968
965
962
966
968
967
966
964
963
965
968
969
966
963
963
966
968
967
967
965
964
966
967
971
970
966
965
968
971
970
967
964
963
964
967
971
973
972
973
977
980
983
982
980
978
982
982
981
978
975
972
973
973
972
969
963
966
969
970
972
971
967
966
970
971
971
971
970
970
970
975
978
975
973
973
975
981
982
984
987
992
1001
1009
1018
1031
1050
1072
1098
1124
1153
1177
1198
1219
1250
1267
1262
1240
1205
1167
1128
1095
1065
1035
1012
1002
998
998
997
993
985
982
980
978
976
973
969
968
968
968
967
963
958
958
960
962
963
962
957
957
960
963
959
956
957
954
954
959
959
960
955
958
959
963
961
963
961
962
963
968
969
963
964
963
967
971
971
968
969
968
971
976
976
975
974
976
980
984
987
983
982
985
986
993
994
991
994
996
999
1005
1007
1006
1006
1010
1013
1019
1018
1019
1020
1021
1024
1027
1031
1030
1030
1030
1035
1037
1035
1032
1031
1029
1028
1024
1023
1018
1010
1009
1008
1008
1002
997
989
986
986
985
979
976
970
967
967
970
970
963
961
961
962
964
961
961
957
956
957
959
959
957
955
955
956
958
959
956
954
954
954
957
957
956
952
953
957
960
960
957
951
950
953
956
958
958
954
954
958
958
960
958
956
955
958
959
961
956
956
954
958
959
960
960
958
957
960
962
958
959
957
959
957
961
961
962
959
958
959
960
962
962
957
960
959
960
960
958
955
957
960
958
959
958
956
956
955
958
960
958
954
956
956
960
958
957
954
954
956
959
958
958
953
954
955
958
958
955
954
955
955
955
958
958
956
954
956
957
958
958
954
951
953
958
957
956
951
951
954
957
958
956
951
952
956
957
959
956
953
956
954
957
958
956
954
952
956
958
958
957
951
952
955
957
960
956
953
955
956
960
959
958
957
956
957
961
961
959
957
956
957
962
962
959
957
957
959
961
963
962
959
956
959
963
962
960
960
959
960
965
965
962
961
961
963
966
964
965
962
961
965
969
970
967
966
963
967
968
970
966
966
965
968
970
968
967
962
965
968
975
974
975
971
970
976
978
981
978
973
975
977
978
975
973
968
966
967
969
967
965
963
964
967
966
968
968
967
965
968
971
971
967
966
968
968
970
972
971
970
970
974
978
979
980
983
991
997
1007
1015
1027
1045
1067
1097
1124
1154
1173
1191
1216
1244
1263
1264
1248
1217
1179
1140
1104
1071
1040
1011
993
986
989
991
990
985
982
981
980
977
972
967
965
966
969
967
966
962
960
965
965
966
964
961
962
964
964
963
962
960
961
964
966
966
967
963
961
965
967
968
966
963
961
966
970
971
968
966
968
971
971
974
974
970
971
973
980
980
980
978
977
980
985
986
985
983
986
990
995
995
997
996
997
1001
1008
1007
1010
1010
1009
1017
1024
1025
1023
1023
1026
1029
1034
1036
1039
1031
1030
1031
1040
1041
1038
1036
1033
1033
1033
1032
1026
1019
1015
1014
1013
1010
1002
997
995
993
993
991
985
981
978
976
979
976
974
971
968
970
969
968
967
964
965
967
970
968
965
962
964
967
968
969
966
965
963
963
967
969
966
965
966
966
971
969
968
965
965
967
968
969
969
966
964
966
969
969
968
968
965
968
970
969
966
964
965
965
968
969
967
966
966
966
969
968
965
963
965
965
968
967
965
965
961
965
965
968
968
964
963
966
966
966
966
964
963
963
969
967
963
965
964
966
967
969
966
965
967
966
970
970
969
968
967
968
971
972
971
968
966
969
969
974
969
967
969
969
974
972
969
966
967
970
971
972
970
968
967
970
971
974
972
967
967
970
972
972
973
970
970
970
973
972
972
970
968
972
975
975
973
971
970
972
973
973
973
969
971
972
971
976
974
971
970
973
974
975
973
972
971
972
975
976
974
972
970
976
975
978
977
973
971
972
978
979
977
974
971
974
979
979
976
975
974
978
981
978
978
975
976
978
980
983
980
978
977
980
985
983
981
978
977
984
986
989
991
988
989
993
996
994
995
991
989
990
992
991
991
985
984
986
985
986
985
981
982
985
987
985
988
982
981
987
989
989
988
985
985
989
996
999
1000
1000
1005
1011
1024
1032
1041
1053
1071
1095
1116
1143
1165
1183
1201
1220
1236
1239
1222
1200
1174
1145
1119
1090
1064
1039
1027
1021
1017
1016
1009
1002
1000
994
993
991
984
980
980
980
981
980
974
975
975
977
979
977
975
974
972
974
976
977
975
975
972
976
975
977
976
975
977
979
979
980
981
977
978
978
983
984
982
980
982
986
991
991
991
990
989
993
1000
999
1001
998
998
1003
1009
1009
1011
1010
1006
1012
1017
1022
1022
1021
1024
1029
1035
1036
1035
1034
1037
1041
1046
1047
1044
1044
1047
1048
1055
1055
1055
1050
1050
1046
1043
1041
1039
1031
1028
1029
1026
1023
1016
1009
1006
1004
1003
998
994
991
986
989
988
987
984
981
978
978
978
981
979
974
973
976
979
977
977
972
973
973
975
978
974
969
969
973
975
972
973
970
973
975
980
975
976
974
973
972
976
977
971
973
968
971
975
977
974
973
972
971
977
976
975
972
971
975
977
975
976
972
971
970
977
978
974
972
968
974
979
975
974
970
970
971
975
976
974
974
972
972
973
974
974
971
973
972
976
975
975
972
970
973
976
974
973
970
970
973
973
975
972
970
969
971
975
974
973
970
967
971
973
973
972
970
970
972
973
974
971
970
969
971
972
972
969
968
966
970
972
971
972
971
970
969
971
973
970
965
969
971
973
974
971
970
969
971
973
972
968
966
968
969
974
973
971
968
965
969
972
970
970
967
967
967
971
972
971
968
966
968
970
973
970
965
965
965
970
971
970
968
967
968
969
972
968
967
968
966
972
970
968
968
966
968
970
972
970
969
967
972
974
973
973
969
970
973
974
973
973
972
972
972
975
972
974
970
965
970
975
977
980
980
982
985
987
987
985
980
982
984
985
984
981
978
977
977
978
978
976
970
970
973
976
980
979
975
974
976
980
978
976
975
974
975
982
983
981
982
984
988
995
1000
1005
1007
1011
1024
1043
1064
1088
1114
1142
1176
1203
1227
1252
1269
1272
1259
1232
1190
1143
1097
1063
1032
1009
1000
994
996
993
993
992
988
984
981
977
976
977
977
974
970
966
969
972
973
970
967
966
969
969
970
970
964
965
969
972
973
971
967
968
969
968
973
972
969
968
971
976
978
976
973
973
977
979
981
980
978
981
982
987
984
984
983
981
986
991
992
994
991
992
997
1002
1003
1005
1004
1006
1012
1017
1020
1019
1020
1019
1026
1030
1034
1033
1032
1038
1040
1045
1047
1047
1043
1046
1049
1053
1050
1049
1044
1041
1043
1039
1038
1032
1027
1019
1018
1017
1012
1007
1001
994
991
993
989
985
981
977
976
979
975
972
967
965
966
969
970
968
964
962
966
965
967
964
961
960
961
963
962
960
959
960
963
965
964
963
958
959
961
964
963
964
961
961
962
964
965
963
959
960
965
965
965
964
960
962
962
963
963
962
962
961
960
965
963
965
960
960
963
964
966
961
960
960
962
964
964
963
960
960
961
961
963
962
960
959
961
963
966
963
958
959
962
964
966
962
959
960
962
963
962
961
959
960
963
965
966
965
962
963
962
966
968
966
962
962
963
964
967
962
961
961
963
966
966
965
967
961
963
964
966
966
963
964
967
970
968
965
961
964
966
968
971
966
962
962
967
968
968
966
964
964
967
968
970
968
964
965
966
969
970
967
967
965
967
972
970
966
967
967
969
971
973
971
968
969
972
973
974
973
969
969
973
972
973
971
967
968
970
975
973
972
968
967
969
972
969
970
967
967
968
972
971
972
969
967
970
973
974
971
970
972
973
974
975
974
972
974
972
972
974
971
970
969
968
971
975
978
981
982
985
988
988
986
984
985
987
986
983
984
978
977
978
979
979
974
968
971
974
976
976
973
970
972
972
977
979
976
971
973
976
980
982
978
981
978
983
990
998
1000
1004
1011
1024
1046
1071
1094
1117
1142
1171
1196
1216
1240
1258
1261
1251
1229
1193
1149
1107
1068
1045
1023
1007
995
991
989
990
992
987
980
974
971
970
971
973
971
966
963
964
966
966
964
960
959
962
964
965
965
961
962
962
966
968
965
962
963
966
967
969
970
964
963
966
968
972
968
969
965
970
971
974
973
972
974
975
978
979
977
975
976
982
983
984
984
984
985
986
991
996
997
996
998
1000
1006
1009
1008
1009
1010
1013
1017
1021
1020
1020
1023
1028
1030
1031
1032
1032
1033
1036
1039
1040
1040
1037
1036
1035
1034
1032
1026
1022
1015
1010
1012
1008
999
997
991
988
987
983
978
973
970
971
971
969
967
962
960
960
962
961
958
954
953
953
952
956
953
948
948
948
953
955
949
946
946
950
952
954
949
947
943
948
950
949
946
944
944
946
950
947
944
945
943
946
950
948
946
946
941
945
946
946
944
940
939
943
945
945
943
941
939
943
943
944
944
940
939
942
945
942
942
939
939
939
945
944
942
938
937
937
941
940
938
934
932
932
935
940
937
934
931
935
936
938
935
930
929
931
935
936
935
932
933
934
935
935
933
929
927
929
931
932
932
926
929
932
933
934
932
931
930
932
934
936
934
933
934
935
936
934
932
931
932
933
936
935
931
929
931
930
932
931
931
929
931
931
932
930
928
930
927
929
931
928
927
925
926
927
930
931
929
926
928
931
932
931
929
927
927
929
934
934
932
929
927
931
932
933
929
929
931
933
932
938
934
930
930
935
938
937
937
936
932
937
938
938
937
935
933
936
939
942
940
937
935
938
939
941
940
938
938
940
942
947
944
942
940
943
945
944
945
941
939
941
947
945
943
945
943
943
948
950
948
941
942
943
942
945
942
942
941
945
952
951
952
948
949
955
958
956
954
951
950
953
954
955
950
943
941
943
947
946
945
940
939
943
944
945
946
944
942
943
945
945
944
941
942
943
945
946
947
946
946
951
956
962
965
967
971
985
1007
1028
1051
1075
1104
1136
1162
1189
1212
1232
1243
1239
1219
1186
1141
1098
1056
1021
992
972
958
954
957
958
958
955
951
943
941
940
939
940
937
935
933
931
934
935
933
930
928
930
933
933
933
928
927
931
935
937
935
929
929
934
936
937
937
934
935
937
940
938
938
935
936
937
942
943
943
940
938
940
945
946
947
945
947
949
953
954
956
955
958
961
966
962
966
964
965
969
974
976
975
978
979
983
990
993
993
993
993
999
1003
1007
1008
1009
1010
1014
1019
1020
1017
1017
1015
1018
1017
1017
1011
1008
1003
1002
1000
997
989
983
977
976
977
974
967
962
962
959
960
959
957
948
948
948
948
948
948
944
946
946
946
950
947
945
943
946
949
948
944
941
943
947
945
948
944
945
944
946
948
946
947
946
943
945
947
949
949
947
946
949
953
955
952
950
948
949
952
955
951
949
949
951
954
953
953
951
949
949
955
953
953
947
949
954
957
953
952
949
951
952
954
954
955
952
950
953
955
957
956
952
951
954
955
956
958
954
953
953
958
959
958
955
956
956
962
959
958
956
954
957
960
961
962
958
958
958
963
964
965
961
959
962
962
963
961
961
960
961
968
966
967
963
963
965
967
964
966
964
962
966
967
968
967
965
964
966
969
970
968
965
965
969
971
972
972
970
971
970
976
974
972
969
969
971
972
978
976
975
974
977
979
977
976
974
973
977
981
980
978
976
975
978
980
981
978
977
975
976
980
981
