970
980
979
978
978
979
981
986
989
989
987
987
984
992
995
994
991
990
992
995
997
994
993
988
988
990
993
992
988
985
986
988
986
985
980
975
977
978
974
972
972
968
972
973
972
973
966
965
968
971
974
972
970
969
971
972
975
973
970
971
969
972
975
973
972
972
973
973
976
979
978
979
981
982
989
992
997
1002
1009
1023
1042
1068
1092
1121
1156
1190
1226
1253
1282
1309
1334
1348
1343
1324
1286
1240
1188
1145
1101
1059
1028
1012
1005
1003
1004
1000
992
987
983
981
982
977
973
968
967
971
970
967
962
964
965
963
967
965
962
962
964
966
967
964
962
961
962
964
965
967
963
963
965
967
967
964
963
964
967
967
970
970
969
968
969
971
971
971
968
971
971
977
978
979
975
976
979
982
984
987
983
986
991
994
994
996
997
997
999
1004
1011
1011
1010
1012
1017
1022
1026
1029
1027
1030
1033
1037
1039
1040
1039
1042
1044
1048
1047
1042
1043
1039
1039
1038
1033
1026
1019
1016
1017
1014
1013
1008
1002
997
995
993
991
985
979
976
978
978
978
973
968
965
967
969
969
967
962
964
963
966
967
967
965
963
966
967
967
966
963
962
963
967
966
965
961
959
960
964
967
965
963
960
963
966
966
968
961
961
962
968
968
966
963
963
965
966
969
965
963
964
965
964
967
967
961
959
962
965
970
965
960
959
964
963
964
963
960
960
963
965
963
964
961
959
959
961
965
964
961
959
957
964
964
962
959
959
960
961
960
960
959
956
961
964
966
964
958
957
960
962
963
963
958
955
959
960
962
961
958
956
956
959
960
960
956
955
957
963
966
962
961
958
960
963
962
960
959
956
960
963
960
961
956
958
959
961
963
960
959
957
960
962
962
962
961
961
960
963
962
962
959
958
961
963
964
964
961
960
960
965
966
962
961
962
962
965
967
966
963
964
965
967
966
965
964
963
965
967
969
968
964
963
965
967
968
965
965
967
968
969
969
969
963
965
968
971
971
970
966
963
967
973
975
971
971
971
974
974
978
977
975
975
978
982
983
984
984
981
982
983
988
987
986
987
991
993
995
995
992
992
988
991
988
991
985
983
987
990
988
982
980
977
980
980
978
974
976
975
976
976
974
974
972
972
974
978
978
974
972
973
973
976
979
978
979
975
978
979
980
978
977
977
980
982
985
985
981
983
987
994
1003
1006
1011
1020
1039
1068
1102
1138
1172
1209
1246
1282
1316
1347
1364
1364
1345
1310
1256
1194
1143
1095
1054
1026
1007
1001
998
998
999
999
993
988
980
980
979
979
979
975
971
967
969
970
970
968
966
965
968
970
971
969
967
967
968
970
971
969
965
966
966
971
972
972
968
968
970
973
974
975
974
972
974
977
979
977
975
974
981
983
985
985
984
982
986
989
990
989
992
992
990
998
999
1003
1004
1005
1007
1014
1018
1020
1020
1018
1026
1030
1033
1034
1034
1034
1038
1042
1045
1046
1046
1048
1049
1052
1051
1048
1045
1041
1040
1040
1037
1030
1024
1019
1015
1015
1009
1008
1001
996
995
995
993
985
980
980
980
983
982
979
974
971
972
977
977
975
971
965
970
972
973
974
969
968
970
973
975
972
964
967
971
973
973
972
969
970
973
976
974
975
971
968
974
973
974
974
972
972
973
975
975
971
971
971
973
976
978
976
972
971
971
975
975
972
970
966
967
974
976
973
970
969
969
972
972
970
967
966
963
970
970
969
966
964
964
968
965
965
963
962
960
965
965
965
962
961
965
965
968
963
959
960
960
962
966
962
961
962
963
967
967
966
965
962
964
964
967
966
965
963
966
968
968
967
963
961
964
967
968
965
960
962
963
966
966
961
963
961
962
964
967
966
964
962
962
963
967
962
963
959
962
966
965
964
962
962
964
967
967
963
963
962
965
970
968
968
964
963
966
967
966
967
963
964
965
964
967
966
964
965
963
967
969
966
964
964
966
966
968
966
964
963
963
964
966
964
965
965
967
970
966
967
968
965
969
973
972
973
974
975
976
982
981
979
977
979
980
985
985
983
983
984
985
988
989
984
983
982
985
985
986
984
981
979
978
981
979
977
972
967
970
972
974
973
971
968
970
970
971
971
969
969
966
973
975
970
969
969
967
969
971
970
969
971
974
975
976
976
972
974
976
979
987
993
993
997
1007
1023
1045
1071
1103
1137
1176
1215
1246
1280
1312
1339
1355
1353
1326
1283
1233
1173
1125
1082
1044
1015
1001
995
996
997
993
988
979
975
972
970
969
967
961
960
961
962
962
962
959
958
958
962
965
963
957
956
960
962
964
962
958
957
960
961
962
961
957
958
961
963
965
963
962
960
962
968
965
964
965
965
968
973
973
971
970
969
973
978
980
978
978
978
982
987
992
990
989
992
997
1003
1010
1010
1010
1011
1014
1020
1022
1023
1022
1028
1031
1037
1039
1040
1039
1044
1046
1052
1047
1048
1044
1042
1042
1042
1039
1033
1027
1021
1018
1017
1010
1005
998
994
993
991
990
984
978
975
973
974
972
971
969
967
969
969
969
963
964
961
964
966
965
964
963
964
963
967
966
963
963
962
961
965
966
965
960
961
964
964
965
964
962
960
962
966
968
966
964
962
966
968
967
967
967
965
966
968
966
967
965
963
960
969
965
967
963
959
959
965
967
965
960
958
962
966
964
962
959
960
963
966
966
964
961
960
962
966
969
966
962
962
961
967
962
961
962
959
961
963
963
962
961
958
962
965
963
961
958
959
960
964
963
963
958
957
964
966
965
965
958
960
963
966
966
964
961
962
963
963
964
964
963
961
965
967
964
967
965
965
963
966
964
965
959
961
964
967
968
965
963
963
964
967
964
965
962
962
965
967
967
967
963
961
965
967
967
966
962
962
965
968
968
966
961
959
964
967
968
965
964
964
964
970
970
966
959
964
965
967
966
965
961
962
965
967
968
965
963
962
967
968
968
967
961
962
964
968
971
968
966
965
967
971
972
971
971
971
972
976
976
976
975
977
980
982
982
983
982
983
985
987
988
990
989
988
991
988
987
985
982
981
984
984
984
980
974
975
972
974
972
972
969
967
965
968
967
964
966
967
970
971
972
970
968
972
973
974
975
973
971
972
973
974
976
973
973
974
977
976
978
979
976
979
980
985
989
994
996
1001
1013
1031
1057
1083
1115
1151
1192
1230
1264
1294
1328
1358
1376
1377
1356
1308
1248
1187
1136
1090
1053
1019
1000
994
993
999
996
993
986
980
979
976
976
974
969
969
968
969
970
968
966
965
965
968
970
966
963
964
967
968
969
967
965
965
966
972
968
970
966
966
969
972
971
968
967
967
969
975
972
970
968
970
974
977
978
977
977
978
983
988
986
986
986
990
993
999
998
999
998
1000
1004
1006
1010
1012
1014
1016
1020
1024
1031
1035
1033
1036
1039
1047
1048
1052
1052
1054
1058
1063
1065
1063
1063
1063
1061
1059
1056
1054
1047
1042
1040
1037
1034
1027
1019
1016
1010
1012
1007
1002
994
992
992
989
988
986
981
981
980
983
984
980
979
978
980
981
980
980
975
975
977
979
980
979
976
975
975
978
979
980
975
976
976
979
980
978
977
975
977
981
983
982
977
976
981
980
982
981
977
976
979
980
980
978
976
976
979
982
980
983
978
979
979
982
979
980
976
976
978
981
983
979
978
977
979
983
981
978
975
974
975
980
980
980
975
975
977
980
980
977
975
976
975
978
980
978
975
974
975
977
977
975
973
973
974
975
974
973
972
973
976
979
978
976
976
974
976
977
979
978
971
973
975
977
977
976
973
970
975
975
977
976
973
974
975
976
976
977
972
972
973
978
976
974
972
971
974
979
976
977
970
970
973
978
977
977
972
970
974
973
976
974
972
973
974
978
977
976
976
974
976
979
978
978
976
973
973
978
978
979
976
975
976
980
980
976
976
975
976
978
979
974
976
976
976
977
979
977
975
976
977
978
978
978
976
976
978
982
984
982
978
979
982
984
987
986
988
986
991
994
994
991
991
991
995
996
996
993
992
995
1001
1006
1002
999
994
990
994
994
998
994
991
989
988
992
990
985
983
984
982
982
983
981
978
977
980
981
983
982
978
977
979
982
983
980
979
977
981
984
986
981
977
978
978
983
986
986
979
981
984
985
986
984
985
985
987
997
1001
1004
1006
1012
1023
1047
1073
1104
1137
1173
1214
1251
1287
1322
1351
1379
1388
1375
1342
1291
1232
1174
1123
1079
1037
1011
995
996
1000
1004
1001
995
990
988
987
987
983
977
975
974
972
971
971
971
968
970
970
973
972
973
967
969
971
973
975
972
972
970
971
971
972
972
968
968
972
975
977
975
972
973
976
981
980
977
975
975
981
982
982
981
980
982
988
989
990
986
989
988
989
995
999
999
1000
1003
1006
1011
1014
1014
1011
1016
1022
1025
1028
1030
1028
1031
1036
1041
1042
1041
1040
1043
1048
1053
1056
1054
1053
1050
1054
1057
1056
1053
1048
1044
1039
1039
1033
1026
1020
1017
1015
1012
1009
1004
998
996
993
995
995
988
983
981
981
983
982
977
976
977
974
976
977
975
973
970
972
975
975
973
972
972
973
978
977
975
973
972
975
978
977
974
967
971
973
977
978
976
972
971
976
976
977
975
970
972
976
978
977
973
973
973
975
975
977
975
971
973
975
975
976
975
972
972
975
978
977
976
971
972
973
974
977
973
972
971
974
974
976
972
970
966
972
975
973
972
971
967
973
973
973
971
969
967
970
971
974
972
969
967
968
972
973
971
968
971
969
977
972
974
973
971
974
976
979
975
974
971
975
976
975
978
975
972
975
976
978
978
975
974
976
978
977
974
975
972
974
979
975
974
974
971
974
978
975
975
973
970
975
977
978
975
969
971
972
976
979
976
972
973
977
976
978
976
975
977
977
977
980
978
977
974
978
978
980
978
974
975
978
980
982
976
977
977
978
979
977
975
971
975
976
979
976
978
978
977
980
983
985
980
979
979
978
982
982
980
978
978
979
982
982
981
978
978
978
983
984
984
982
982
984
991
993
994
994
996
994
998
1003
1001
996
999
999
1003
1005
1004
1003
1003
1004
1005
1005
1002
999
995
999
1000
1000
997
994
990
993
992
991
987
982
979
984
989
985
983
982
983
983
986
987
984
984
985
985
989
986
985
986
984
985
988
989
988
985
986
989
992
991
990
991
994
995
998
1002
1003
1007
1012
1019
1029
1045
1064
1091
1125
1161
1198
1232
1266
1297
1332
1365
1385
1384
1361
1319
1266
1215
1167
1117
1072
1035
1015
1011
1013
1011
1009
1004
1000
997
998
991
989
984
983
983
985
983
980
976
977
978
979
978
977
975
974
978
980
979
978
973
976
978
983
983
977
974
977
981
982
983
981
979
979
982
984
985
982
983
982
985
988
990
987
984
986
988
993
991
992
989
988
993
996
997
998
997
1000
1004
1010
1014
1015
1013
1011
1020
1026
1026
1028
1028
1031
1036
1039
1045
1042
1044
1048
1051
1055
1057
1059
1058
1059
1064
1068
1072
1068
1066
1066
1066
1065
1061
1057
1053
1048
1046
1043
1038
1033
1025
1022
1016
1013
1011
1008
1000
999
998
997
995
990
985
984
985
985
984
985
982
981
983
982
984
981
978
975
980
979
981
978
977
973
978
979
980
979
979
975
978
980
981
979
978
980
982
980
983
981
977
976
977
981
980
979
978
977
982
981
979
980
976
976
981
980
981
981
977
977
976
981
979
979
977
975
978
981
980
978
977
977
980
979
981
979
974
976
974
978
977
976
975
974
976
979
979
977
973
974
976
980
976
977
975
974
975
978
979
975
974
972
973
975
977
975
974
975
979
983
980
977
974
975
977
980
978
976
973
974
976
983
978
978
975
973
978
979
978
972
973
973
977
980
980
976
974
973
976
980
981
979
974
974
975
977
980
979
977
975
978
981
979
979
978
977
978
982
980
978
975
976
977
981
980
979
976
976
979
982
984
982
978
979
978
981
984
980
979
978
981
984
984
983
981
978
981
983
982
984
982
981
981
984
986
984
983
980
982
983
984
983
981
981
982
986
986
985
981
981
982
988
984
983
981
983
985
990
989
987
985
987
990
992
992
990
991
992
997
1001
1001
998
999
999
1000
1005
1007
1005
1002
1002
1007
1012
1011
1008
1006
1005
1005
1007
1006
1006
1004
1003
1004
1003
1001
1000
997
997
997
996
995
990
988
989
990
994
990
988
985
987
988
989
989
989
987
988
990
992
992
989
986
987
989
993
995
990
988
989
994
992
995
995
993
993
997
1005
1008
1015
1017
1027
1041
1064
1088
1118
1149
1186
1228
1264
1301
1335
1363
1384
1391
1375
1337
1281
1219
1164
1115
1073
1038
1013
1004
1006
1010
1014
1009
1004
996
993
991
991
988
986
985
983
984
988
983
982
979
982
982
982
981
980
978
980
983
988
987
981
980
979
980
984
982
984
979
978
982
988
985
985
982
983
985
990
990
986
983
984
991
994
994
994
992
993
996
1001
1003
1001
998
998
1003
1009
1012
1009
1010
1011
1018
1024
1026
1028
1027
1029
1035
1042
1042
1042
1044
1048
1054
1058
1061
1063
1060
1066
1070
1075
1075
1074
1073
1072
1074
1074
1070
1064
1058
1052
1052
1051
1044
1034
1029
1025
1019
1018
1011
1006
1002
996
996
995
995
992
990
989
991
990
990
985
987
986
986
989
987
987
983
985
984
985
987
985
982
984
986
986
989
986
983
981
983
990
987
987
982
981
990
990
989
989
986
984
984
987
985
985
982
983
986
989
989
986
984
981
983
987
987
984
983
986
987
991
988
986
980
982
986
987
987
984
980
980
984
985
984
984
980
981
985
987
986
984
980
982
983
986
985
981
979
978
979
985
985
983
980
980
981
982
981
982
979
978
978
982
981
976
972
975
976
977
979
979
976
973
978
982
978
979
977
974
978
977
981
979
975
976
979
979
978
975
976
974
979
981
981
977
978
978
979
984
979
977
973
974
976
978
976
974
975
973
974
977
980
979
977
978
979
982
978
979
975
977
979
980
981
980
973
977
977
981
978
978
976
978
980
982
981
978
975
975
980
985
985
984
980
978
982
984
981
979
973
972
978
980
981
979
975
976
976
984
980
981
976
979
986
989
989
988
987
987
991
994
993
992
993
989
995
1000
1001
999
996
997
998
1000
997
993
992
992
996
997
996
987
985
982
988
990
986
981
977
974
976
981
981
977
975
975
979
980
978
975
971
973
977
979
976
977
975
977
981
981
981
982
979
980
982
984
986
983
982
984
987
992
996
999
1004
1010
1023
1046
1076
1107
1145
1187
1230
1271
1310
1345
1371
1387
1380
1350
1299
1235
1169
1106
1056
1019
995
989
992
995
996
996
990
983
978
975
975
975
972
969
967
965
968
970
971
965
964
965
966
969
968
965
962
963
966
968
970
968
964
964
965
971
972
970
970
967
971
974
975
975
971
969
973
976
980
976
974
977
979
983
983
985
985
986
988
994
994
995
994
994
1001
1005
1006
1006
1007
1006
1014
1022
1023
1024
1023
1028
1033
1038
1039
1039
1037
1040
1046
1050
1050
1050
1046
1045
1047
1048
1044
1039
1032
1026
1023
1021
1017
1011
1005
1001
1000
998
993
988
983
981
979
980
978
973
971
971
968
973
970
967
965
966
966
972
969
965
962
962
963
970
966
966
965
963
966
968
970
966
966
964
968
969
969
969
968
966
968
970
971
969
965
966
969
969
970
970
965
965
968
972
971
970
967
968
970
971
972
969
964
964
967
970
968
965
960
960
966
968
969
965
963
962
965
966
964
963
960
961
960
964
963
960
956
957
958
960
961
958
956
957
959
962
961
959
958
955
955
959
962
957
954
952
953
960
960
959
957
955
958
960
958
957
957
953
957
958
958
956
954
954
959
963
961
957
955
955
958
961
960
958
955
956
959
962
961
963
956
959
962
964
963
956
960
960
963
964
964
962
959
962
961
966
965
965
958
961
963
967
965
963
963
963
965
967
968
964
965
965
968
971
967
965
966
964
968
968
970
969
966
967
968
971
969
964
964
967
967
972
970
969
967
961
965
969
966
966
964
965
969
973
972
970
967
971
977
976
980
977
975
978
982
981
982
982
983
981
987
989
986
988
988
985
991
993
986
985
982
985
987
989
989
987
980
982
981
984
981
974
973
972
973
975
976
971
968
970
973
971
977
970
970
970
970
972
975
975
973
974
975
978
978
977
974
972
975
980
981
978
977
978
980
984
989
994
995
1000
1009
1024
1047
1075
1103
1139
1177
1219
1256
1291
1322
1353
1372
1367
1342
1294
1233
1171
1119
1075
1035
1011
998
994
997
999
996
989
981
976
977
976
976
971
971
968
972
972
969
967
967
966
967
970
969
968
966
965
969
972
973
972
966
964
968
971
972
972
968
967
968
972
975
973
968
969
971
980
979
979
974
977
976
982
983
981
981
980
982
988
990
991
988
991
997
1001
1002
1006
1003
1008
1011
1015
1019
1020
1024
1026
1031
1035
1039
1036
1039
1044
1048
1052
1053
1053
1054
1054
1057
1061
1059
1055
1050
1050
1050
1045
1042
1037
1031
1024
1022
1022
1016
1011
1005
1002
1001
999
997
992
984
984
983
984
982
978
975
973
978
978
977
974
973
974
977
976
973
972
975
975
978
979
978
975
973
974
975
977
978
978
975
974
976
980
980
977
973
974
974
980
977
972
972
972
974
980
977
976
976
974
974
978
979
976
975
975
