974
978
978
974
971
974
974
975
976
976
973
970
971
977
974
974
972
972
973
976
975
974
970
971
970
976
977
974
972
971
974
976
973
973
972
971
973
976
973
974
973
972
976
976
974
973
971
973
975
978
975
974
972
971
973
974
976
975
972
969
971
974
975
974
968
969
974
978
976
976
971
971
976
979
977
974
974
973
971
976
976
975
970
972
975
976
976
973
974
975
977
980
975
971
972
974
977
979
978
976
975
974
975
979
975
976
974
970
974
979
977
975
972
972
975
979
979
976
971
971
976
979
978
974
971
971
975
977
978
975
975
975
978
981
978
976
975
972
977
981
978
976
975
976
976
983
981
980
976
976
980
984
985
984
980
978
981
985
986
984
982
983
987
992
993
991
989
989
994
997
996
993
994
995
999
1001
1002
1000
998
999
1005
1006
1006
998
998
996
1000
1003
1004
1002
1000
999
1001
1001
999
996
990
989
990
993
991
989
984
986
988
988
989
985
984
984
986
989
988
987
987
984
989
988
990
988
989
987
986
988
991
986
985
988
990
994
995
994
994
997
999
1007
1011
1018
1023
1033
1059
1087
1125
1162
1198
1235
1273
1311
1344
1371
1389
1389
1370
1339
1291
1231
1176
1121
1077
1041
1015
1003
1001
1003
1007
1008
1003
998
994
990
989
989
985
981
981
980
980
982
979
978
977
980
980
983
979
975
975
973
976
979
979
978
977
977
979
984
981
981
980
981
978
982
982
983
984
982
987
988
989
986
984
980
985
993
993
992
990
992
996
1000
1000
1000
1000
1003
1005
1010
1010
1008
1011
1013
1017
1022
1023
1023
1023
1028
1034
1038
1040
1043
1041
1042
1046
1050
1053
1053
1056
1056
1061
1067
1062
1060
1059
1059
1060
1063
1058
1050
1046
1044
1041
1039
1035
1028
1024
1021
1018
1018
1013
1007
1001
999
1000
1004
1000
995
992
990
993
996
991
989
986
986
991
991
989
988
986
986
986
989
987
989
985
983
984
987
983
985
985
982
988
989
989
985
984
982
987
992
990
990
988
991
992
992
991
987
987
987
989
996
994
991
989
990
994
997
995
993
990
989
991
994
994
989
991
989
991
990
990
991
988
986
989
990
991
987
987
988
987
991
989
983
986
986
987
989
987
984
984
979
985
987
988
981
981
980
984
988
984
982
980
982
981
988
985
985
982
978
982
986
985
983
979
980
983
987
982
981
981
980
982
987
986
981
979
982
984
988
985
979
980
979
981
983
981
983
981
979
979
984
982
980
979
979
981
981
983
980
983
980
983
986
982
981
978
977
982
982
983
981
979
979
980
985
983
982
982
980
980
984
984
982
979
979
982
983
984
983
980
982
985
986
982
979
978
979
982
985
984
981
979
981
983
982
983
984
982
981
980
986
985
983
982
982
987
988
986
984
984
983
987
991
990
989
987
987
990
997
998
998
994
997
999
1000
1002
999
996
998
999
1007
1006
1006
1003
1002
999
1003
1002
1003
1000
1001
1000
1001
1001
995
992
990
992
989
991
988
982
983
988
990
989
982
980
984
987
988
988
986
985
981
984
988
986
986
984
986
987
988
989
988
985
984
991
990
990
992
988
991
994
999
1001
999
1006
1011
1019
1034
1055
1078
1105
1138
1178
1220
1255
1289
1318
1350
1376
1381
1363
1330
1281
1225
1174
1130
1085
1047
1021
1009
1012
1013
1010
1004
996
993
992
993
988
985
982
980
984
986
981
977
976
977
979
979
978
975
973
975
978
977
978
979
976
974
979
982
978
972
977
979
980
983
982
980
976
978
983
985
985
983
981
981
985
990
987
984
987
988
991
995
996
994
993
993
998
1002
1002
999
1001
1003
1010
1014
1016
1014
1013
1018
1021
1028
1028
1029
1031
1031
1037
1045
1046
1046
1045
1049
1050
1057
1059
1057
1056
1057
1062
1066
1061
1061
1058
1053
1053
1053
1049
1040
1033
1030
1029
1029
1025
1016
1010
1008
1006
1006
1002
999
991
989
989
992
990
988
984
983
984
983
985
980
977
979
980
981
980
979
979
977
979
981
981
980
978
973
978
980
980
978
973
973
977
980
978
977
977
977
976
978
978
975
974
975
978
981
980
980
978
975
978
982
979
979
978
977
979
980
982
978
977
975
978
980
979
978
976
974
978
983
981
978
979
978
981
984
979
978
976
975
978
984
980
978
973
974
976
976
978
975
974
973
978
981
979
975
976
978
978
981
979
977
971
972
977
981
980
977
974
971
975
978
979
974
971
971
973
978
977
975
972
969
973
976
976
973
970
970
971
977
975
974
970
971
973
977
975
973
970
973
977
977
980
974
972
972
974
978
978
973
969
972
971
977
978
977
973
973
975
978
979
976
973
973
974
974
974
973
972
972
973
976
974
975
975
974
976
980
979
975
971
972
976
977
979
977
974
974
976
977
976
978
976
976
978
980
979
977
976
972
977
979
977
977
973
975
977
978
976
978
977
976
979
980
980
977
975
975
978
983
980
980
977
978
980
983
983
982
981
984
988
992
994
993
990
991
993
996
995
994
995
994
996
1003
1000
1000
1000
999
999
1001
998
996
996
996
997
1000
998
990
987
987
990
993
987
984
981
980
983
984
984
981
978
977
978
981
981
980
977
978
981
988
986
981
978
982
985
987
986
986
983
984
987
992
990
987
986
988
992
998
999
1001
1007
1013
1021
1039
1061
1087
1118
1151
1195
1237
1273
1307
1341
1372
1384
1372
1331
1274
1210
1154
1105
1068
1037
1013
1008
1008
1009
1012
1005
999
997
992
990
989
986
983
982
980
979
982
981
979
977
977
978
978
979
973
975
974
979
983
979
978
976
976
979
985
983
981
977
978
979
980
983
983
981
980
983
987
987
987
986
987
989
995
992
991
991
993
995
998
1001
1003
1001
1003
1007
1014
1013
1016
1018
1018
1023
1029
1033
1032
1029
1035
1041
1045
1049
1051
1051
1052
1056
1061
1063
1063
1063
1066
1067
1071
1069
1065
1060
1057
1054
1053
1048
1041
1036
1033
1029
1028
1022
1014
1010
1005
1002
1003
998
993
988
986
989
990
986
985
976
980
983
986
984
983
980
978
979
984
983
984
977
978
979
982
983
980
976
975
978
980
981
980
978
978
981
985
982
981
980
978
982
983
983
982
980
980
983
984
983
978
979
979
982
983
983
979
980
978
982
982
983
979
980
979
977
982
982
979
978
981
981
987
980
979
979
976
979
982
980
979
976
978
979
980
982
977
978
978
980
981
979
978
977
975
977
979
980
975
975
977
980
981
981
980
976
976
978
981
982
973
971
974
975
978
980
980
975
977
978
979
981
977
976
974
976
975
976
977
975
973
976
979
976
975
971
972
975
978
977
977
972
975
977
979
978
976
975
975
979
979
978
979
978
977
978
979
979
975
975
976
977
980
979
979
976
974
978
978
977
977
974
974
975
979
981
978
977
977
977
979
980
978
974
976
980
982
982
978
977
976
979
981
983
981
976
979
982
985
983
980
980
979
981
985
984
984
981
980
983
988
990
987
980
985
988
993
996
994
991
991
994
1001
1001
999
996
995
999
1002
1001
997
995
993
996
1000
999
997
995
995
998
999
994
992
990
990
987
991
988
984
980
980
983
988
985
984
983
982
984
985
986
983
982
983
985
989
989
987
986
986
986
991
990
988
989
987
990
994
995
997
999
1002
1012
1022
1030
1045
1068
1103
1143
1184
1221
1257
1294
1329
1361
1380
1374
1349
1305
1248
1190
1139
1091
1047
1022
1008
1010
1012
1013
1009
999
996
993
992
989
984
981
977
978
981
982
978
978
974
977
981
981
980
975
975
977
980
975
976
974
973
978
981
979
980
977
978
980
985
986
980
981
981
985
987
989
989
988
987
991
995
994
991
989
994
1001
1004
1004
1001
1001
1005
1010
1014
1018
1015
1016
1019
1024
1028
1031
1030
1034
1037
1044
1048
1053
1051
1053
1056
1063
1067
1069
1067
1066
1071
1073
1077
1075
1070
1068
1063
1063
1059
1054
1048
1040
1038
1035
1032
1026
1021
1015
1012
1010
1007
1004
1000
994
994
995
995
994
991
986
986
986
992
987
989
985
983
985
992
989
985
985
983
987
991
990
989
986
984
988
990
992
987
984
987
988
992
989
985
983
983
986
987
991
986
983
985
987
991
989
987
983
983
988
987
987
984
982
983
987
989
987
986
982
984
983
985
981
980
983
981
986
987
988
986
982
981
982
989
987
982
980
980
983
983
984
980
979
979
981
985
983
983
979
977
980
986
984
981
981
979
980
983
984
980
979
975
981
983
982
981
975
977
978
980
980
978
977
975
977
982
982
980
977
976
975
981
980
979
976
975
976
979
978
980
976
977
978
981
982
979
975
975
977
984
982
980
974
973
977
982
979
980
977
977
979
981
980
980
975
975
980
985
980
978
976
974
979
984
980
981
979
979
983
983
981
977
973
975
980
985
984
979
978
979
978
982
985
983
978
979
979
982
984
982
979
981
979
985
985
984
982
981
980
986
990
991
989
986
992
998
997
995
995
993
994
997
999
1003
999
998
994
999
998
996
995
991
993
998
997
993
989
984
986
987
985
984
979
981
982
985
983
982
974
978
981
983
984
980
975
978
979
983
984
981
981
979
981
985
984
982
982
982
985
989
988
989
989
990
995
1002
1010
1014
1023
1040
1071
1107
1145
1183
1219
1259
1302
1341
1374
1396
1398
1380
1345
1297
1235
1174
1116
1071
1034
1017
1008
1005
1003
1003
1004
1003
999
992
988
980
984
986
983
979
975
975
978
982
980
977
970
971
975
977
975
977
973
972
974
977
976
974
971
975
975
979
978
975
975
974
980
983
983
982
977
978
982
987
987
984
983
982
989
992
992
991
992
990
994
1000
1000
1001
999
1002
1006
1011
1014
1015
1013
1022
1024
1029
1031
1031
1032
1035
1039
1045
1047
1045
1046
1052
1055
1061
1064
1061
1064
1061
1066
1070
1069
1062
1062
1059
1057
1055
1050
1044
1037
1033
1030
1027
1020
1017
1008
1008
1005
1008
1002
997
994
991
994
992
992
988
986
985
986
989
986
985
981
982
983
986
983
981
980
980
983
985
982
982
979
981
979
984
982
982
978
979
979
982
983
982
982
982
984
987
985
985
983
985
988
988
986
985
983
984
987
988
987
984
982
982
983
986
984
983
981
982
983
988
986
984
982
981
976
981
982
979
977
978
981
979
981
977
978
976
977
977
979
976
974
973
974
977
974
974
974
974
977
979
979
976
975
974
976
979
977
975
975
973
974
975
978
975
972
971
977
978
979
975
973
975
975
978
981
977
973
972
977
978
982
979
976
973
978
977
978
977
974
973
977
982
979
978
977
973
978
980
977
975
973
974
976
981
981
977
973
973
975
977
980
979
976
976
978
978
978
976
974
974
977
977
977
976
974
977
977
981
976
978
974
973
975
976
978
975
975
976
977
979
978
976
976
976
978
978
978
977
974
974
976
979
975
975
973
973
976
979
980
978
975
974
978
981
982
977
973
975
979
981
983
977
977
979
984
986
986
984
982
984
983
987
992
991
986
989
992
993
996
993
994
991
995
999
999
998
995
995
999
1001
996
992
990
992
993
997
996
991
991
990
991
992
990
986
984
984
983
982
981
979
976
975
978
981
980
977
977
977
980
982
981
975
975
977
981
982
984
980
979
978
981
987
985
982
981
980
984
985
987
986
981
986
988
992
993
996
997
1004
1009
1018
1030
1052
1072
1104
1139
1174
1209
1241
1272
1307
1343
1373
1381
1365
1336
1288
1238
1188
1142
1095
1058
1030
1015
1009
1009
1006
1003
1001
994
993
988
987
980
978
978
980
979
972
971
969
975
975
974
971
969
970
973
977
975
973
970
970
971
977
977
975
972
973
975
978
977
976
974
975
976
981
979
978
977
977
979
984
982
982
981
983
984
989
986
986
985
987
990
994
997
994
995
996
1000
1005
1006
1006
1007
1011
1014
1018
1021
1022
1020
1022
1028
1035
1036
1034
1035
1040
1045
1052
1055
1053
1052
1055
1060
1064
1065
1064
1058
1058
1063
1063
1061
1052
1048
1042
1038
1039
1032
1028
1021
1016
1015
1014
1006
1004
998
995
996
998
993
989
985
982
984
986
983
979
977
974
977
979
979
977
975
973
975
980
978
975
973
975
976
978
975
974
973
969
974
979
977
974
973
974
974
978
974
973
972
972
974
974
975
975
973
974
974
976
977
977
973
973
975
978
978
974
976
975
974
979
979
979
976
974
975
977
979
977
974
974
975
978
977
976
975
974
974
978
978
975
972
972
976
982
980
974
974
973
973
976
977
973
973
972
975
979
976
973
974
973
974
979
975
972
970
973
977
978
977
972
972
971
971
978
972
973
973
972
972
976
975
972
969
970
974
974
975
973
972
973
974
976
974
973
971
970
975
977
978
975
973
970
972
975
974
974
969
969
971
977
972
973
971
971
973
974
971
974
971
973
974
978
976
972
970
972
972
978
976
973
971
972
974
976
975
973
970
972
973
978
977
976
974
973
975
977
977
974
972
972
975
977
977
977
973
972
976
977
977
976
973
974
976
978
980
976
975
975
976
981
979
976
972
976
977
980
978
978
973
977
979
982
982
979
977
979
979
984
983
981
978
980
986
987
989
985
988
990
994
995
993
991
991
995
999
1002
1003
996
999
1000
1004
1006
1005
1002
996
996
1000
1001
1002
999
998
998
996
1000
995
993
989
987
987
989
990
988
986
985
987
989
987
985
981
983
986
988
988
988
987
984
986
991
991
988
986
985
987
991
989
988
983
985
991
993
998
994
995
999
1008
1018
1023
1031
1044
1069
1105
1146
1187
1226
1264
1303
1343
1379
1399
1401
1387
1357
1316
1259
1200
1144
1090
1048
1018
1012
1008
1008
1004
1003
1001
1001
995
990
986
980
980
985
984
981
975
977
977
979
976
973
971
974
976
979
976
975
973
972
974
979
980
977
975
977
978
984
979
979
976
978
982
985
986
981
980
977
986
990
987
989
984
986
990
988
992
991
991
990
995
1000
1001
1002
1002
1000
1008
1014
1013
1014
1015
1016
1021
1029
1029
1032
1029
1031
1034
1043
1044
1045
1046
1048
1051
1057
1060
1060
1057
1060
1064
1066
1072
1068
1064
1062
1064
1066
1060
1055
1049
1040
1040
1039
1029
1024
1020
1015
1010
1013
1008
1004
998
993
997
999
997
995
991
986
987
989
988
985
982
982
984
986
986
983
980
978
983
986
984
981
978
978
978
984
979
979
979
979
982
982
981
982
980
982
984
986
986
984
978
979
984
984
985
981
976
977
984
986
987
984
982
982
983
988
985
985
983
979
983
987
986
985
981
979
979
986
986
985
981
981
982
985
985
982
978
976
979
983
982
980
975
977
978
981
979
976
971
973
976
981
980
979
974
974
979
980
979
979
976
976
977
977
981
977
973
971
976
980
979
975
975
975
978
983
982
981
980
977
979
982
981
975
975
974
974
976
980
978
975
974
978
981
978
979
975
975
977
977
978
975
972
968
974
976
972
973
970
975
976
979
978
977
974
973
975
979
978
977
978
974
977
980
979
977
977
972
977
979
979
978
973
977
977
980
976
977
977
976
978
981
980
974
973
975
978
981
978
981
979
978
982
982
982
979
980
977
981
985
983
980
982
979
980
982
983
981
980
982
985
991
990
986
985
989
994
995
995
996
993
995
999
1000
1002
1001
1000
1001
1004
1008
1007
1004
998
997
1000
1002
1001
1001
995
998
1000
1000
997
993
991
987
989
991
989
984
980
981
984
985
984
981
981
982
983
987
984
983
982
984
986
988
987
986
983
982
987
989
992
989
982
989
990
994
992
993
994
998
1004
1013
1019
1023
1035
1058
1089
1119
1159
1190
1224
1259
1291
1331
1364
1382
1378
1354
1317
1263
1207
1150
1100
1058
1031
1018
1011
1010
1007
1003
1004
999
994
989
985
984
984
983
981
979
975
974
977
979
975
974
970
975
977
976
978
973
973
972
973
976
976
975
973
975
976
978
982
980
977
976
980
982
981
980
977
980
984
988
985
986
984
986
988
993
992
993
989
994
996
997
998
997
999
1001
1008
1011
1013
1016
1016
1016
1025
1030
1032
1032
1033
1035
1040
1045
1045
1050
1052
1053
1059
1065
1066
1065
1066
1066
1068
1070
1067
1062
1060
1057
1055
1052
1047
1039
1034
1029
1025
1025
1020
1011
1005
1003
1002
1003
998
997
993
990
990
993
990
989
986
987
986
989
987
984
983
981
983
985
983
981
981
982
980
982
984
981
981
982
980
981
984
981
979
979
981
984
985
983
978
978
981
985
984
983
983
982
983
986
984
983
983
979
984
985
986
984
980
980
983
987
985
984
981
980
982
982
984
979
977
978
979
984
983
980
980
979
981
984
983
979
980
977
978
981
980
980
977
976
980
984
985
983
980
978
979
983
981
978
979
979
980
984
981
979
981
978
980
983
984
980
981
977
978
981
982
982
980
978
981
985
983
981
979
977
979
986
983
981
979
980
982
978
976
978
977
978
979
983
984
981
980
980
982
986
987
982
981
978
982
985
986
984
982
982
986
987
987
985
981
978
985
988
987
983
980
980
982
989
988
984
984
983
985
986
987
984
980
980
984
988
988
985
984
985
987
990
988
985
983
984
985
986
984
982
979
978
984
988
985
983
981
986
986
989
986
985
982
984
989
991
991
989
988
992
994
996
998
999
995
994
1000
1000
1004
1003
1001
1000
1002
1008
1006
1002
1002
1000
1001
1006
1004
1003
999
998
1001
1000
997
998
993
991
989
989
990
987
986
987
987
993
992
990
986
985
988
994
993
993
989
987
