1005
1003
1003
1006
1005
1003
998
989
990
989
989
989
987
985
980
981
981
981
981
975
974
975
977
980
975
974
973
971
975
977
975
971
972
974
974
977
973
974
972
977
980
982
978
977
978
978
981
983
985
983
985
985
989
991
990
991
991
990
995
998
996
999
999
999
1007
1011
1009
1010
1011
1016
1021
1021
1024
1023
1025
1029
1035
1038
1037
1036
1034
1040
1045
1049
1050
1049
1050
1052
1054
1057
1056
1056
1055
1057
1056
1053
1053
1049
1045
1041
1040
1037
1034
1027
1023
1021
1016
1016
1011
1004
1001
1001
999
1000
994
988
988
989
986
988
986
982
983
984
986
985
985
979
979
983
983
986
982
978
977
980
983
985
981
981
979
983
985
984
985
980
978
980
985
988
985
983
982
984
987
987
986
981
981
986
988
987
987
983
981
984
988
990
988
983
982
983
988
988
988
985
984
986
989
989
986
984
982
987
989
990
988
985
984
986
989
989
985
984
981
984
988
988
986
983
982
984
989
987
983
982
981
983
985
985
984
981
982
984
985
986
988
984
981
983
987
982
983
980
981
982
982
983
981
979
979
980
982
979
980
977
977
976
980
981
980
978
975
978
982
983
981
978
979
983
986
986
984
983
980
984
987
986
985
982
979
983
987
987
985
983
982
984
987
985
986
982
982
982
984
987
987
983
980
982
988
988
986
983
981
982
985
987
984
981
977
979
986
985
984
981
979
979
982
983
981
977
976
979
985
989
984
984
982
985
989
989
984
982
984
987
987
990
987
987
984
988
991
991
988
988
982
989
992
991
990
989
988
989
991
993
992
991
990
991
995
999
994
992
990
991
991
992
989
990
991
996
1001
1001
1001
1003
1000
1001
1004
1007
1002
1000
998
1000
998
998
995
993
987
988
990
988
992
986
988
989
993
992
993
987
987
993
994
996
993
992
994
994
1002
1004
1006
1005
1011
1018
1023
1031
1039
1057
1080
1105
1135
1164
1191
1213
1233
1260
1281
1288
1272
1246
1207
1168
1131
1096
1063
1039
1023
1017
1020
1019
1013
1008
1005
1003
1001
1001
997
992
990
989
989
991
988
985
986
984
987
987
983
983
982
986
986
988
985
984
981
986
987
989
989
985
983
986
991
990
990
987
986
991
992
995
993
990
991
995
997
1000
1000
997
995
996
1001
1004
1004
1001
1004
1008
1011
1015
1015
1016
1015
1018
1026
1029
1029
1028
1032
1035
1040
1041
1041
1038
1041
1047
1050
1054
1056
1054
1053
1056
1059
1062
1059
1057
1056
1053
1054
1052
1044
1039
1035
1030
1032
1026
1019
1014
1009
1005
1005
1004
999
991
989
987
990
986
986
979
977
979
981
982
980
974
973
977
978
980
977
972
973
973
975
975
974
970
970
972
976
975
972
970
971
972
973
975
975
971
972
975
977
977
975
972
969
976
979
981
978
975
975
975
978
980
978
976
976
975
978
980
978
974
972
976
980
977
974
972
972
975
975
978
976
975
974
974
975
977
974
970
970
973
975
976
974
971
968
969
974
974
972
971
969
970
975
974
972
972
969
971
970
976
974
973
970
972
976
975
971
970
971
972
972
973
975
969
967
971
972
974
974
970
969
972
974
972
972
970
970
972
976
976
972
969
968
973
973
974
974
972
969
970
976
973
972
970
970
970
974
974
972
971
969
972
981
978
974
969
971
974
978
978
976
972
973
975
978
977
977
973
972
975
978
977
977
973
972
976
978
977
976
973
973
974
979
978
977
975
974
976
977
978
977
975
972
974
979
978
976
972
975
978
982
981
981
979
981
980
981
984
982
981
982
984
985
989
986
981
979
983
985
984
984
985
990
991
996
998
997
994
992
994
998
997
993
989
989
984
990
992
989
984
983
983
988
986
986
984
981
986
986
987
988
988
985
989
991
992
989
988
987
992
997
1000
1007
1007
1015
1022
1036
1056
1079
1102
1135
1168
1199
1227
1251
1275
1292
1292
1272
1231
1177
1130
1087
1053
1027
1006
995
994
999
1001
1002
997
995
987
988
987
988
988
980
978
977
978
978
979
977
975
975
975
979
980
978
973
971
974
978
979
977
975
974
974
979
981
978
975
972
979
978
981
981
977
977
980
983
982
983
984
986
986
990
989
993
989
990
993
998
997
1000
998
996
1002
1009
1012
1013
1013
1016
1018
1022
1026
1026
1026
1026
1031
1037
1039
1037
1036
1039
1044
1045
1051
1049
1048
1047
1050
1052
1047
1043
1037
1035
1037
1033
1029
1024
1016
1011
1008
1006
1006
1003
996
993
990
990
989
986
978
978
977
980
978
977
974
972
973
973
973
971
970
970
970
970
975
974
972
970
970
973
975
972
969
970
969
970
971
969
969
967
971
974
974
973
969
971
973
976
977
974
969
970
971
973
975
974
969
970
972
974
974
974
970
969
971
973
972
971
970
969
968
973
973
972
971
969
973
974
977
973
971
970
972
977
973
973
971
967
972
973
977
975
970
970
973
973
975
973
969
969
971
975
975
972
972
970
971
972
975
971
968
968
973
972
971
971
967
968
972
973
972
971
968
968
970
973
972
971
963
965
967
972
971
971
967
969
969
974
974
973
970
969
968
970
973
970
969
970
971
972
973
973
969
967
970
972
975
972
970
969
970
973
974
972
971
970
970
975
974
971
971
970
973
975
974
973
968
970
969
974
975
974
968
967
970
975
976
970
970
968
971
970
969
970
969
968
972
973
973
973
968
970
973
973
976
970
969
968
970
971
973
971
969
969
970
972
971
971
967
966
970
976
973
973
973
973
974
976
974
972
971
970
975
982
984
986
984
985
985
989
990
990
985
986
987
987
987
985
980
978
978
979
979
975
975
973
976
980
981
978
978
974
978
978
983
981
978
978
981
986
983
981
984
986
993
1002
1005
1012
1016
1034
1059
1085
1109
1137
1161
1186
1210
1234
1258
1267
1258
1236
1203
1164
1122
1082
1046
1021
1004
999
1002
1001
995
992
983
984
984
978
974
972
973
975
974
972
969
967
970
971
972
966
964
964
966
969
971
969
968
966
967
972
974
970
969
966
971
972
973
970
973
972
975
974
979
978
975
975
977
981
984
983
982
983
983
988
990
989
986
988
990
997
997
1001
1000
1001
1005
1010
1014
1013
1010
1015
1020
1026
1026
1029
1027
1030
1034
1039
1041
1042
1042
1044
1045
1048
1050
1046
1046
1042
1041
1040
1039
1036
1027
1024
1021
1018
1015
1010
1003
999
994
996
993
986
981
978
978
978
978
975
969
968
971
973
972
967
966
963
965
966
967
966
962
961
958
962
964
961
961
958
960
966
966
962
960
959
962
963
964
962
962
963
963
967
968
966
962
963
965
968
968
966
964
966
966
968
968
968
964
966
970
970
972
970
965
964
967
969
971
969
963
962
965
969
968
967
964
964
965
966
968
965
962
961
962
965
965
966
963
962
962
962
962
958
955
955
960
960
960
957
957
954
957
960
959
959
957
954
954
957
958
956
955
955
954
955
957
956
954
951
954
954
957
954
953
949
953
957
955
954
954
951
954
956
958
956
952
953
955
958
955
955
955
955
954
959
960
957
955
952
954
957
957
956
952
953
954
957
957
955
952
952
957
960
958
955
952
952
956
956
959
958
957
955
957
959
959
959
955
956
955
957
962
958
954
954
958
964
962
962
959
960
960
963
963
959
960
959
962
961
966
965
961
962
964
961
966
965
961
961
963
966
966
963
964
962
963
966
968
967
963
966
965
968
969
967
966
965
964
970
973
970
973
973
975
980
983
980
977
978
982
983
982
980
976
976
974
976
975
974
968
965
964
968
969
970
967
967
966
969
970
969
966
967
969
974
975
973
972
971
976
981
983
984
987
994
1000
1011
1020
1032
1047
1068
1096
1129
1155
1178
1197
1223
1249
1263
1263
1246
1213
1169
1126
1091
1059
1029
1005
994
990
993
994
991
985
985
981
982
980
973
968
965
967
968
969
968
962
960
963
966
964
965
961
961
960
966
965
967
961
962
963
964
963
963
961
960
962
967
967
966
963
963
964
966
968
968
964
966
967
969
972
973
974
972
975
977
977
980
978
978
982
987
992
991
991
990
994
1000
1001
1003
1003
1006
1009
1013
1017
1017
1016
1018
1020
1024
1030
1029
1028
1030
1036
1041
1041
1038
1036
1036
1038
1041
1041
1038
1030
1028
1025
1025
1022
1016
1010
1007
1005
1003
998
996
987
984
983
980
978
971
970
967
965
968
967
965
960
960
961
964
961
959
955
955
955
960
960
956
956
954
956
959
959
958
958
956
956
959
959
960
955
956
957
962
962
962
957
957
960
960
962
960
958
960
956
963
964
962
958
960
960
965
963
961
959
959
958
963
964
963
957
956
959
962
963
960
957
957
957
963
964
960
957
958
960
962
963
961
956
959
958
961
962
962
960
955
958
962
963
959
960
960
964
963
965
964
957
954
958
961
963
962
959
958
960
962
963
963
958
957
960
962
965
964
959
957
961
961
964
962
960
958
961
965
965
960
960
959
961
963
966
964
962
961
963
964
963
964
958
959
961
963
965
963
957
957
961
964
964
963
961
958
961
967
966
960
959
957
965
966
967
966
962
964
965
967
969
965
964
964
967
970
969
967
965
963
967
969
967
966
962
964
962
969
971
971
967
966
966
969
970
971
968
967
969
970
970
969
967
969
970
970
973
969
966
966
967
969
972
969
968
968
968
968
969
971
967
967
969
973
972
970
967
967
969
971
972
971
968
966
972
976
980
980
979
980
984
986
986
984
982
981
982
982
982
978
978
973
976
978
978
977
972
971
973
978
976
975
972
974
976
978
978
978
976
975
978
982
983
984
982
985
987
992
995
999
1000
1006
1015
1022
1034
1054
1070
1095
1120
1145
1171
1189
1201
1225
1240
1240
1221
1189
1153
1122
1093
1069
1043
1020
1004
996
998
1001
999
995
988
984
983
983
980
977
973
973
969
970
972
970
966
964
968
967
968
967
965
965
964
966
968
965
963
963
967
969
969
969
967
966
966
969
969
969
965
969
968
970
972
970
970
970
972
976
976
970
971
970
975
977
981
981
979
982
985
990
993
990
989
992
996
1002
1004
1003
1003
1003
1006
1011
1013
1015
1013
1018
1021
1027
1030
1029
1029
1029
1033
1036
1039
1039
1038
1036
1039
1042
1039
1034
1030
1026
1025
1025
1020
1016
1010
1005
1000
1002
999
992
988
985
983
982
978
976
972
970
973
973
973
968
965
962
964
966
965
965
961
960
958
962
961
959
955
957
956
958
962
960
957
956
958
961
961
960
957
955
958
961
961
958
956
956
958
961
960
957
953
954
956
959
958
957
953
953
956
960
960
957
958
958
959
961
962
961
958
960
961
963
965
963
961
959
961
965
966
962
961
961
959
963
966
963
958
960
960
965
963
963
958
959
959
963
964
962
958
958
959
964
965
960
957
959
960
961
961
964
960
960
963
963
963
963
957
960
961
964
963
961
957
957
962
960
964
962
960
958
961
963
964
961
961
958
959
963
963
961
961
959
961
965
966
966
962
960
960
964
965
963
960
959
960
962
963
962
960
957
958
960
963
962
958
955
960
963
964
959
957
959
961
965
964
965
962
959
960
964
961
963
961
960
962
964
965
963
959
960
960
965
967
965
959
962
963
966
965
964
961
960
965
965
964
967
965
965
966
970
969
967
965
966
968
972
971
968
966
964
965
973
969
968
967
964
968
975
975
973
973
976
978
982
983
978
973
976
975
979
978
975
970
969
968
971
972
968
967
967
968
973
972
969
969
969
971
970
973
972
970
969
971
974
973
975
975
974
978
983
988
990
995
1003
1008
1017
1031
1049
1066
1092
1122
1151
1173
1192
1210
1236
1255
1262
1250
1225
1185
1145
1108
1076
1044
1016
995
987
988
995
993
989
987
983
981
980
979
976
970
966
969
971
973
968
966
967
968
969
968
965
963
964
965
968
969
967
964
962
963
968
971
967
964
965
968
971
972
971
969
969
970
971
971
973
969
970
974
976
978
978
975
975
976
984
985
985
983
983
987
993
997
996
993
992
998
1005
1009
1008
1010
1010
1014
1019
1022
1020
1022
1021
1028
1033
1034
1030
1031
1030
1038
1041
1040
1040
1032
1035
1033
1032
1029
1023
1018
1015
1010
1012
1007
1001
991
988
991
991
987
984
980
973
976
976
976
971
964
964
968
969
969
968
964
961
963
968
966
963
960
962
962
965
964
962
960
961
964
966
967
962
964
961
963
966
966
966
961
964
967
970
968
967
963
966
969
970
971
970
968
967
965
969
973
972
969
967
970
973
972
972
969
969
972
975
974
973
967
968
970
969
972
973
971
967
969
972
969
970
969
970
968
969
970
968
967
966
968
970
971
969
966
967
968
968
971
970
967
966
966
968
972
970
965
966
968
966
970
967
965
965
968
972
972
971
967
963
967
974
972
969
967
967
966
970
971
970
968
967
970
973
974
970
967
969
971
973
974
971
969
972
970
971
973
971
966
966
969
971
975
973
971
970
969
974
971
972
970
969
972
976
976
975
973
973
973
976
975
975
972
973
976
978
979
977
973
974
975
979
977
976
974
975
975
978
982
978
975
977
980
983
983
980
980
977
977
983
985
981
977
977
979
984
985
985
982
981
982
989
987
988
985
982
984
984
987
986
987
988
993
994
999
996
996
996
995
1000
999
995
993
994
994
994
993
991
985
987
986
991
990
988
984
987
988
992
993
989
987
989
989
993
992
994
988
993
995
998
1001
1002
1004
1010
1018
1028
1034
1044
1059
1079
1104
1128
1151
1174
1192
1209
1233
1251
1259
1248
1225
1196
1162
1126
1101
1070
1043
1027
1019
1018
1018
1013
1008
999
998
997
992
991
985
985
984
988
987
984
980
978
981
982
983
978
973
977
979
981
979
981
978
977
978
981
983
979
976
978
980
983
982
984
980
981
984
986
986
984
985
985
990
994
993
993
992
993
994
997
1000
1000
999
999
1001
1006
1008
1011
1008
1011
1015
1021
1021
1023
1022
1025
1027
1034
1036
1038
1038
1039
1042
1046
1049
1047
1047
1047
1049
1051
1049
1049
1046
1043
1040
1040
1036
1032
1025
1017
1015
1014
1010
1008
1004
1001
997
996
994
990
985
986
984
983
984
981
978
975
977
980
977
974
971
970
971
974
974
971
972
970
972
973
976
972
972
970
971
972
972
969
969
969
968
970
970
970
970
967
969
971
973
970
968
965
966
972
969
969
967
965
968
970
972
970
965
965
969
970
974
971
967
967
970
973
974
971
968
967
970
972
972
968
965
968
968
970
970
971
968
969
969
970
972
969
964
966
968
972
971
969
967
965
968
971
972
967
967
964
967
969
970
964
964
965
968
969
970
967
964
965
968
968
969
970
966
964
967
971
970
970
965
965
964
970
970
969
966
966
967
969
971
968
966
968
968
973
971
970
970
969
971
974
972
968
965
970
973
975
973
971
969
968
971
970
975
969
970
968
972
973
973
970
968
969
972
973
974
972
973
970
972
977
973
974
971
971
975
978
978
975
973
971
973
977
977
977
974
976
975
979
979
977
976
975
976
976
980
978
978
977
978
982
983
981
977
978
980
984
985
981
977
978
980
978
977
975
975
975
982
987
989
990
986
990
991
995
995
992
989
990
989
992
988
986
984
983
983
986
985
983
982
982
981
986
986
985
984
982
981
984
987
986
985
983
988
991
992
991
989
991
996
1005
1011
1016
1017
1024
1041
1064
1087
1108
1129
1158
1183
1205
1229
1246
1248
1235
1211
1182
1143
1104
1069
1038
1019
1007
1004
1003
1000
998
993
989
988
983
979
979
979
979
978
975
972
972
974
976
976
972
972
968
972
975
974
971
968
969
972
972
975
973
972
972
974
975
976
975
973
973
977
981
981
978
978
979
979
984
985
983
981
984
986
988
991
992
988
992
996
1000
1001
1000
1000
1003
1006
1009
1013
1017
1016
1017
1020
1026
1032
1030
1032
1034
1038
1042
1045
1046
1044
1045
1049
1054
1052
1053
1048
1047
1045
1045
1044
1036
1030
1021
1024
1024
1020
1012
1005
1001
1002
1002
999
994
988
985
987
989
987
983
980
980
980
979
978
979
976
974
977
980
980
977
974
974
975
978
975
976
977
978
979
982
978
979
978
979
980
982
981
979
978
974
978
981
979
979
975
978
979
981
982
980
975
976
981
983
983
979
979
978
978
981
984
981
978
979
979
979
980
980
976
974
975
981
979
979
975
975
978
979
978
976
975
974
976
978
977
976
975
974
974
976
979
978
975
974
975
976
977
976
974
974
976
981
979
977
974
972
975
976
978
977
973
972
976
978
980
977
975
975
978
978
979
977
974
977
978
980
980
978
975
975
977
980
981
978
973
976
977
979
980
978
977
977
977
980
979
977
977
975
980
981
980
979
975
975
978
981
982
980
975
978
979
982
979
975
973
974
977
979
979
978
973
973
977
980
980
976
971
973
975
979
979
978
975
975
978
977
980
978
975
975
976
979
979
980
975
973
976
980
978
977
974
975
977
982
981
979
975
976
975
980
980
980
976
977
979
982
982
982
977
974
979
981
981
983
984
984
988
991
994
992
989
989
993
997
997
992
990
989
988
990
992
987
984
984
987
988
991
989
983
983
987
989
990
989
987
987
989
991
995
994
990
994
996
1002
1005
1007
1010
1015
1025
1037
1051
1067
1088
1111
1138
1165
1190
1208
1228
1245
1264
1262
1243
1212
1170
1134
1101
1071
1044
