960
955
953
954
954
960
957
955
953
953
956
955
956
957
953
953
955
957
959
957
952
957
957
958
958
957
954
954
956
960
958
958
956
956
957
959
959
958
954
958
959
958
959
955
954
957
959
960
958
957
954
956
958
961
958
957
955
954
956
962
959
957
956
959
961
962
960
957
956
959
960
959
959
955
953
954
959
962
961
958
956
956
961
959
960
960
958
957
961
962
961
955
952
954
958
962
957
956
954
958
960
963
963
959
956
958
960
961
958
959
956
954
959
960
961
961
958
958
959
962
964
960
959
960
961
963
964
963
961
960
962
962
964
965
964
965
969
970
971
972
969
973
975
976
974
971
968
969
968
966
965
961
957
958
961
964
964
961
960
960
962
963
965
961
958
961
960
962
964
963
962
963
967
967
964
966
966
968
974
983
985
990
991
1005
1021
1044
1073
1097
1128
1159
1190
1220
1248
1275
1294
1297
1283
1250
1205
1151
1104
1066
1029
1003
978
974
972
977
976
977
971
967
958
958
961
957
956
953
951
951
952
951
952
950
948
946
952
952
950
947
948
946
950
951
950
947
946
943
948
949
950
947
946
949
953
955
953
952
950
951
953
958
956
953
951
952
959
962
961
958
958
958
962
966
964
966
964
966
970
978
978
978
975
977
982
988
989
987
989
990
996
1000
1000
999
1000
1002
1008
1011
1014
1013
1016
1020
1024
1027
1028
1027
1026
1026
1029
1028
1028
1025
1019
1018
1015
1015
1012
1008
1000
1000
995
995
991
984
978
979
977
974
971
969
963
964
964
964
961
955
953
953
951
956
955
947
949
949
952
954
950
951
947
949
951
951
950
949
948
949
950
951
950
949
944
945
949
949
953
950
948
948
950
957
956
952
948
950
954
955
955
951
947
949
952
954
953
948
948
949
953
952
954
951
950
948
954
955
951
949
948
949
952
951
953
950
947
948
951
954
951
951
948
950
953
954
949
949
947
948
949
953
955
952
950
949
949
953
953
950
948
948
950
953
954
949
948
950
952
952
952
949
947
946
950
955
952
951
949
948
952
953
952
950
947
950
950
951
951
951
949
949
953
954
954
952
950
946
954
953
951
950
947
947
951
955
954
951
945
950
953
958
954
950
947
950
953
956
956
954
952
952
956
956
953
951
951
953
955
959
956
952
950
954
953
956
956
955
953
954
956
960
957
955
952
956
957
958
958
955
954
956
957
961
957
955
954
954
958
960
957
956
957
956
960
961
960
957
956
956
960
961
962
958
956
959
960
964
960
957
957
958
962
962
962
960
960
961
965
966
963
962
958
958
959
960
959
959
964
966
974
978
976
976
974
974
975
976
978
976
973
972
972
973
970
966
960
963
965
967
965
962
959
964
967
968
968
968
962
965
966
971
970
970
964
969
973
975
975
973
975
979
986
994
998
1003
1011
1028
1055
1080
1109
1133
1159
1183
1211
1234
1259
1272
1263
1237
1200
1158
1111
1069
1030
1003
987
983
982
983
981
980
978
976
973
965
964
963
962
964
961
959
956
955
958
959
959
958
957
956
957
960
960
960
957
957
960
960
962
961
958
958
965
964
965
961
962
963
965
969
969
966
964
967
968
972
970
970
968
973
977
977
979
976
978
978
982
984
983
981
981
987
992
996
998
997
999
1003
1007
1013
1013
1013
1012
1016
1021
1026
1027
1029
1029
1032
1036
1037
1039
1035
1035
1036
1036
1037
1036
1031
1029
1028
1023
1024
1018
1013
1006
1003
1002
1000
994
990
985
980
976
979
975
969
965
962
967
967
965
961
959
959
961
966
964
958
959
959
959
964
962
958
958
959
960
965
962
958
958
958
959
961
961
959
955
959
961
963
962
958
955
959
958
964
961
960
959
958
963
967
965
960
958
961
964
966
964
963
959
960
963
966
967
961
959
962
961
966
963
962
956
955
961
963
964
961
958
958
962
964
963
962
955
956
961
963
964
958
956
958
958
961
962
958
958
957
961
963
960
958
956
956
958
961
958
957
954
957
956
959
962
959
956
958
958
963
958
958
959
959
962
962
962
957
956
957
960
960
962
959
955
958
959
962
963
959
958
961
962
962
963
960
958
957
960
960
962
959
957
960
961
959
960
960
956
959
961
962
963
959
959
957
957
963
959
957
953
956
961
962
962
960
959
956
961
963
959
960
956
958
961
965
963
958
959
960
962
964
965
961
959
959
960
964
961
960
958
958
959
964
962
960
961
962
965
969
968
965
963
962
966
969
969
966
963
967
971
972
974
974
970
974
978
982
982
979
977
976
976
977
973
969
969
967
969
971
969
967
967
967
970
970
970
967
964
965
969
972
971
970
971
972
971
975
976
976
974
976
979
984
986
987
992
997
1006
1020
1033
1056
1078
1109
1143
1173
1200
1223
1247
1271
1291
1292
1268
1230
1183
1141
1105
1075
1037
1007
992
982
988
991
990
986
982
979
976
978
974
970
964
962
965
968
965
964
961
965
966
966
966
962
961
961
965
967
964
960
958
963
965
967
968
964
962
966
968
969
968
968
965
968
971
974
974
970
970
968
974
975
978
977
975
976
981
984
984
984
986
987
989
996
996
996
994
1001
1003
1007
1007
1007
1010
1010
1013
1019
1021
1022
1021
1024
1027
1033
1034
1033
1032
1037
1040
1044
1044
1042
1039
1041
1041
1043
1040
1034
1027
1024
1024
1020
1016
1009
1005
997
999
997
993
986
982
979
978
981
978
974
970
968
970
971
968
965
962
961
966
966
963
960
957
960
963
965
963
963
956
959
962
963
964
963
958
961
961
966
964
963
961
962
964
966
964
964
960
962
963
965
963
961
960
961
964
963
967
961
961
962
965
966
965
961
961
961
963
967
967
964
960
965
964
967
967
962
962
964
963
966
964
962
962
960
964
967
968
964
956
959
964
965
964
963
961
959
961
966
966
962
959
959
962
965
964
960
958
959
962
966
964
960
959
959
960
964
962
960
959
959
962
964
963
961
955
954
963
964
963
961
958
955
961
964
963
961
957
959
960
962
961
961
956
957
959
958
960
961
959
961
962
964
962
959
958
956
961
965
963
960
959
962
963
967
965
962
961
961
963
965
964
964
962
962
963
965
964
963
960
962
965
968
966
967
962
962
964
966
967
965
962
960
963
967
966
963
962
963
964
967
967
965
963
965
967
968
967
965
965
962
968
970
970
967
965
965
970
971
970
965
964
964
965
969
967
971
973
975
980
981
980
981
980
981
981
983
983
978
978
976
975
975
976
972
967
967
966
972
972
966
965
965
970
974
971
969
967
968
970
973
971
969
968
972
978
983
986
987
992
1000
1011
1031
1054
1078
1106
1143
1179
1210
1237
1267
1286
1285
1265
1225
1169
1116
1070
1029
1004
989
986
986
985
983
983
980
975
967
967
963
963
966
963
961
958
956
960
961
959
957
956
952
954
960
963
960
957
956
958
961
962
962
959
962
964
967
965
965
964
963
966
970
969
966
966
967
969
973
974
972
970
972
979
983
984
981
982
983
988
992
995
993
993
995
1001
1006
1008
1007
1009
1011
1013
1020
1022
1023
1022
1025
1031
1036
1033
1035
1035
1039
1044
1045
1046
1039
1038
1039
1038
1038
1035
1031
1024
1018
1020
1017
1011
1004
996
992
992
991
986
984
978
975
974
978
970
972
968
967
970
972
970
969
964
964
966
969
968
965
962
962
965
969
965
966
963
964
967
970
967
966
964
965
967
970
966
964
963
962
966
971
969
964
965
961
969
970
967
965
963
964
965
970
969
967
965
965
967
970
968
965
963
963
965
965
964
963
961
961
964
966
964
962
962
959
963
964
965
962
960
960
963
964
964
961
960
960
965
965
963
961
957
958
961
965
964
960
958
961
962
960
962
959
958
959
963
965
965
962
959
959
962
963
962
965
961
960
961
963
964
962
960
960
962
965
965
958
959
961
960
965
964
963
958
961
965
967
965
962
960
962
964
968
968
966
965
964
969
971
971
965
964
967
968
970
972
967
965
966
967
971
970
970
967
965
970
973
971
968
967
967
968
971
970
970
968
967
965
968
970
968
966
967
969
971
970
968
968
966
970
972
970
969
963
967
970
973
973
970
966
964
968
972
971
969
968
968
971
972
975
973
968
969
972
975
972
969
964
966
970
975
977
978
977
979
982
986
987
987
984
985
986
987
984
980
975
975
975
979
974
975
973
975
977
979
976
976
975
975
978
981
982
982
976
977
979
982
983
979
981
982
989
996
1002
1009
1011
1023
1043
1069
1095
1122
1151
1182
1211
1240
1266
1286
1285
1267
1239
1204
1157
1115
1076
1043
1023
1011
1005
1002
999
996
994
992
986
980
975
975
976
978
974
972
970
970
970
971
972
966
965
966
969
973
973
971
967
969
971
974
974
973
971
972
973
977
979
974
972
974
977
982
980
979
977
980
983
987
984
985
986
985
989
993
996
992
990
995
999
1001
1000
1002
1002
1004
1008
1013
1015
1015
1014
1016
1022
1026
1029
1031
1028
1030
1037
1042
1045
1043
1042
1046
1050
1054
1054
1048
1049
1052
1053
1053
1049
1047
1041
1038
1036
1036
1029
1024
1013
1009
1013
1009
1006
999
994
989
988
991
989
983
978
979
982
982
980
976
972
975
977
979
979
975
973
973
973
978
975
972
969
970
972
975
975
972
970
971
970
975
974
974
971
969
972
974
973
970
967
967
970
976
974
970
968
967
971
971
975
970
968
969
972
973
974
973
972
971
972
975
974
971
969
971
973
975
974
971
969
969
971
973
971
967
966
966
969
973
971
967
966
967
968
973
972
967
967
969
970
975
972
970
967
968
970
974
971
970
968
966
968
973
973
971
967
969
970
973
972
969
967
970
972
974
973
971
969
970
973
976
971
970
966
969
970
975
974
971
970
969
972
974
974
970
967
969
970
974
973
971
970
970
970
974
972
973
969
965
972
973
973
968
965
967
970
975
973
970
968
968
970
975
974
971
970
973
972
977
974
974
972
971
975
978
976
974
973
972
977
977
977
976
974
975
977
979
981
979
975
976
979
983
983
979
975
976
979
982
978
976
974
977
979
983
982
981
978
978
977
985
983
981
980
979
982
986
985
985
982
982
983
986
984
981
979
983
987
995
997
997
995
996
999
1002
1001
998
995
994
992
993
992
990
987
986
987
989
987
986
981
980
981
986
987
982
980
982
987
989
990
988
985
988
989
993
993
989
992
996
1003
1011
1016
1024
1028
1050
1075
1103
1129
1154
1176
1201
1225
1253
1280
1297
1291
1273
1240
1205
1156
1112
1076
1046
1026
1015
1010
1005
1002
1001
995
998
995
988
982
980
982
981
978
975
973
970
975
975
972
970
968
971
972
975
973
971
969
970
971
972
971
970
970
972
974
979
978
973
973
972
977
981
981
979
979
981
983
987
988
983
983
987
991
995
996
995
993
993
999
1002
1004
1001
1002
1005
1011
1014
1017
1018
1019
1022
1023
1027
1029
1030
1032
1033
1037
1046
1045
1045
1045
1047
1050
1056
1057
1058
1056
1058
1059
1064
1063
1059
1055
1051
1054
1051
1047
1039
1034
1029
1031
1029
1021
1015
1012
1007
1005
1006
1002
997
993
991
990
993
990
987
985
984
985
986
986
983
981
981
981
985
985
983
981
980
981
987
986
983
977
979
979
980
984
982
979
980
981
983
982
981
975
980
980
984
982
984
979
981
981
984
983
982
978
979
982
984
984
982
978
977
981
984
985
982
979
979
983
983
985
982
979
980
982
983
983
979
977
978
978
981
981
978
973
975
979
983
983
977
976
977
978
980
978
972
970
973
976
974
977
976
973
973
975
978
977
975
974
974
975
978
978
974
973
973
974
976
975
975
974
974
976
975
977
974
971
971
975
976
978
971
971
972
974
975
974
975
972
972
973
975
973
971
972
973
974
978
976
974
974
974
977
979
980
979
974
974
978
979
979
979
975
975
977
979
981
978
975
978
979
982
981
979
979
979
981
984
979
979
978
979
981
986
985
982
978
979
981
983
983
983
981
980
982
981
981
979
978
976
983
985
985
982
980
979
984
985
983
983
979
980
983
987
986
983
982
981
981
987
985
985
982
983
983
987
987
985
984
982
985
991
989
988
986
985
986
990
992
989
985
985
988
988
987
984
983
985
996
999
1002
1000
998
995
999
1002
1003
1001
995
993
994
997
997
994
990
984
989
993
992
988
985
987
989
991
992
989
988
989
987
994
992
990
986
987
990
997
996
996
992
996
1004
1011
1017
1021
1026
1046
1068
1097
1122
1151
1174
1201
1225
1255
1273
1283
1276
1252
1216
1180
1137
1099
1064
1034
1018
1011
1008
1009
1006
1005
1003
998
997
990
986
984
984
987
985
981
978
975
979
982
982
979
976
977
977
979
978
977
973
973
975
978
977
972
973
975
978
983
982
983
979
976
980
984
983
981
981
980
982
986
985
986
982
985
986
990
988
987
988
987
993
998
999
1000
995
998
1002
1008
1010
1010
1009
1012
1016
1018
1020
1020
1020
1022
1026
1033
1035
1036
1037
1038
1042
1046
1049
1049
1048
1048
1052
1055
1057
1053
1053
1052
1052
1052
1050
1043
1038
1034
1034
1031
1028
1022
1013
1007
1007
1003
999
1000
993
988
987
989
986
983
977
973
976
978
974
974
971
972
973
975
974
972
967
965
969
972
972
970
971
968
970
973
974
969
969
969
971
976
973
971
968
967
971
973
975
974
972
971
971
975
975
974
971
972
974
978
976
975
972
971
972
974
975
973
971
973
972
976
972
972
968
970
972
972
974
974
969
973
973
976
975
976
970
969
973
974
975
973
972
972
971
976
971
970
967
967
968
973
973
971
966
970
970
971
972
970
965
968
970
972
972
970
969
969
972
975
973
969
968
969
972
975
973
971
969
969
973
974
974
973
969
969
970
974
973
970
968
970
970
976
973
971
968
968
969
973
972
969
969
968
971
975
972
971
969
969
973
976
974
972
970
970
973
975
972
972
966
970
972
977
976
974
972
970
974
977
975
971
970
972
974
977
978
973
971
971
973
975
976
973
970
971
974
976
976
973
973
972
970
975
972
972
973
971
973
976
973
973
969
972
970
973
976
973
972
970
973
976
974
972
970
969
970
976
972
970
968
967
970
972
973
972
970
972
975
977
978
970
974
973
975
976
974
973
970
972
975
980
982
984
981
980
982
988
988
985
984
983
984
990
985
982
976
980
981
984
983
978
975
974
976
977
977
974
975
975
978
980
976
978
975
975
977
977
979
979
975
976
978
984
987
988
991
995
1001
1009
1016
1023
1038
1060
1089
1118
1149
1175
1195
1220
1249
1276
1286
1279
1256
1221
1182
1143
1105
1069
1035
1009
996
996
997
992
989
988
987
986
982
978
971
968
968
971
968
968
966
965
964
967
967
967
961
962
962
966
965
963
961
958
965
968
965
965
962
963
963
967
968
966
966
967
970
974
970
973
971
969
974
977
974
977
977
974
979
982
984
982
980
981
985
990
992
992
989
990
996
1000
1002
1003
1001
1004
1006
1013
1011
1015
1012
1012
1018
1024
1021
1023
1020
1023
1030
1034
1034
1033
1033
1035
1039
1043
1040
1039
1038
1036
1038
1038
1037
1030
1025
1021
1020
1018
1014
1009
1003
999
996
994
988
986
981
978
975
978
975
972
967
963
964
968
963
962
957
958
959
961
960
962
957
957
957
962
962
960
956
956
960
961
961
960
960
960
962
966
963
962
960
958
963
966
963
962
960
963
963
967
966
964
962
961
963
962
965
964
961
964
965
968
965
960
961
962
961
966
964
963
960
961
962
963
960
962
960
959
961
964
961
958
958
960
961
964
962
961
957
958
958
965
962
959
956
955
957
959
961
957
955
955
957
962
961
959
957
958
960
963
962
960
954
955
955
959
961
960
960
957
960
963
963
963
958
955
959
960
961
961
959
959
962
963
965
963
959
960
961
967
965
961
960
961
965
963
963
964
962
961
964
966
965
965
962
959
965
969
968
965
962
963
964
968
967
964
962
962
964
967
966
965
962
960
964
966
966
962
960
960
963
965
966
961
961
959
961
962
968
965
961
962
963
962
963
960
957
963
964
967
967
963
963
962
963
965
964
963
959
957
962
965
966
961
959
958
961
966
966
964
960
962
965
966
966
965
962
962
966
967
967
966
963
964
967
970
971
968
966
967
969
974
974
970
967
967
967
969
969
969
967
968
974
978
980
979
981
979
981
985
984
982
979
980
980
982
980
974
971
969
972
975
974
971
967
970
975
974
977
974
971
970
974
978
976
974
972
971
977
983
987
987
989
996
1005
1012
1023
1039
1062
1086
1116
1149
1175
1198
1218
1244
1265
1266
1241
1202
1159
1112
1072
1038
1011
994
985
991
995
997
993
987
981
978
973
976
976
969
966
967
967
969
966
966
963
964
966
965
968
966
964
963
965
968
969
964
963
964
967
965
967
966
961
960
967
969
970
968
966
964
969
974
973
967
969
972
974
977
980
977
977
977
981
984
986
987
982
986
989
995
995
997
997
998
1005
1010
1010
1009
1010
1011
1017
1020
1025
1023
1023
1027
1030
1035
1036
1034
1035
1035
1038
1041
1039
1038
1031
1027
1029
1027
1025
1018
1008
1003
1005
1004
999
989
986
983
984
984
983
978
973
969
968
972
970
968
966
962
964
968
968
965
964
963
965
969
968
965
961
962
964
966
