1024
1024
1024
1024
1024
1024
1024
1024
1024
1025
1027
1029
1031
1031
1027
1027
1029
1034
1036
1035
1032
1033
1037
1041
1043
1041
1041
1041
1045
1049
1051
1051
1051
1053
1054
1059
1063
1064
1060
1062
1067
1075
1078
1079
1077
1078
1080
1085
1089
1088
1089
1088
1091
1094
1095
1091
1089
1087
1087
1086
1082
1077
1071
1067
1063
1060
1058
1052
1045
1041
1042
1041
1039
1033
1026
1022
1022
1025
1025
1021
1018
1015
1015
1019
1018
1018
1014
1010
1014
1016
1017
1014
1010
1010
1012
1015
1015
1012
1012
1009
1014
1016
1018
1017
1012
1007
1011
1015
1015
1014
1011
1009
1012
1013
1014
1012
1008
1007
1009
1015
1016
1013
1012
1009
1011
1012
1013
1013
1009
1010
1014
1015
1015
1013
1010
1008
1009
1013
1015
1012
1010
1007
1011
1014
1014
1014
1011
1009
1012
1014
1016
1014
1010
1011
1012
1011
1013
1013
1008
1008
1011
1013
1016
1015
1011
1008
1010
1012
1012
1010
1011
1007
1014
1015
1014
1013
1010
1010
1014
1014
1017
1015
1011
1011
1012
1013
1013
1013
1011
1013
1014
1016
1017
1016
1012
1011
1011
1015
1013
1013
1012
1011
1010
1014
1016
1014
1012
1011
1014
1019
1018
1015
1013
1011
1014
1015
1016
1015
1014
1011
1013
1018
1016
1017
1016
1013
1014
1020
1018
1015
1014
1014
1016
1019
1018
1017
1013
1017
1018
1020
1019
1019
1017
1016
1019
1021
1020
1018
1017
1014
1019
1021
1020
1020
1016
1014
1019
1020
1023
1020
1019
1019
1020
1023
1022
1022
1016
1019
1021
1023
1025
1022
1018
1018
1020
1023
1022
1019
1017
1017
1022
1023
1024
1023
1019
1020
1020
1022
1024
1020
1017
1015
1016
1021
1024
1027
1029
1027
1033
1033
1036
1034
1029
1032
1033
1034
1032
1028
1025
1024
1022
1026
1023
1021
1017
1017
1016
1019
1023
1023
1023
1019
1020
1023
1022
1023
1019
1021
1020
1027
1027
1029
1029
1030
1038
1044
1052
1054
1059
1071
1089
1117
1142
1172
1199
1225
1252
1282
1307
1317
1312
1284
1245
1200
1158
1118
1081
1051
1037
1034
1035
1037
1036
1033
1030
1030
1028
1024
1018
1015
1015
1017
1017
1013
1011
1010
1011
1013
1011
1013
1008
1009
1007
1012
1013
1011
1007
1002
1008
1010
1013
1008
1006
1005
1008
1011
1014
1011
1011
1010
1011
1015
1016
1014
1013
1010
1013
1019
1021
1021
1018
1019
1018
1026
1028
1029
1024
1025
1030
1035
1035
1037
1036
1038
1042
1048
1050
1050
1050
1054
1056
1059
1064
1065
1064
1067
1070
1076
1082
1079
1081
1081
1086
1091
1088
1091
1086
1086
1087
1085
1083
1077
1071
1064
1066
1065
1061
1055
1048
1042
1044
1040
1039
1035
1028
1027
1026
1027
1026
1022
1018
1016
1014
1017
1017
1015
1009
1012
1013
1015
1016
1015
1013
1012
1010
1016
1015
1014
1011
1009
1011
1016
1017
1014
1013
1012
1015
1014
1019
1016
1013
1012
1014
1019
1019
1019
1016
1014
1016
1018
1020
1017
1015
1015
1015
1019
1020
1019
1016
1016
1017
1019
1020
1018
1016
1017
1017
1018
1019
1016
1012
1010
1015
1016
1018
1016
1013
1013
1014
1018
1017
1016
1013
1013
1013
1018
1016
1014
1013
1013
1014
1016
1013
1014
1012
1012
1011
1014
1014
1014
1010
1009
1012
1015
1014
1010
1009
1011
1014
1015
1018
1014
1012
1012
1012
1017
1017
1015
1010
1011
1014
1016
1016
1016
1012
1013
1012
1016
1016
1016
1013
1011
1013
1017
1017
1015
1013
1014
1015
1017
1018
1016
1014
1014
1015
1019
1018
1018
1015
1013
1013
1020
1019
1018
1014
1011
1017
1020
1018
1018
1017
1016
1017
1018
1018
1013
1013
1011
1016
1021
1018
1018
1017
1015
1017
1019
1022
1019
1016
1017
1019
1021
1019
1020
1018
1017
1019
1021
1025
1021
1018
1018
1020
1022
1024
1022
1020
1019
1022
1024
1025
1023
1019
1018
1022
1025
1021
1022
1019
1020
1021
1021
1025
1025
1023
1023
1027
1025
1030
1024
1024
1023
1023
1026
1027
1024
1026
1029
1032
1039
1038
1038
1038
1038
1037
1041
1040
1039
1033
1028
1030
1031
1031
1031
1024
1023
1024
1028
1030
1028
1026
1025
1027
1030
1032
1031
1023
1027
1032
1034
1035
1034
1033
1032
1034
1042
1045
1046
1051
1055
1066
1073
1085
1105
1124
1150
1178
1209
1234
1256
1278
1299
1317
1317
1298
1264
1221
1180
1147
1119
1093
1072
1057
1055
1054
1056
1054
1046
1038
1035
1032
1033
1032
1028
1024
1026
1022
1024
1025
1022
1023
1020
1022
1025
1022
1022
1021
1020
1018
1026
1027
1024
1023
1020
1024
1026
1028
1025
1021
1022
1026
1030
1029
1030
1026
1027
1027
1030
1034
1033
1031
1033
1035
1040
1038
1036
1036
1035
1043
1046
1049
1044
1045
1047
1050
1053
1058
1056
1059
1059
1063
1068
1070
1070
1070
1070
1075
1079
1082
1083
1081
1080
1086
1090
1092
1091
1094
1095
1095
1099
1099
1096
1092
1090
1091
1091
1089
1086
1078
1072
1071
1070
1063
1060
1053
1046
1047
1046
1046
1039
1034
1028
1028
1029
1026
1024
1020
1019
1023
1023
1023
1022
1017
1019
1021
1021
1023
1022
1017
1017
1020
1021
1022
1020
1016
1015
1015
1019
1021
1018
1015
1013
1017
1019
1018
1018
1015
1012
1015
1020
1016
1018
1016
1014
1017
1021
1021
1018
1016
1015
1016
1018
1021
1016
1017
1016
1017
1018
1018
1016
1014
1013
1015
1019
1018
1017
1014
1013
1011
1016
1017
1014
1012
1012
1013
1016
1017
1012
1014
1013
1011
1018
1016
1014
1011
1013
1016
1020
1018
1016
1014
1012
1009
1014
1016
1017
1014
1011
1016
1015
1020
1018
1014
1014
1014
1019
1019
1019
1015
1015
1016
1019
1019
1017
1014
1013
1016
1019
1021
1021
1016
1015
1016
1019
1021
1018
1012
1011
1016
1020
1021
1020
1017
1016
1018
1019
1021
1020
1017
1017
1023
1023
1019
1016
1016
1019
1021
1021
1021
1017
1018
1018
1021
1022
1023
1019
1018
1018
1020
1020
1018
1017
1017
1016
1019
1020
1020
1017
1019
1019
1023
1022
1021
1019
1019
1021
1023
1023
1023
1021
1018
1022
1022
1022
1020
1020
1020
1022
1027
1028
1024
1022
1021
1024
1026
1025
1025
1021
1021
1024
1026
1027
1024
1023
1023
1024
1025
1026
1022
1021
1020
1025
1025
1027
1029
1026
1020
1027
1030
1030
1025
1025
1025
1025
1029
1028
1028
1024
1026
1023
1028
1027
1022
1022
1022
1029
1031
1037
1036
1035
1036
1037
1040
1040
1037
1036
1034
1034
1034
1032
1030
1029
1025
1027
1029
1027
1025
1024
1020
1025
1028
1027
1027
1025
1023
1026
1026
1030
1030
1026
1025
1026
1029
1035
1029
1028
1031
1034
1037
1044
1047
1052
1053
1063
1077
1096
1115
1132
1156
1183
1211
1234
1253
1271
1293
1306
1306
1291
1260
1222
1182
1149
1119
1091
1068
1052
1047
1048
1048
1048
1044
1039
1037
1033
1033
1030
1027
1022
1023
1023
1025
1023
1021
1019
1017
1017
1021
1022
1020
1018
1017
1019
1022
1021
1021
1018
1015
1015
1021
1020
1018
1017
1018
1016
1023
1022
1017
1021
1018
1019
1022
1024
1022
1022
1025
1025
1025
1029
1027
1025
1024
1026
1028
1033
1032
1030
1031
1032
1036
1039
1039
1036
1035
1039
1047
1049
1046
1045
1050
1053
1058
1061
1061
1062
1061
1067
1070
1073
1074
1071
1072
1077
1080
1085
1081
1084
1086
1087
1092
1095
1093
1090
1087
1089
1091
1087
1084
1080
1074
1076
1075
1072
1066
1060
1057
1053
1051
1051
1043
1038
1035
1032
1034
1033
1030
1025
1024
1026
1025
1027
1023
1017
1015
1016
1019
1022
1017
1010
1011
1016
1016
1016
1016
1012
1013
1011
1018
1020
1015
1014
1015
1014
1020
1020
1018
1014
1014
1015
1014
1016
1018
1015
1013
1013
1019
1018
1016
1013
1014
1016
1016
1018
1015
1016
1014
1017
1019
1019
1018
1012
1010
1014
1020
1020
1019
1016
1015
1018
1023
1024
1022
1020
1016
1020
1023
1023
1021
1016
1015
1017
1019
1024
1021
1017
1014
1018
1021
1022
1021
1017
1017
1017
1021
1020
1021
1018
1014
1017
1022
1024
1020
1018
1015
1020
1022
1023
1021
1017
1017
1018
1023
1021
1022
1016
1016
1015
1014
1017
1017
1011
1013
1013
1018
1020
1016
1015
1016
1016
1017
1019
1017
1016
1014
1016
1019
1018
1019
1016
1011
1014
1020
1021
1018
1017
1014
1017
1020
1019
1017
1012
1011
1015
1019
1018
1017
1012
1013
1016
1018
1017
1017
1017
1015
1014
1018
1021
1016
1012
1013
1016
1017
1017
1015
1014
1014
1016
1020
1018
1016
1015
1014
1018
1020
1020
1017
1016
1015
1017
1019
1020
1019
1017
1014
1016
1015
1020
1019
1018
1015
1016
1021
1022
1019
1017
1016
1017
1022
1023
1020
1016
1017
1021
1020
1019
1022
1015
1017
1018
1022
1020
1021
1019
1020
1020
1023
1025
1020
1018
1022
1025
1026
1026
1026
1021
1020
1020
1023
1022
1026
1025
1030
1032
1035
1039
1039
1036
1034
1035
1039
1038
1036
1034
1030
1031
1032
1031
1028
1024
1023
1025
1028
1027
1026
1026
1025
1026
1029
1028
1028
1023
1022
1027
1030
1031
1028
1028
1030
1034
1036
1039
1039
1039
1043
1051
1058
1064
1068
1083
1105
1132
1162
1191
1218
1237
1265
1296
1320
1327
1315
1287
1246
1199
1164
1127
1091
1059
1042
1040
1045
1047
1045
1039
1033
1031
1031
1029
1026
1020
1020
1020
1021
1023
1020
1017
1015
1016
1019
1018
1018
1015
1014
1014
1014
1015
1017
1012
1011
1012
1016
1018
1015
1015
1016
1018
1021
1021
1019
1019
1018
1019
1023
1026
1024
1021
1023
1023
1028
1026
1027
1024
1026
1029
1035
1036
1035
1035
1035
1036
1042
1042
1043
1044
1041
1048
1053
1054
1053
1054
1054
1060
1064
1066
1068
1068
1068
1072
1075
1081
1079
1077
1079
1082
1082
1086
1088
1084
1082
1087
1085
1088
1082
1080
1074
1073
1074
1069
1066
1059
1055
1053
1050
1048
1043
1037
1033
1033
1032
1030
1027
1022
1018
1020
1021
1020
1013
1012
1011
1008
1012
1015
1011
1008
1007
1008
1008
1007
1007
1008
1005
1008
1009
1009
1009
1006
1004
1007
1009
1010
1008
1005
1006
1007
1011
1011
1010
1007
1006
1008
1013
1009
1011
1006
1007
1009
1013
1013
1011
1007
1009
1011
1012
1013
1011
1009
1007
1011
1014
1011
1012
1010
1009
1009
1013
1014
1011
1009
1009
1010
1013
1012
1012
1009
1007
1008
1011
1014
1011
1008
1006
1009
1010
1016
1010
1009
1007
1009
1012
1015
1012
1006
1006
1009
1013
1013
1012
1010
1011
1012
1010
1012
1013
1010
1007
1009
1011
1013
1009
1007
1007
1008
1011
1011
1009
1007
1008
1010
1010
1008
1010
1008
1005
1010
1013
1013
1011
1007
1005
1009
1009
1011
1009
1008
1007
1010
1012
1013
1010
1005
1008
1009
1013
1013
1009
1009
1009
1009
1011
1011
1010
1005
1006
1009
1011
1009
1009
1007
1006
1009
1012
1013
1013
1009
1010
1011
1013
1011
1015
1011
1009
1011
1015
1016
1015
1010
1011
1012
1017
1017
1015
1011
1008
1011
1013
1012
1009
1011
1008
1012
1014
1017
1014
1011
1011
1010
1012
1015
1013
1012
1014
1012
1016
1016
1014
1008
1009
1007
1016
1016
1014
1012
1014
1016
1018
1021
1020
1017
1015
1018
1017
1017
1015
1013
1011
1015
1019
1022
1026
1024
1026
1027
1029
1030
1026
1025
1026
1027
1028
1027
1023
1020
1017
1019
1017
1018
1014
1013
1012
1014
1014
1017
1016
1012
1012
1014
1018
1017
1013
1013
1011
1013
1017
1020
1022
1022
1019
1028
1035
1043
1044
1050
1062
1082
1105
1126
1151
1174
1199
1224
1253
1278
1294
1291
1272
1243
1207
1164
1126
1091
1063
1045
1041
1040
1035
1033
1030
1025
1021
1018
1013
1010
1008
1009
1010
1011
1009
1002
1004
1005
1007
1007
1005
1002
1002
1003
1004
1006
1004
1001
1001
1001
1004
1004
1006
1002
1002
1004
1004
1006
1008
1005
1006
1007
1012
1013
1011
1010
1011
1012
1017
1018
1019
1016
1015
1019
1023
1026
1025
1023
1023
1027
1031
1034
1034
1034
1036
1036
1044
1048
1049
1048
1051
1055
1062
1062
1063
1063
1063
1068
1073
1074
1074
1073
1076
1079
1083
1084
1082
1078
1076
1077
1076
1074
1068
1059
1056
1054
1053
1048
1042
1035
1029
1026
1026
1023
1022
1017
1013
1015
1014
1014
1010
1004
1004
1004
1008
1007
1005
1002
1000
1001
1002
1001
1002
1000
996
999
1003
1005
1003
1000
997
1001
1005
1005
1003
1002
1000
1004
1005
1007
1003
1002
1000
1004
1006
1006
1005
1001
1001
1004
1004
1005
1003
1001
1000
1000
1003
1004
1003
1003
999
1002
1005
1005
1002
999
1003
1003
1006
1006
1005
1001
1000
1001
1004
1003
1005
1002
999
1002
1005
1004
1003
1002
1000
1002
1001
1002
1002
998
998
1000
1003
1001
1002
999
997
996
1000
1000
998
996
994
998
999
1001
998
996
998
999
1002
999
1000
999
996
999
1001
1000
1000
997
999
1000
1003
1003
999
997
999
997
1001
1002
997
996
994
998
1000
1002
999
996
996
997
1000
1001
1000
997
993
995
1003
1002
998
995
996
998
1000
1000
999
995
996
997
1001
1001
1000
997
999
999
1001
1001
1000
996
996
998
998
1002
999
998
996
998
1002
1002
1000
996
996
998
1002
1003
1002
998
992
997
999
1004
1001
995
998
1000
1004
1003
1004
1000
999
1000
1004
1006
1004
1001
998
1000
1005
1004
1001
999
1002
1004
1007
1005
1006
1005
1004
1005
1005
1005
1005
1005
1007
1012
1015
1018
1020
1019
1019
1020
1022
1022
1022
1015
1014
1017
1017
1017
1014
1011
1006
1009
1015
1015
1013
1009
1011
1010
1012
1016
1013
1013
1012
1012
1017
1016
1015
1015
1015
1018
1024
1025
1029
1030
1038
1047
1062
1077
1103
1128
1157
1192
1222
1251
1277
1298
1310
1304
1279
1236
1187
1144
1104
1070
1045
1030
1025
1023
1022
1024
1023
1021
1015
1009
1005
1004
1005
1005
1005
999
999
999
1002
1003
1001
997
997
999
1002
1001
1001
997
996
998
1001
999
1001
997
999
1000
1003
1003
1002
1003
1002
1005
1007
1007
1008
1008
1006
1009
1012
1014
1014
1012
1009
1015
1014
1017
1015
1015
1015
1020
1024
1025
1026
1025
1025
1030
1035
1039
1038
1039
1040
1044
1050
1052
1052
1052
1055
1059
1064
1066
1065
1063
1062
1066
1072
1075
1073
1073
1070
1072
1074
1072
1069
1063
1059
1056
1052
1050
1047
1040
1035
1032
1033
1030
1025
1020
1015
1015
1015
1012
1008
1007
1006
1008
1006
1006
1003
1003
1001
1001
1004
1005
1004
1000
1000
1000
1002
1004
1001
998
998
999
1002
1000
1000
1000
999
1001
1002
1005
1004
1001
997
999
1005
1004
1004
1000
1000
1002
1008
1007
1006
1003
1000
1004
1005
1007
1004
1003
1000
1001
1002
1002
1002
1000
999
1001
1002
1002
998
1000
997
1001
1002
1003
1003
997
995
1000
1002
1001
998
994
996
1000
1000
1004
1000
998
997
999
1002
1002
998
997
998
1000
1002
1004
1002
998
997
999
1000
1002
1002
999
997
999
1003
1002
1002
997
999
999
1000
1000
1002
999
995
1003
1003
1001
1000
999
1000
1002
1002
1005
1002
999
999
1001
1001
1004
1004
998
996
999
1003
1003
1004
1003
1001
1002
1004
1003
1002
999
1000
1003
1004
1004
1004
1000
997
1002
1002
1004
1001
1002
1001
1003
1008
1008
1004
1004
1000
1005
1007
1006
1005
1002
1004
1002
1006
1006
1005
1003
1002
1005
1005
1005
1006
1003
1003
1005
1009
1008
1008
1003
1005
1008
1007
1009
1010
1006
1006
1009
1011
1011
1008
1006
1008
1009
1011
1013
1011
1008
1010
1008
1014
1013
1012
1011
1008
1011
1016
1015
1015
1011
1012
1012
1013
1012
1012
1011
1012
1014
1020
1025
1023
1022
1020
1023
1022
1024
1023
1019
1016
1018
1019
1019
1016
1011
1008
1006
1012
1012
1012
1010
1010
1011
1016
1017
1016
1014
1011
1013
1018
1019
1019
1016
1018
1020
1024
1027
1031
1031
1037
1047
1057
1074
1091
1110
1133
1158
1188
1215
1234
1250
1272
1289
1287
1266
1234
1194
1154
1119
1092
1067
1049
1035
1033
1034
1034
1032
1027
1018
1016
1013
1012
1010
1004
1004
998
997
1002
999
997
995
990
992
996
998
996
994
993
997
998
996
996
996
997
999
1001
1004
1002
997
999
1003
1002
1004
1005
1003
1004
1005
1010
1013
1010
1005
1009
1012
1014
1016
1016
1013
1017
1017
1024
1028
1028
1026
1026
1031
1035
1037
1036
1038
1037
1042
1048
1050
1049
1049
1049
1051
1056
1061
1061
1059
1061
1063
1072
1075
1075
1068
1070
1070
1074
1073
1069
1066
1062
1063
1060
1058
1052
1045
1041
1039
1037
1033
1030
1022
1017
1016
1016
1016
1012
1007
1005
1004
1004
1004
1001
997
995
996
996
997
996
995
992
992
995
996
993
991
990
991
995
992
993
991
987
990
992
996
994
991
989
989
991
995
993
991
987
990
993
995
993
990
991
992
995
997
995
991
990
994
996
999
996
993
993
996
998
999
997
992
993
993
997
997
998
994
992
993
995
999
997
992
992
995
997
996
994
991
991
989
995
994
995
989
990
992
994
996
992
988
989
991
994
995
991
989
988
989
992
993
988
986
986
989
992
993
991
988
987
989
991
992
990
988
986
989
989
993
989
987
986
992
994
992
991
990
989
990
991
993
989
988
987
993
995
995
994
991
989
993
994
995
996
993
992
996
997
997
996
990
994
996
997
998
998
997
992
994
999
999
997
994
994
997
1000
999
1000
993
995
995
999
997
998
994
995
997
1000
999
1000
995
995
999
1001
1002
998
996
995
995
999
1000
999
997
997
999
1000
1003
1001
999
997
997
1003
1004
1001
999
998
998
1000
1002
999
1000
1000
1002
1003
1004
1005
1002
1003
1000
1005
1007
1005
1004
1002
1004
1005
1005
1004
1000
998
997
1005
1004
1007
1007
1009
1012
1018
1019
1019
1015
1015
1017
1021
1019
1017
1015
1011
1012
1013
1013
1010
1005
1005
1006
1006
1009
1008
1005
1001
1002
1009
1009
1008
1003
1003
1007
1008
1009
1008
1005
1007
1013
1014
1018
1018
1016
1018
1025
1031
1040
1044
1049
1066
1090
1115
1139
1163
1187
1206
1228
1254
1273
1279
1265
1240
1210
1174
1137
1105
1074
1049
1034
1026
1024
1026
1021
1020
1018
1016
1012
1007
1003
999
999
1001
1001
997
992
993
994
998
996
992
991
990
992
994
995
993
991
988
991
994
994
994
991
990
993
997
995
995
992
992
992
996
998
998
996
994
998
999
1003
1000
997
994
1000
1003
1002
1007
1003
1002
1007
1010
1012
1010
1010
1006
1012
1015
1018
1021
1017
1020
1023
1026
1030
1031
1031
1032
1035
1040
1042
1045
1047
1043
1047
1053
1057
1057
1055
1055
1057
1060
1066
1062
1060
1061
1058
1062
1059
1058
1054
1049
1045
1045
1041
1036
1029
1027
1021
1022
1022
1016
1009
1004
1007
1006
1005
1002
995
995
992
994
991
992
988
985
987
989
988
986
985
981
984
983
987
985
981
981
983
982
985
984
979
982
984
985
986
982
983
982
985
987
987
986
983
981
984
984
984
982
981
982
984
988
987
986
984
982
985
984
987
987
983
983
985
988
988
985
983
986
989
991
992
990
985
982
984
993
992
991
987
988
989
990
990
989
987
988
989
989
992
988
985
986
988
992
991
989
989
984
987
991
992
990
988
988
988
992
990
989
988
985
987
990
992
992
989
987
989
994
995
991
988
988
987
989
993
990
986
984
986
988
989
987
986
985
986
989
989
986
986
984
984
985
991
987
986
986
988
990
988
989
987
988
986
991
991
992
984
985
989
991
994
992
990
989
992
992
993
990
987
988
990
994
993
994
991
988
987
994
996
992
990
990
990
994
993
990
987
990
991
993
993
990
988
986
989
992
992
992
989
986
990
991
993
990
987
987
987
991
993
992
988
987
990
991
994
991
989
989
988
991
994
991
988
989
990
993
992
994
989
988
992
991
994
993
990
987
989
993
990
986
985
987
989
997
998
999
997
998
1000
1005
1005
1003
998
1001
1000
1003
1001
998
993
991
992
994
991
987
987
989
990
992
994
992
989
987
990
990
992
992
989
990
989
999
1000
999
998
998
1005
1011
1016
1018
1020
1026
1042
1061
1086
1108
1132
1161
1191
1216
1242
1265
1281
1292
1284
1262
1220
1178
1132
1093
1064
1036
1015
