972
966
959
956
957
960
962
964
967
970
969
967
963
962
962
970
973
971
969
967
968
969
970
973
972
965
962
963
967
966
966
964
959
959
959
963
963
963
966
970
971
974
970
969
970
975
982
987
984
979
974
974
973
969
972
969
970
973
978
980
981
983
981
985
988
994
995
992
989
990
994
998
1001
998
993
997
1001
1004
1004
999
993
990
994
997
1001
1002
1001
999
1008
1011
1012
1012
1012
1012
1016
1019
1022
1021
1021
1020
1023
1023
1025
1027
1028
1028
1029
1033
1033
1033
1038
1040
1038
1038
1036
1035
1040
1045
1050
1054
1054
1049
1050
1049
1055
1055
1057
1056
1059
1061
1062
1063
1065
1062
1059
1062
1063
1068
1068
1071
1072
1075
1077
1082
1081
1078
1080
1081
1083
1083
1083
1081
1081
1084
1088
1091
1090
1089
1090
1091
1093
1094
1093
1093
1089
1091
1098
1099
1100
1095
1095
1098
1102
1106
1103
1100
1094
1095
1098
1099
1098
1094
1091
1088
1089
1084
1086
1085
1081
1080
1083
1087
1082
1081
1077
1077
1078
1079
1078
1074
1071
1073
1076
1080
1078
1076
1075
1079
1084
1090
1094
1095
1102
1115
1137
1161
1184
1214
1236
1261
1288
1316
1339
1349
1339
1310
1273
1231
1190
1152
1119
1095
1077
1072
1074
1075
1077
1079
1076
1076
1073
1068
1065
1060
1061
1058
1052
1048
1046
1047
1049
1053
1051
1050
1048
1053
1056
1058
1058
1054
1055
1057
1061
1064
1065
1064
1065
1067
1067
1070
1071
1070
1068
1071
1072
1076
1075
1073
1072
1073
1076
1079
1078
1074
1072
1072
1071
1074
1072
1068
1066
1068
1073
1075
1073
1072
1069
1068
1075
1074
1072
1070
1066
1071
1074
1079
1078
1076
1075
1076
1080
1083
1083
1081
1080
1084
1086
1088
1090
1088
1084
1084
1085
1086
1087
1081
1077
1074
1071
1071
1065
1060
1051
1046
1043
1041
1036
1028
1023
1021
1019
1020
1016
1013
1011
1009
1008
1010
1007
1003
999
996
1002
1001
1000
997
995
994
999
1000
998
995
992
995
995
997
996
992
989
993
992
995
993
988
988
989
994
995
992
989
986
985
990
990
985
984
982
983
987
989
986
982
981
980
980
984
985
981
977
979
982
981
980
974
970
973
974
975
973
969
969
970
969
972
973
970
968
968
970
971
970
967
964
964
968
970
968
964
964
963
966
968
965
963
961
962
963
965
965
961
959
959
961
960
957
956
955
955
957
960
958
957
957
956
956
960
959
956
953
953
956
958
956
955
954
957
958
958
959
956
953
953
956
958
953
953
953
953
955
956
954
953
949
948
952
955
953
947
950
949
952
956
954
952
951
952
953
956
953
949
949
947
951
953
952
949
949
948
948
950
948
946
947
947
948
954
952
946
947
947
948
950
950
947
945
947
950
951
948
948
947
946
950
947
947
946
943
942
945
948
946
945
944
945
947
948
945
942
943
947
947
952
948
945
943
939
937
944
949
952
951
952
957
958
959
953
955
956
959
960
960
954
949
949
944
947
944
942
939
941
944
945
943
942
940
940
939
942
942
940
939
939
941
944
945
942
941
943
946
954
959
962
965
971
984
1005
1027
1047
1072
1099
1126
1153
1172
1196
1217
1225
1219
1194
1157
1114
1075
1041
1014
987
966
955
954
957
958
958
953
951
942
943
941
941
939
933
931
930
932
935
933
930
929
929
928
931
929
928
925
931
933
935
931
929
929
930
933
933
935
931
927
924
932
936
936
934
932
935
934
936
938
934
933
936
937
940
944
942
938
941
943
946
948
946
946
947
952
956
956
955
953
958
962
965
967
969
967
968
976
979
980
978
976
982
987
992
993
992
994
996
999
1003
1003
1001
999
1001
1004
1001
1000
994
987
986
984
984
978
973
967
963
963
961
956
951
947
944
944
944
941
932
928
930
932
936
933
928
926
925
927
929
926
925
924
924
926
924
926
923
921
922
926
925
924
925
922
921
924
928
925
921
920
919
923
926
925
926
922
921
924
924
926
923
921
923
924
926
928
925
923
923
927
930
930
928
926
925
927
929
928
925
925
925
928
931
928
924
923
923
926
930
928
926
922
922
923
926
924
921
921
921
923
923
924
920
918
919
920
922
923
922
919
920
922
927
924
918
916
917
920
923
923
918
917
918
922
924
924
919
918
918
921
926
923
921
918
919
920
922
920
918
917
921
920
921
918
922
919
922
923
923
923
921
917
919
922
924
924
921
921
918
921
925
925
923
918
921
922
926
929
923
919
922
922
925
925
926
922
923
925
927
924
921
921
921
927
926
927
925
923
923
925
928
928
925
924
923
926
930
930
926
921
923
927
929
929
926
926
924
925
930
930
928
928
929
930
933
929
926
924
926
929
934
934
930
930
930
932
933
932
930
928
931
932
934
935
933
934
937
940
940
940
938
939
941
943
945
943
938
934
938
937
936
937
932
927
928
930
933
931
930
925
929
932
934
933
930
926
929
929
934
931
929
927
928
931
939
934
933
933
933
941
946
952
953
957
968
985
1009
1031
1057
1084
1112
1142
1171
1199
1225
1244
1252
1244
1218
1175
1130
1088
1052
1017
986
960
943
934
941
948
946
946
940
934
929
932
930
930
924
923
924
925
927
925
922
917
918
921
924
923
921
921
918
920
925
926
922
919
920
924
925
926
923
922
921
923
930
926
925
924
922
928
932
930
929
927
928
931
935
937
936
933
933
935
942
942
942
941
945
946
949
952
952
950
952
958
962
963
962
964
963
970
976
976
976
975
977
982
984
989
990
988
990
991
993
995
993
992
994
994
998
997
993
986
986
987
981
981
974
969
967
964
964
959
952
948
947
944
945
942
938
932
930
930
933
932
926
926
925
923
929
930
927
921
922
924
927
927
923
922
922
925
928
928
925
923
924
925
926
929
928
924
924
927
929
931
928
925
927
929
932
931
930
926
927
929
931
932
928
926
929
930
935
934
931
928
929
931
935
935
932
930
932
929
936
935
932
928
929
933
937
934
931
927
930
933
935
935
932
929
931
935
936
933
931
927
926
930
933
932
932
927
928
931
931
934
932
930
931
931
936
932
930
930
930
933
938
936
932
931
930
931
934
934
934
932
930
933
935
934
934
933
935
932
937
935
934
930
933
932
934
933
934
931
933
937
938
936
936
934
935
938
940
940
936
932
933
936
935
939
936
932
935
935
939
939
938
934
937
937
939
937
934
934
932
937
938
937
933
933
936
939
941
938
938
934
935
937
942
939
939
938
938
939
944
943
939
934
936
938
944
943
940
938
937
941
943
942
939
936
937
940
946
944
941
941
942
944
946
946
943
940
940
943
946
945
944
941
943
948
950
949
947
944
945
947
952
949
950
946
948
951
949
946
945
945
945
950
955
960
960
961
962
965
968
966
965
962
960
965
967
964
959
956
953
953
956
953
952
946
950
950
952
955
950
950
948
950
955
953
954
948
951
952
954
955
954
952
955
957
966
965
966
966
975
979
988
996
1011
1029
1050
1075
1102
1127
1150
1168
1192
1223
1251
1262
1255
1234
1198
1159
1117
1078
1047
1012
987
974
973
971
973
967
968
966
965
959
957
954
953
954
956
954
950
947
943
945
949
948
946
942
944
945
950
947
947
943
944
946
951
950
948
946
948
951
954
953
951
950
949
952
955
956
956
953
957
958
962
960
959
960
959
961
968
968
966
961
963
967
972
974
972
971
972
977
980
981
980
979
979
983
990
992
992
990
995
997
1004
1002
1005
1001
1005
1012
1014
1019
1019
1017
1021
1023
1027
1027
1028
1021
1023
1027
1024
1026
1022
1016
1016
1016
1013
1007
1005
999
994
992
991
986
979
974
972
971
973
968
966
961
960
958
957
956
953
949
950
949
952
953
950
949
947
949
954
951
946
945
945
948
952
953
950
948
948
950
952
953
949
948
950
949
955
951
951
950
949
953
955
953
950
948
948
951
955
954
952
950
949
954
955
953
951
950
949
952
957
956
953
950
949
952
957
954
953
949
950
951
955
952
950
947
946
948
951
950
949
948
946
948
952
950
952
948
947
951
953
952
951
947
947
949
951
950
948
947
944
948
950
949
944
947
945
947
950
948
947
944
943
947
951
950
946
942
945
947
949
948
947
944
945
947
949
946
945
944
945
948
948
950
946
945
945
947
949
948
944
945
944
948
950
951
942
940
942
947
951
947
946
945
945
948
949
948
948
945
944
943
950
947
948
949
947
948
952
951
947
946
947
949
952
948
946
944
945
945
950
950
948
946
947
949
948
951
945
945
943
948
952
952
948
946
946
948
950
949
945
944
946
950
953
949
950
947
948
953
952
951
948
948
949
950
949
947
948
947
947
950
954
953
952
949
949
952
953
952
951
946
947
949
952
948
947
947
952
958
965
964
961
958
961
964
969
968
967
962
961
961
963
962
959
952
954
955
956
952
950
953
952
954
954
955
955
952
949
956
958
956
954
955
955
956
958
963
964
967
971
976
986
994
1007
1024
1048
1076
1100
1135
1162
1184
1211
1242
1260
1256
1228
1187
1135
1090
1053
1020
986
964
955
963
970
973
969
958
958
956
957
954
952
946
946
948
953
952
950
947
947
947
949
947
946
946
946
952
954
954
950
950
945
951
955
957
955
955
953
956
958
960
959
959
962
965
964
968
964
965
966
971
974
974
970
970
970
974
978
977
975
974
978
981
987
989
987
986
991
993
999
999
999
1003
1005
1008
1015
1017
1018
1017
1020
1023
1027
1029
1027
1026
1027
1034
1037
1037
1037
1035
1034
1036
1037
1033
1030
1024
1020
1017
1016
1011
1004
1000
996
996
993
988
981
979
975
975
976
974
972
967
963
965
967
966
963
959
958
960
964
964
958
956
952
954
960
957
955
953
952
955
960
956
953
950
952
954
956
956
954
952
950
953
957
953
953
949
952
959
961
957
957
954
954
956
961
959
958
954
951
953
956
957
956
951
951
955
958
958
955
951
956
956
956
959
954
951
950
953
958
953
954
950
948
951
953
952
947
947
949
951
954
952
948
946
946
950
953
953
951
945
947
950
951
949
946
945
947
948
951
952
947
946
946
946
953
950
948
947
946
947
951
947
944
947
948
948
952
954
950
949
948
949
952
953
948
948
948
948
952
951
950
949
947
951
952
954
953
950
948
954
954
952
950
949
950
952
955
954
954
951
952
953
955
955
952
949
948
952
955
954
951
950
951
955
961
957
955
955
955
958
962
961
958
954
955
960
960
959
955
954
953
956
959
960
957
953
957
957
964
962
962
956
955
957
960
963
960
957
958
961
964
964
963
961
960
965
968
967
964
961
959
962
968
974
974
974
975
975
979
982
980
979
976
978
977
974
971
966
966
968
969
968
965
967
965
967
967
966
964
964
963
969
973
973
970
968
969
971
975
971
974
975
979
986
995
1004
1018
1038
1064
1100
1133
1168
1196
1221
1251
1276
1285
1272
1241
1195
1147
1097
1060
1018
986
973
974
982
989
989
984
976
973
970
973
966
964
965
958
962
962
962
961
955
956
958
959
958
957
956
957
960
964
965
962
964
961
966
970
970
963
963
964
969
971
972
973
971
969
969
973
973
972
971
973
977
980
981
982
982
981
984
991
989
986
991
992
992
995
999
999
1002
1005
1010
1012
1017
1016
1016
1015
1022
1027
1030
1030
1031
1033
1039
1044
1043
1042
1040
1042
1045
1047
1045
1044
1037
1037
1034
1033
1029
1025
1023
1020
1018
1016
1010
1003
996
991
991
993
990
983
981
980
983
982
980
974
972
972
976
981
979
976
973
976
979
983
981
977
974
973
977
981
981
976
974
973
973
976
977
977
975
977
979
981
977
978
976
975
975
976
980
979
977
980
980
981
981
980
974
972
976
979
979
979
976
977
981
984
981
978
976
971
972
972
972
969
967
966
972
977
977
974
970
972
971
976
974
970
967
969
969
977
976
973
970
970
969
968
971
967
962
955
960
965
968
966
960
958
960
964
964
961
961
960
964
967
968
964
965
963
959
960
959
958
956
954
951
956
951
952
948
947
951
952
951
948
944
944
946
950
948
947
943
938
941
946
945
941
939
937
943
946
944
938
936
939
939
939
934
932
931
933
937
937
934
933
930
928
930
930
931
926
926
924
926
929
926
927
927
927
925
927
923
922
918
917
918
920
924
922
918
917
920
926
924
923
918
914
916
917
919
918
916
916
917
924
922
922
916
913
917
922
919
917
916
919
920
921
921
922
921
920
920
923
923
926
927
930
933
935
939
935
933
930
929
932
929
925
920
920
920
922
922
915
912
910
913
919
914
914
910
909
916
917
917
917
913
914
918
919
919
917
915
921
928
937
937
935
936
949
974
997
1024
1050
1079
1109
1137
1166
1195
1218
1222
1203
1172
1126
1070
1018
978
944
927
923
928
933
932
928
927
928
922
917
909
911
913
916
917
915
914
911
910
913
914
913
911
910
908
909
910
906
904
911
914
916
918
915
913
912
918
924
925
926
923
925
926
927
928
925
919
920
925
931
928
930
928
928
933
937
939
936
933
934
938
941
947
943
944
942
944
948
957
962
963
962
965
971
971
972
971
975
978
989
991
990
987
990
995
999
1000
1000
997
999
1004
1005
1003
998
994
989
987
985
982
975
967
962
958
959
954
953
947
947
949
948
943
941
937
936
935
938
934
930
924
928
929
932
932
934
932
931
930
933
932
929
926
924
926
935
935
934
929
928
929
935
932
928
925
928
929
936
935
935
935
933
935
931
933
932
932
929
935
934
936
932
930
930
936
940
937
937
934
937
938
942
940
937
933
934
934
933
931
929
929
933
938
942
939
937
934
930
929
935
934
935
933
933
936
935
931
930
928
928
929
933
935
936
934
932
931
937
933
927
927
928
935
938
941
936
931
930
926
934
933
932
931
929
924
924
922
923
925
929
932
933
929
927
925
925
929
937
935
936
934
931
931
934
933
931
924
920
924
929
930
930
927
933
935
934
936
929
928
929
930
932
934
931
932
933
937
937
933
931
929
928
931
931
933
934
936
935
936
938
938
935
934
936
939
943
939
937
936
935
937
938
937
933
930
930
932
939
943
946
942
942
942
945
943
941
938
941
944
950
949
947
942
939
944
948
954
951
948
945
944
946
944
944
946
951
953
959
960
956
953
953
954
957
959
958
955
957
960
960
959
958
954
951
949
952
952
951
948
946
947
949
950
951
951
952
953
955
954
948
947
946
952
956
959
956
954
953
955
959
965
966
969
972
981
987
993
1008
1032
1064
1101
1139
1167
1194
1219
1254
1282
1293
1283
1252
1209
1159
1114
1072
1033
993
966
954
957
965
975
979
979
974
971
970
963
959
952
957
959
961
956
953
948
952
956
959
960
953
948
945
950
955
958
959
956
956
962
963
964
959
953
952
953
959
960
964
966
965
967
968
967
965
964
963
966
965
966
967
967
972
977
982
979
978
977
974
975
980
981
985
984
985
989
991
989
991
992
997
998
1002
1004
1005
1005
1009
1013
1022
1025
1026
1022
1019
1025
1028
1028
1032
1031
1034
1043
1047
1049
1046
1043
1044
1046
1045
1044
1041
1032
1033
1031
1031
1026
1019
1015
1015
1012
1011
1006
996
985
980
986
990
990
987
982
979
980
980
977
973
972
969
969
976
979
977
975
971
974
979
978
975
972
968
967
971
975
981
978
979
982
986
984
980
979
977
980
984
987
986
984
982
981
984
983
984
985
982
985
987
986
982
985
987
990
992
993
989
984
985
987
994
995
990
984
982
987
989
985
984
978
980
986
991
988
985
984
983
984
985
985
983
979
983
984
984
985
984
984
983
987
991
988
986
981
982
985
991
995
990
980
974
975
983
986
983
978
980
983
979
979
971
969
970
972
973
981
985
986
986
991
990
988
982
979
975
977
979
978
979
979
975
971
972
972
973
970
972
972
977
978
978
974
974
976
983
985
984
984
982
977
980
978
975
978
977
979
978
974
972
969
971
972
980
988
986
984
982
985
987
985
991
995
992
989
986
989
983
979
973
976
981
980
981
982
981
985
989
983
982
982
982
988
993
997
996
992
985
984
986
987
988
987
989
990
992
993
996
1002
1009
1007
1005
1000
994
992
990
995
1002
1005
1006
1006
1005
1004
1004
1000
998
993
989
987
987
988
987
993
996
997
997
991
985
982
983
993
1001
1001
1002
997
994
993
988
988
987
985
985
987
985
984
983
986
993
1002
1014
1020
1023
1021
1027
1040
1063
1090
1122
1150
1181
1211
1238
1265
1294
1323
1339
1332
1307
1264
1212
1159
1115
1077
1041
1012
990
988
993
1002
1007
1004
1000
996
994
992
992
986
986
988
990
993
993
994
987
984
984
988
991
989
990
985
984
985
988
992
994
991
988
989
993
990
985
980
983
984
992
992
993
990
988
989
992
990
989
986
984
988
996
996
1000
995
993
996
1002
1003
1005
1004
1004
1005
1006
1009
1003
999
998
1009
1020
1025
1025
1024
1022
1026
1030
1036
1034
1034
1038
1040
1046
1048
1048
1046
1050
1053
1058
1060
1060
1058
1055
1057
1061
1061
1058
1052
1053
1053
1049
1044
1038
1031
1026
1026
1028
1020
1012
1010
1008
1010
1011
1009
1001
995
991
992
996
994
989
988
987
987
990
989
984
983
981
984
985
982
982
982
982
985
990
992
988
987
982
985
987
988
987
984
985
984
987
992
994
989
985
987
991
993
990
989
987
987
991
