980
977
977
980
984
986
983
978
978
981
982
984
981
980
980
979
982
985
985
980
980
984
986
986
984
984
983
987
990
987
985
982
983
988
990
989
990
985
984
988
987
991
988
986
988
988
990
993
992
991
990
992
992
994
993
989
990
991
994
996
997
992
989
992
997
1001
1002
1002
1004
1008
1011
1012
1007
1007
1008
1009
1012
1012
1010
1007
1003
1003
1005
1004
1003
999
996
1001
1000
1002
1002
998
997
1000
1002
1006
1003
1000
1001
1003
1007
1007
1010
1005
1008
1011
1016
1018
1019
1022
1025
1031
1041
1051
1062
1077
1100
1128
1156
1186
1211
1231
1256
1285
1311
1319
1317
1292
1255
1212
1169
1129
1094
1059
1035
1025
1023
1026
1027
1022
1017
1015
1015
1013
1008
1005
1001
1003
1005
1004
1003
998
996
994
995
1001
995
995
997
998
999
1000
999
998
996
998
1002
1003
1002
999
1001
1000
1004
1008
1005
1003
1003
1005
1008
1007
1007
1006
1003
1003
1006
1010
1007
1006
1008
1006
1011
1015
1015
1011
1013
1016
1019
1021
1020
1019
1020
1023
1028
1031
1031
1030
1030
1035
1039
1042
1044
1038
1041
1044
1051
1051
1053
1052
1056
1059
1062
1063
1065
1064
1062
1064
1067
1069
1068
1064
1064
1066
1064
1064
1058
1054
1048
1046
1046
1043
1037
1030
1023
1024
1024
1023
1018
1012
1009
1009
1010
1008
1005
1000
1000
997
1001
1001
997
995
992
992
995
994
993
990
990
993
993
995
995
993
993
992
997
997
996
993
991
992
993
997
993
990
988
993
997
995
995
990
993
992
998
999
994
993
991
991
995
995
995
993
994
996
1000
999
998
994
994
996
997
997
996
992
993
994
997
999
995
995
990
992
996
997
994
992
990
989
993
994
991
989
985
990
992
994
991
987
987
986
988
991
987
987
985
985
987
987
985
982
981
982
986
987
985
981
979
981
981
985
984
980
980
981
983
984
983
981
981
982
985
986
986
984
983
984
984
986
984
985
981
983
987
987
985
982
984
984
989
987
987
986
985
986
990
991
988
986
983
986
990
989
987
985
985
984
987
988
986
983
983
988
989
989
984
982
983
987
989
991
988
985
985
988
989
986
985
987
983
987
984
989
988
987
985
988
990
989
991
989
986
990
992
994
991
987
986
990
992
994
993
990
986
987
989
993
992
991
988
991
993
994
993
989
988
991
994
995
994
990
988
992
995
995
995
991
991
993
996
997
992
989
993
992
996
996
992
991
988
988
991
994
993
994
998
1004
1006
1005
1007
1002
1004
1007
1009
1010
1006
999
1000
1001
1001
1002
999
996
994
995
999
999
999
994
993
995
995
999
997
994
995
995
998
1000
999
997
999
1005
1009
1011
1011
1013
1020
1024
1036
1053
1071
1091
1114
1141
1174
1203
1224
1243
1269
1291
1307
1297
1268
1227
1181
1142
1107
1075
1048
1028
1023
1019
1020
1021
1017
1010
1007
1005
1001
997
993
987
987
987
988
987
989
983
984
985
986
985
983
982
982
984
985
987
985
982
982
982
987
988
987
983
981
979
984
984
984
984
984
985
989
990
986
982
981
985
990
990
988
987
986
986
992
1000
1000
998
999
1001
1004
1006
1000
1001
1003
1004
1009
1014
1017
1015
1015
1020
1026
1026
1028
1026
1027
1030
1038
1039
1036
1039
1039
1038
1041
1043
1043
1038
1035
1035
1033
1030
1024
1015
1010
1007
1004
1002
994
986
984
982
980
980
976
968
969
965
963
959
962
961
960
957
958
955
952
948
945
947
951
954
951
945
946
945
950
949
949
947
945
951
956
957
951
944
938
944
948
949
947
944
946
947
953
952
946
943
943
946
950
952
947
944
944
948
950
950
945
944
945
948
952
950
947
942
939
941
944
943
942
941
941
943
947
945
941
938
939
942
942
943
942
939
936
938
941
943
940
938
936
937
938
938
937
933
934
936
939
936
937
934
930
934
937
938
938
932
931
933
935
937
933
930
929
933
937
938
937
934
932
936
938
938
936
930
932
939
939
943
938
933
934
941
940
940
939
938
937
937
943
944
943
942
939
942
948
948
944
945
944
944
951
950
950
949
944
947
953
955
954
949
951
952
953
955
958
953
952
954
959
961
961
958
957
959
963
964
965
960
961
962
963
966
965
965
965
966
971
971
969
966
968
969
975
976
974
971
969
969
975
979
975
975
975
977
981
981
980
976
976
984
986
988
984
979
980
986
994
993
988
983
981
981
987
990
993
989
987
988
991
990
989
990
989
986
987
993
995
995
993
999
1001
1005
1004
1001
1000
1000
1001
1001
1001
997
993
993
991
990
988
989
987
987
984
986
987
985
985
988
993
996
991
994
992
999
999
1001
1001
997
998
1009
1017
1022
1032
1048
1069
1097
1123
1156
1185
1207
1232
1261
1287
1299
1285
1257
1224
1186
1145
1112
1075
1041
1020
1011
1012
1012
1008
998
989
986
984
984
977
973
969
971
975
977
975
973
970
966
965
965
967
965
965
967
971
973
971
963
958
959
962
967
962
961
962
963
968
968
966
967
967
968
971
970
969
969
965
968
973
975
973
974
973
974
979
980
981
981
977
980
988
992
991
991
990
995
999
1003
1004
1001
1002
1007
1011
1017
1019
1017
1017
1022
1026
1028
1029
1029
1028
1032
1033
1031
1023
1022
1018
1015
1016
1014
1010
1003
1000
995
992
991
984
978
975
973
974
973
968
965
964
966
968
963
964
962
960
959
959
960
959
960
959
957
962
962
960
960
958
962
966
964
963
962
963
963
966
967
969
966
964
965
971
970
969
966
967
969
973
972
971
970
971
975
975
978
975
975
974
976
981
983
981
977
977
980
979
983
980
977
979
982
984
984
984
979
979
981
984
986
981
978
978
978
985
987
985
983
984
984
983
988
987
984
983
987
990
993
991
986
987
987
990
994
989
989
988
991
992
996
993
989
987
990
992
993
991
991
991
991
993
994
992
992
991
988
991
995
994
993
993
995
995
998
999
995
991
993
999
999
999
996
995
999
1003
1002
1001
999
998
999
1003
1003
1001
997
994
999
1005
1006
1004
1003
1002
1000
1005
1006
1003
999
1001
1004
1004
1005
1004
1004
1002
1005
1004
1005
1004
1002
1003
1004
1006
1009
1008
1006
1004
1008
1008
1010
1010
1006
1003
1006
1008
1009
1008
1007
1007
1007
1008
1010
1011
1010
1008
1010
1014
1016
1014
1014
1011
1011
1016
1018
1016
1013
1014
1014
1017
1020
1018
1014
1015
1015
1016
1017
1020
1017
1017
1016
1018
1023
1022
1021
1020
1022
1021
1024
1022
1019
1018
1017
1021
1029
1031
1031
1031
1033
1037
1037
1034
1034
1035
1036
1036
1035
1031
1031
1029
1026
1029
1028
1024
1027
1023
1027
1028
1028
1027
1025
1023
1024
1029
1030
1028
1026
1024
1024
1031
1036
1032
1032
1035
1040
1048
1053
1057
1062
1073
1095
1120
1147
1173
1198
1225
1253
1281
1304
1321
1317
1296
1267
1231
1189
1151
1116
1089
1067
1057
1051
1051
1045
1044
1042
1040
1038
1033
1026
1023
1022
1025
1023
1020
1018
1017
1015
1017
1019
1017
1014
1012
1015
1014
1017
1014
1011
1013
1013
1018
1019
1017
1014
1013
1014
1017
1019
1016
1015
1014
1017
1019
1018
1016
1017
1018
1020
1024
1024
1024
1022
1024
1026
1028
1031
1031
1030
1030
1033
1035
1038
1037
1037
1039
1040
1045
1046
1049
1047
1048
1047
1054
1058
1061
1061
1060
1065
1070
1072
1071
1072
1075
1079
1080
1085
1084
1085
1085
1088
1091
1094
1091
1089
1084
1083
1083
1082
1077
1069
1066
1063
1062
1060
1050
1050
1045
1041
1042
1038
1034
1029
1025
1025
1026
1024
1021
1019
1013
1014
1015
1013
1014
1009
1007
1011
1012
1015
1012
1007
1005
1008
1009
1012
1010
1009
1004
1000
1009
1009
1009
1006
1006
1006
1009
1009
1008
1006
1003
1007
1009
1010
1007
1008
1003
1006
1008
1011
1011
1006
1005
1006
1008
1008
1008
1006
1002
1002
1008
1006
1003
1001
1001
1003
1004
1007
1005
999
999
1000
1006
1005
1002
1000
994
998
1002
1001
997
998
999
999
1001
1002
1001
998
993
995
998
997
1000
992
995
995
997
998
996
993
993
993
997
998
998
995
995
996
999
999
996
995
994
997
998
998
999
992
993
994
994
998
998
994
994
994
999
996
997
994
995
995
1000
999
996
995
994
997
995
996
994
990
989
991
997
997
995
989
992
995
998
999
998
994
993
996
1000
1002
1001
997
996
994
997
1000
998
999
998
996
1001
1002
1001
998
997
998
1001
1001
1002
997
995
998
1003
1005
1004
1001
998
1000
1003
1006
1004
1002
1000
1002
1005
1007
1001
1001
998
1002
1003
1005
1003
1000
999
1003
1006
1007
1010
1006
1003
1003
1006
1009
1008
1007
1008
1006
1007
1008
1005
1005
1002
1007
1007
1011
1008
1005
1003
1006
1006
1011
1010
1009
1007
1009
1014
1014
1012
1011
1009
1008
1012
1013
1014
1011
1011
1015
1017
1019
1021
1015
1016
1019
1023
1024
1021
1018
1015
1018
1018
1017
1015
1011
1010
1007
1010
1012
1010
1007
1008
1008
1013
1015
1014
1010
1008
1012
1013
1016
1013
1011
1011
1012
1017
1023
1020
1018
1023
1028
1037
1044
1048
1051
1062
1082
1108
1139
1167
1195
1220
1244
1277
1304
1317
1311
1291
1257
1213
1167
1128
1092
1060
1032
1020
1019
1017
1021
1022
1020
1019
1021
1015
1011
1008
1009
1011
1009
1007
1003
1002
1001
1007
1002
1003
1001
999
1002
1005
1006
1002
998
999
999
1005
1007
1005
1002
1001
1002
1004
1007
1007
1004
1005
1004
1006
1008
1008
1003
1001
1005
1010
1013
1010
1008
1008
1012
1014
1015
1015
1013
1011
1014
1020
1020
1017
1018
1019
1021
1024
1027
1024
1023
1023
1026
1030
1036
1034
1036
1035
1038
1043
1045
1047
1044
1045
1046
1051
1053
1052
1052
1055
1058
1058
1062
1063
1062
1060
1061
1062
1064
1064
1061
1057
1055
1057
1054
1050
1043
1040
1036
1036
1034
1025
1023
1017
1016
1015
1015
1009
1006
1006
1003
1006
1006
999
995
992
994
993
995
991
989
989
991
996
998
994
991
990
991
995
995
992
990
989
991
994
993
997
992
990
992
994
994
994
992
991
992
993
997
996
993
993
994
995
997
997
995
989
993
996
996
996
994
993
995
996
1000
1000
995
993
995
997
998
997
994
994
995
996
1000
995
995
994
996
997
998
996
994
994
995
998
999
998
995
992
993
995
996
996
994
991
994
995
994
994
991
991
991
992
997
994
990
990
991
994
997
995
991
990
990
992
994
993
990
990
991
996
996
995
992
993
995
996
997
997
994
993
993
997
998
994
992
994
993
995
1000
998
996
994
995
999
996
999
998
996
995
997
996
997
995
994
994
997
997
996
993
993
994
999
1002
998
996
998
1000
1002
1002
1001
1000
997
998
1000
1001
1000
995
995
997
1000
1001
1001
996
995
999
1002
1004
1004
1001
997
999
1002
1001
1000
994
997
995
1001
1003
1001
997
996
998
1003
1003
1002
1002
995
1000
1003
1003
1001
998
997
1000
1001
1004
1004
1000
1000
1002
1004
1001
1004
999
998
1002
1005
1005
1006
1004
1003
1005
1007
1005
1004
1006
1002
1005
1006
1011
1007
1003
1000
1003
1003
1008
1011
1013
1011
1015
1016
1018
1018
1014
1013
1018
1021
1020
1015
1011
1007
1010
1010
1008
1010
1004
1002
1003
1006
1007
1007
1005
1003
1007
1006
1008
1009
1004
1004
1003
1006
1010
1008
1005
1007
1010
1010
1011
1012
1015
1016
1019
1030
1038
1039
1047
1060
1082
1106
1128
1156
1179
1204
1231
1258
1286
1307
1316
1310
1289
1257
1219
1176
1140
1103
1073
1050
1035
1024
1025
1027
1026
1028
1024
1019
1012
1011
1008
1009
1007
1005
1002
998
1002
1003
1004
999
997
997
997
997
1002
998
996
994
997
1000
1002
999
998
996
999
1003
1004
1002
1000
1000
999
1006
1005
1003
1002
1001
1004
1005
1008
1005
1005
1005
1007
1011
1011
1010
1009
1011
1011
1014
1017
1016
1017
1013
1014
1022
1028
1026
1026
1025
1027
1035
1037
1033
1036
1034
1041
1044
1047
1049
1047
1046
1050
1055
1057
1058
1057
1056
1059
1064
1066
1067
1064
1064
1067
1070
1070
1068
1064
1061
1061
1060
1058
1052
1044
1043
1041
1039
1035
1030
1026
1019
1020
1019
1018
1014
1006
1002
1003
1000
1002
998
994
994
995
998
999
998
995
989
992
994
995
993
991
987
991
989
992
993
989
986
990
995
995
994
990
989
989
994
996
993
991
990
992
994
996
993
990
989
991
994
996
991
987
987
989
989
992
994
988
989
990
993
990
989
989
989
988
991
992
990
989
988
988
989
991
989
984
985
986
988
990
987
986
984
985
987
989
986
985
982
986
986
986
984
981
981
983
985
987
985
982
980
982
983
986
984
981
980
983
984
985
984
980
978
982
983
984
984
980
977
976
982
983
983
978
977
981
982
984
979
979
978
979
983
986
984
981
980
979
982
986
983
980
979
980
983
983
983
979
977
978
979
985
982
982
979
980
981
983
982
980
976
983
984
984
983
980
977
977
982
982
983
981
980
982
982
986
983
980
980
981
983
982
982
979
978
979
982
985
983
978
979
981
983
984
983
984
982
982
986
986
985
983
981
980
984
982
988
985
982
984
984
984
985
982
982
984
987
989
983
983
982
984
988
990
989
985
986
986
990
991
987
985
984
985
989
991
993
994
994
998
998
1001
1000
1000
998
996
1001
1002
998
990
991
986
991
994
990
983
986
988
989
991
990
987
987
987
987
989
990
988
988
988
993
994
992
992
988
994
1000
1004
1013
1016
1020
1027
1045
1064
1086
1115
1149
1183
1210
1237
1265
1288
1302
1296
1274
1232
1180
1131
1089
1053
1024
1004
997
994
1000
1003
1005
1001
996
990
987
986
985
987
984
980
976
976
979
978
978
976
974
976
978
981
975
975
972
975
979
978
979
975
974
975
979
981
982
977
977
978
982
980
981
980
979
980
982
986
985
982
980
982
986
990
989
990
986
993
994
996
997
998
995
1001
1003
1009
1008
1004
1007
1011
1017
1019
1021
1020
1020
1024
1028
1031
1029
1032
1030
1033
1040
1043
1043
1043
1042
1046
1048
1049
1044
1039
1040
1037
1038
1036
1030
1023
1017
1014
1014
1013
1006
999
997
994
995
995
992
985
982
981
982
979
978
976
973
974
974
979
975
972
969
971
970
976
974
972
968
967
971
974
972
970
969
969
970
975
974
970
970
972
975
977
975
972
967
970
973
976
974
969
970
971
972
975
974
965
969
971
974
974
975
972
968
971
974
974
973
967
965
970
972
972
971
967
968
968
972
972
971
968
967
968
968
969
971
964
963
967
969
970
967
968
965
966
969
971
970
965
965
965
967
972
972
969
963
966
969
969
969
968
965
967
969
971
970
966
966
967
970
971
967
963
961
963
967
969
969
964
965
966
968
969
966
967
967
967
965
970
969
967
962
965
968
970
968
964
963
965
966
968
968
964
963
965
969
971
970
968
966
968
967
972
969
965
963
967
965
968
969
966
965
967
969
972
967
968
964
968
970
970
968
964
966
968
967
970
967
966
964
966
970
972
972
967
967
968
971
974
972
969
970
970
972
973
974
972
970
973
976
977
977
973
972
974
974
976
977
975
977
982
986
989
987
985
984
986
985
988
984
981
975
975
977
979
972
970
967
969
974
974
974
971
970
972
974
975
974
971
970
970
974
977
975
973
971
974
979
982
983
983
989
997
1008
1023
1044
1066
1094
1127
1159
1188
1216
1242
1273
1293
1295
1274
1234
1187
1139
1098
1062
1029
1006
993
990
991
994
992
986
979
971
970
974
973
970
967
963
963
965
967
963
961
958
961
962
963
965
959
961
960
962
966
965
962
961
962
962
969
967
963
961
964
970
971
969
965
967
970
973
974
976
973
971
970
976
980
979
978
979
980
985
988
989
986
985
989
997
999
1000
999
1001
1004
1009
1012
1012
1012
1013
1016
1019
1025
1025
1021
1027
1026
1030
1034
1035
1033
1031
1028
1030
1031
1025
1021
1016
1014
1012
1010
1004
996
993
990
989
987
982
976
971
969
970
969
966
962
961
961
962
961
962
957
954
957
959
960
957
954
952
952
957
960
957
953
952
954
956
957
955
954
954
953
957
960
961
956
954
957
960
961
958
956
955
956
960
960
957
954
954
956
957
958
955
954
952
953
957
957
955
952
953
956
957
957
955
953
950
951
952
958
957
954
954
954
955
957
956
954
952
952
952
955
955
952
951
949
954
955
953
949
948
947
952
952
953
951
950
953
955
955
954
952
952
953
954
954
954
954
952
954
954
959
958
954
951
953
955
957
956
954
952
953
955
957
956
953
950
952
955
956
956
954
950
951
955
957
956
955
950
951
954
957
956
954
949
951
954
956
956
951
951
952
956
956
958
950
952
953
954
957
956
954
952
950
953
957
956
954
953
954
954
958
957
953
954
956
956
958
959
954
954
955
958
960
960
958
955
958
958
961
959
959
955
955
959
961
961
957
955
958
961
963
963
961
958
960
961
964
960
957
956
955
957
963
965
965
965
970
974
977
975
971
973
973
971
975
971
966
959
964
966
966
963
959
955
957
960
963
961
957
958
959
961
965
959
958
956
959
963
966
966
967
966
968
974
978
981
983
987
994
1006
1024
1044
1065
1089
1119
1150
1178
1200
1229
1248
1254
1245
1223
1185
1140
1100
1065
1034
1011
993
981
976
982
984
983
973
968
965
965
964
964
962
961
955
956
957
959
958
955
952
954
954
957
957
952
950
950
952
955
955
953
952
951
953
954
953
954
952
953
958
957
958
955
954
957
960
963
961
960
958
961
964
965
968
964
963
966
972
976
973
972
972
974
978
982
984
983
983
987
993
996
998
996
997
1002
1006
1010
1011
1010
1010
1013
1017
1021
1020
1021
1021
1028
1030
1034
1031
1031
1029
1029
1031
1031
1029
1021
1017
1013
1009
1008
1001
994
991
989
987
986
979
973
972
969
966
967
963
959
959
953
955
959
957
950
948
952
954
956
956
952
950
949
954
955
954
952
950
949
952
953
952
949
946
950
952
952
952
952
952
950
953
954
952
950
949
952
958
959
957
955
952
954
954
958
954
954
951
956
955
960
957
953
954
955
959
960
960
955
955
956
958
961
959
956
956
956
959
962
958
956
954
955
957
959
956
957
954
952
954
956
