966
967
970
972
970
968
964
965
967
967
967
964
959
963
967
970
967
963
961
964
965
968
967
964
962
962
964
968
966
961
960
961
965
967
964
960
957
954
960
964
964
960
957
959
962
962
961
959
958
959
959
961
963
957
958
960
962
963
963
960
958
958
961
965
962
961
960
962
961
963
962
962
956
962
962
964
962
959
959
960
960
965
966
961
962
960
963
964
964
961
959
962
964
966
966
962
960
963
964
966
966
960
961
962
963
965
965
963
960
959
962
961
962
963
961
963
963
964
965
964
964
960
962
963
963
963
960
963
963
967
967
964
965
961
965
969
967
969
967
968
966
970
968
969
967
972
976
980
979
979
977
977
978
981
980
978
973
981
979
983
982
978
973
974
973
977
977
971
967
967
971
973
970
964
965
964
964
963
963
963
960
959
960
963
964
962
960
961
961
964
965
962
961
963
968
971
970
967
966
966
970
975
978
980
981
985
998
1012
1026
1048
1066
1093
1125
1154
1178
1198
1220
1244
1247
1229
1195
1149
1103
1061
1031
1005
986
972
970
973
981
980
975
971
964
965
965
967
965
962
958
960
961
966
963
959
959
961
960
966
963
960
959
959
959
964
966
963
959
962
967
970
968
967
967
967
975
975
975
973
972
974
977
981
981
979
975
979
982
985
985
985
984
988
994
996
994
996
993
999
1004
1005
1008
1008
1009
1014
1017
1022
1018
1022
1018
1023
1028
1032
1030
1032
1030
1030
1037
1039
1040
1038
1040
1042
1045
1048
1041
1034
1030
1028
1028
1027
1023
1016
1009
1007
1004
1004
1001
994
991
989
990
991
987
982
979
979
980
982
980
976
976
977
977
977
975
975
972
977
975
975
977
977
973
977
979
980
981
976
976
976
982
984
982
981
978
980
981
984
981
979
978
980
983
988
985
980
982
983
986
985
986
984
981
983
984
986
986
984
981
984
985
987
986
983
980
983
985
990
986
983
980
981
983
987
987
984
980
983
985
987
984
983
980
982
984
987
986
981
980
980
982
987
986
982
979
980
984
986
984
985
982
981
985
986
986
984
978
981
985
988
987
982
982
983
984
985
988
984
981
982
985
988
986
987
985
984
986
988
988
985
981
981
986
990
989
984
983
982
986
988
987
985
980
984
988
988
988
985
984
984
988
990
989
983
985
985
987
989
985
984
984
985
989
992
991
989
986
986
987
992
990
983
985
983
984
989
990
988
987
987
990
997
994
991
990
989
994
999
996
993
996
997
1000
1004
1005
1003
1001
1000
1004
1005
1004
1000
999
1003
1000
1001
999
993
989
992
992
997
997
993
990
991
993
992
991
985
982
986
988
987
986
984
981
983
988
988
987
984
982
986
986
991
987
984
979
986
986
988
988
987
987
991
994
1002
1005
1006
1012
1027
1052
1079
1101
1121
1150
1180
1205
1235
1259
1283
1285
1265
1231
1186
1134
1086
1050
1019
1003
994
993
993
995
993
990
990
986
981
977
979
980
979
976
973
971
971
973
975
975
971
970
970
973
974
972
973
969
970
970
975
973
973
973
973
975
974
974
975
974
974
978
982
981
978
977
980
983
986
987
986
984
985
987
991
994
993
993
992
996
998
998
996
999
1002
1006
1008
1012
1010
1009
1011
1016
1018
1021
1020
1020
1022
1027
1033
1032
1029
1028
1032
1037
1040
1039
1038
1034
1028
1032
1030
1028
1024
1018
1015
1010
1010
1005
1002
995
995
994
993
986
980
979
976
975
976
975
970
969
968
969
969
966
959
960
960
962
965
966
966
963
965
965
963
965
959
957
958
961
963
962
961
960
960
963
962
965
961
962
963
967
966
964
962
962
964
968
970
969
966
962
962
965
968
969
963
966
965
968
969
968
966
959
962
963
968
969
967
963
963
966
967
966
962
960
963
966
966
963
960
957
959
963
965
961
960
958
960
961
964
963
961
958
959
963
963
965
961
958
956
957
960
960
954
953
955
957
958
957
952
950
956
960
963
963
963
960
958
964
964
966
963
958
954
954
959
957
957
954
956
958
960
961
959
957
960
959
960
958
958
958
961
960
963
960
958
959
960
963
963
963
962
959
960
962
964
963
959
959
959
961
965
962
961
961
963
965
966
965
964
963
964
966
969
967
963
963
965
969
969
968
965
965
967
966
967
967
965
964
966
968
969
968
966
965
966
967
969
967
964
966
968
971
974
972
970
968
968
973
974
975
975
973
976
981
986
984
982
982
981
983
988
984
982
983
987
988
989
983
976
975
976
977
980
979
976
972
971
978
979
978
973
971
970
972
977
975
970
964
965
967
968
967
962
960
963
968
969
969
967
964
967
973
975
973
972
969
972
978
983
984
983
986
988
999
1007
1012
1019
1033
1054
1083
1107
1136
1158
1175
1197
1225
1246
1248
1225
1190
1150
1108
1072
1035
1009
987
981
984
992
992
987
982
980
978
979
975
969
964
966
966
972
969
965
964
966
968
970
968
968
965
967
972
975
974
969
965
965
969
974
971
970
968
969
974
978
980
978
973
975
982
985
986
983
982
982
988
993
991
990
987
988
994
999
999
997
996
997
1003
1007
1010
1008
1008
1007
1012
1019
1023
1021
1022
1026
1030
1032
1032
1029
1027
1029
1034
1038
1039
1038
1038
1040
1047
1048
1048
1045
1042
1041
1043
1041
1040
1032
1027
1026
1020
1023
1019
1014
1006
1005
1005
1007
1001
992
982
984
983
986
986
980
977
976
978
980
980
980
978
975
975
977
975
974
971
973
975
979
979
979
974
972
973
974
976
977
976
973
976
981
978
977
975
978
979
984
982
982
982
982
983
984
984
981
983
980
986
988
990
987
983
982
983
985
984
986
981
981
986
984
987
984
981
983
984
988
985
984
981
984
989
991
990
985
981
983
983
986
984
980
979
981
986
984
983
983
979
981
984
986
988
984
983
984
987
990
987
984
980
980
986
988
989
985
983
985
989
989
988
983
981
983
985
988
986
983
980
980
986
989
990
988
984
985
984
990
990
986
984
984
988
989
988
986
985
984
986
989
990
988
986
986
988
988
989
987
983
985
985
987
987
985
982
981
983
986
989
983
984
980
986
990
991
990
984
987
987
991
988
987
984
985
984
986
988
989
985
986
988
990
988
987
986
985
989
989
989
989
987
989
990
994
994
992
993
992
994
991
991
993
994
1001
1001
1005
1007
1007
1004
1005
1004
1007
1004
1004
1002
1007
1007
1009
1007
1003
998
996
999
1004
1001
996
991
993
991
993
993
986
987
985
989
991
990
987
979
985
986
987
987
982
979
985
986
989
987
985
982
984
985
990
988
987
988
990
997
1000
1000
1002
1004
1009
1017
1023
1035
1053
1074
1102
1129
1163
1189
1215
1240
1270
1293
1294
1270
1230
1187
1142
1107
1068
1034
1004
988
988
995
999
998
992
988
987
986
987
986
984
980
976
975
978
976
975
970
973
976
978
977
975
974
975
972
977
978
972
974
975
977
977
978
978
979
978
980
980
980
978
977
980
981
987
987
983
983
985
989
994
993
992
990
991
995
999
997
995
994
999
1002
1005
1007
1008
1004
1008
1012
1018
1019
1017
1017
1019
1020
1025
1027
1027
1027
1028
1035
1036
1035
1033
1033
1036
1040
1042
1041
1038
1037
1040
1042
1045
1042
1034
1029
1028
1027
1026
1021
1013
1006
1003
1003
1003
999
994
989
988
989
989
988
982
979
977
978
978
975
973
968
971
973
973
972
970
969
969
973
974
973
971
968
967
968
974
973
970
967
968
969
974
976
975
972
974
972
974
977
973
970
970
975
979
977
977
971
976
977
980
978
979
977
977
979
982
978
977
976
978
978
981
978
975
974
973
978
980
980
977
974
974
975
979
977
973
971
973
973
977
975
976
970
972
970
970
971
973
969
969
971
974
972
974
971
971
971
974
969
966
966
967
971
974
973
970
966
968
971
976
975
970
967
968
970
973
973
970
970
971
972
973
971
968
966
968
969
970
971
966
965
967
969
972
972
971
968
969
970
972
971
967
966
967
972
974
973
968
966
971
972
972
969
964
966
965
968
971
967
965
965
967
972
975
974
968
967
969
972
971
971
968
966
970
973
975
973
972
969
970
972
977
975
974
970
971
973
973
972
971
969
970
973
976
975
972
972
969
976
979
978
975
977
978
982
988
988
985
987
987
988
993
989
984
983
987
990
995
991
984
980
980
982
985
983
979
974
979
978
979
977
975
971
975
974
973
971
966
966
969
973
975
971
970
965
967
972
973
972
971
972
970
977
976
974
969
970
973
979
982
984
984
985
991
1000
1010
1024
1040
1062
1087
1113
1141
1166
1186
1205
1230
1249
1245
1219
1182
1142
1101
1068
1038
1010
990
979
980
982
986
985
983
977
975
975
975
972
967
966
964
967
967
965
963
962
966
966
972
967
966
964
964
966
968
968
965
959
962
968
970
971
973
969
967
969
973
970
973
971
972
974
980
980
978
978
979
980
986
987
987
986
986
990
994
992
996
995
992
997
1003
1001
1002
999
1003
1005
1013
1015
1014
1013
1016
1024
1026
1025
1024
1025
1025
1028
1036
1035
1032
1029
1028
1032
1039
1037
1033
1027
1026
1023
1023
1019
1016
1009
1005
1003
1001
999
992
987
982
986
984
982
979
970
969
973
975
974
970
967
964
968
969
968
968
966
966
965
970
969
967
963
956
962
968
970
968
965
966
966
969
969
968
964
965
969
971
972
970
967
967
968
975
971
971
970
969
970
976
976
971
970
970
971
973
973
971
968
968
970
970
970
968
966
967
970
972
972
971
967
967
969
970
966
965
963
963
964
966
966
962
961
966
969
968
966
968
962
963
965
966
964
963
960
960
962
964
967
965
963
964
963
963
961
961
962
961
965
965
966
961
963
965
963
967
966
963
960
960
962
965
964
966
963
962
966
970
967
965
963
963
963
963
962
960
961
962
962
966
966
964
961
962
965
966
966
962
961
962
962
967
966
966
964
966
969
971
971
971
969
969
970
972
971
968
966
968
969
973
974
970
966
966
968
970
973
971
968
969
971
971
975
969
965
969
973
977
977
975
974
973
975
976
979
977
975
976
981
984
987
986
986
987
989
993
992
987
987
986
990
992
989
983
980
980
982
982
977
974
970
973
977
979
977
971
968
970
970
970
966
966
963
969
970
974
973
973
972
971
970
977
976
972
966
966
969
973
974
971
975
978
981
987
992
993
997
1003
1022
1047
1073
1096
1122
1153
1179
1206
1230
1252
1269
1268
1249
1212
1163
1110
1062
1026
1003
985
979
976
977
982
980
983
981
975
968
966
968
971
969
965
964
963
969
972
969
961
958
956
961
967
968
964
965
963
967
970
971
970
967
967
969
973
973
969
966
963
969
974
975
971
970
970
976
979
980
978
974
975
982
982
988
987
984
988
988
991
994
992
993
995
998
1004
1005
1007
1008
1009
1011
1014
1013
1016
1015
1016
1020
1023
1026
1026
1024
1024
1025
1031
1034
1030
1028
1026
1029
1028
1025
1024
1019
1016
1010
1004
1002
994
993
991
990
988
983
976
971
972
972
973
972
967
965
963
964
967
966
960
957
958
961
963
962
956
955
958
959
958
958
953
952
953
960
961
962
960
958
959
963
965
964
959
955
957
962
965
964
961
958
962
965
967
962
957
958
961
965
967
964
959
957
958
961
964
963
961
960
961
962
961
962
957
956
957
958
962
958
955
950
953
956
956
954
954
956
956
955
954
954
949
944
950
953
955
952
947
946
946
952
953
950
949
948
952
956
958
952
950
947
947
949
950
947
947
945
949
951
953
950
948
946
949
951
954
952
950
945
948
948
953
952
949
948
947
948
953
952
949
948
950
952
953
953
948
950
951
951
954
950
949
946
948
952
956
954
953
946
951
954
957
957
957
954
953
955
954
953
954
950
951
951
954
957
957
953
952
952
955
956
953
952
955
958
960
959
956
952
953
955
960
963
959
955
960
965
966
962
962
961
962
967
970
971
970
967
971
976
978
977
974
971
971
975
977
979
976
972
972
974
977
975
973
968
968
965
971
972
968
963
959
958
964
964
959
953
956
957
959
961
957
957
957
960
962
957
958
957
959
964
963
960
959
957
961
967
968
965
965
968
976
983
993
1002
1011
1034
1062
1091
1117
1149
1173
1196
1222
1247
1251
1227
1185
1133
1079
1038
1009
987
976
969
972
976
976
972
967
962
960
961
956
954
948
948
952
954
955
955
951
949
947
950
952
952
950
949
953
955
957
957
953
954
954
956
961
962
960
958
958
959
965
961
961
959
958
969
969
964
964
961
965
971
976
977
973
973
978
979
986
988
990
988
993
994
998
1001
1001
1000
1003
1007
1010
1006
1006
1006
1010
1012
1018
1018
1018
1021
1021
1021
1022
1023
1020
1019
1018
1017
1018
1013
1007
1000
997
995
995
989
981
978
977
973
974
970
963
960
960
959
961
959
955
955
952
954
957
956
954
951
948
953
957
957
953
950
953
953
956
955
952
947
945
951
953
953
955
954
955
954
953
958
954
951
948
951
955
957
957
953
953
952
955
956
956
955
952
957
961
961
961
956
955
954
961
957
954
951
951
956
960
962
960
956
955
957
958
959
956
951
954
957
959
957
957
953
952
956
959
957
956
954
955
959
963
962
960
956
956
958
958
959
958
954
954
955
960
960
958
956
955
956
959
958
954
952
954
957
959
955
957
955
955
959
962
960
955
953
952
954
958
959
955
955
955
956
962
964
961
960
959
959
962
961
960
956
958
959
963
959
959
956
959
960
963
963
960
960
957
962
963
965
963
960
958
962
966
964
963
960
960
963
963
964
964
960
961
961
966
965
964
961
960
964
969
967
964
964
966
967
971
971
968
966
966
970
970
973
972
968
968
971
974
981
978
978
979
983
984
984
981
978
982
983
987
982
984
982
984
985
985
982
980
978
978
979
983
980
978
976
976
973
974
971
969
967
965
971
971
973
968
969
968
968
972
972
968
966
966
967
972
969
968
969
968
972
974
973
973
970
970
977
984
986
992
992
1001
1007
1026
1046
1073
1091
1119
1151
1179
1203
1223
1244
1266
1268
1252
1214
1169
1120
1075
1042
1017
996
978
973
979
984
989
989
986
982
979
977
976
973
971
968
969
972
973
975
971
966
968
970
975
973
975
970
972
976
978
978
974
976
977
980
982
977
976
976
977
978
979
980
976
976
981
985
987
987
987
985
984
988
991
993
990
991
994
998
1000
1003
1002
1000
1002
1006
1011
1012
1013
1013
1014
1019
1023
1023
1026
1025
1028
1033
1036
1038
1037
1036
1038
1039
1043
1045
1044
1043
1044
1046
1047
1043
1039
1038
1035
1034
1036
1030
1025
1019
1012
1009
1011
1008
1003
996
993
993
993
991
985
979
978
978
983
982
977
975
977
979
982
981
978
970
973
974
976
974
975
971
971
975
975
977
975
974
974
978
979
982
975
974
974
975
979
977
977
978
980
981
982
981
979
977
977
980
986
985
982
978
983
984
987
988
986
983
985
985
987
987
982
980
980
985
983
985
983
979
980
979
983
982
981
977
978
976
979
982
977
976
979
981
982
982
978
975
977
980
984
981
978
978
979
979
976
976
973
972
975
974
975
976
975
973
975
978
981
978
975
971
974
977
978
977
975
972
974
978
979
979
979
975
978
980
985
985
982
978
979
980
982
979
976
973
973
973
979
979
976
974
976
980
981
981
978
974
978
979
980
981
978
976
980
983
985
984
978
977
981
982
985
982
981
979
978
981
983
983
979
979
978
979
980
983
979
979
981
981
982
980
977
977
979
984
989
987
984
982
982
987
994
993
990
986
983
986
993
995
995
997
997
1000
1002
1001
1000
998
999
1001
1004
1002
999
996
997
999
1000
996
993
989
993
995
996
993
989
987
988
992
995
993
986
982
981
984
987
985
983
980
982
985
985
986
982
978
980
983
987
984
983
981
982
986
989
986
986
984
983
986
989
990
990
992
997
1006
1010
1019
1026
1043
1064
1090
1113
1138
1162
1181
1207
1232
1258
1269
1259
1233
1195
1160
1120
1078
1044
1017
1000
997
997
995
995
996
992
990
992
987
979
978
978
977
980
977
974
971
972
976
980
977
975
972
974
976
978
977
975
973
977
981
980
976
975
971
971
973
978
977
978
974
977
978
981
982
981
980
981
985
990
987
986
985
985
991
994
994
995
990
997
999
1002
1003
998
999
1002
1009
1011
1013
1013
1007
1015
1019
1022
1025
1024
1023
1021
1027
1034
1036
1036
1031
1035
1040
1044
1045
1042
1040
1042
1042
1045
1047
1045
1042
1040
1043
1042
1036
1031
1026
1025
1022
1022
1020
1013
1007
1001
1000
999
995
991
987
981
983
982
980
977
974
974
976
976
976
972
970
971
972
975
973
972
969
971
973
977
973
973
970
969
971
973
975
972
970
970
971
976
974
973
971
972
974
976
975
969
968
969
974
977
976
972
971
973
973
974
973
971
970
970
970
974
974
973
968
967
970
971
970
971
968
966
969
971
972
969
966
967
969
971
974
967
965
966
966
970
970
968
965
963
965
969
967
969
964
965
966
970
968
965
962
960
964
967
968
967
964
964
966
969
967
966
963
964
967
970
970
968
966
965
966
969
966
965
964
964
965
965
967
966
964
965
966
968
969
967
967
966
968
971
970
967
966
965
969
968
968
967
967
968
969
971
967
967
965
968
970
972
970
968
