929
930
936
938
939
939
938
940
946
948
950
947
947
951
955
956
957
953
960
963
966
967
968
970
972
974
976
979
977
977
978
983
983
986
985
981
978
980
981
978
972
968
964
962
962
956
952
946
941
942
941
939
935
931
927
927
926
925
922
918
918
919
923
922
921
918
918
915
916
919
917
917
918
921
920
918
918
916
916
918
921
921
918
918
918
920
922
921
923
918
917
919
922
924
925
922
921
922
923
927
927
925
922
924
926
927
925
920
922
924
926
927
924
922
922
920
926
925
924
918
921
922
925
924
921
920
916
915
917
921
920
919
917
916
919
922
923
919
918
918
916
917
919
916
913
917
919
924
922
919
917
916
920
922
923
917
920
916
919
921
920
920
917
917
921
921
919
919
918
921
923
924
920
917
917
919
922
923
919
918
917
918
923
923
921
918
918
920
922
922
919
920
918
920
920
923
924
920
915
918
921
921
919
918
919
919
924
924
925
919
922
920
922
924
924
922
920
922
924
925
927
921
921
921
924
927
927
925
924
922
925
924
924
921
920
923
927
929
929
926
927
929
929
932
933
931
930
933
932
937
937
937
935
944
944
945
947
942
943
944
945
948
948
946
945
946
945
945
943
939
934
934
937
936
932
931
928
928
932
929
926
922
924
925
925
925
925
922
924
925
929
928
930
927
927
927
933
932
931
925
923
927
931
931
929
928
927
932
937
937
939
939
943
949
954
957
967
977
994
1016
1041
1066
1090
1110
1128
1152
1176
1196
1200
1177
1144
1105
1064
1025
989
965
944
937
937
940
947
943
940
939
939
938
934
933
929
929
932
936
931
931
925
929
930
934
931
928
926
929
930
930
930
926
928
931
933
936
934
933
933
934
938
941
940
932
934
938
940
943
945
943
940
943
950
950
949
949
950
954
953
957
961
957
960
961
967
968
967
967
969
970
975
979
978
978
977
983
984
987
991
991
992
995
998
1002
999
997
999
1001
1005
1009
1010
1006
1008
1010
1012
1013
1011
1009
1005
1006
1005
1002
998
988
986
985
984
982
977
971
969
967
969
965
961
957
952
952
953
953
950
946
947
948
950
948
949
946
943
945
946
948
947
942
941
942
946
946
943
939
938
941
943
947
946
942
942
942
947
947
949
949
944
945
950
950
951
949
949
948
953
958
954
955
950
951
956
957
955
957
955
955
959
959
957
955
953
956
959
961
957
955
955
955
958
957
957
954
957
955
957
957
957
955
953
958
959
961
960
954
952
955
957
960
960
956
956
955
958
958
956
953
955
956
958
961
959
953
950
951
957
961
958
954
954
956
959
960
960
956
952
952
958
961
960
955
956
957
960
959
961
959
958
959
961
963
957
957
955
958
958
960
957
955
955
954
959
958
960
956
955
955
960
961
962
956
956
960
959
963
961
959
958
958
960
959
958
957
955
960
961
960
958
958
958
958
960
962
959
954
957
957
959
959
958
955
955
958
957
960
960
957
955
957
959
960
960
957
958
961
963
964
962
962
962
965
965
972
972
969
971
973
979
981
978
971
970
973
979
978
974
973
969
970
976
973
969
965
964
966
969
969
969
966
960
962
962
962
958
955
954
953
953
957
954
954
953
949
950
955
954
954
952
953
954
957
957
957
955
954
957
960
960
955
957
956
962
964
964
965
968
972
977
984
990
1002
1023
1049
1073
1096
1122
1150
1177
1204
1233
1257
1267
1257
1226
1192
1150
1106
1063
1023
992
971
964
963
964
965
965
964
964
964
958
950
945
947
951
952
947
943
942
943
947
948
945
942
941
942
948
948
947
944
946
943
947
949
951
948
948
950
954
956
951
949
947
951
952
959
957
953
952
951
960
962
963
958
957
959
965
966
970
966
963
966
973
976
978
972
974
976
984
986
985
986
986
987
995
1000
1000
998
996
1000
1003
1007
1009
1009
1005
1009
1011
1009
1011
1009
1007
1010
1013
1016
1014
1003
1002
999
1000
999
994
989
982
978
979
976
974
968
963
961
961
962
958
956
952
950
952
953
950
947
941
944
947
947
945
943
945
944
945
948
946
943
941
943
946
949
949
946
942
946
948
950
946
947
942
945
946
950
950
947
945
947
950
952
948
946
946
946
948
950
950
946
947
947
949
950
950
945
943
945
946
949
946
943
944
948
948
950
948
946
944
945
949
949
951
946
945
944
946
949
948
944
942
941
945
946
944
945
939
939
945
946
944
943
942
943
942
947
946
944
940
940
944
947
943
940
939
942
944
948
947
943
941
941
946
948
946
942
941
939
944
946
946
945
941
943
947
947
947
944
943
944
946
950
948
943
942
943
945
946
947
943
941
940
947
949
947
944
942
943
946
948
945
942
938
943
946
950
949
945
944
946
948
950
945
944
943
945
944
947
946
944
942
946
946
950
950
948
947
949
949
951
950
949
947
946
950
953
954
950
952
952
954
959
958
957
956
955
959
961
957
960
961
963
967
968
970
967
964
967
967
969
967
968
968
966
966
964
962
962
958
958
963
964
965
960
959
958
958
957
954
949
953
952
954
950
954
950
948
949
951
951
952
952
952
953
954
954
954
950
952
954
958
956
956
957
957
958
962
965
968
971
976
981
994
1009
1030
1048
1070
1098
1128
1157
1176
1200
1224
1235
1229
1202
1162
1120
1074
1038
1010
986
972
963
962
969
971
971
968
963
960
957
959
958
956
953
951
950
953
953
950
950
948
949
954
953
953
951
950
951
952
953
952
951
952
953
954
956
955
954
954
955
958
964
962
958
957
959
964
964
965
966
966
968
971
973
974
974
975
975
979
984
983
978
981
985
986
993
993
993
995
995
1001
1003
1006
1005
1004
1004
1008
1012
1011
1012
1011
1016
1019
1021
1022
1018
1018
1019
1021
1020
1018
1012
1006
1005
1006
1003
999
992
987
983
983
980
977
973
969
966
966
967
962
956
953
955
956
960
960
953
951
949
951
955
955
952
948
950
952
958
953
953
951
952
957
955
955
952
950
951
956
960
955
955
953
955
957
960
961
957
955
957
960
962
960
956
956
959
965
962
961
958
959
960
964
968
964
964
961
963
967
967
964
961
959
962
964
966
963
961
958
960
965
964
964
960
953
959
961
963
962
961
957
959
963
962
961
961
962
963
966
964
960
960
962
962
963
966
963
960
958
959
960
964
964
963
961
963
965
968
967
962
960
963
967
967
968
966
962
962
969
968
970
966
963
962
970
971
972
967
966
965
971
970
970
966
965
965
964
966
965
965
965
963
967
970
968
963
963
968
970
972
970
969
967
971
973
974
972
969
968
966
972
973
967
968
966
970
973
972
974
972
970
972
975
978
979
975
973
974
975
978
977
979
979
982
985
987
987
985
986
986
990
990
990
990
992
993
990
991
991
987
984
982
983
988
986
983
976
977
981
983
977
975
972
973
974
976
976
973
970
970
973
978
974
974
972
971
973
977
976
972
968
972
975
979
979
976
973
978
983
985
989
992
997
1003
1020
1041
1065
1089
1114
1144
1173
1203
1227
1253
1272
1273
1253
1219
1170
1114
1069
1033
1008
985
978
978
979
983
987
986
984
977
975
972
974
974
970
966
966
968
968
970
964
962
963
965
969
969
968
964
963
964
969
971
969
965
966
968
971
972
971
963
965
971
972
975
974
971
973
976
979
981
981
978
976
979
983
986
982
983
983
986
990
994
992
987
990
994
1002
1003
1002
1002
1003
1007
1010
1015
1016
1011
1012
1016
1019
1022
1021
1020
1019
1021
1023
1024
1022
1019
1015
1017
1018
1016
1011
1006
1001
1001
997
994
991
985
982
976
980
977
973
964
965
962
962
961
959
956
953
952
953
956
954
952
952
949
951
954
952
951
950
949
951
950
953
948
949
949
953
955
952
952
952
953
958
959
959
955
953
954
958
959
955
956
955
953
957
959
962
957
952
953
958
956
959
956
953
950
953
955
950
950
945
949
951
952
951
951
948
949
952
953
950
948
946
944
951
952
947
947
945
945
945
947
950
945
943
944
946
948
946
944
940
945
947
950
947
946
945
946
947
949
950
946
944
946
948
950
950
946
946
947
947
951
949
945
947
944
947
950
952
947
947
948
949
951
952
949
948
949
949
954
951
949
948
947
953
950
951
947
945
947
950
950
949
943
943
944
946
948
947
944
942
944
946
949
949
946
946
946
949
951
946
942
944
945
949
950
949
945
947
949
949
950
949
944
945
949
952
953
951
951
951
952
956
956
956
957
958
963
965
966
966
962
960
965
966
967
967
966
964
966
967
963
963
960
958
959
958
959
957
953
954
952
954
955
948
947
945
947
949
948
948
947
945
946
952
954
951
949
949
951
953
956
952
950
951
951
954
957
957
958
957
962
966
976
982
986
992
1008
1034
1058
1081
1106
1132
1162
1186
1213
1237
1245
1232
1202
1164
1120
1073
1030
997
975
969
964
965
967
966
964
962
961
958
953
949
950
949
951
950
947
947
946
948
950
950
946
946
946
948
949
951
948
946
948
951
956
956
953
952
951
956
962
957
955
956
958
962
963
965
962
961
962
969
972
972
969
967
969
975
979
980
979
979
980
983
986
990
988
990
995
998
1002
1002
1000
1000
1005
1009
1007
1008
1010
1011
1015
1018
1020
1020
1018
1020
1023
1026
1029
1022
1020
1019
1018
1021
1019
1014
1007
1001
999
999
996
988
985
979
977
976
974
970
964
960
962
963
963
959
957
957
958
958
959
956
950
952
953
958
957
957
954
954
954
958
960
958
954
955
955
958
959
961
954
954
956
956
957
959
956
954
955
957
961
959
955
955
958
960
961
961
956
953
956
962
963
962
958
955
955
959
963
959
959
956
959
958
961
958
955
953
956
958
958
956
954
952
956
958
958
957
954
954
952
956
958
956
952
949
950
954
957
951
952
950
953
954
960
955
954
953
955
957
960
955
956
955
954
958
959
957
957
953
951
958
961
959
957
957
957
959
960
961
957
956
956
958
962
961
959
958
956
961
963
963
960
957
959
964
964
961
959
958
958
963
963
963
961
960
964
963
965
965
962
962
961
965
965
961
960
958
962
966
967
962
962
960
965
965
966
964
964
965
964
971
972
971
966
966
967
970
972
971
970
971
970
976
975
975
970
972
974
976
978
979
980
982
984
988
989
986
982
983
981
989
992
993
990
987
987
986
988
986
982
979
981
982
984
983
976
976
976
980
981
979
976
974
974
977
975
973
967
966
972
974
978
973
972
972
974
978
979
976
972
972
974
975
978
976
977
978
981
983
989
991
991
995
1005
1015
1025
1040
1062
1085
1113
1144
1170
1192
1209
1233
1262
1283
1280
1255
1216
1166
1119
1083
1051
1023
996
983
984
988
994
994
989
987
987
986
984
980
976
974
976
977
981
979
975
976
975
974
978
975
973
973
974
977
981
978
977
977
976
976
981
979
979
977
977
980
986
988
982
983
982
985
986
986
984
980
985
990
991
990
990
989
992
996
1000
997
998
998
1000
1004
1005
1009
1007
1007
1009
1012
1015
1016
1015
1018
1021
1024
1027
1026
1027
1028
1030
1034
1035
1035
1035
1032
1036
1042
1043
1045
1040
1040
1042
1043
1045
1041
1035
1031
1031
1032
1030
1025
1020
1014
1012
1011
1006
999
991
988
987
987
985
983
976
974
975
975
975
972
971
968
967
970
971
968
965
962
965
970
970
967
967
965
968
969
971
966
965
966
967
971
972
970
967
966
964
969
973
971
969
968
971
970
976
975
972
969
970
973
975
974
972
971
972
974
975
971
969
969
970
972
973
972
970
963
964
969
972
971
967
963
964
968
971
970
965
961
960
964
967
968
965
961
964
965
967
966
961
964
960
964
970
971
966
960
963
966
966
964
961
959
964
964
969
965
963
961
961
965
966
966
962
960
963
963
965
963
962
957
959
963
964
966
959
960
960
961
964
965
959
960
960
964
963
958
959
961
961
964
965
965
963
962
961
963
963
963
961
960
961
963
962
963
962
960
963
961
966
962
960
959
961
965
965
960
960
961
961
966
964
966
957
959
961
963
963
962
963
961
962
961
966
966
961
959
961
963
968
965
963
963
964
968
971
969
967
967
968
970
971
967
968
966
969
975
977
976
974
977
982
984
985
980
976
974
975
978
982
983
983
979
980
982
983
978
974
972
970
976
980
976
971
970
971
971
970
970
967
961
966
966
966
966
962
961
962
966
968
967
966
963
963
964
965
966
965
965
967
971
972
971
970
968
968
973
976
976
981
983
990
996
1003
1013
1027
1045
1068
1093
1123
1148
1173
1194
1219
1246
1264
1262
1243
1214
1176
1136
1094
1056
1024
1001
985
981
982
984
981
979
982
979
978
974
970
969
967
970
971
965
963
962
962
966
968
965
963
961
964
968
971
966
961
962
961
965
970
969
965
964
964
967
970
968
967
966
967
971
972
969
967
969
970
973
975
974
973
971
977
978
982
979
979
980
981
984
987
987
985
983
988
991
998
995
996
997
999
998
1004
1004
1002
1003
1007
1012
1013
1015
1012
1013
1017
1022
1023
1026
1022
1020
1024
1027
1027
1029
1024
1023
1024
1025
1026
1021
1015
1011
1012
1011
1009
1003
997
991
988
984
986
979
973
971
966
972
975
970
963
962
963
962
962
961
954
954
957
958
960
959
958
956
958
962
964
963
960
958
957
961
963
963
959
957
961
963
965
963
960
958
959
966
967
967
963
962
962
967
969
968
962
961
966
967
970
971
966
963
964
967
969
967
967
961
965
967
970
967
963
964
964
969
970
968
963
961
962
965
967
965
961
958
960
966
967
967
962
961
960
966
969
967
963
960
961
965
966
966
961
960
960
958
963
962
960
962
962
965
966
968
965
963
962
965
967
967
962
961
960
964
968
965
964
962
962
964
964
966
964
960
961
963
968
966
962
958
963
965
967
966
965
957
959
962
965
966
964
962
963
963
967
965
960
958
960
961
967
965
965
962
962
964
966
966
962
961
961
964
967
967
964
964
964
966
970
969
966
964
966
967
967
967
965
963
965
967
969
969
968
966
967
970
970
970
970
970
969
971
975
973
970
971
973
973
975
976
971
970
974
978
980
980
984
984
985
989
987
988
984
984
984
988
989
986
986
984
984
983
983
982
980
979
979
980
982
976
976
972
972
972
971
971
970
966
962
969
970
969
964
967
964
969
968
967
965
965
963
967
973
973
969
970
971
973
975
974
975
974
977
984
989
993
996
1001
1005
1019
1035
1053
1073
1094
1122
1150
1176
1192
1209
1233
1252
1254
1234
1199
1152
1107
1070
1038
1012
993
979
976
982
988
993
988
983
978
978
978
975
973
969
969
970
972
974
972
966
969
970
973
976
975
972
971
973
975
979
975
974
972
972
975
981
979
977
976
978
981
984
982
981
982
982
984
988
987
990
985
989
990
998
995
993
994
997
1001
1002
1002
1002
997
1002
1010
1014
1015
1014
1013
1019
1022
1025
1028
1025
1022
1027
1033
1039
1039
1039
1039
1040
1046
1049
1050
1048
1047
1047
1051
1055
1055
1054
1051
1050
1048
1049
1047
1044
1039
1035
1033
1032
1025
1022
1015
1013
1011
1010
1009
1002
999
997
998
998
995
992
987
988
993
993
990
985
984
982
987
990
991
986
984
981
988
989
988
988
985
986
985
988
986
986
984
984
988
991
989
985
984
987
988
989
987
984
983
985
988
988
987
985
982
982
987
988
985
983
978
978
986
988
988
983
981
980
984
986
986
984
982
981
984
987
985
979
977
979
982
982
979
976
975
977
979
980
978
976
974
974
975
979
976
977
974
973
974
975
977
975
972
973
975
974
974
970
971
970
973
976
975
973
971
971
972
975
974
972
970
971
974
972
974
970
970
971
973
975
971
971
967
968
972
974
973
971
967
968
969
973
972
968
967
970
969
972
969
967
967
968
970
972
973
968
966
970
971
974
971
969
966
968
971
975
970
971
969
970
971
977
975
972
966
970
974
977
976
972
967
967
973
976
975
972
972
972
972
976
974
973
971
973
977
980
978
977
977
980
983
991
991
986
986
988
991
991
989
986
985
989
993
995
992
987
981
981
983
984
981
979
976
979
981
978
979
971
972
974
975
972
972
965
963
966
969
970
970
965
965
969
969
969
969
968
966
968
972
973
972
969
967
971
974
978
980
982
984
992
998
1011
1028
1051
1078
1108
1143
1175
1201
1224
1250
1269
1268
1242
1199
1150
1102
1056
1022
1000
982
975
976
981
983
982
981
974
969
967
965
967
969
963
962
962
962
965
965
963
961
960
961
964
963
961
958
958
964
968
966
962
962
965
969
972
969
967
963
968
973
972
975
973
972
970
977
980
980
978
975
980
985
988
988
984
982
985
992
994
997
997
997
1000
1007
1012
1013
1010
1009
1011
1014
1017
1019
1019
1020
1022
1026
1030
1035
1027
1029
1031
1031
1033
1032
1031
1027
1025
1025
1023
1019
1012
1006
1003
1000
998
996
988
984
985
981
981
979
974
970
968
967
967
967
965
961
963
965
967
965
963
961
960
963
965
963
962
962
962
964
965
967
965
963
964
969
968
967
964
962
964
966
967
967
964
964
965
967
967
968
966
964
964
966
969
968
965
