976
972
970
972
971
973
971
971
967
968
970
971
969
963
967
967
970
974
972
971
967
970
970
972
972
969
965
966
972
974
973
971
970
971
975
978
978
977
977
979
981
984
983
980
982
984
987
992
993
990
989
992
998
1001
1000
1001
1000
1003
1010
1012
1014
1015
1016
1020
1025
1028
1031
1029
1031
1035
1043
1045
1047
1045
1046
1051
1054
1057
1057
1052
1050
1051
1049
1046
1041
1038
1031
1032
1032
1028
1021
1016
1012
1010
1009
1007
1001
994
990
991
990
990
984
981
976
975
981
982
979
978
976
977
979
980
978
973
974
974
976
980
980
977
978
973
976
977
981
978
979
985
991
994
992
989
986
992
993
992
991
987
980
980
980
982
981
975
971
971
972
971
968
967
965
967
965
968
969
967
964
967
968
970
968
962
964
962
965
966
960
957
958
957
956
957
955
954
958
958
960
962
963
960
958
959
961
963
960
953
953
954
958
961
960
961
959
959
959
965
964
963
963
962
964
965
965
962
958
962
966
970
967
964
960
962
965
967
966
961
961
961
963
963
963
960
959
960
964
966
961
959
958
961
965
965
963
960
958
961
958
960
962
959
959
960
963
963
958
957
953
954
957
957
957
952
953
957
958
962
959
956
955
958
957
958
959
956
955
955
960
962
959
955
955
956
958
959
957
955
954
952
957
956
958
955
954
957
958
959
957
957
951
954
957
956
958
954
954
958
962
964
967
965
967
969
972
971
972
966
969
969
970
972
968
966
960
958
959
959
956
955
953
953
959
962
961
959
957
958
962
961
964
963
960
958
964
966
964
962
963
967
972
974
976
974
976
984
993
1006
1019
1037
1058
1087
1113
1146
1178
1209
1237
1269
1301
1323
1325
1305
1274
1236
1192
1149
1109
1070
1035
1011
1000
996
993
987
977
973
971
970
967
963
962
963
964
965
961
959
953
958
959
959
956
956
955
955
958
961
957
957
955
957
960
963
957
956
953
955
959
953
951
953
951
953
955
955
953
951
948
951
954
958
954
948
944
942
944
948
951
953
957
959
965
966
966
967
969
974
978
982
982
981
983
991
998
1000
1003
1001
1002
1004
1013
1018
1019
1017
1020
1020
1024
1029
1030
1030
1032
1034
1040
1045
1043
1039
1038
1036
1039
1040
1034
1028
1022
1018
1017
1016
1007
1001
995
993
993
989
984
981
973
975
972
971
969
963
959
961
963
963
961
959
961
959
958
960
954
950
949
947
954
954
956
949
950
953
953
955
950
949
947
948
951
953
951
949
947
951
952
954
951
949
948
949
951
953
948
945
946
947
950
952
953
949
948
950
954
955
948
942
942
942
945
949
948
944
946
947
949
948
945
943
941
940
939
940
940
939
934
936
940
942
946
945
944
945
948
952
946
945
945
946
948
949
947
941
938
938
943
942
941
941
938
941
942
942
942
937
936
937
940
940
941
940
940
942
947
947
948
945
947
949
955
957
954
954
952
952
957
958
955
953
951
955
957
957
955
951
948
948
950
951
948
946
942
942
946
949
946
943
939
941
944
949
949
948
950
953
957
960
959
963
961
960
962
965
964
962
958
960
966
967
963
960
957
961
961
965
960
959
956
957
964
969
965
962
957
961
961
957
956
951
950
957
960
963
960
957
953
953
953
957
956
959
961
964
965
969
969
971
974
974
977
978
976
969
964
964
967
968
967
965
967
965
966
964
967
967
967
966
969
971
964
957
952
950
957
961
962
962
965
967
968
969
966
967
972
976
983
991
992
999
1008
1029
1055
1083
1114
1144
1176
1211
1242
1270
1300
1318
1317
1300
1274
1234
1184
1136
1090
1051
1022
1003
991
986
985
984
982
981
977
970
964
961
964
964
964
960
956
952
953
955
955
953
952
954
953
961
956
953
951
951
953
954
953
953
953
955
957
952
951
951
952
956
958
963
960
960
960
960
964
967
966
962
960
961
966
969
969
971
970
972
975
979
978
976
975
981
985
990
987
986
987
993
999
1003
1004
1001
1002
1008
1011
1014
1015
1019
1020
1022
1025
1029
1028
1027
1029
1034
1036
1043
1043
1037
1034
1034
1033
1032
1027
1023
1014
1011
1008
1004
997
990
985
983
982
980
977
974
972
969
970
971
969
967
963
963
963
965
963
959
954
956
957
958
957
960
960
963
963
960
954
952
951
954
959
959
957
956
953
953
956
954
958
957
958
959
961
961
959
953
953
958
956
958
958
953
952
951
954
952
953
952
951
956
960
962
959
956
960
964
962
966
964
963
964
965
967
966
965
962
964
963
966
969
962
960
959
959
963
965
963
962
961
962
964
965
964
963
962
964
968
968
969
968
967
967
968
969
967
964
965
967
970
973
973
970
966
965
966
971
968
966
962
963
967
969
968
962
960
963
964
966
966
964
961
960
964
969
967
960
960
957
961
963
963
961
958
959
964
966
965
962
958
961
966
967
965
962
959
955
955
956
954
954
952
955
959
958
958
953
949
951
955
956
955
955
954
953
953
954
954
953
951
953
954
959
956
954
956
957
963
964
961
961
956
958
960
964
970
970
970
973
973
976
980
978
980
980
978
979
973
970
967
967
968
969
970
970
966
964
967
970
970
969
967
969
969
970
971
969
967
970
972
971
971
967
969
974
975
978
979
977
986
995
1003
1010
1023
1042
1064
1104
1141
1179
1212
1240
1272
1302
1322
1320
1296
1254
1201
1149
1105
1062
1030
1002
991
994
998
997
993
984
979
977
979
978
978
973
969
966
969
969
967
963
960
960
963
965
964
961
958
959
957
959
959
958
958
960
965
966
964
961
962
965
968
972
965
967
963
967
966
972
970
967
966
969
972
971
970
972
970
975
976
983
983
982
985
990
996
998
1003
1000
1002
1007
1014
1018
1019
1019
1018
1023
1025
1030
1033
1034
1040
1044
1049
1051
1052
1053
1050
1054
1057
1055
1051
1048
1042
1040
1036
1032
1027
1017
1010
1006
1002
1004
996
993
988
986
983
979
976
974
970
970
970
970
966
961
959
954
955
957
956
954
951
945
947
952
951
949
951
952
955
957
951
948
950
947
956
957
955
951
951
952
951
954
954
952
950
948
951
953
951
949
950
952
957
958
962
957
955
957
960
962
962
959
957
956
962
963
961
957
954
956
954
958
954
952
948
950
955
957
954
951
948
949
954
955
955
953
949
951
952
953
952
950
948
951
953
956
955
952
948
952
952
956
954
953
950
954
956
964
960
957
955
953
960
960
959
953
951
954
956
957
955
953
952
955
956
955
956
950
949
950
955
958
957
951
949
951
954
954
953
953
954
954
957
959
958
953
949
951
955
955
953
953
951
957
962
961
959
957
953
956
958
961
957
954
954
954
959
957
958
958
954
957
961
963
960
958
955
955
960
963
961
956
953
957
962
966
967
967
966
966
969
972
974
969
967
965
964
966
966
963
960
961
961
962
960
951
950
953
960
962
959
958
952
957
960
961
961
959
957
957
960
962
964
960
965
968
973
981
987
990
990
1005
1031
1061
1097
1130
1160
1191
1226
1261
1291
1302
1294
1265
1228
1181
1127
1081
1038
1003
980
973
972
973
974
973
972
971
969
960
958
957
955
953
952
950
946
945
944
949
949
944
944
943
947
950
950
949
947
952
952
954
950
946
948
952
958
961
961
957
955
959
961
963
961
961
958
960
963
966
966
965
964
967
970
972
972
972
972
975
982
984
985
983
982
985
989
994
995
1000
1003
1006
1011
1018
1015
1013
1017
1020
1025
1032
1032
1035
1035
1036
1041
1043
1044
1040
1039
1036
1035
1035
1030
1021
1013
1008
1007
1005
997
990
982
980
977
974
970
963
958
956
961
957
956
952
951
950
953
955
953
948
946
949
950
954
954
948
947
946
948
949
947
947
944
947
946
949
948
945
947
947
948
949
946
946
946
948
949
951
952
946
945
946
948
954
950
948
946
948
953
954
951
950
948
952
950
954
953
949
948
953
954
957
954
952
947
949
953
954
957
953
950
949
952
955
955
950
951
952
956
960
960
953
952
952
954
958
958
956
952
950
951
955
951
954
946
947
949
949
949
946
945
948
949
950
946
945
944
947
948
949
949
944
945
943
949
950
947
943
940
942
942
944
945
943
938
935
939
942
943
942
941
942
944
947
944
939
937
939
944
947
947
946
944
939
940
946
946
939
942
944
944
945
944
940
937
938
940
943
944
942
941
945
947
950
948
943
943
946
946
948
945
945
945
948
950
951
949
949
948
947
952
952
953
951
948
948
950
953
955
951
947
948
950
952
952
950
952
954
958
960
956
954
950
946
946
946
946
942
940
944
944
950
949
946
945
945
945
945
945
941
939
940
944
944
942
942
942
947
950
953
954
957
964
969
977
987
1001
1017
1044
1077
1110
1148
1179
1204
1230
1258
1280
1286
1263
1229
1181
1128
1090
1048
1013
985
969
969
969
970
967
962
957
952
950
949
947
942
938
941
938
941
937
932
929
930
934
940
941
937
932
934
933
932
932
933
933
934
938
941
938
933
933
935
939
943
943
944
942
942
947
949
946
944
945
946
949
949
952
952
947
952
956
959
960
958
961
963
970
972
975
975
972
975
978
983
989
989
991
994
998
1004
1005
1006
1008
1008
1014
1018
1022
1020
1021
1023
1028
1028
1029
1026
1024
1019
1017
1015
1009
1007
998
993
990
986
980
975
968
963
965
965
964
959
952
951
953
952
950
947
946
950
950
951
946
944
945
942
949
951
950
946
945
949
951
953
949
947
944
946
949
949
948
945
945
945
949
951
948
946
940
940
942
945
945
940
940
941
943
948
947
943
941
940
945
943
940
938
940
942
946
948
947
944
945
947
948
951
951
946
946
943
949
951
950
947
943
946
949
952
949
944
942
945
946
950
950
944
942
945
947
951
949
949
946
950
952
955
953
948
947
946
948
951
947
946
948
947
951
952
949
946
943
945
950
950
949
944
942
943
946
947
945
943
943
942
946
948
948
945
944
944
947
948
950
943
945
947
951
952
952
947
942
945
946
952
947
945
945
946
946
946
947
944
943
944
946
948
944
942
941
941
941
943
946
943
942
942
948
951
949
944
943
944
946
948
951
948
947
949
948
953
954
951
950
951
952
953
951
949
950
953
954
953
955
948
947
948
950
954
956
956
957
955
960
963
963
963
962
963
968
967
968
966
962
959
957
955
955
950
948
945
947
948
947
946
945
948
951
953
953
948
944
949
953
957
956
953
951
951
954
955
956
955
956
960
963
967
972
979
982
994
1013
1040
1065
1090
1123
1156
1186
1216
1243
1269
1288
1292
1281
1256
1218
1169
1121
1079
1045
1017
988
969
962
963
967
970
970
966
962
962
957
957
954
947
946
948
946
945
945
942
940
939
943
945
943
946
943
944
945
946
945
944
943
945
947
952
953
949
948
949
953
956
956
952
955
957
957
957
959
954
955
957
961
963
962
960
963
963
965
967
965
961
964
969
974
974
975
975
975
978
982
984
986
984
987
992
994
997
999
998
1002
1003
1011
1015
1016
1016
1016
1023
1027
1031
1031
1033
1031
1033
1038
1038
1036
1035
1032
1031
1033
1033
1028
1022
1013
1010
1009
1005
1001
993
988
986
986
983
977
971
967
965
967
964
963
957
957
958
960
960
957
951
952
949
953
955
953
951
946
950
952
953
951
948
943
945
949
953
947
948
947
947
951
955
952
949
949
951
953
954
951
950
947
949
951
954
951
945
946
949
954
956
957
949
950
951
955
954
955
953
953
953
956
954
953
955
952
955
959
962
957
956
950
950
951
953
953
952
948
953
955
957
955
950
949
951
954
956
955
951
950
949
952
951
947
945
949
953
952
956
953
951
950
952
954
954
951
946
949
948
950
953
950
947
945
950
953
955
955
951
949
950
952
955
953
947
949
947
950
953
956
952
953
951
952
955
953
949
949
952
953
956
954
951
946
947
951
954
952
950
951
952
954
956
953
953
948
950
953
954
953
952
952
956
955
956
957
954
954
952
957
958
957
954
956
953
955
957
955
952
951
955
957
961
958
956
955
955
959
958
958
955
955
957
962
961
959
960
956
958
963
966
964
961
957
959
965
965
965
962
961
964
965
970
968
962
959
961
961
963
963
963
966
967
975
979
979
980
976
978
979
981
978
974
974
973
973
973
972
971
966
965
968
969
971
970
967
968
971
975
973
969
968
970
971
973
972
972
969
970
972
976
976
980
984
989
995
1003
1009
1018
1033
1060
1087
1114
1139
1166
1190
1215
1240
1265
1285
1289
1274
1245
1209
1170
1122
1084
1051
1029
1012
1004
995
995
992
992
992
990
985
979
975
975
975
975
975
971
969
970
970
974
972
967
964
965
970
969
968
967
965
967
968
969
972
969
964
965
972
975
974
971
971
972
976
977
974
972
971
970
973
977
979
974
974
974
978
983
982
981
975
979
984
987
989
983
987
991
993
997
998
999
997
1001
1010
1012
1015
1016
1017
1022
1027
1030
1037
1034
1039
1042
1045
1051
1049
1049
1051
1055
1060
1061
1062
1060
1059
1063
1064
1069
1066
1061
1057
1056
1054
1054
1048
1041
1034
1031
1028
1027
1024
1014
1010
1007
1008
1007
1004
998
995
991
994
997
995
989
987
986
990
992
990
985
984
986
990
990
990
984
985
984
988
991
991
987
985
985
985
989
986
984
981
985
989
990
987
983
983
988
987
987
987
983
985
985
987
990
987
981
980
981
985
989
987
984
986
987
987
990
988
984
985
988
989
992
991
989
985
987
992
993
991
986
982
983
987
987
987
983
979
984
985
988
987
985
983
983
986
985
984
982
980
982
984
985
983
979
977
981
982
984
984
978
978
980
981
979
984
978
977
979
979
982
983
979
978
978
982
982
980
978
977
979
981
980
981
980
976
977
981
980
980
977
974
976
978
980
980
979
974
979
980
981
979
976
975
977
979
978
977
975
974
976
977
979
978
976
975
975
977
980
977
973
973
972
977
978
976
975
971
971
977
976
976
974
970
972
973
975
975
973
971
972
977
975
976
974
972
973
975
978
976
973
972
971
975
976
973
972
969
972
975
975
973
971
970
972
973
976
975
970
970
972
972
976
974
972
973
976
976
977
975
973
969
971
973
972
971
974
976
982
984
988
987
986
983
985
989
990
990
986
982
978
982
982
979
976
971
975
978
979
979
975
974
975
976
978
978
976
973
977
979
981
979
977
976
976
980
985
985
984
985
988
995
1002
1005
1010
1016
1029
1054
1079
1104
1129
1161
1191
1217
1242
1267
1287
1292
1279
1257
1226
1182
1139
1103
1072
1044
1025
1012
1004
1000
1000
1000
1000
994
989
980
981
981
983
976
976
974
973
974
973
972
972
968
967
967
970
972
969
967
967
973
974
971
968
968
968
973
973
973
969
970
969
973
975
975
973
971
972
976
978
977
977
975
976
980
980
982
981
978
981
986
990
986
990
984
987
992
997
999
998
997
999
1004
1007
1009
1011
1011
1010
1017
1020
1023
1022
1020
1025
1030
1033
1034
1031
1034
1035
1041
1042
1040
1038
1036
1034
1035
1036
1031
1025
1018
1017
1017
1016
1007
1000
998
995
996
989
989
981
977
977
977
977
975
969
966
969
968
968
968
966
962
960
961
966
964
960
955
956
960
963
961
960
956
957
960
961
958
959
956
957
962
963
963
959
958
959
960
962
963
959
956
961
964
965
962
961
961
960
962
963
963
960
958
959
963
965
963
962
958
962
964
966
963
959
959
960
964
966
964
959
961
962
963
966
963
962
960
958
961
960
963
958
957
958
960
958
961
958
957
960
960
964
963
960
957
959
962
962
961
958
955
956
958
963
960
959
958
957
961
963
959
958
956
957
963
965
963
961
959
959
963
964
964
963
960
960
961
964
961
960
957
959
962
964
963
962
958
959
963
964
965
962
961
960
962
963
963
961
957
961
965
964
964
958
957
959
964
965
961
962
958
960
962
965
962
959
958
958
958
961
960
960
958
959
962
963
960
960
958
957
961
964
958
960
958
960
961
965
964
960
959
959
963
961
960
957
956
958
963
966
963
960
956
958
961
963
963
962
960
959
963
966
966
963
962
963
965
966
962
959
958
961
964
969
970
970
969
974
976
978
975
970
970
976
979
979
977
971
965
965
963
966
963
963
961
963
965
967
962
964
964
967
966
966
964
962
960
960
965
967
964
963
963
967
971
974
978
982
984
993
1002
1019
1034
1054
1078
1104
1135
1166
1191
1215
1240
1260
1264
1245
1211
1164
1119
1080
1052
1030
1006
996
990
989
989
989
982
973
969
969
966
967
962
959
955
955
958
958
956
950
948
948
955
958
959
953
952
954
959
959
959
957
957
959
964
963
963
960
958
958
961
963
962
960
955
960
963
968
966
967
966
965
970
971
973
975
975
976
979
983
983
978
977
980
986
989
989
990
991
994
1001
1004
1006
1006
1008
1011
1015
1021
1024
1024
1022
1026
1030
1035
1037
1034
1033
1035
1039
1043
1043
1041
1041
1039
1043
1042
1036
1031
1022
1019
1018
1021
1015
1006
999
995
993
990
986
979
977
975
973
974
974
973
971
974
977
977
972
969
964
964
972
972
971
969
966
965
968
973
969
968
963
961
961
966
965
970
971
974
980
983
982
978
974
980
983
986
982
976
972
975
973
972
967
964
964
967
971
975
