1020
1020
1020
1020
1020
1020
1020
1020
1020
1025
1028
1029
1032
1032
1033
1039
1042
1042
1043
1042
1046
1050
1050
1052
1050
1048
1049
1050
1054
1052
1048
1051
1051
1055
1057
1057
1051
1049
1050
1049
1046
1044
1040
1036
1039
1041
1042
1038
1033
1028
1026
1025
1022
1015
1011
1010
1008
1010
1013
1008
1001
998
1003
1008
1010
1007
1002
1000
1000
1003
1006
1004
1002
999
999
1003
1000
1007
1004
1004
1003
1003
1001
1001
1002
997
997
1000
1000
1000
1001
999
999
1000
1004
1004
1002
1000
1001
1001
1003
1005
999
996
999
1002
1006
1004
1000
998
996
996
1001
1004
1002
1002
1007
1011
1016
1017
1013
1009
1013
1018
1024
1020
1015
1012
1015
1018
1019
1020
1019
1012
1010
1014
1015
1013
1006
1003
1002
1002
1006
1005
1006
1006
1010
1012
1011
1008
1004
1001
999
998
996
992
992
991
987
989
987
987
985
984
986
986
987
988
987
986
986
987
989
986
986
984
985
984
982
976
972
974
981
1001
1026
1058
1099
1144
1194
1240
1263
1254
1204
1134
1047
956
882
854
864
888
913
935
949
960
967
973
977
981
980
980
977
982
984
983
984
983
982
979
982
986
988
985
983
982
982
984
985
983
981
983
983
989
989
992
992
996
994
999
1000
999
995
995
999
1006
1012
1010
1010
1009
1012
1016
1021
1020
1020
1025
1029
1032
1032
1034
1029
1029
1031
1036
1041
1042
1038
1037
1038
1043
1046
1045
1042
1039
1039
1040
1042
1041
1035
1031
1035
1035
1033
1029
1024
1023
1020
1017
1015
1012
1007
1003
1001
999
1000
998
993
992
990
991
989
991
986
983
983
984
983
982
980
977
979
983
985
984
982
978
981
983
984
986
982
980
981
981
985
985
985
982
982
983
985
984
984
983
983
985
988
987
984
984
991
991
995
993
991
994
995
995
994
991
991
990
994
995
998
996
995
995
997
998
1001
1002
1001
1000
1002
1000
1000
998
997
996
995
996
999
1000
996
990
988
988
989
987
986
983
987
991
995
992
986
981
979
977
975
969
968
969
970
977
976
973
971
971
973
972
974
974
974
974
973
974
976
976
976
972
973
973
967
960
957
952
962
974
992
1017
1044
1080
1128
1176
1216
1240
1235
1205
1151
1089
1012
924
862
848
859
876
894
914
929
942
950
957
960
964
963
964
968
969
969
966
967
968
971
972
974
973
970
971
973
975
975
967
969
972
974
977
976
973
979
977
979
982
984
985
983
983
986
992
998
997
993
991
992
995
996
997
998
1000
1003
1009
1012
1017
1016
1016
1023
1026
1027
1027
1025
1026
1031
1032
1036
1036
1034
1030
1033
1032
1034
1034
1034
1033
1035
1036
1036
1035
1031
1027
1025
1025
1022
1017
1008
1005
1007
1008
1007
1004
999
995
994
992
988
987
985
984
983
985
986
986
984
978
981
983
983
980
982
978
976
977
975
977
974
974
978
979
980
977
976
974
974
978
981
980
979
979
981
984
984
981
978
976
978
983
984
983
977
971
974
978
983
983
978
977
979
985
987
991
990
990
987
987
987
989
991
993
992
994
996
993
991
987
985
986
982
981
980
986
988
987
987
985
980
978
978
977
978
976
973
973
977
976
974
966
961
959
961
964
964
965
961
962
962
964
965
963
957
954
956
960
962
965
963
962
963
964
962
957
949
943
941
949
959
980
1006
1037
1081
1127
1175
1212
1223
1208
1169
1113
1043
956
883
847
847
863
874
884
904
921
936
941
942
945
947
949
951
958
961
960
956
955
957
961
964
962
958
953
957
963
965
963
960
959
961
966
967
967
967
969
972
974
975
975
976
978
980
984
985
987
984
986
989
992
997
1002
1004
1004
1006
1005
1005
1008
1010
1012
1015
1019
1022
1026
1023
1019
1017
1020
1024
1021
1019
1025
1026
1031
1030
1027
1021
1017
1017
1014
1009
1004
1000
998
996
1001
1002
997
991
988
986
984
983
980
976
968
963
961
963
964
966
961
963
963
963
961
957
956
958
960
963
961
962
962
966
968
969
965
963
961
965
964
969
968
972
970
973
972
974
971
969
965
969
971
977
970
966
966
968
974
982
981
976
969
967
972
976
979
974
971
974
977
978
977
974
978
978
981
985
984
982
983
978
979
982
984
977
971
970
972
976
979
977
976
976
978
975
968
962
967
973
977
973
968
967
963
960
953
952
953
955
955
953
956
958
961
958
953
949
951
955
956
954
954
954
956
956
955
948
946
940
934
938
943
954
971
1000
1040
1089
1138
1180
1212
1231
1216
1178
1116
1037
941
871
844
851
863
876
892
913
930
938
936
935
934
940
948
949
946
945
942
940
942
947
950
953
947
944
943
948
949
953
956
957
952
950
951
954
956
953
955
961
965
966
965
965
967
966
966
965
968
973
978
987
990
987
978
973
979
990
994
989
987
989
995
1002
1006
1007
1006
1013
1018
1025
1018
1010
1002
1003
1008
1012
1011
1003
1004
1015
1020
1015
1008
1002
1007
1007
998
990
987
990
994
995
989
979
978
988
988
980
961
953
954
957
959
966
968
967
962
955
948
948
952
954
958
958
961
960
957
953
951
956
958
963
960
953
946
945
951
959
961
959
953
946
945
952
959
960
957
958
961
967
968
964
963
964
966
966
963
961
960
966
974
984
986
981
977
974
979
987
990
986
975
974
976
976
971
962
957
956
961
962
965
964
964
966
968
965
959
959
960
964
966
969
969
964
957
949
951
951
952
953
946
943
950
963
963
950
937
936
942
951
953
950
946
943
954
962
965
958
948
938
944
954
974
996
1024
1063
1112
1165
1213
1245
1246
1203
1125
1036
943
865
830
827
837
851
867
884
897
905
915
928
940
940
935
934
933
934
935
933
934
937
941
942
947
950
952
949
946
950
952
955
956
957
953
948
943
940
945
948
952
952
953
950
953
952
953
950
958
966
967
968
966
966
970
976
985
988
985
978
977
984
989
994
997
999
996
992
990
988
991
997
1004
1003
1002
1006
1007
1010
1014
1019
1020
1018
1010
1007
1003
1001
997
995
993
991
983
974
968
970
971
970
962
959
958
959
960
958
957
957
949
951
953
956
962
964
958
955
956
958
964
969
964
959
957
961
967
970
967
964
965
967
968
969
965
965
963
966
967
967
968
968
965
963
964
966
966
961
965
970
974
973
970
970
972
979
981
983
986
985
983
987
990
991
990
987
987
988
991
986
983
984
984
985
983
975
974
972
974
975
977
977
978
975
978
980
983
982
975
970
964
964
964
963
963
964
963
967
968
971
968
968
970
972
971
969
968
966
968
970
973
970
965
957
954
957
970
990
1019
1057
1107
1163
1217
1253
1259
1225
1161
1075
979
890
852
855
868
885
904
924
936
943
949
952
960
963
962
959
962
965
966
965
962
963
964
965
969
972
973
974
974
976
980
977
976
975
976
983
985
986
985
985
986
990
990
993
990
992
996
1001
1004
1004
1007
1008
1012
1018
1022
1022
1019
1016
1019
1026
1032
1036
1036
1035
1035
1037
1038
1040
1039
1039
1042
1046
1047
1048
1046
1043
1040
1038
1035
1035
1035
1033
1033
1032
1029
1023
1017
1014
1010
1008
1005
1001
997
995
997
1000
999
1000
993
995
992
992
993
991
990
990
988
991
996
997
1000
997
997
998
1002
1000
997
992
992
993
994
996
995
993
993
995
997
997
998
999
997
1000
1003
1002
998
995
994
999
1002
1001
999
1000
1002
1003
1005
1008
1009
1012
1011
1015
1018
1015
1017
1013
1012
1011
1010
1008
1010
1004
1005
1006
1007
1007
1004
1000
998
1000
1003
1001
1000
998
996
999
1005
1005
1003
1000
995
994
993
991
988
984
986
988
988
989
987
986
986
987
988
989
986
983
984
986
988
987
983
979
972
975
981
993
1014
1043
1083
1136
1190
1242
1275
1284
1254
1190
1106
1003
906
858
859
882
904
925
942
957
968
977
981
981
980
978
980
983
988
984
982
977
980
983
983
985
987
986
986
990
993
992
992
992
989
993
994
993
994
992
994
995
1003
1001
1000
1003
1007
1012
1013
1015
1015
1017
1021
1025
1030
1029
1029
1026
1033
1039
1042
1045
1041
1043
1046
1048
1053
1050
1052
1053
1051
1055
1058
1057
1053
1050
1051
1055
1055
1055
1054
1052
1054
1056
1057
1053
1046
1042
1039
1037
1037
1033
1028
1021
1016
1017
1019
1016
1011
1005
1006
1013
1014
1010
1008
1008
1008
1008
1011
1012
1010
1006
1007
1008
1011
1010
1008
1006
1004
1004
1007
1006
1007
1003
1002
1007
1010
1009
1006
1004
1006
1008
1011
1008
1009
1007
1007
1010
1010
1006
1005
1006
1008
1011
1013
1008
1008
1007
1011
1015
1017
1018
1019
1018
1021
1024
1027
1026
1027
1028
1023
1021
1021
1019
1016
1013
1019
1021
1018
1017
1014
1015
1010
1009
1013
1011
1008
1006
1004
1013
1015
1013
1012
1011
1009
1010
1005
1002
994
993
993
998
999
999
998
997
995
998
1003
1002
997
995
997
1001
1004
1000
993
987
981
985
993
1011
1039
1076
1131
1195
1257
1303
1298
1233
1126
1002
905
871
891
929
959
975
984
990
990
991
990
990
993
994
992
991
992
993
999
1000
999
994
991
997
999
1001
999
997
996
999
1000
999
998
998
1000
1002
1008
1008
1008
1009
1011
1011
1016
1016
1016
1016
1018
1025
1031
1031
1034
1033
1037
1043
1045
1045
1045
1045
1047
1053
1055
1056
1055
1052
1052
1054
1060
1061
1060
1056
1057
1061
1064
1063
1062
1060
1057
1056
1056
1055
1049
1047
1046
1047
1045
1038
1032
1029
1025
1024
1023
1022
1014
1014
1013
1014
1012
1011
1006
1006
1008
1011
1010
1011
1006
1003
1001
1004
1006
1005
1002
1001
1001
1003
1005
1006
1005
1003
1002
1003
1004
1004
1002
999
999
999
1003
1002
998
995
997
998
1000
999
996
996
999
1004
1004
1001
1001
1002
1002
1004
1008
1007
1006
1007
1009
1012
1014
1016
1014
1011
1014
1018
1021
1021
1016
1015
1015
1014
1016
1012
1013
1010
1010
1013
1013
1012
1006
1002
1001
1001
1003
1005
1002
1001
1005
1011
1012
1009
1004
1001
995
993
992
991
986
984
987
987
992
990
989
989
984
990
991
990
990
988
986
991
992
988
985
983
980
973
968
970
975
987
1012
1048
1093
1140
1190
1239
1271
1281
1254
1200
1127
1048
960
888
862
872
893
911
927
945
959
967
971
976
981
984
981
979
977
977
975
976
981
981
979
979
978
981
985
982
982
982
981
984
988
986
984
983
982
986
991
992
989
986
991
995
998
999
995
994
996
1000
1004
1004
1004
1003
1004
1008
1012
1014
1014
1018
1021
1025
1022
1028
1028
1029
1033
1039
1042
1044
1043
1042
1043
1046
1047
1047
1047
1044
1047
1049
1053
1049
1047
1045
1043
1044
1046
1044
1042
1039
1037
1033
1033
1029
1026
1020
1018
1016
1014
1010
1007
1006
1005
1004
1006
998
994
996
996
999
997
993
993
991
992
992
994
990
991
988
989
989
997
996
991
989
987
992
991
993
989
984
986
989
992
993
993
991
991
992
992
994
990
990
991
990
990
991
989
991
992
994
996
998
995
991
993
997
996
998
997
998
1000
1003
1001
1001
1000
1001
1004
1006
1007
1004
1001
1000
1000
1004
1004
1002
998
997
997
1000
1000
996
993
991
990
993
993
992
993
993
992
994
992
987
980
976
976
977
979
978
977
975
975
980
982
981
978
973
974
973
977
978
973
976
977
978
976
973
967
960
959
967
984
1003
1029
1063
1113
1166
1218
1253
1267
1243
1187
1114
1033
944
871
844
857
880
901
921
940
949
954
962
965
970
968
966
965
971
974
974
974
972
972
975
975
972
974
971
973
973
974
973
975
979
982
981
985
984
984
984
984
986
987
985
986
987
991
991
993
997
999
1001
1005
1008
1010
1011
1011
1009
1012
1018
1020
1021
1023
1024
1027
1029
1032
1032
1033
1035
1037
1039
1043
1041
1039
1036
1038
1042
1042
1044
1040
1037
1039
1039
1043
1035
1032
1033
1032
1033
1031
1026
1021
1018
1016
1016
1016
1011
1004
1000
1002
1001
997
997
993
990
988
992
990
988
987
983
985
989
989
990
986
986
984
986
988
990
989
987
987
992
993
988
982
977
982
984
988
984
983
981
982
988
990
988
983
983
986
984
986
984
985
982
980
985
985
985
983
977
980
985
988
989
986
984
985
987
989
991
992
993
989
994
996
993
995
991
997
998
1000
997
993
991
991
994
990
991
989
985
985
985
983
985
983
982
981
981
985
985
981
979
975
979
977
974
969
964
964
968
971
969
967
965
965
969
971
971
967
963
966
967
970
971
967
967
969
972
970
965
958
950
950
958
971
988
1016
1048
1094
1146
1189
1229
1245
1227
1182
1121
1047
957
874
836
843
864
888
910
929
937
947
954
960
963
961
957
958
960
960
960
958
959
960
961
963
967
966
964
961
961
966
970
971
970
972
974
975
977
974
974
973
976
979
978
980
976
977
981
984
983
987
988
991
996
997
995
995
997
1002
1008
1011
1012
1015
1016
1017
1020
1024
1023
1025
1024
1023
1025
1030
1034
1033
1032
1032
1036
1034
1031
1031
1031
1036
1038
1039
1035
1034
1031
1028
1028
1028
1023
1019
1015
1005
1000
1001
998
996
992
986
984
984
983
981
980
976
979
979
978
973
974
974
972
973
975
976
970
973
975
977
978
976
972
969
970
971
976
972
969
971
972
972
970
974
974
975
972
974
972
968
969
969
969
974
973
972
971
974
977
981
979
977
974
976
981
986
989
986
984
985
990
992
990
990
988
990
989
991
992
989
986
985
985
989
985
985
980
979
979
982
983
981
979
980
981
986
984
981
974
969
967
964
968
965
965
965
966
969
967
965
964
963
967
970
970
964
963
964
967
970
968
966
960
953
951
956
963
974
993
1028
1075
1122
1177
1219
1231
1208
1158
1090
1004
911
856
849
861
876
894
910
927
937
947
949
956
958
961
964
964
963
962
965
964
961
963
966
967
965
964
966
971
974
976
974
973
974
976
979
978
980
980
981
983
985
987
989
987
988
993
996
993
995
999
1000
1000
1003
1004
1005
1004
1005
1010
1017
1017
1017
1019
1020
1027
1031
1032
1033
1029
1032
1037
1035
1037
1035
1033
1038
1040
1039
1038
1038
1037
1038
1037
1037
1037
1034
1032
1033
1032
1030
1029
1024
1019
1018
1018
1016
1014
1007
1005
1003
1002
1001
1001
996
991
992
994
994
991
990
989
989
993
994
993
991
988
987
988
992
992
991
989
989
993
996
995
994
993
993
992
994
996
992
989
993
996
999
1002
997
994
994
996
997
1000
999
998
996
998
998
1000
996
997
997
1001
1004
1009
1008
1008
1008
1009
1010
1009
1011
1010
1011
1013
1013
1011
1008
1005
1006
1008
1009
1011
1008
1005
1005
1006
1004
1004
998
998
997
1001
1005
1009
1010
1007
1003
999
995
992
988
987
985
991
992
992
988
989
989
989
992
991
988
984
985
988
990
991
987
984
981
979
979
982
993
1015
1051
1091
1143
1198
1248
1286
1295
1263
1191
1097
989
898
864
878
905
931
948
957
966
976
980
980
978
975
979
980
982
985
983
981
979
981
984
984
983
983
982
984
989
990
989
991
993
997
998
996
994
996
996
998
1000
1001
1002
1002
1005
1005
1007
1009
1008
1010
1011
1013
1017
1022
1023
1023
1025
1030
1036
1037
1035
1033
1034
1041
1044
1046
1045
1044
1045
1045
1046
1047
1047
1047
1047
1048
1051
1052
1051
1048
1045
1048
1047
1048
1039
1035
1033
1035
1036
1031
1024
1017
1013
1017
1016
1015
1011
1006
1005
1003
1008
1005
1000
997
998
1001
1001
1001
1000
996
996
1000
1000
998
998
997
994
997
997
998
997
996
994
995
996
996
994
994
991
994
996
995
997
992
990
996
993
999
997
993
991
995
999
996
994
993
992
994
995
996
997
997
999
997
1000
999
1002
1002
1004
1006
1008
1009
1010
1010
1009
1013
1013
1010
1008
1008
1010
1010
1010
1006
1004
1002
1002
996
998
997
993
995
996
997
997
999
995
997
996
998
996
991
987
983
980
980
984
982
981
978
982
982
982
983
983
983
982
984
984
985
981
976
981
981
978
970
966
968
976
999
1027
1061
1101
1150
1202
1251
1271
1253
1193
1117
1034
945
879
859
870
888
910
932
948
960
967
971
973
976
978
980
978
975
975
976
975
975
978
978
981
982
981
981
979
979
981
985
985
985
983
984
986
988
992
993
990
993
992
993
996
1000
997
1000
1002
1003
1007
1006
1010
1011
1014
1017
1023
1023
1022
1022
1027
1030
1034
1038
1037
1036
1037
1042
1043
1044
1044
1040
1043
1047
1048
1049
1048
1045
1045
1048
1046
1049
1042
1042
1041
1039
1041
1037
1033
1026
1023
1021
1020
1015
1013
1006
1006
1004
1007
1004
998
995
993
994
997
998
996
994
993
993
996
997
994
991
990
993
994
994
991
991
993
994
995
994
990
990
988
991
993
994
991
991
989
991
995
993
991
990
992
995
994
996
994
990
991
993
998
995
995
996
995
1001
1004
1006
1005
1003
1002
1006
1010
1012
1013
1009
1009
1009
1008
1011
1009
1008
1007
1009
1006
1002
999
1000
997
997
998
998
995
992
992
997
1000
999
994
988
988
987
986
983
980
980
980
982
983
984
980
980
983
983
982
984
983
982
984
986
983
981
978
973
966
966
972
986
1005
1033
1069
1117
1169
1221
1255
1260
1223
1162
1086
997
905
853
854
879
909
929
948
956
962
972
979
980
977
976
978
980
980
977
975
976
977
978
982
984
982
979
979
982
985
984
982
984
983
987
988
990
990
989
990
992
995
996
995
996
997
1002
1007
1010
1008
1011
1013
1017
1019
1019
1017
1023
1024
1027
1031
1030
1034
1031
1034
1036
1040
1039
1040
1039
1037
1043
1046
1048
1047
1044
1044
1046
1049
1050
1048
1045
1046
1048
1047
1043
1041
1035
1032
1032
1033
1029
1025
1022
1016
1016
1015
1015
1010
1006
1003
1005
1006
1004
999
995
995
995
1000
1000
993
990
989
990
993
993
994
994
989
993
996
997
996
995
994
994
997
998
994
994
993
994
996
999
997
996
993
993
994
996
992
991
992
994
997
995
993
991
992
994
995
993
994
988
988
993
996
1001
1001
1001
1005
1006
1006
1009
1009
1008
1011
1014
1013
1011
1010
1006
1004
1006
1013
1009
1003
1001
997
998
997
999
996
996
994
992
997
1000
998
994
992
989
988
986
981
977
977
981
982
980
977
975
976
980
981
981
981
