1026
1018
1017
1016
1012
1010
1006
1004
1002
1002
1002
1002
999
997
995
995
995
991
987
989
991
990
994
992
990
991
991
990
991
988
985
988
987
990
993
993
992
988
990
989
988
986
986
982
986
988
995
991
988
989
993
994
994
992
989
986
985
991
992
992
990
988
988
990
991
990
990
988
991
991
996
999
1000
1000
1004
1007
1008
1007
1006
1007
1007
1008
1009
1006
1001
1000
998
1000
1002
1001
998
994
992
994
994
994
987
987
989
993
997
997
994
993
990
988
987
985
980
978
982
984
984
983
978
976
979
981
982
983
981
979
980
982
982
981
979
977
976
975
969
964
965
973
995
1021
1056
1098
1149
1204
1248
1278
1271
1222
1144
1058
964
887
853
860
881
904
926
945
956
962
967
975
977
977
975
970
966
964
969
972
974
974
971
970
973
975
976
974
971
974
978
983
983
985
984
986
986
987
985
986
987
986
987
991
996
994
995
997
1001
1004
1006
1006
1006
1010
1015
1018
1019
1024
1023
1023
1027
1035
1036
1035
1036
1034
1039
1041
1040
1040
1039
1038
1037
1043
1043
1038
1038
1039
1037
1039
1039
1035
1029
1027
1027
1027
1027
1022
1015
1011
1009
1007
1006
1004
998
996
995
994
997
994
993
988
989
989
989
990
985
984
986
988
990
987
987
987
988
989
990
988
987
989
990
991
992
990
988
984
987
987
987
988
984
983
981
981
984
981
982
980
983
985
987
986
983
984
982
987
987
987
985
985
986
990
991
988
987
992
997
1001
1002
996
993
993
1000
1005
1007
1005
1002
999
999
1002
1001
997
993
994
994
994
994
989
986
985
989
989
989
989
990
990
988
987
984
979
971
970
971
974
973
971
967
966
969
970
973
969
965
966
966
970
970
969
967
965
970
970
968
962
955
954
957
969
990
1016
1046
1087
1139
1193
1237
1250
1226
1171
1094
1011
916
852
839
858
887
914
933
945
950
958
963
966
964
959
958
959
962
966
969
968
964
958
965
968
967
967
966
969
971
973
974
974
970
971
971
978
978
975
973
973
976
983
984
985
982
983
987
993
992
993
993
995
998
1005
1008
1010
1009
1008
1014
1017
1022
1022
1021
1022
1028
1027
1029
1027
1024
1024
1030
1035
1036
1034
1027
1028
1030
1033
1034
1031
1027
1024
1026
1026
1027
1022
1016
1010
1009
1008
1006
1001
997
994
991
990
989
987
984
981
982
982
981
981
980
977
978
977
975
974
976
978
974
977
982
980
975
975
978
981
981
981
976
972
972
977
979
979
976
978
976
976
978
977
977
976
974
978
977
978
975
974
974
974
978
977
977
972
975
977
976
976
974
974
976
977
980
980
979
979
984
988
987
988
986
986
988
992
993
991
989
988
990
992
991
988
985
980
983
983
983
979
977
975
974
976
975
978
980
976
975
974
971
969
959
960
960
964
966
963
961
961
959
962
964
964
961
958
960
964
965
964
960
961
961
962
959
953
950
953
966
990
1019
1057
1106
1154
1205
1231
1231
1189
1127
1054
968
885
839
834
852
873
899
917
937
947
950
954
957
961
962
960
958
958
960
958
958
960
958
962
960
961
965
963
961
962
964
966
969
969
969
967
969
970
971
975
974
973
974
979
981
981
985
984
985
990
992
992
993
994
995
999
1003
1007
1007
1005
1008
1011
1015
1017
1016
1015
1018
1020
1021
1018
1016
1019
1021
1026
1028
1027
1026
1026
1028
1027
1026
1026
1022
1020
1025
1025
1023
1018
1012
1010
1007
1006
1003
997
993
990
990
990
991
988
986
980
978
981
980
979
978
977
973
977
978
978
973
972
973
976
978
974
976
974
974
975
977
976
974
972
971
973
973
973
976
974
976
978
980
979
975
974
973
975
972
972
974
975
977
975
978
975
972
969
970
973
973
971
968
967
973
976
977
980
981
985
984
984
985
983
983
985
986
987
991
988
985
985
983
981
983
985
978
978
974
975
977
973
972
968
973
972
975
975
975
972
973
972
971
969
958
957
956
958
959
959
956
952
953
954
958
954
956
953
956
961
964
961
957
958
958
961
963
956
949
946
947
953
964
982
1003
1041
1086
1142
1187
1217
1218
1184
1127
1061
981
892
830
818
837
861
885
902
919
930
936
942
947
945
946
949
950
954
954
953
954
952
954
957
957
954
954
954
955
958
963
961
964
961
963
966
969
972
970
970
970
971
972
973
974
976
977
976
979
982
985
986
994
995
995
999
999
998
999
1001
1002
1003
1003
1003
1006
1010
1015
1016
1014
1015
1020
1025
1022
1018
1014
1012
1016
1017
1019
1019
1016
1016
1020
1018
1017
1010
1007
1006
1004
999
996
989
986
984
985
983
981
975
971
967
968
965
967
964
963
959
962
967
972
964
962
962
958
964
965
967
964
961
963
965
968
968
967
965
966
968
970
968
966
965
968
969
969
966
967
966
963
965
967
966
968
965
969
971
975
974
970
967
967
968
969
970
970
972
975
979
982
980
977
978
978
982
983
984
981
977
979
981
983
983
981
978
977
979
974
973
973
970
973
976
973
972
971
971
968
971
969
965
958
957
958
959
960
957
954
954
955
958
956
956
950
951
953
955
961
961
960
958
956
955
948
944
948
967
1002
1050
1114
1180
1226
1224
1165
1068
945
843
808
831
862
893
916
934
942
946
950
955
959
958
955
953
954
956
959
959
957
958
961
962
964
964
964
963
964
967
969
970
970
970
970
974
975
980
978
980
981
986
990
993
993
993
993
994
997
999
998
1002
1004
1008
1012
1011
1012
1014
1018
1021
1024
1024
1026
1026
1027
1026
1024
1022
1024
1028
1030
1031
1034
1034
1032
1025
1025
1024
1024
1023
1022
1019
1017
1014
1011
1007
1003
1002
999
998
998
996
993
988
987
986
989
988
985
981
979
983
983
986
985
982
981
982
985
986
983
984
984
984
984
984
981
979
984
985
985
984
981
982
987
987
992
993
990
987
988
988
990
989
984
983
987
988
994
994
989
989
989
990
993
992
987
982
984
989
988
986
984
988
991
996
998
997
996
995
995
997
1002
1002
1002
998
994
995
996
1001
999
996
995
999
1002
999
993
989
988
988
989
989
987
983
986
987
992
993
988
985
983
981
979
976
973
972
973
976
977
976
970
971
973
970
975
971
970
972
972
973
976
974
973
972
969
969
965
961
960
970
987
1013
1049
1090
1138
1188
1232
1256
1239
1187
1116
1031
939
867
843
855
878
899
922
944
953
961
964
965
964
967
969
970
970
967
964
966
970
972
969
969
970
974
976
974
974
972
975
977
978
979
979
977
978
982
983
986
984
982
986
989
991
990
989
991
995
998
1002
1003
1004
999
1003
1006
1012
1014
1012
1014
1014
1017
1023
1027
1032
1030
1031
1033
1032
1031
1030
1031
1032
1035
1033
1031
1033
1031
1032
1036
1037
1037
1033
1032
1032
1033
1031
1027
1022
1016
1018
1017
1016
1011
1009
1004
1003
1003
1003
998
991
987
986
987
988
985
984
980
984
984
988
985
984
982
982
983
984
982
978
975
977
982
983
984
981
979
974
983
988
988
981
977
974
975
977
977
977
978
978
980
983
983
981
978
979
976
979
982
981
977
979
980
979
980
981
981
979
989
996
996
993
990
988
990
992
994
995
991
989
993
995
998
995
990
984
986
989
987
981
979
977
978
980
979
976
977
981
988
989
988
982
977
973
967
966
962
962
960
957
958
961
966
964
962
958
964
965
963
962
962
963
962
965
964
961
960
956
952
950
949
954
967
995
1029
1068
1113
1162
1207
1241
1252
1223
1168
1095
1014
930
864
840
843
863
878
899
919
932
942
950
953
957
959
959
960
957
959
960
962
963
963
960
960
960
963
963
964
963
964
964
966
969
968
967
967
967
971
971
972
973
973
973
976
979
985
983
980
981
986
989
990
990
991
992
996
1002
1002
1002
1000
1004
1006
1013
1015
1015
1015
1018
1023
1026
1026
1027
1027
1029
1030
1032
1031
1032
1033
1032
1032
1035
1034
1033
1032
1030
1032
1032
1031
1029
1023
1020
1020
1020
1019
1013
1009
1007
1005
1004
1003
995
991
992
992
990
987
984
980
981
981
979
980
978
977
980
980
982
982
980
979
979
985
982
980
975
973
974
975
978
975
974
973
972
974
980
979
977
976
976
977
979
978
974
974
973
977
980
978
978
976
978
978
981
977
976
973
970
975
974
975
976
974
979
982
991
994
992
994
992
990
995
997
994
991
992
993
996
993
992
989
988
989
991
991
987
983
979
978
979
979
978
977
980
984
983
982
980
975
973
969
967
966
965
964
960
963
965
965
966
965
965
965
968
966
964
963
963
967
970
969
969
964
960
956
952
949
951
958
979
1005
1038
1076
1119
1167
1211
1239
1234
1188
1117
1038
943
866
834
843
862
883
904
926
940
947
953
955
960
959
963
962
960
960
961
964
965
966
963
963
964
966
969
969
968
966
966
970
975
974
972
973
971
972
976
978
976
975
977
982
988
991
988
984
986
988
991
994
994
994
997
1004
1008
1012
1013
1010
1012
1016
1020
1024
1023
1026
1026
1032
1034
1036
1032
1029
1029
1030
1032
1031
1031
1028
1028
1032
1034
1033
1030
1027
1026
1026
1031
1025
1019
1017
1015
1015
1018
1015
1010
1002
997
995
995
995
993
990
988
987
986
984
981
979
977
977
978
980
975
976
977
977
977
979
974
973
975
978
981
979
976
972
972
977
979
979
976
975
978
978
981
978
979
977
976
978
979
980
975
974
974
983
984
982
979
976
976
978
979
980
978
978
977
988
992
995
993
991
990
991
997
997
992
990
986
987
990
989
993
993
991
991
990
993
991
988
984
984
985
986
983
982
978
979
983
985
978
978
977
976
972
966
960
956
960
962
963
965
965
965
968
967
968
966
962
962
962
966
967
967
963
961
960
959
963
960
952
947
951
962
981
1004
1035
1072
1119
1166
1212
1243
1234
1199
1146
1081
999
911
854
843
857
874
894
916
931
945
949
952
956
961
960
959
962
964
966
970
967
963
963
966
965
969
967
966
964
966
968
972
972
969
971
975
978
983
982
982
981
983
984
987
985
986
987
992
995
996
1000
1000
1001
1004
1009
1009
1011
1011
1015
1016
1019
1019
1021
1021
1023
1025
1031
1033
1030
1032
1033
1031
1035
1038
1036
1037
1038
1036
1041
1042
1037
1033
1033
1033
1031
1029
1026
1021
1019
1018
1018
1014
1010
1005
1003
1002
1000
996
989
985
982
985
986
985
984
983
981
984
983
983
979
977
978
979
981
981
975
976
977
979
982
978
973
974
975
978
980
979
976
972
977
979
980
978
980
980
981
979
979
976
976
979
979
982
986
984
982
983
983
985
985
985
984
981
984
991
994
993
991
990
990
994
998
999
995
992
993
993
997
997
993
992
990
992
990
988
984
982
979
984
984
984
981
980
977
982
983
981
975
967
966
968
968
967
967
964
963
964
965
969
967
964
966
968
970
970
968
967
967
965
964
961
953
948
954
966
987
1013
1048
1090
1145
1197
1243
1253
1222
1164
1083
990
898
844
836
852
875
901
926
942
953
953
956
961
964
962
965
963
963
965
967
968
968
966
968
970
973
973
969
971
971
972
975
975
974
973
977
980
982
983
978
979
980
985
990
992
991
990
994
997
1003
1003
999
1003
1005
1009
1013
1015
1013
1016
1017
1019
1025
1026
1027
1028
1033
1033
1037
1036
1033
1035
1034
1039
1041
1043
1039
1039
1037
1042
1044
1045
1039
1035
1035
1038
1038
1036
1031
1027
1023
1025
1026
1024
1022
1017
1012
1011
1012
1009
1006
1002
1000
1000
1001
999
997
995
995
995
993
992
989
988
987
991
993
994
993
992
994
993
989
989
988
984
986
990
992
992
989
984
984
988
988
989
989
986
987
987
989
987
985
983
984
985
989
991
991
990
990
993
993
994
992
985
983
988
987
988
988
989
988
994
999
1002
997
995
995
1000
1006
1006
1002
998
996
996
998
999
997
997
996
998
999
995
992
986
983
984
987
987
983
984
986
989
991
987
985
980
977
974
976
974
973
971
968
968
974
975
974
972
971
972
972
973
969
969
971
975
977
974
967
960
957
959
968
981
1003
1031
1069
1121
1172
1220
1253
1257
1220
1157
1077
976
886
840
842
868
896
917
933
940
948
954
965
962
957
954
955
961
962
963
960
959
960
962
964
963
963
965
967
971
974
969
967
965
967
971
974
973
973
971
973
976
977
977
979
979
981
985
988
987
990
990
991
997
1002
1005
1005
1006
1006
1011
1017
1017
1018
1018
1022
1024
1027
1028
1030
1029
1030
1027
1032
1033
1033
1033
1031
1031
1036
1034
1032
1031
1030
1028
1028
1027
1025
1022
1019
1018
1015
1012
1007
1003
999
1000
999
991
990
984
982
984
986
988
984
981
981
982
985
985
982
979
982
982
982
980
978
976
978
979
980
980
979
980
976
976
978
977
977
976
977
980
983
981
975
973
971
973
977
980
980
978
976
978
980
982
979
977
976
975
975
977
976
971
973
974
977
978
981
979
978
977
974
975
981
980
984
988
994
993
992
989
990
991
993
994
989
988
987
989
985
987
983
982
984
986
984
983
980
976
977
980
982
981
979
975
974
972
970
970
965
965
964
964
965
963
958
956
957
962
962
959
957
955
958
961
965
966
964
960
956
962
962
958
949
946
949
956
969
979
1002
1024
1060
1106
1153
1199
1228
1222
1189
1136
1066
982
891
832
827
845
869
888
907
926
936
946
952
950
952
951
953
950
947
945
947
948
947
952
955
956
954
953
953
957
957
958
961
963
965
971
972
968
965
966
968
970
975
975
974
973
978
981
983
984
982
982
986
993
999
998
998
1000
1003
1007
1008
1011
1014
1014
1017
1018
1020
1020
1017
1020
1020
1025
1022
1025
1017
1015
1018
1021
1026
1023
1021
1018
1020
1023
1021
1015
1010
1008
1005
1004
1003
999
994
994
991
987
985
981
980
975
974
975
974
975
969
967
969
967
966
964
961
958
961
962
964
966
964
961
961
965
968
967
966
965
964
967
970
970
968
964
965
966
964
966
966
969
967
966
967
965
964
963
963
966
968
969
967
962
964
965
970
970
966
960
963
963
968
966
966
967
969
974
977
978
978
976
974
977
980
981
978
975
973
973
976
978
975
974
974
975
973
972
964
958
961
965
969
969
966
966
966
968
966
961
955
953
949
951
952
951
948
945
945
948
949
949
948
946
946
948
948
950
948
948
948
949
948
938
931
933
942
961
990
1024
1066
1114
1169
1214
1233
1211
1159
1086
997
898
832
813
824
841
866
891
914
926
931
933
933
938
943
943
941
942
941
941
943
942
943
943
945
948
951
952
948
948
953
954
957
959
959
957
959
962
964
966
966
963
968
972
976
975
975
975
980
985
986
987
987
986
990
993
998
1000
999
1001
1004
1009
1013
1014
1016
1016
1016
1017
1020
1019
1018
1019
1022
1026
1027
1025
1021
1020
1021
1023
1026
1024
1020
1012
1012
1012
1011
1005
1000
995
992
991
991
990
988
984
980
980
979
975
968
966
971
969
970
975
971
970
969
971
972
972
969
967
969
970
970
968
963
965
968
971
972
967
966
965
964
969
972
974
970
971
971
973
973
971
970
967
970
972
976
974
974
972
973
976
978
975
973
969
966
973
975
976
972
971
971
973
978
978
975
971
976
981
985
986
986
983
981
987
988
988
986
985
985
988
989
988
984
984
981
985
988
984
980
976
977
977
979
977
976
977
978
981
982
976
972
968
966
965
963
962
963
960
961
964
964
962
960
962
961
960
962
965
964
963
960
963
963
958
951
944
947
957
974
997
1026
1062
1107
1161
1212
1253
1260
1223
1151
1061
967
877
832
832
858
889
915
932
944
948
951
956
959
960
958
955
955
956
960
960
960
956
957
962
966
964
963
962
961
961
966
967
964
963
966
968
972
978
979
976
976
979
982
984
985
990
989
999
1002
1005
1003
1007
1010
1015
1021
1020
1021
1022
1023
1026
1031
1032
1031
1027
1025
1027
1029
1029
1027
1026
1026
1028
1029
1029
1029
1023
1017
1019
1019
1013
1007
1004
996
993
995
992
986
978
982
984
985
982
977
975
975
979
986
985
980
979
978
978
982
980
975
976
973
976
977
977
974
973
972
971
974
972
970
966
962
967
971
972
969
966
966
970
975
976
976
973
970
971
972
974
973
972
969
972
974
973
969
966
968
970
974
974
974
972
969
970
975
976
975
973
977
981
984
984
982
983
983
987
992
990
985
980
978
978
980
979
975
974
975
975
973
969
963
963
963
967
970
975
975
973
971
967
967
962
957
953
951
956
958
960
954
950
948
953
958
957
955
953
953
956
958
956
952
951
950
950
950
942
936
940
951
973
1001
1037
1083
1134
1185
1224
1229
1191
1127
1045
948
865
828
830
853
871
891
916
933
938
938
942
940
946
947
949
952
950
948
950
952
952
952
948
946
950
953
955
956
955
954
958
961
961
961
958
956
961
965
967
967
969
971
977
978
975
974
975
978
982
986
996
997
996
994
996
999
995
998
999
1004
1011
1018
1021
1022
1020
1015
1016
1016
1014
1016
1017
1017
1021
1026
1025
1022
1022
1022
1023
1020
1016
1016
1012
1012
1011
1007
1007
1005
1001
1000
1001
1001
993
985
975
972
976
977
972
972
966
962
965
970
970
968
966
962
965
967
964
961
961
963
970
974
971
966
963
962
963
964
963
962
959
956
962
966
962
962
962
965
966
966
966
967
966
964
964
969
972
969
968
965
967
969
965
961
966
966
969
970
968
968
963
961
961
966
969
971
969
967
970
973
973
973
974
978
981
980
978
977
978
981
980
982
979
978
975
978
979
981
981
978
976
975
976
977
973
974
967
969
966
969
970
