1016
1018
1018
1015
1017
1021
1023
1016
1012
1006
1009
1013
1019
1023
1023
1018
1014
1004
1000
995
998
994
996
1001
1008
1008
1005
1001
1000
997
1000
994
992
992
990
992
993
992
987
982
980
979
988
988
984
982
981
985
989
990
990
989
988
985
982
978
971
968
974
987
1005
1027
1057
1094
1135
1181
1222
1249
1244
1209
1146
1076
1001
925
871
857
869
892
912
930
944
955
965
973
981
981
979
979
980
982
990
993
993
989
987
987
987
983
979
978
978
979
984
987
984
984
982
989
993
996
993
989
992
998
1001
1002
1001
1000
1003
1010
1014
1014
1011
1007
1007
1007
1009
1011
1016
1017
1019
1021
1026
1027
1027
1028
1031
1034
1038
1040
1038
1040
1042
1047
1041
1043
1040
1042
1043
1047
1052
1051
1050
1047
1051
1053
1055
1054
1049
1049
1049
1048
1050
1045
1043
1041
1036
1035
1032
1030
1027
1020
1021
1023
1022
1018
1016
1013
1017
1021
1016
1006
1003
1004
1011
1011
1000
989
990
996
1003
1003
1003
1002
998
1000
999
1004
1005
1003
1001
1002
1004
1005
1006
1005
1006
1007
1008
1004
1007
995
991
992
1001
1006
1005
1002
998
997
997
1001
1005
1003
1001
1001
1004
1008
1014
1013
1001
993
989
994
1000
1001
1006
1006
1007
1011
1016
1018
1019
1014
1013
1016
1019
1019
1013
1012
1012
1013
1015
1017
1012
1009
1010
1006
1005
1003
998
999
1002
1002
1006
1007
1008
1012
1013
1008
1002
993
987
984
985
983
979
980
979
982
977
978
977
981
980
978
979
980
979
984
981
978
975
974
975
975
975
978
982
991
995
985
970
963
974
993
1025
1058
1104
1154
1201
1238
1244
1215
1156
1094
1020
941
876
849
853
873
900
923
940
951
955
959
965
971
973
970
969
968
971
973
974
971
969
969
975
977
977
977
975
976
979
982
983
981
978
977
979
983
987
988
988
984
983
985
986
991
994
998
1000
1004
1005
1004
1001
1000
1005
1010
1013
1012
1014
1015
1016
1018
1020
1018
1017
1023
1022
1031
1034
1034
1034
1033
1035
1037
1039
1037
1037
1034
1036
1040
1040
1039
1038
1034
1035
1036
1041
1043
1040
1036
1031
1032
1032
1031
1026
1021
1021
1020
1018
1013
1010
1007
1005
1003
1004
1000
996
992
989
994
990
991
993
989
991
992
990
986
984
982
986
989
991
992
987
984
982
984
986
985
982
984
988
989
994
992
987
983
980
984
988
989
984
986
987
987
990
989
984
981
982
982
991
988
987
984
982
989
992
992
989
986
986
988
991
990
990
990
990
990
992
992
992
994
996
1000
1000
998
994
995
998
1002
1006
1003
1000
997
999
1001
1002
1002
1000
998
994
992
994
994
993
993
993
995
999
998
995
994
993
991
992
988
982
981
983
982
983
981
977
978
978
980
984
984
982
980
979
982
984
983
980
979
980
979
978
970
962
958
965
979
1002
1027
1056
1093
1143
1194
1231
1241
1218
1165
1094
1015
930
871
853
865
883
905
924
942
954
962
967
975
979
980
976
975
972
974
974
978
975
976
978
982
984
981
981
981
981
982
980
977
978
977
981
986
991
993
990
991
990
991
996
998
996
997
997
1001
1005
1009
1008
1009
1010
1014
1014
1019
1021
1020
1025
1026
1030
1031
1029
1031
1034
1038
1039
1043
1039
1038
1039
1044
1048
1047
1047
1048
1045
1050
1046
1050
1049
1043
1041
1045
1045
1043
1040
1034
1030
1031
1030
1028
1028
1024
1020
1018
1016
1011
1005
1003
1002
1005
1008
1008
1004
1000
999
999
1001
999
1001
999
998
999
999
996
1000
996
998
1004
1005
1002
996
997
1000
999
1002
1001
1000
999
999
1001
1002
1004
1005
1005
1007
1011
1008
1007
1008
1005
1007
1009
1010
1011
1009
1007
1005
1006
1010
1011
1009
1008
1008
1014
1015
1016
1015
1016
1017
1021
1021
1019
1017
1018
1021
1024
1021
1022
1021
1016
1015
1017
1017
1014
1012
1011
1010
1009
1009
1009
1010
1008
1008
1011
1012
1013
1010
1010
1010
1009
1006
1000
998
997
998
999
1000
1003
999
994
993
999
1000
1000
999
997
998
998
997
997
995
992
985
983
987
992
1008
1033
1070
1114
1165
1213
1249
1255
1228
1172
1097
1009
921
873
870
886
914
937
956
967
972
982
987
989
988
987
988
988
990
991
989
990
989
994
997
997
992
993
992
993
998
998
997
994
998
1002
1003
1002
1001
1002
1005
1003
1008
1009
1007
1006
1007
1013
1016
1020
1018
1021
1023
1026
1032
1029
1030
1027
1030
1035
1041
1040
1039
1040
1042
1047
1052
1053
1051
1049
1051
1051
1054
1052
1051
1052
1055
1055
1055
1057
1056
1056
1057
1059
1061
1057
1054
1051
1053
1051
1053
1050
1044
1038
1038
1040
1041
1037
1033
1028
1024
1026
1020
1020
1014
1012
1011
1016
1015
1014
1011
1011
1007
1010
1013
1012
1010
1010
1011
1011
1013
1013
1011
1012
1010
1014
1018
1016
1015
1013
1013
1013
1016
1014
1010
1007
1008
1012
1016
1016
1014
1012
1010
1013
1014
1012
1009
1010
1011
1013
1016
1015
1012
1008
1008
1012
1015
1014
1016
1017
1019
1021
1021
1021
1020
1019
1023
1026
1028
1025
1023
1019
1019
1020
1022
1023
1018
1014
1011
1014
1013
1011
1007
1006
1009
1011
1011
1009
1006
1003
1002
1004
1001
1001
998
999
996
995
995
993
991
989
993
994
994
992
991
991
991
993
992
993
990
988
984
978
980
979
987
1004
1032
1064
1110
1158
1201
1237
1245
1218
1161
1086
1001
919
875
870
888
903
920
935
949
965
973
978
978
982
982
986
989
987
982
980
981
983
988
983
984
986
981
985
987
986
985
986
989
991
995
994
995
995
997
1000
999
1000
998
998
1002
1006
1007
1008
1008
1009
1011
1016
1021
1022
1022
1024
1027
1031
1032
1031
1032
1031
1034
1037
1041
1043
1039
1039
1039
1038
1040
1037
1040
1040
1042
1044
1043
1042
1041
1036
1033
1035
1035
1035
1028
1024
1024
1024
1021
1018
1014
1007
1007
1005
1005
1003
1002
998
996
994
996
993
993
989
994
990
993
992
992
990
990
989
992
992
989
989
989
990
993
988
987
988
990
990
991
991
992
991
992
994
995
995
993
994
993
992
993
992
989
990
989
991
991
994
990
987
988
993
996
994
995
991
1000
999
1004
1001
999
999
998
1001
1004
998
999
997
997
999
995
996
994
995
992
988
986
989
989
986
983
984
988
987
986
980
979
981
980
974
967
969
968
968
969
969
968
966
967
969
972
971
970
966
965
970
971
968
965
961
957
953
954
957
966
984
1013
1050
1095
1147
1190
1220
1211
1172
1110
1031
944
872
843
854
873
893
907
924
938
950
951
957
957
956
957
959
962
963
963
959
957
961
964
964
963
962
961
961
964
963
961
962
965
968
970
968
969
967
968
969
976
976
975
976
977
979
980
985
984
986
988
992
997
998
999
996
995
1003
1003
1005
1005
1007
1008
1011
1012
1019
1014
1013
1015
1020
1021
1019
1019
1017
1018
1021
1024
1024
1022
1020
1021
1020
1018
1016
1011
1011
1009
1007
1005
1002
998
993
989
987
984
979
977
974
976
977
980
977
975
972
969
970
970
970
967
966
962
963
965
964
962
959
959
960
959
962
962
963
963
965
967
967
967
963
962
963
964
964
963
965
966
967
969
968
963
962
958
959
961
963
962
963
965
968
969
968
967
969
971
977
980
978
974
973
971
972
973
976
973
969
969
972
972
973
974
974
971
973
971
969
965
960
963
961
964
962
963
961
964
965
964
964
958
956
951
950
948
948
944
943
943
944
946
948
944
944
946
947
949
947
946
944
942
942
941
935
929
927
928
935
951
973
1003
1042
1095
1146
1185
1198
1179
1139
1081
1013
938
865
835
835
848
860
881
900
912
919
923
930
934
936
934
937
938
940
942
941
937
936
938
940
944
946
941
943
944
945
947
946
944
945
944
947
949
952
950
953
952
955
957
957
957
955
956
960
967
967
968
967
972
976
979
982
981
981
983
989
996
997
994
997
999
1001
1003
1003
1001
1001
1002
1004
1008
1009
1006
1006
1007
1009
1009
1008
1005
1001
1000
999
1003
998
994
992
993
994
992
988
979
978
976
973
975
969
966
962
958
961
962
960
959
957
956
958
959
953
954
950
950
954
955
955
952
950
949
952
954
953
951
951
952
953
952
952
954
950
953
953
955
955
954
954
954
953
956
959
958
956
958
958
962
962
957
956
960
962
964
965
967
963
968
971
974
974
973
975
977
979
979
975
973
968
967
975
972
972
969
967
969
970
968
963
959
956
959
959
962
963
965
963
963
961
960
956
949
948
947
949
948
947
946
944
944
947
948
950
948
945
947
951
953
950
949
948
944
939
934
935
939
945
967
994
1023
1064
1108
1152
1195
1228
1228
1197
1137
1065
980
894
842
832
841
857
878
902
922
931
935
937
941
946
947
949
944
945
946
951
953
954
949
948
950
949
950
953
953
952
953
954
959
959
960
960
961
965
967
967
967
968
971
974
976
977
978
978
980
982
982
986
989
991
994
998
1002
1005
1003
1007
1007
1011
1016
1012
1016
1017
1019
1020
1018
1022
1020
1017
1019
1022
1022
1023
1020
1018
1020
1018
1018
1018
1014
1010
1009
1007
1004
1003
1002
992
989
987
986
982
980
976
977
978
977
976
974
973
972
973
973
974
972
974
968
971
974
974
972
973
972
977
980
979
977
975
975
978
980
978
978
976
977
978
979
980
978
979
976
980
981
983
982
981
984
988
991
994
990
989
991
991
994
994
990
986
986
988
992
991
990
987
986
988
987
985
982
979
978
980
980
982
979
978
980
981
980
979
974
969
964
964
964
965
963
964
964
963
966
963
961
958
961
962
964
963
963
962
958
961
962
955
949
946
949
962
984
1014
1051
1096
1148
1200
1231
1229
1188
1122
1049
971
896
855
850
863
881
901
920
934
943
948
951
958
960
962
960
958
955
957
959
958
959
956
955
958
960
961
962
960
960
966
967
966
966
965
967
970
972
975
971
973
973
974
979
979
980
980
981
983
988
989
991
991
994
1000
1002
1000
1000
1002
1004
1007
1015
1016
1016
1017
1020
1021
1023
1023
1021
1023
1026
1027
1026
1027
1027
1025
1027
1027
1026
1027
1024
1023
1024
1025
1024
1021
1015
1012
1011
1009
1010
1005
998
994
992
992
992
985
983
981
978
979
982
978
975
973
975
975
973
971
967
967
967
973
974
974
970
968
967
969
973
973
968
968
967
971
972
972
971
969
969
972
973
974
969
969
970
970
976
975
972
970
971
972
974
971
971
970
972
975
975
979
979
980
980
981
984
986
985
983
984
986
986
985
983
978
979
980
986
986
983
978
976
976
977
976
972
966
970
973
973
971
971
970
970
968
966
964
959
955
955
957
960
958
956
955
957
956
958
958
953
954
950
953
958
958
954
952
955
952
952
948
943
940
942
949
966
988
1018
1054
1100
1154
1200
1218
1205
1163
1103
1027
943
870
837
838
857
878
899
919
928
938
938
945
952
949
952
950
951
952
954
953
951
949
948
953
956
957
958
960
959
958
960
961
964
963
961
961
963
965
966
965
969
974
974
972
972
973
974
981
985
984
986
985
988
994
999
999
1000
1000
1000
1005
1008
1009
1012
1010
1009
1014
1017
1021
1018
1018
1018
1022
1024
1024
1021
1019
1018
1021
1023
1021
1019
1016
1017
1019
1014
1012
1008
1003
1001
1001
998
995
989
982
980
980
978
979
978
978
975
976
973
969
966
964
964
967
973
971
969
967
967
968
971
971
969
965
970
971
970
968
966
965
968
970
971
968
968
965
965
967
973
971
969
965
962
968
970
971
969
967
963
967
974
974
974
970
972
975
976
977
977
974
973
980
986
989
988
986
982
981
980
980
976
977
980
981
979
977
973
973
974
974
972
968
966
968
968
971
972
969
965
963
961
963
963
960
954
953
954
955
960
958
953
953
951
953
953
954
953
954
954
958
964
957
958
957
953
949
946
941
933
935
942
956
976
998
1028
1064
1107
1149
1187
1202
1188
1153
1101
1034
962
890
852
850
862
874
893
910
924
932
937
940
944
945
943
945
947
948
949
947
947
944
945
949
951
951
949
945
949
950
955
957
956
955
953
957
963
962
960
959
961
963
969
970
968
972
968
974
975
975
974
975
980
980
984
991
986
987
987
998
1002
1003
1000
1001
1006
1007
1012
1010
1013
1010
1009
1013
1018
1014
1017
1017
1017
1018
1020
1022
1019
1016
1013
1015
1016
1013
1013
1011
1004
1008
1007
1003
999
995
993
989
990
986
980
975
972
973
976
973
968
966
965
970
970
970
965
962
963
966
966
967
963
963
964
967
970
971
968
967
966
968
971
968
966
966
964
969
967
969
967
962
967
969
972
970
974
975
979
981
985
985
981
977
976
982
987
985
983
980
982
983
980
979
981
979
978
977
978
979
978
976
976
976
973
972
966
964
961
962
967
966
961
959
962
963
965
966
963
958
957
959
963
961
959
960
959
960
958
951
942
935
935
944
961
988
1018
1057
1107
1156
1199
1225
1217
1182
1127
1052
964
881
843
845
862
883
903
921
931
940
942
947
951
954
955
955
956
959
958
960
958
958
959
961
965
963
961
958
961
961
964
962
963
964
970
972
974
975
974
970
973
975
977
978
978
979
982
982
987
988
989
991
992
994
999
1001
1000
1001
1002
1008
1007
1011
1014
1012
1016
1020
1023
1027
1025
1023
1025
1028
1031
1032
1029
1027
1025
1028
1031
1029
1028
1027
1027
1030
1033
1032
1029
1022
1021
1019
1019
1016
1011
1007
1004
1003
1001
997
992
990
989
989
990
987
983
983
980
982
985
983
981
978
978
981
980
984
979
981
983
984
988
985
982
982
980
982
984
982
980
982
981
982
985
985
982
979
981
982
985
984
984
981
981
985
986
981
980
981
980
983
986
987
984
983
983
985
985
984
982
983
986
987
984
986
986
982
982
984
985
985
986
984
985
989
995
997
996
995
991
995
998
1001
999
998
995
999
1001
999
996
995
994
995
998
996
992
990
988
988
989
992
989
987
987
990
993
993
991
987
986
986
986
980
975
975
972
972
976
973
971
971
972
973
976
976
973
972
973
976
977
977
973
967
962
960
963
970
979
1006
1031
1067
1112
1158
1205
1239
1264
1250
1199
1123
1039
949
879
851
862
884
904
923
940
952
962
965
964
965
968
969
971
971
971
967
968
970
973
972
970
974
976
976
979
978
977
976
978
977
979
982
982
982
984
986
986
989
990
988
992
995
998
999
1001
998
1002
1002
1012
1014
1013
1011
1018
1022
1025
1027
1026
1026
1027
1032
1035
1034
1034
1035
1036
1040
1043
1045
1046
1046
1044
1046
1048
1047
1045
1044
1041
1042
1045
1043
1038
1034
1031
1029
1029
1026
1018
1015
1008
1008
1007
1004
999
996
999
998
998
997
992
991
993
996
996
999
995
994
995
994
997
997
990
992
991
993
995
996
994
992
993
994
997
997
996
994
993
995
996
997
995
994
993
994
998
999
997
994
995
996
997
996
995
994
994
1001
1007
1009
1008
1007
1005
1009
1014
1014
1011
1009
1009
1007
1010
1010
1010
1007
1003
1005
1007
1003
999
994
993
991
992
995
993
992
995
1000
1001
999
994
992
988
987
988
985
980
978
978
979
980
978
977
978
977
979
982
983
978
979
978
982
984
982
977
974
973
970
970
965
964
966
975
998
1026
1062
1107
1153
1197
1237
1252
1221
1160
1087
1004
921
868
861
880
900
919
942
957
964
965
966
970
974
975
972
971
966
971
974
977
976
975
974
972
973
977
977
979
976
980
981
984
984
982
982
981
986
987
988
986
984
985
988
992
996
994
995
995
998
1002
1002
1001
1001
1004
1008
1013
1016
1016
1014
1018
1018
1022
1028
1027
1027
1028
1032
1034
1033
1032
1032
1033
1035
1038
1036
1039
1038
1039
1042
1043
1041
1039
1035
1034
1032
1036
1036
1032
1030
1025
1026
1022
1017
1016
1013
1011
1010
1010
1007
1002
1001
999
1003
1002
1000
994
992
993
996
995
991
987
980
985
988
990
987
986
986
985
992
991
989
987
984
986
989
995
991
987
986
983
986
988
992
988
987
987
988
989
989
988
987
986
989
990
989
991
988
987
988
990
990
984
988
990
994
1000
1002
996
995
997
1002
1008
1009
1004
1002
999
1003
1005
1003
1000
998
995
995
997
997
993
988
990
987
994
992
989
991
989
991
991
988
984
978
976
977
978
976
975
972
975
974
978
977
978
975
974
976
979
979
975
974
973
976
976
973
965
955
951
955
966
979
1003
1032
1076
1133
1182
1222
1234
1214
1160
1091
1008
921
862
852
872
900
922
940
950
956
964
969
977
975
972
968
969
971
974
973
972
969
972
973
976
977
978
974
975
976
978
979
978
977
977
980
980
983
983
983
987
989
993
990
992
991
989
993
997
1000
998
998
1000
1006
1012
1013
1017
1017
1018
1022
1026
1027
1029
1025
1028
1032
1037
1035
1035
1037
1040
1041
1046
1047
1045
1043
1041
1043
1046
1047
1045
1044
1040
1041
1040
1038
1031
1029
1027
1023
1023
1018
1014
1009
1004
1002
1005
997
997
993
993
997
998
996
994
991
989
988
989
987
983
982
984
989
994
993
990
986
986
988
989
987
987
988
988
989
994
994
993
992
991
993
991
990
989
988
988
990
990
992
989
986
989
993
994
993
989
986
988
989
992
994
992
994
997
999
1002
1005
1003
1003
1007
1009
1006
1003
1002
1001
1003
1006
1004
1001
997
992
988
991
989
990
989
987
987
987
990
993
994
989
988
987
987
984
979
978
976
980
985
984
982
975
969
973
977
978
977
976
977
978
983
986
983
979
977
976
973
965
961
962
975
1001
1031
1068
1115
1165
1204
1231
1226
1190
1129
1052
965
889
858
863
880
899
920
941
955
960
958
958
959
967
971
972
969
970
969
971
972
971
969
968
970
970
973
974
972
974
971
972
975
977
977
975
977
979
982
984
983
981
985
990
993
993
995
993
998
1002
1005
1006
1004
1007
1010
1015
1017
1021
1019
1020
1023
1027
1029
1031
1032
1032
1033
1035
1042
1038
1032
1032
1033
1037
1041
1043
1041
1035
1032
1035
1035
1034
1031
1027
1026
1026
1027
1025
1019
1016
1013
1014
1012
1008
999
996
995
993
