968
971
968
971
972
967
968
962
959
957
958
956
958
954
951
953
954
956
952
949
952
954
956
953
955
955
956
957
958
957
953
952
951
945
944
947
958
975
1001
1035
1080
1128
1176
1213
1228
1212
1166
1099
1018
930
859
832
841
857
870
884
903
923
938
944
946
946
949
952
954
956
955
954
952
956
961
962
956
953
952
956
962
963
962
962
959
964
966
966
967
965
966
971
974
973
972
972
971
977
982
984
982
980
979
986
992
994
994
993
994
999
1001
1002
1003
1005
1005
1010
1013
1017
1017
1017
1019
1022
1028
1028
1027
1025
1024
1027
1031
1029
1027
1028
1028
1032
1034
1032
1030
1027
1027
1030
1027
1027
1025
1024
1018
1019
1014
1015
1006
1003
1000
1003
1003
1000
994
989
992
993
994
993
987
982
981
984
986
986
982
978
978
979
983
987
982
980
977
979
978
978
976
975
978
982
981
983
982
977
976
979
982
981
981
981
981
982
982
984
981
979
979
980
983
983
980
982
982
982
984
982
984
981
983
984
985
981
977
980
980
983
985
983
984
976
977
982
984
983
985
983
986
989
995
996
992
993
991
995
999
1001
1000
998
989
995
998
1000
996
995
993
993
995
993
992
989
984
986
987
986
984
983
982
986
989
992
987
986
983
983
979
978
973
968
967
969
975
973
972
969
970
971
971
974
971
971
971
971
972
972
970
974
972
975
975
969
965
959
962
971
985
1008
1030
1065
1107
1156
1205
1240
1270
1270
1239
1182
1112
1030
938
864
837
850
875
899
916
928
940
954
960
964
967
964
960
966
969
970
966
964
963
964
966
966
965
966
964
969
971
973
971
971
971
973
977
976
975
975
970
975
977
979
979
980
981
984
987
987
987
990
988
990
993
996
995
994
996
1001
1007
1009
1009
1007
1011
1017
1020
1022
1021
1018
1022
1023
1029
1030
1030
1030
1029
1031
1033
1036
1035
1035
1034
1036
1037
1034
1035
1034
1033
1034
1034
1036
1030
1024
1023
1019
1023
1020
1013
1008
1005
1003
1001
998
995
990
988
991
992
991
987
989
986
988
989
989
986
985
984
989
990
991
989
986
985
988
991
990
987
984
984
982
984
987
985
984
984
981
985
984
979
980
980
981
984
986
983
978
977
981
983
984
988
985
985
986
987
986
984
980
980
985
988
989
984
986
985
987
986
988
988
987
988
990
992
992
991
992
998
1002
1004
1002
1000
999
999
1001
1004
1004
999
998
996
997
999
998
998
993
990
991
994
992
987
983
983
986
990
991
988
989
990
991
990
989
984
978
973
972
973
973
975
972
968
973
975
974
972
966
968
971
973
970
971
970
971
976
977
975
968
960
958
959
966
978
999
1024
1055
1101
1153
1200
1243
1258
1228
1163
1086
992
905
849
843
867
895
915
933
941
955
961
967
971
970
970
967
969
971
973
972
970
969
967
967
971
967
967
968
971
974
974
974
974
975
977
977
978
976
977
980
983
985
983
980
981
979
986
987
988
990
990
991
992
996
998
1001
1003
1005
1006
1011
1017
1016
1015
1016
1020
1022
1022
1022
1022
1025
1029
1034
1034
1034
1033
1033
1033
1037
1037
1038
1037
1037
1037
1037
1036
1032
1026
1026
1025
1026
1022
1019
1013
1009
1009
1004
1005
1000
999
996
995
996
997
991
986
987
985
985
986
981
979
984
985
989
986
985
981
980
982
980
980
978
980
980
980
984
986
982
980
980
981
984
985
983
980
981
982
981
984
983
984
983
983
984
980
981
980
979
979
981
980
975
979
980
982
982
980
977
975
976
976
975
978
981
981
982
982
985
984
986
988
986
987
989
990
988
988
992
993
993
995
994
989
988
993
994
992
988
986
983
986
987
984
981
978
973
979
984
987
987
981
978
978
980
976
970
963
964
967
968
967
965
968
967
969
970
969
969
966
965
968
970
972
970
968
965
963
958
955
955
963
977
1004
1035
1076
1122
1171
1217
1245
1228
1175
1095
1004
907
843
835
861
888
910
928
943
952
959
960
958
961
960
961
967
964
961
959
963
966
971
971
967
967
972
975
974
974
972
972
972
975
976
974
974
974
976
981
984
987
987
983
983
987
990
993
994
995
998
1004
1008
1008
1006
1005
1009
1013
1015
1019
1018
1019
1019
1023
1026
1030
1028
1029
1029
1031
1034
1033
1032
1034
1036
1037
1035
1036
1035
1034
1031
1031
1031
1028
1023
1017
1019
1019
1016
1011
1008
1004
1003
1003
1002
997
991
989
991
991
990
986
986
988
990
992
990
988
986
983
985
983
982
981
979
981
984
985
986
985
984
985
987
990
986
986
985
981
986
984
985
985
984
982
984
987
988
988
984
982
986
990
991
991
988
984
986
986
987
988
985
984
984
986
986
985
985
986
987
993
991
991
992
993
995
999
998
996
997
1000
1004
1003
1003
1000
998
1000
1000
1002
1004
1002
998
994
994
993
992
989
988
987
986
992
996
996
996
992
990
986
977
976
972
971
976
976
976
972
965
970
971
972
975
974
971
973
970
975
976
976
973
970
973
969
965
961
961
969
988
1011
1042
1086
1127
1174
1216
1238
1226
1183
1121
1053
969
890
850
851
871
891
917
937
953
961
965
968
973
974
975
978
974
973
974
977
978
977
977
978
978
980
980
979
975
976
981
981
983
983
982
981
986
986
988
987
989
991
995
997
998
996
994
996
1003
1004
1006
1005
1004
1005
1010
1014
1019
1020
1018
1021
1024
1030
1030
1029
1029
1032
1034
1039
1040
1042
1040
1039
1041
1044
1040
1043
1043
1044
1045
1048
1047
1046
1042
1042
1044
1046
1042
1039
1031
1026
1025
1022
1022
1019
1011
1008
1007
1008
1006
1003
1000
999
1001
998
998
996
996
994
993
993
994
993
992
990
991
992
996
997
995
994
994
996
997
996
992
989
989
990
989
987
988
990
993
995
995
991
991
989
995
993
995
994
992
992
989
992
994
989
987
988
991
994
990
989
985
984
987
991
991
987
987
987
991
992
995
997
1000
998
1001
1002
1004
1003
1001
1001
1002
1001
1001
1001
997
996
1002
1004
1002
997
992
989
986
991
990
988
985
985
988
996
995
990
988
983
980
980
976
976
975
974
976
976
976
977
975
974
977
974
976
973
969
968
970
972
974
971
967
964
959
963
969
984
1004
1032
1070
1124
1176
1218
1235
1216
1161
1091
1010
916
851
831
851
879
904
925
942
953
962
965
967
965
963
962
963
963
966
966
967
969
971
973
974
971
968
968
972
974
974
976
973
974
978
981
983
980
978
977
978
985
984
985
984
986
992
999
999
1001
999
998
1002
1004
1011
1012
1013
1013
1015
1019
1021
1022
1021
1020
1022
1024
1024
1024
1027
1031
1035
1038
1035
1034
1033
1031
1032
1038
1038
1035
1029
1028
1029
1033
1030
1028
1024
1023
1023
1020
1013
1008
999
999
1000
1000
1000
997
994
992
996
995
995
990
986
984
983
982
982
977
974
975
977
980
981
978
976
974
978
977
978
974
974
974
978
983
984
981
979
978
979
982
982
980
977
976
979
981
981
976
971
975
974
981
981
980
977
977
976
977
976
973
969
967
968
969
975
974
973
973
975
977
984
981
984
976
980
983
983
982
982
985
989
995
993
984
980
980
983
984
988
982
980
977
978
980
978
973
972
972
975
976
979
977
973
971
971
973
970
964
959
959
961
964
963
960
956
956
957
961
962
958
954
954
956
960
965
965
958
950
950
946
943
944
948
959
984
1013
1053
1104
1155
1198
1221
1209
1161
1093
1010
919
852
831
846
861
876
896
914
931
938
939
938
943
948
953
954
951
950
952
957
957
959
958
958
958
961
963
962
960
956
957
960
964
966
969
969
971
971
973
975
976
975
978
980
985
988
992
990
993
991
998
1000
999
1003
1004
1008
1012
1014
1013
1009
1009
1016
1021
1023
1023
1020
1020
1021
1023
1022
1020
1018
1017
1017
1017
1015
1018
1015
1012
1013
1013
1013
1010
1004
998
996
994
989
987
982
980
979
981
980
975
973
970
972
972
974
974
966
965
967
972
972
971
970
969
973
975
974
971
972
971
972
975
975
974
974
976
976
979
978
976
974
975
974
979
979
976
972
974
976
980
981
979
975
976
977
979
976
973
975
973
975
976
976
975
973
973
976
975
981
982
979
977
981
981
986
983
979
977
982
986
985
983
984
981
979
984
982
980
974
969
971
971
973
970
971
972
977
980
974
970
965
957
959
959
958
958
956
954
958
960
963
961
957
954
955
958
962
959
957
958
962
964
962
961
950
945
945
948
956
970
991
1025
1069
1120
1172
1210
1233
1222
1183
1127
1056
971
888
836
828
845
863
880
898
917
932
946
952
955
954
953
956
955
958
957
955
955
958
960
961
961
957
956
958
966
966
964
964
964
965
969
970
971
969
970
972
973
973
975
976
979
983
985
987
991
989
992
996
1004
1007
1010
1009
1013
1015
1019
1022
1019
1019
1022
1023
1026
1025
1023
1022
1025
1027
1029
1027
1025
1025
1025
1026
1028
1026
1021
1020
1014
1018
1017
1014
1012
1003
1002
999
998
999
995
990
983
983
983
986
984
979
979
977
977
978
979
979
978
979
979
979
977
974
975
977
976
978
981
979
981
980
983
984
982
981
981
982
983
981
981
978
978
979
985
985
983
981
980
980
981
981
980
978
976
978
980
980
975
978
979
983
986
986
983
980
981
988
990
992
990
987
987
989
994
997
999
995
994
994
993
994
993
989
987
987
990
987
985
980
979
977
981
981
977
978
980
984
986
984
980
976
972
970
968
968
966
965
964
965
968
967
966
965
966
968
971
968
965
962
963
967
971
971
966
961
958
953
955
965
979
1006
1036
1073
1121
1166
1209
1237
1242
1213
1161
1091
1007
913
849
833
849
872
892
910
927
942
954
958
959
956
960
961
962
964
961
961
961
966
967
965
965
965
963
963
966
970
970
969
967
969
970
971
971
967
969
973
977
981
980
976
976
980
986
988
990
989
989
992
996
1000
1000
1001
999
1002
1005
1005
1008
1010
1011
1013
1016
1022
1022
1020
1020
1024
1028
1027
1029
1030
1029
1030
1031
1033
1031
1028
1032
1033
1036
1031
1031
1031
1029
1030
1029
1031
1028
1023
1019
1020
1019
1015
1010
1005
1001
1004
1003
1004
1000
997
992
991
990
989
988
981
982
985
989
990
989
984
982
984
981
981
982
982
981
983
984
984
980
977
978
980
986
987
985
981
978
979
980
986
983
984
982
982
982
982
982
978
978
978
980
981
981
981
979
982
983
983
979
978
979
980
982
982
982
982
980
985
984
988
988
989
989
994
997
996
994
990
994
996
999
1001
999
994
992
991
994
993
991
987
986
985
986
987
984
980
979
982
983
982
983
984
984
986
986
985
982
973
971
965
969
969
970
971
970
968
968
970
973
971
971
969
972
974
972
970
968
971
972
971
970
971
968
966
962
960
957
963
974
997
1021
1047
1085
1121
1168
1208
1240
1244
1209
1146
1076
990
907
853
844
863
885
909
934
950
961
960
962
966
971
971
965
963
961
966
969
970
972
970
968
967
971
975
974
972
971
976
978
978
980
979
979
980
982
984
985
982
985
985
989
991
990
988
986
991
992
997
1001
999
1002
1005
1008
1014
1013
1013
1015
1017
1020
1023
1024
1028
1028
1029
1030
1032
1033
1034
1035
1037
1039
1040
1038
1036
1034
1036
1037
1037
1036
1033
1031
1033
1033
1035
1031
1030
1025
1024
1025
1027
1023
1017
1014
1011
1009
1008
1007
1003
1002
1001
1001
1000
998
993
991
988
990
991
992
991
990
991
988
988
987
988
989
988
987
988
987
985
985
989
991
991
988
988
989
992
993
995
994
990
990
990
988
988
987
987
984
985
989
990
988
990
986
985
987
987
987
986
983
988
990
990
989
988
989
993
999
1003
1001
998
1000
1002
1006
1006
1004
1004
1005
1003
1004
1006
1000
1000
1001
999
1002
1003
1001
994
991
992
994
999
995
995
991
992
996
997
996
994
988
989
990
986
978
978
973
979
980
983
982
981
979
975
981
983
982
979
980
980
981
980
981
980
978
979
974
971
966
965
966
985
1008
1038
1074
1114
1161
1206
1238
1245
1213
1160
1092
1013
933
871
852
863
887
910
935
953
962
969
973
974
976
976
976
972
973
973
979
981
979
975
973
974
976
980
978
975
976
979
982
984
981
980
981
986
990
992
989
991
987
989
993
995
1000
998
998
999
1001
1004
1002
1003
1003
1009
1012
1017
1016
1016
1016
1018
1020
1028
1028
1028
1026
1030
1035
1040
1040
1036
1037
1038
1039
1042
1045
1044
1043
1045
1048
1052
1047
1046
1047
1048
1049
1047
1047
1039
1037
1037
1036
1032
1030
1025
1023
1020
1021
1020
1015
1011
1005
1007
1009
1010
1005
1003
996
997
997
1001
1001
995
992
994
998
998
995
993
995
996
999
998
995
995
997
995
997
998
996
994
992
993
991
994
996
994
991
993
993
993
993
992
990
994
996
997
994
992
986
987
994
997
997
995
992
991
992
996
996
995
994
997
1000
997
998
997
999
1002
1005
1005
1004
1003
1004
1005
1011
1011
1010
1007
1005
1006
1007
1009
1008
1007
1002
998
999
1000
995
993
991
993
995
993
996
991
992
991
990
989
985
980
977
975
976
978
978
974
974
979
980
981
980
980
975
977
980
978
978
976
972
971
973
974
967
963
963
971
983
1005
1030
1059
1096
1136
1180
1212
1225
1210
1170
1112
1047
976
901
856
854
876
903
923
938
952
958
964
970
973
970
968
967
971
976
978
976
975
976
975
975
978
974
974
974
975
978
981
981
978
978
980
982
985
983
983
983
988
986
990
993
993
993
990
996
998
1002
1003
1001
1005
1008
1012
1012
1011
1013
1018
1020
1025
1020
1023
1024
1026
1031
1032
1034
1031
1033
1033
1038
1035
1039
1037
1035
1036
1039
1040
1036
1035
1033
1033
1034
1036
1035
1031
1027
1026
1024
1024
1020
1018
1010
1009
1008
1008
1003
1000
994
994
990
990
989
988
983
985
986
985
986
984
983
983
985
981
981
977
980
979
982
982
982
980
979
977
981
983
982
978
979
979
980
984
984
983
977
978
980
983
981
979
978
978
982
981
982
982
981
980
982
982
979
978
979
977
980
984
985
986
987
990
991
995
997
997
994
994
993
992
990
987
985
986
987
989
989
986
983
978
979
979
980
978
977
976
984
988
982
976
971
970
968
971
968
963
962
962
964
964
965
962
962
961
962
963
961
958
960
961
961
960
960
959
953
954
952
946
943
945
953
968
995
1029
1070
1122
1171
1206
1219
1197
1146
1081
1006
915
849
833
843
863
882
899
919
933
940
943
947
951
954
954
955
953
950
952
956
960
958
958
956
956
958
959
958
961
960
961
965
967
969
970
963
963
963
965
966
967
969
971
971
975
976
974
974
979
985
988
993
991
989
993
997
998
1000
1005
1007
1007
1013
1017
1014
1012
1012
1013
1016
1016
1015
1011
1009
1012
1014
1017
1019
1018
1017
1016
1012
1011
1010
1007
1008
1008
1007
1009
1005
1000
998
992
986
982
980
977
973
973
973
974
973
970
967
961
959
963
963
957
956
955
958
959
959
958
956
958
959
962
960
960
956
961
963
961
957
958
957
959
964
968
965
961
959
956
958
961
961
960
962
963
963
967
966
963
960
962
964
965
965
963
961
964
962
965
964
967
966
964
969
971
975
972
969
971
974
981
984
979
976
972
974
975
977
975
968
969
969
971
968
965
959
962
966
966
963
963
959
961
964
964
962
958
951
947
946
948
950
948
947
948
951
951
950
947
946
947
950
952
953
949
947
946
949
952
950
943
942
937
935
938
944
954
976
1005
1044
1087
1137
1183
1211
1214
1192
1145
1081
1001
909
844
822
834
848
861
880
904
919
930
935
935
939
942
943
947
947
944
941
944
947
951
951
948
949
950
953
954
952
951
952
952
956
958
959
959
960
960
959
963
962
961
959
965
967
973
971
973
970
976
978
981
982
985
985
989
996
999
1000
1001
1003
1005
1007
1010
1012
1014
1012
1013
1017
1019
1021
1017
1018
1016
1020
1024
1023
1018
1015
1017
1021
1022
1018
1014
1013
1011
1013
1013
1012
1007
999
999
1000
999
996
992
986
985
982
982
977
977
977
975
978
980
980
982
984
979
973
972
967
966
964
966
972
974
970
969
968
968
969
974
974
971
974
973
975
976
975
970
969
970
976
982
981
979
978
975
978
982
979
976
976
975
978
981
978
975
973
974
975
977
978
977
976
976
980
983
982
981
983
983
981
984
985
989
987
982
982
981
985
986
985
982
978
975
978
977
976
978
980
980
976
972
973
976
980
981
980
975
972
969
969
970
965
960
958
958
958
960
961
960
956
952
955
954
957
958
956
959
962
961
958
956
958
959
957
955
954
958
971
996
1031
1075
1133
1185
1228
1243
1216
1147
1058
960
871
828
833
859
886
908
920
933
942
949
950
947
948
951
952
956
956
953
955
954
955
956
958
958
960
961
964
965
957
958
955
957
963
964
962
960
963
964
966
970
967
970
968
971
976
982
981
981
982
985
988
992
990
991
992
999
1004
1009
1009
1008
1005
1008
1014
1015
1015
1016
1012
1012
1015
1022
1022
1019
1019
1019
1023
1027
1028
1027
1026
1024
1023
1026
1028
1023
1014
1012
1014
1016
1008
1001
992
990
995
997
995
986
977
971
975
980
980
979
976
982
982
974
970
962
959
958
962
969
971
971
969
971
972
970
968
967
965
968
972
970
972
968
968
970
974
976
971
966
967
972
974
983
980
980
972
970
965
965
964
965
967
970
970
973
974
975
974
977
982
987
987
985
983
982
987
990
992
994
989
987
989
988
987
991
989
986
988
985
981
979
975
978
981
983
974
970
970
973
975
980
978
971
961
955
956
960
960
957
954
956
957
959
960
960
957
956
961
965
964
964
962
963
969
970
