969
968
969
967
965
967
968
971
966
967
967
969
970
970
971
966
960
954
954
954
962
977
1006
1044
1096
1152
1206
1244
1256
1227
1167
1087
988
894
843
843
868
897
921
935
943
952
957
965
966
963
959
964
964
966
962
962
960
962
969
971
969
969
968
969
969
973
971
973
969
972
976
978
979
979
978
981
983
988
989
990
983
987
991
997
998
1001
995
998
1001
1006
1008
1009
1007
1012
1017
1018
1020
1021
1022
1024
1026
1031
1032
1032
1030
1029
1032
1034
1034
1033
1033
1034
1034
1034
1031
1029
1028
1029
1027
1027
1024
1019
1016
1013
1011
1006
1004
1000
996
995
996
993
990
985
984
984
985
983
983
979
980
984
984
988
985
984
982
981
981
978
977
976
977
976
982
981
984
981
979
976
978
982
983
981
980
980
984
986
986
984
984
981
982
984
985
982
978
979
982
985
986
986
985
987
989
992
990
989
990
993
997
997
993
992
996
999
1001
1000
1001
998
998
997
998
995
995
989
988
989
989
989
988
985
983
980
982
984
986
986
986
984
985
982
978
968
970
969
973
976
971
967
965
971
973
973
976
977
976
976
975
976
971
966
963
960
955
955
954
960
976
1002
1041
1085
1138
1187
1230
1253
1234
1183
1111
1022
929
854
829
841
863
887
911
927
939
944
948
950
953
953
952
958
959
958
956
957
958
962
961
957
955
959
962
969
972
969
964
966
972
975
979
972
972
975
977
979
978
980
983
986
987
989
991
991
991
992
995
998
996
995
997
1003
1011
1016
1016
1019
1017
1019
1021
1022
1022
1022
1024
1028
1029
1031
1030
1028
1033
1034
1036
1030
1027
1026
1025
1023
1023
1022
1018
1011
1003
1001
1001
998
992
986
982
983
987
984
980
971
972
971
971
968
969
968
968
968
972
975
973
971
969
968
971
972
971
966
966
969
968
970
971
968
964
962
967
969
964
957
963
964
967
969
967
968
968
969
967
970
972
971
967
962
960
962
967
970
971
975
976
978
978
977
977
978
981
983
982
978
978
979
981
980
980
977
979
976
974
975
971
970
962
966
968
971
967
966
968
969
969
968
961
959
951
951
955
960
960
958
951
947
943
948
953
956
953
954
955
959
957
951
951
951
954
953
949
940
935
937
945
965
993
1026
1073
1128
1183
1216
1218
1188
1135
1061
979
900
852
842
851
864
879
902
918
931
938
940
944
948
947
948
951
955
959
961
960
957
953
950
953
956
952
950
947
951
956
962
966
964
960
958
961
965
966
966
967
971
976
977
977
978
976
974
981
985
988
991
993
994
997
1002
1001
999
995
999
1004
1010
1012
1015
1014
1015
1019
1017
1020
1021
1020
1018
1019
1023
1022
1023
1024
1025
1027
1026
1025
1024
1019
1020
1021
1023
1020
1016
1014
1011
1009
1009
1004
996
993
989
990
985
981
978
972
970
972
975
975
973
967
966
968
969
966
964
963
961
961
964
965
963
962
961
961
964
964
964
966
967
969
969
966
967
965
965
968
967
966
965
963
966
969
970
966
965
964
966
969
969
971
966
967
966
970
972
968
965
968
972
976
977
973
971
971
979
984
989
987
983
977
975
978
978
978
976
975
975
975
976
971
967
965
969
971
970
966
964
962
963
966
970
967
962
954
952
952
953
952
953
952
952
954
957
955
950
948
952
954
954
950
946
948
948
948
953
948
943
937
933
935
945
960
984
1016
1059
1114
1168
1215
1242
1235
1192
1131
1051
954
861
816
817
836
857
876
894
910
920
930
938
941
941
944
949
949
950
946
943
939
941
943
946
948
948
947
950
952
955
954
953
953
954
954
960
959
961
960
961
962
965
964
965
961
964
967
972
973
974
973
973
971
978
979
981
985
983
984
990
995
998
999
1004
1008
1008
1009
1006
1004
1008
1011
1013
1015
1013
1012
1015
1018
1020
1020
1020
1018
1019
1020
1018
1014
1012
1010
1011
1012
1008
1006
1001
997
994
995
996
992
986
982
981
983
984
979
973
972
970
972
973
973
970
965
968
972
973
973
969
966
965
969
971
970
968
965
967
973
971
969
967
966
970
969
970
974
971
967
969
971
974
972
970
970
970
971
973
974
973
969
969
969
969
969
969
968
968
970
974
974
975
975
975
977
981
981
978
979
983
986
989
987
986
985
985
987
989
988
985
982
981
985
988
988
987
983
980
979
980
977
973
974
976
976
978
979
979
975
975
974
973
968
964
962
959
965
966
965
960
962
961
961
962
962
960
960
961
962
966
965
965
966
966
965
963
958
954
947
946
952
967
989
1018
1056
1106
1160
1214
1255
1269
1239
1182
1112
1026
932
861
839
856
883
907
923
937
944
953
958
964
965
960
960
959
962
962
963
963
963
962
962
964
962
960
960
963
965
969
967
964
964
966
970
972
972
971
971
976
979
982
980
981
982
985
987
990
992
990
993
995
998
1003
1003
1004
1004
1008
1011
1016
1015
1013
1010
1018
1021
1022
1020
1020
1022
1025
1028
1032
1031
1028
1030
1031
1031
1031
1029
1028
1025
1029
1029
1028
1023
1017
1013
1011
1010
1009
1006
999
995
993
993
994
991
988
984
985
985
987
986
979
978
978
978
983
982
979
977
977
980
980
979
978
980
984
985
982
979
977
973
972
972
979
977
978
974
977
979
982
981
978
977
978
980
985
983
980
980
979
983
985
986
978
976
978
981
987
989
985
986
987
991
993
995
991
988
990
992
997
998
997
992
992
993
994
993
993
990
994
996
997
992
985
982
982
985
989
989
984
986
989
994
993
990
986
979
972
971
972
970
967
968
968
968
972
972
967
968
970
969
970
971
968
967
969
970
972
972
965
961
958
955
957
960
963
976
1006
1043
1089
1140
1193
1235
1257
1243
1188
1116
1024
930
862
839
857
882
906
925
937
949
956
960
963
962
964
966
968
967
965
960
961
962
966
969
967
967
970
972
974
971
969
972
975
979
979
980
979
978
979
981
981
980
978
980
982
984
985
987
988
987
992
996
999
1000
1004
1004
1003
1005
1008
1014
1016
1018
1020
1022
1024
1026
1027
1026
1029
1033
1036
1038
1032
1030
1030
1032
1036
1038
1038
1036
1038
1040
1039
1040
1034
1031
1028
1029
1030
1026
1023
1017
1016
1014
1011
1007
1002
996
995
992
994
991
991
986
987
987
987
987
984
982
982
982
983
982
981
979
981
986
985
984
980
982
981
982
983
982
981
980
983
982
983
983
981
983
982
985
986
983
980
975
976
979
984
985
983
982
978
983
986
986
985
984
983
983
987
991
989
987
990
995
996
997
995
993
995
998
1001
998
993
991
992
994
997
993
991
990
989
990
989
989
987
986
986
985
986
989
990
988
986
982
982
978
976
974
971
973
972
974
972
970
972
972
972
967
969
966
969
972
976
970
970
968
968
968
965
960
951
950
957
977
1005
1040
1083
1137
1192
1237
1248
1218
1155
1079
992
899
846
842
864
891
913
935
951
957
959
958
964
964
965
969
965
963
964
967
971
970
968
963
965
968
971
970
970
971
972
976
979
979
976
975
975
982
983
986
985
981
982
985
992
994
992
994
998
998
1002
1004
1005
1006
1008
1011
1012
1017
1016
1018
1019
1024
1027
1029
1030
1031
1029
1030
1034
1035
1033
1031
1031
1034
1035
1034
1034
1028
1029
1031
1033
1038
1033
1024
1020
1018
1017
1013
1011
1006
1000
1001
1002
1000
994
991
991
994
995
990
986
985
985
988
987
985
983
980
980
981
985
981
980
979
982
983
985
979
980
978
975
980
982
983
982
983
982
984
983
981
978
976
976
979
981
978
973
974
976
978
981
984
981
981
979
980
983
983
981
976
977
979
983
983
988
989
990
991
992
991
991
989
994
997
1000
999
995
994
994
990
989
986
983
981
984
983
982
976
972
971
974
977
980
980
976
973
976
977
979
974
965
961
963
966
967
966
961
961
963
966
967
966
965
963
969
970
972
970
965
966
964
964
961
954
947
943
947
956
973
991
1018
1055
1106
1159
1205
1227
1216
1179
1124
1050
967
884
842
843
861
878
900
918
930
935
942
949
954
960
959
955
953
952
956
958
959
957
958
960
964
966
963
959
957
961
967
968
968
966
968
971
975
975
972
970
974
978
982
979
981
979
981
987
990
989
990
990
994
1000
1007
1010
1008
1007
1006
1009
1013
1013
1015
1014
1017
1021
1025
1024
1022
1023
1023
1028
1031
1031
1030
1028
1029
1028
1027
1030
1028
1024
1023
1023
1023
1020
1018
1008
1003
1002
1002
1001
995
991
990
990
987
984
978
976
975
975
979
976
975
974
974
975
976
974
973
970
971
972
975
978
975
975
976
981
983
982
975
973
972
977
979
974
973
969
973
975
979
977
976
976
975
975
978
976
974
973
971
977
981
979
978
977
976
978
983
980
979
981
983
985
986
984
983
981
986
990
993
990
990
985
988
990
991
990
987
986
985
986
986
983
978
977
979
981
981
984
985
983
982
983
982
980
973
965
963
966
971
968
965
960
960
964
967
967
967
966
967
969
973
969
968
966
963
965
965
964
958
952
951
957
974
994
1023
1061
1115
1169
1217
1242
1232
1191
1132
1063
979
895
851
848
863
880
898
918
933
945
953
955
963
962
964
963
963
965
968
968
969
966
967
968
970
971
969
966
970
972
974
974
975
976
978
979
980
981
979
981
982
986
990
992
992
992
990
997
999
1001
1002
1001
1000
1006
1012
1014
1013
1010
1013
1019
1024
1024
1024
1024
1024
1027
1031
1033
1031
1033
1032
1037
1036
1039
1041
1036
1037
1036
1037
1035
1037
1035
1036
1037
1036
1033
1026
1022
1021
1021
1018
1013
1008
1003
999
1001
1000
998
996
993
993
993
995
990
984
983
981
985
990
986
982
980
983
988
988
989
986
982
983
986
989
990
988
984
985
987
988
989
988
987
984
989
992
995
992
993
992
990
991
988
984
983
986
989
988
990
992
987
985
985
986
986
990
989
991
995
999
998
1000
995
995
1000
1005
1008
1007
1003
1003
1003
1003
1006
1003
998
1000
996
1000
998
992
988
987
990
994
992
985
987
988
993
992
990
987
984
982
982
984
981
977
976
977
977
981
980
979
978
975
978
981
981
977
975
974
977
977
973
967
960
959
969
984
1009
1042
1082
1129
1182
1229
1250
1241
1193
1127
1042
949
877
848
862
891
920
941
946
955
964
971
974
974
975
973
969
974
973
977
978
976
974
974
976
980
977
978
974
978
982
987
986
983
983
983
983
985
987
988
988
987
994
997
997
994
995
999
1005
1009
1008
1008
1008
1008
1013
1019
1021
1020
1021
1024
1026
1031
1035
1038
1037
1036
1036
1039
1038
1040
1039
1040
1040
1041
1041
1043
1043
1041
1043
1046
1043
1041
1035
1035
1035
1034
1029
1024
1018
1013
1012
1012
1009
1006
1002
997
1000
999
994
994
989
992
993
993
994
988
985
984
985
988
988
988
986
986
990
991
988
989
987
984
987
991
989
986
984
983
983
985
987
985
985
987
989
993
991
983
982
985
990
991
985
985
984
986
989
992
991
987
987
987
992
996
998
996
997
996
996
1001
1001
1002
1000
999
1002
1004
1004
1003
1003
1002
1003
1003
1001
999
997
993
992
992
991
989
989
990
992
994
993
992
989
988
987
988
985
981
978
975
980
979
979
977
972
971
976
980
978
973
972
973
974
976
975
976
973
969
971
968
963
960
962
970
989
1015
1047
1086
1136
1190
1233
1250
1223
1163
1088
1004
918
858
847
861
884
907
929
944
951
953
960
963
965
968
969
966
964
967
970
971
970
969
967
967
971
971
971
966
965
973
977
979
977
976
975
974
976
978
982
981
982
988
989
994
992
989
990
995
1000
1003
998
995
994
1002
1009
1012
1015
1012
1017
1021
1022
1026
1028
1030
1029
1028
1033
1034
1036
1032
1034
1039
1041
1043
1043
1039
1037
1038
1035
1037
1035
1031
1026
1024
1027
1026
1024
1014
1012
1008
1006
1004
1001
994
992
990
987
988
988
986
987
984
982
983
982
981
982
981
985
983
982
982
980
982
983
982
982
980
981
979
980
985
985
983
979
981
981
982
980
976
976
979
983
984
981
979
983
983
984
983
982
975
978
978
980
983
985
987
990
996
998
995
993
994
996
998
1002
1002
995
989
988
989
991
995
995
993
992
990
989
988
983
981
978
979
985
988
990
986
978
974
974
974
971
968
962
958
962
967
969
970
968
968
969
972
970
970
967
964
962
956
948
953
969
998
1038
1089
1144
1193
1229
1233
1205
1150
1075
980
895
849
850
867
881
899
916
933
943
954
955
958
959
959
964
964
964
962
964
960
963
965
963
964
962
964
967
970
970
967
969
971
975
978
979
977
978
980
979
985
987
984
984
991
993
994
995
993
997
997
1004
1009
1010
1010
1010
1013
1017
1020
1021
1023
1024
1027
1029
1032
1032
1033
1031
1034
1037
1040
1039
1034
1033
1035
1036
1035
1033
1033
1029
1032
1033
1029
1026
1020
1017
1013
1015
1010
1007
1002
997
996
998
995
992
987
984
986
986
988
984
978
974
973
976
979
980
979
975
975
978
978
974
975
974
974
977
977
978
974
974
973
974
978
979
975
977
976
978
979
981
978
978
976
977
976
977
975
976
981
982
980
976
975
975
978
981
983
983
983
980
980
982
983
987
990
990
990
992
993
990
988
992
994
992
993
990
988
987
982
985
989
986
982
976
977
979
979
977
976
975
978
982
983
980
977
973
970
970
972
968
966
960
961
965
968
969
966
965
966
966
969
966
966
961
963
967
969
967
965
963
961
958
953
956
962
976
1002
1037
1086
1138
1186
1228
1245
1223
1171
1096
1009
915
852
840
857
880
899
917
934
945
955
958
961
962
964
965
969
964
962
960
963
968
971
972
969
966
967
968
969
969
970
970
969
973
975
975
976
976
976
983
985
986
982
981
982
989
992
994
992
992
995
999
1000
1001
1000
1002
1008
1013
1016
1016
1015
1019
1019
1022
1022
1027
1028
1031
1032
1035
1037
1035
1033
1029
1034
1037
1039
1040
1038
1037
1035
1035
1033
1033
1030
1024
1021
1024
1024
1022
1014
1009
1005
1003
1003
1003
997
990
993
994
992
994
988
984
984
989
990
988
984
984
982
985
985
983
981
979
982
981
985
985
979
978
980
982
986
986
984
980
982
983
982
984
981
981
978
978
979
982
982
982
983
982
988
987
986
983
980
981
986
984
982
979
979
984
993
995
996
990
992
993
993
997
997
996
993
996
995
993
987
988
990
991
993
992
990
986
981
983
983
987
979
979
981
985
987
986
982
979
978
975
974
975
974
972
967
967
966
967
966
965
965
966
966
967
966
962
965
966
971
969
966
965
961
956
954
953
954
961
980
1009
1045
1089
1142
1188
1229
1250
1231
1180
1108
1027
933
859
834
844
862
887
908
928
941
950
952
954
955
959
961
960
959
957
957
962
966
965
962
961
962
964
966
964
965
962
963
966
970
972
971
970
971
972
976
975
975
978
978
984
984
982
983
984
987
991
993
995
997
996
997
1000
1005
1008
1007
1010
1011
1019
1021
1021
1021
1018
1022
1025
1028
1030
1027
1024
1024
1030
1034
1032
1031
1029
1028
1032
1032
1031
1025
1021
1022
1026
1025
1021
1016
1011
1010
1010
1009
1002
997
994
994
992
991
988
984
981
982
981
984
985
980
977
974
975
975
975
975
973
973
977
975
975
975
972
972
975
978
977
974
974
975
973
975
975
972
971
973
976
978
977
976
972
971
974
977
975
974
971
973
975
979
977
975
974
974
974
978
977
974
972
973
979
983
987
984
984
984
984
982
988
986
985
984
984
984
985
982
983
983
985
988
984
981
977
974
976
977
977
974
971
970
974
983
984
978
970
967
968
968
964
962
956
958
960
963
960
956
957
958
960
961
961
960
959
958
960
963
964
961
958
956
956
952
952
946
937
940
949
969
993
1026
1069
1119
1171
1215
1229
1209
1161
1093
1013
928
855
829
836
857
884
908
922
927
932
940
945
950
952
949
951
951
952
954
954
952
952
952
952
953
953
952
952
954
957
961
963
961
958
959
960
963
964
960
954
962
964
971
970
968
967
970
971
974
975
975
974
974
981
987
989
991
991
992
996
999
1002
1000
1003
1006
1009
1015
1016
1014
1012
1012
1017
1023
1024
1022
1020
1018
1020
1024
1022
1023
1026
1023
1023
1023
1023
1021
1017
1011
1010
1008
1006
1006
1003
1000
999
997
995
988
981
977
978
976
973
969
967
965
965
964
963
964
962
962
962
961
961
958
959
960
964
964
964
963
962
964
967
968
962
957
959
960
963
965
961
963
961
962
965
968
962
960
958
960
960
963
961
963
958
958
959
964
961
960
960
959
958
961
963
960
959
961
967
970
972
976
972
970
974
980
981
979
978
974
973
974
972
973
974
972
970
971
968
969
962
963
962
963
963
964
961
957
957
961
964
964
962
960
965
965
960
953
950
947
950
952
948
946
942
945
949
952
948
946
942
943
941
945
945
944
943
943
944
942
940
933
932
927
937
950
965
987
1014
1053
1103
1154
1194
1212
1198
1161
1105
1033
942
856
817
822
841
856
874
891
905
914
925
934
936
940
941
941
944
944
947
947
946
939
939
937
936
936
937
938
939
944
943
946
947
950
950
951
949
947
950
953
954
962
961
965
962
962
966
968
966
964
962
966
969
973
977
977
979
982
983
985
987
992
992
994
1001
1002
1005
1004
1002
999
1001
1006
1007
1008
1005
1007
1010
1017
1018
1014
1010
1008
1008
1011
1012
1011
1007
1003
1005
1008
1006
1002
995
992
988
986
980
977
974
971
969
970
968
966
962
960
962
963
965
963
961
957
958
960
961
955
956
954
957
964
963
957
955
955
958
959
959
958
956
955
956
959
960
956
958
953
