991
992
990
988
990
990
992
989
985
986
985
990
992
994
992
991
989
990
990
989
986
983
982
986
990
991
989
989
989
990
994
996
990
989
993
999
1003
1002
1002
1000
1002
1004
1006
1006
1002
1000
998
1001
1002
1002
1000
997
996
998
999
997
992
986
984
988
990
990
987
988
991
994
993
989
985
982
978
978
978
978
972
971
972
973
975
978
974
974
973
975
975
978
973
973
973
973
977
972
963
956
958
971
994
1021
1055
1093
1142
1196
1228
1227
1198
1146
1076
996
916
862
855
865
885
904
928
942
949
952
957
966
972
973
972
974
974
975
975
975
974
975
973
975
976
977
975
973
975
980
982
983
978
980
979
980
982
985
984
984
983
989
992
995
994
995
994
994
994
995
999
1000
1000
999
1002
1008
1010
1010
1013
1014
1021
1023
1023
1023
1022
1024
1028
1028
1028
1028
1027
1033
1036
1038
1034
1031
1031
1031
1038
1039
1041
1037
1035
1036
1039
1038
1034
1030
1028
1031
1032
1029
1024
1018
1017
1013
1015
1012
1010
1004
1002
999
1000
997
993
992
988
990
993
993
991
986
986
989
992
990
988
986
987
990
991
991
987
985
987
990
991
989
988
987
987
991
994
995
994
989
986
991
993
992
991
989
989
989
991
992
989
987
987
992
997
997
996
997
998
1001
1004
1003
1002
998
998
1001
1006
1005
1003
1000
998
1002
1004
1003
1001
998
999
999
1001
995
990
987
987
990
989
987
990
990
989
993
992
994
984
981
975
975
977
977
978
977
975
976
976
976
977
978
975
977
977
978
976
977
976
975
978
974
968
961
960
961
972
981
1003
1030
1071
1127
1180
1221
1235
1219
1176
1120
1054
973
895
860
860
875
892
907
926
939
949
959
968
973
972
972
973
974
977
977
975
974
975
977
979
982
980
977
976
977
984
984
984
984
982
985
989
989
989
987
988
991
994
998
998
996
996
1002
1008
1008
1007
1006
1007
1012
1014
1017
1018
1015
1017
1020
1026
1029
1030
1028
1029
1032
1034
1037
1037
1036
1037
1042
1042
1043
1041
1042
1042
1044
1043
1048
1045
1043
1041
1043
1045
1044
1040
1038
1035
1034
1037
1033
1029
1025
1023
1023
1021
1017
1013
1010
1008
1008
1009
1008
1005
1004
1001
1001
1004
1001
996
997
995
999
1002
999
995
994
993
996
998
999
999
998
998
1000
1001
1002
1002
1000
1001
1000
1002
1002
998
999
999
1000
1002
1004
1003
1002
1000
1002
1003
1004
1002
1001
1001
1004
1006
1004
1005
1004
1008
1010
1016
1015
1010
1009
1009
1014
1019
1015
1013
1010
1011
1013
1014
1012
1010
1007
1005
1007
1008
1004
1001
998
998
1000
1000
1003
1001
1001
1001
999
999
1000
993
987
986
986
990
988
985
985
986
987
986
987
986
985
984
985
988
984
985
980
984
983
979
974
970
970
979
997
1026
1062
1105
1154
1205
1245
1261
1241
1186
1116
1034
947
880
858
870
896
919
939
954
966
972
973
976
980
983
981
980
980
980
984
984
983
982
980
981
983
985
984
981
984
984
988
991
992
988
985
987
991
996
997
994
997
997
1002
1005
1008
1006
1008
1004
1014
1016
1019
1017
1020
1023
1025
1028
1030
1031
1033
1032
1038
1041
1043
1042
1043
1043
1045
1047
1048
1048
1047
1045
1047
1048
1050
1049
1046
1044
1046
1044
1044
1041
1037
1035
1035
1035
1030
1025
1020
1017
1016
1014
1013
1009
1006
1004
1004
1006
1005
1002
998
995
995
996
1000
996
993
992
992
994
996
993
989
990
995
996
999
996
995
992
993
998
995
995
996
993
994
995
999
994
992
991
995
997
997
993
993
990
994
999
1001
998
998
998
1005
1009
1010
1006
1005
1004
1010
1011
1010
1009
1007
1007
1007
1011
1010
1007
1003
1003
1005
1009
1002
999
992
995
997
998
994
992
994
996
995
998
997
990
987
982
983
986
983
979
978
978
979
985
983
978
980
977
980
983
980
979
979
979
977
982
978
970
963
961
971
990
1018
1053
1092
1142
1192
1231
1248
1228
1181
1119
1044
960
890
854
861
880
901
925
941
951
957
959
969
975
975
973
971
970
974
977
978
977
977
974
978
980
979
980
980
979
983
988
984
982
979
982
985
988
988
985
987
987
991
995
997
995
995
994
1001
1008
1009
1009
1009
1010
1012
1016
1018
1019
1020
1023
1024
1026
1033
1034
1035
1036
1039
1042
1041
1036
1039
1041
1039
1041
1045
1044
1042
1042
1039
1040
1041
1037
1036
1034
1034
1035
1032
1030
1028
1025
1023
1020
1015
1011
1007
1003
1006
1003
1001
999
997
997
997
1000
998
994
991
989
992
998
997
993
992
990
992
991
989
989
989
989
991
988
990
990
991
991
992
992
993
989
990
992
994
994
993
991
989
988
990
995
996
994
995
992
994
998
997
997
998
998
1004
1008
1004
1000
997
996
1001
1007
1012
1008
1004
999
996
998
995
992
994
992
996
999
997
996
996
992
988
987
986
983
980
978
978
985
984
985
983
981
979
982
980
978
976
979
980
981
974
968
964
963
969
981
1005
1038
1081
1134
1193
1232
1235
1198
1133
1048
955
885
860
867
884
903
926
946
958
962
965
965
973
976
979
978
973
971
975
979
979
976
975
977
979
981
982
982
981
980
982
990
990
990
989
990
993
995
996
995
998
997
1003
1006
1009
1006
1005
1005
1006
1012
1011
1017
1019
1021
1026
1028
1029
1029
1030
1030
1035
1040
1040
1035
1037
1038
1039
1044
1046
1048
1042
1041
1043
1043
1039
1037
1031
1028
1026
1022
1020
1014
1009
1004
1003
1003
1001
998
994
990
990
991
991
989
985
987
984
988
986
984
983
986
985
987
987
985
986
984
987
992
988
986
987
989
991
995
993
989
989
988
992
994
995
992
990
985
991
992
989
990
985
988
988
990
988
987
985
987
990
993
994
992
993
994
999
1002
1001
1000
999
1001
1003
1004
1004
1003
999
999
1000
1005
1003
1001
1002
1002
1002
1002
998
989
988
989
990
994
992
988
991
992
992
992
989
983
981
978
981
984
981
978
976
977
980
984
980
981
979
980
983
985
986
982
978
980
978
976
970
964
964
971
992
1016
1047
1089
1137
1189
1232
1254
1238
1191
1120
1032
939
873
852
867
888
910
931
951
960
964
964
967
971
976
974
971
972
974
979
984
980
978
977
978
980
985
987
985
983
980
985
988
989
987
981
984
990
994
996
995
994
996
1002
1005
1004
1003
1004
1004
1010
1016
1015
1016
1016
1018
1023
1027
1028
1027
1029
1029
1035
1039
1041
1040
1038
1039
1043
1050
1048
1047
1047
1047
1052
1056
1053
1050
1047
1043
1047
1049
1046
1043
1039
1039
1040
1040
1037
1032
1025
1023
1023
1019
1017
1012
1008
1009
1008
1007
1002
1000
997
998
999
998
999
998
997
996
998
998
997
998
997
998
1000
1000
998
993
997
995
997
999
999
994
995
994
999
998
998
996
995
990
996
997
999
996
994
994
996
1000
999
998
997
998
1000
1003
1003
1002
1003
1005
1011
1012
1012
1011
1010
1011
1014
1013
1013
1011
1009
1010
1012
1012
1011
1007
1002
1001
1001
1005
1002
998
997
996
999
1002
1001
1001
999
998
1000
1000
999
995
992
989
989
987
987
985
983
985
988
988
987
987
985
982
991
994
992
995
993
991
993
992
987
979
974
970
973
982
1005
1026
1057
1095
1148
1198
1243
1257
1237
1186
1116
1041
950
882
859
868
892
912
930
945
958
966
974
976
978
980
978
975
974
976
975
973
973
973
977
980
981
979
977
978
980
983
981
984
985
986
989
991
991
992
992
991
988
989
986
987
990
989
997
1002
1004
1002
1003
1006
1011
1012
1016
1017
1019
1023
1028
1032
1035
1031
1029
1029
1036
1041
1042
1036
1032
1033
1039
1046
1044
1043
1039
1041
1045
1052
1052
1047
1043
1043
1044
1047
1048
1045
1040
1036
1035
1035
1033
1030
1027
1022
1023
1022
1017
1010
1008
1006
1006
1005
1002
1000
998
994
999
1002
1002
999
999
993
998
998
995
992
993
993
994
997
994
992
987
988
991
993
992
990
989
991
994
995
993
994
993
992
994
995
996
994
991
991
995
998
996
995
990
989
992
998
997
997
996
997
999
1001
998
1007
1005
1006
1006
1005
1005
1001
1000
1005
1012
1016
1016
1013
1008
1005
1009
1013
1013
1007
1000
1000
1004
1006
1006
1001
998
994
992
994
994
992
996
998
1000
999
1000
997
993
986
983
982
980
980
981
981
981
983
984
980
982
983
988
989
985
984
982
979
979
980
979
972
961
959
968
982
1003
1031
1066
1112
1162
1212
1245
1249
1215
1155
1081
994
907
857
855
879
906
932
950
958
964
968
973
977
980
976
975
975
977
979
979
975
974
976
977
976
980
979
984
985
983
986
985
983
982
983
989
994
996
993
992
990
996
1001
1004
1004
1005
1005
1006
1011
1011
1011
1012
1014
1013
1016
1016
1017
1017
1020
1023
1028
1026
1030
1032
1034
1036
1039
1038
1038
1041
1041
1041
1047
1050
1048
1046
1047
1050
1052
1049
1045
1043
1040
1041
1039
1038
1035
1034
1030
1028
1028
1025
1019
1016
1010
1008
1006
1003
998
999
997
1000
1002
1002
996
989
988
990
993
994
991
986
983
981
985
988
985
984
980
984
987
984
981
984
985
989
992
992
982
978
985
990
991
988
986
986
986
988
991
989
986
985
984
986
986
983
980
981
983
984
989
990
990
987
987
993
996
998
998
998
998
999
1004
1006
1004
1004
999
1002
999
1003
1002
999
996
996
996
992
988
990
991
992
993
991
989
985
983
984
985
987
990
989
985
988
987
987
980
976
977
975
975
975
973
969
973
975
977
975
972
974
975
975
973
974
975
972
971
973
974
973
963
958
957
964
977
992
1018
1052
1101
1152
1201
1235
1239
1208
1159
1094
1016
933
870
853
864
880
896
914
929
943
948
955
966
971
972
971
971
971
972
974
975
975
972
970
973
978
976
976
974
973
979
979
978
977
979
980
981
986
987
983
982
986
991
992
992
993
994
996
1000
999
999
999
1000
1003
1012
1015
1017
1016
1022
1025
1031
1033
1033
1030
1026
1025
1029
1031
1034
1033
1036
1041
1043
1046
1040
1041
1040
1042
1044
1042
1038
1038
1038
1041
1044
1041
1038
1032
1028
1028
1026
1024
1019
1011
1005
1005
1004
1002
998
997
999
998
997
991
987
986
980
980
985
983
978
976
977
981
982
976
978
976
975
979
984
984
981
978
975
978
979
978
976
975
975
977
983
982
980
973
976
977
979
981
978
977
977
978
980
981
981
978
976
974
980
982
981
983
984
986
986
987
990
990
992
993
993
990
992
991
992
994
996
995
992
992
990
991
992
992
990
987
983
980
978
977
978
978
978
982
986
988
986
982
979
979
976
972
969
966
963
969
970
971
967
965
962
966
969
971
969
967
962
964
966
968
967
967
962
960
958
951
952
956
968
991
1022
1061
1108
1154
1200
1229
1229
1192
1133
1058
969
886
848
848
864
876
893
917
939
947
951
950
955
962
967
966
963
960
959
961
964
965
962
958
958
961
964
964
963
961
961
963
966
968
968
967
967
969
975
975
973
975
975
978
980
979
981
982
985
986
992
993
991
996
996
999
1004
1001
1004
1005
1010
1015
1017
1018
1015
1019
1018
1020
1023
1023
1024
1025
1029
1030
1032
1029
1027
1025
1028
1027
1028
1028
1028
1026
1019
1020
1023
1019
1013
1008
1002
1001
1002
998
992
989
984
988
991
987
984
979
978
976
977
978
977
975
977
975
980
980
980
977
978
977
979
980
979
977
976
979
983
983
979
978
978
978
979
981
980
979
980
982
981
983
980
980
980
981
981
983
981
983
979
983
984
986
982
982
979
984
986
987
986
983
985
990
995
996
994
994
994
996
999
998
995
992
992
992
996
996
995
991
990
992
992
988
982
983
982
986
986
986
984
985
984
988
988
984
982
978
972
973
973
970
971
967
966
969
971
973
969
970
969
971
972
974
971
969
968
969
968
972
967
962
962
958
958
962
973
992
1020
1064
1112
1165
1210
1241
1236
1195
1126
1038
944
872
849
867
896
920
937
947
951
960
962
969
964
964
963
965
969
968
964
966
963
966
970
971
971
968
967
967
967
967
968
969
970
977
980
980
978
973
975
980
980
983
983
985
985
987
990
991
995
995
994
1000
1007
1006
1005
1002
1008
1014
1020
1023
1021
1021
1020
1022
1027
1027
1026
1026
1025
1027
1031
1034
1034
1032
1031
1031
1036
1035
1030
1026
1025
1027
1027
1022
1020
1016
1013
1013
1009
1008
1004
997
995
994
990
987
984
985
981
986
985
982
979
976
979
979
983
983
981
980
977
980
982
984
981
977
978
979
980
980
980
982
982
982
986
980
982
979
979
980
982
981
981
983
983
986
986
982
980
975
974
979
982
981
978
976
972
975
981
977
978
979
983
985
987
988
990
989
987
988
993
994
995
994
990
991
990
993
990
986
984
985
988
984
980
978
978
979
980
979
977
971
976
979
982
980
976
970
967
967
966
963
962
961
962
964
965
965
967
966
967
965
969
966
966
965
962
966
970
968
967
961
954
952
952
955
963
983
1013
1058
1112
1164
1207
1239
1240
1207
1150
1070
978
889
844
848
870
892
910
927
937
943
952
956
957
958
959
961
961
960
959
957
959
961
966
965
960
962
962
964
967
966
965
965
965
968
969
971
973
973
974
975
975
978
978
981
981
986
991
993
992
992
991
998
999
1003
1003
1005
1006
1012
1018
1019
1021
1020
1024
1028
1031
1032
1031
1028
1030
1034
1038
1039
1035
1033
1032
1037
1039
1036
1035
1032
1029
1032
1031
1030
1022
1018
1013
1012
1011
1010
1008
1004
1000
1000
999
997
995
993
989
994
993
992
987
981
981
986
989
985
984
984
985
983
986
983
980
983
983
984
985
983
980
978
976
979
983
983
982
981
977
980
985
981
977
977
977
979
984
982
981
979
973
979
982
982
979
978
974
979
984
983
983
980
979
982
986
986
984
986
989
994
998
998
995
993
988
989
996
996
994
993
989
995
992
991
989
986
984
985
985
984
981
980
973
979
983
986
981
977
976
977
978
972
966
958
959
966
969
965
962
961
959
964
963
965
962
962
960
962
965
967
964
964
959
955
949
944
946
957
977
1010
1050
1098
1147
1194
1217
1209
1168
1100
1008
916
852
843
862
882
900
915
927
939
948
953
955
953
956
960
961
961
957
957
957
960
964
960
958
956
957
958
958
962
963
963
962
965
969
971
969
968
972
973
977
974
978
980
981
986
989
989
988
987
990
993
996
997
999
1001
1001
1004
1010
1013
1015
1012
1011
1011
1015
1020
1022
1020
1022
1027
1026
1024
1017
1017
1019
1021
1022
1019
1018
1016
1015
1016
1021
1018
1012
1007
1001
1000
997
994
990
986
984
983
982
984
981
978
975
976
976
975
976
969
970
969
970
968
966
962
963
969
969
969
969
968
967
968
970
968
967
966
963
965
970
971
974
972
970
973
979
976
971
968
968
976
975
972
971
968
966
972
973
977
975
973
971
974
976
974
975
974
976
981
986
981
979
979
980
984
987
985
979
979
979
983
985
982
978
978
976
977
978
975
970
968
967
970
972
977
973
974
973
973
972
972
967
963
956
960
962
965
961
962
960
962
965
963
959
958
959
961
966
965
964
962
959
959
954
954
946
946
962
987
1019
1055
1101
1157
1202
1227
1214
1168
1096
1008
915
857
843
855
872
887
908
928
942
950
952
954
955
960
962
962
961
958
965
966
970
968
967
962
962
965
970
970
968
968
971
974
973
973
972
971
972
978
984
985
982
984
986
992
992
992
989
990
992
996
1000
1000
1001
1003
1005
1010
1017
1021
1022
1023
1023
1026
1025
1028
1028
1028
1029
1031
1036
1033
1030
1033
1030
1036
1035
1035
1031
1033
1029
1029
1029
1026
1023
1019
1017
1017
1019
1017
1014
1009
1000
1002
1001
999
999
995
994
995
995
992
988
985
984
983
986
988
984
982
980
980
982
978
980
980
984
985
986
985
983
980
978
981
987
992
986
986
982
984
983
983
984
984
981
981
982
982
981
981
982
986
994
990
981
974
968
971
973
973
974
975
975
980
983
981
981
988
990
995
999
995
991
989
992
994
995
995
995
993
992
989
991
988
986
980
980
981
983
984
981
978
979
982
983
983
980
978
977
975
974
971
971
968
966
970
974
974
974
969
964
965
972
973
968
969
968
970
969
965
957
957
964
985
1013
1041
1078
1123
1172
1219
1242
1234
1188
1126
1047
962
888
862
868
889
910
929
940
947
949
957
961
968
970
970
968
965
963
966
971
972
970
972
972
975
973
974
973
971
973
974
977
978
977
977
976
978
982
985
981
979
979
983
990
992
991
995
995
1000
1007
1010
1006
1006
1004
1006
1010
1011
1005
1010
1013
1019
1024
1024
1022
1022
1023
1028
1031
1035
1032
1033
1036
1037
1038
1032
1031
1030
1033
1033
1037
1036
1034
1032
1031
1032
1032
1027
1021
1020
1018
1021
1019
1012
1006
997
995
1001
999
997
994
991
988
993
996
998
995
990
987
987
987
988
984
981
978
987
989
987
982
980
981
983
988
985
984
981
982
982
985
983
983
981
979
979
981
983
980
982
984
986
985
983
980
982
979
984
983
985
983
982
982
981
986
984
983
983
983
986
989
989
984
980
980
985
987
989
988
988
989
992
997
996
996
994
994
998
1003
998
995
995
993
995
997
996
995
993
991
993
991
986
982
982
982
981
981
986
986
986
981
979
978
975
975
969
968
972
974
971
967
962
963
967
973
971
969
968
964
965
966
966
966
964
964
964
968
964
956
954
949
952
961
974
994
1018
1054
1103
1153
1196
1227
1230
1198
1146
1074
991
908
852
844
862
883
901
916
930
940
945
953
962
963
960
957
961
963
963
964
963
962
964
965
965
964
964
964
967
973
974
974
973
969
970
969
968
970
972
974
977
981
983
982
981
976
977
982
979
983
985
986
990
994
999
999
1001
1000
1006
1012
1011
1010
1004
1004
1011
1017
1017
1021
1017
1023
1029
1031
1032
1028
1029
1029
1029
1036
1037
1035
1031
1026
1026
1027
1026
1022
1020
1017
1017
1019
1016
1013
1010
1009
1005
