968
961
953
947
945
953
966
993
1024
1067
1120
1174
1219
1232
1207
1143
1067
986
896
836
827
848
877
903
922
933
942
947
952
956
956
953
953
955
958
959
960
957
952
955
958
961
960
959
958
960
964
968
974
968
963
957
963
968
969
971
971
970
974
977
980
980
979
980
985
991
991
991
990
995
998
1004
1005
1005
1009
1009
1015
1020
1021
1018
1016
1019
1022
1023
1027
1026
1024
1023
1024
1024
1025
1028
1030
1027
1029
1032
1029
1027
1025
1024
1026
1025
1019
1014
1012
1007
1005
1003
999
995
989
986
989
988
987
986
984
986
983
985
981
978
978
978
981
980
978
977
978
980
979
975
976
973
972
972
976
980
977
970
968
970
975
977
971
969
968
967
969
974
972
974
974
972
974
975
974
973
970
971
974
971
972
973
974
976
975
971
973
972
973
976
981
985
987
985
982
982
982
986
985
981
982
983
985
987
986
985
982
980
978
980
979
973
972
974
975
975
976
972
971
969
970
970
967
958
953
952
956
958
957
953
951
953
957
957
957
956
955
953
950
950
955
957
958
957
954
953
947
936
928
933
950
974
1009
1052
1102
1155
1199
1218
1200
1147
1075
980
886
831
823
840
859
883
902
922
935
936
934
936
941
945
946
942
938
936
941
943
946
946
943
943
950
955
957
952
951
951
954
962
962
960
961
965
966
964
963
964
966
972
974
979
980
973
975
978
982
988
989
987
990
995
1005
1009
1006
996
996
1004
1011
1016
1016
1014
1012
1015
1018
1020
1021
1021
1017
1016
1021
1019
1019
1014
1013
1012
1013
1009
1004
994
989
987
990
986
983
976
973
973
973
969
970
969
967
964
964
966
963
959
959
960
960
962
961
957
956
958
957
965
965
965
963
962
964
967
966
962
962
959
959
961
957
958
957
958
961
962
962
963
960
956
961
969
971
973
972
976
979
981
977
974
968
970
972
976
978
972
970
970
976
980
983
976
968
968
970
973
972
969
966
970
973
974
972
969
967
963
967
964
963
958
952
953
953
955
952
952
953
956
956
954
952
951
951
949
955
961
961
958
956
953
955
955
945
938
940
950
974
1004
1035
1078
1129
1184
1216
1215
1173
1104
1028
942
871
838
844
865
886
907
926
935
938
941
945
950
952
958
959
959
955
953
956
954
953
950
952
956
958
965
965
965
959
962
965
970
971
967
967
969
975
978
980
981
977
975
976
977
979
980
980
985
985
991
992
992
995
997
1005
1011
1012
1012
1010
1014
1020
1025
1024
1027
1026
1026
1032
1033
1031
1023
1020
1023
1027
1032
1032
1028
1022
1024
1027
1029
1028
1021
1016
1016
1016
1014
1015
1009
1003
1003
1000
1001
998
992
990
989
992
993
995
991
986
981
980
988
988
984
973
968
971
974
974
970
968
968
972
974
975
971
971
971
977
980
981
979
975
973
972
974
980
981
977
980
981
986
986
977
968
968
975
977
978
978
978
979
980
981
978
977
974
974
976
980
983
982
983
981
983
987
987
988
988
988
988
990
988
985
983
985
987
985
987
985
979
976
977
979
979
978
976
977
978
983
979
974
974
969
970
970
965
964
963
961
957
961
961
964
961
962
966
965
961
959
961
965
965
970
970
968
964
963
962
959
956
954
962
980
1008
1047
1087
1132
1178
1217
1238
1223
1174
1106
1028
935
862
840
850
872
891
915
933
945
951
954
954
956
957
957
957
958
955
950
954
958
958
959
960
961
964
965
962
961
960
962
969
969
965
966
966
971
977
978
980
977
977
977
980
985
982
982
981
984
990
990
994
996
997
999
1000
1004
1004
1005
1005
1006
1011
1018
1019
1020
1024
1027
1029
1031
1031
1029
1026
1027
1028
1034
1036
1034
1032
1033
1036
1036
1033
1029
1029
1028
1026
1029
1028
1025
1022
1016
1010
1010
1008
1002
996
994
989
989
985
984
978
977
977
974
970
970
972
974
977
980
979
978
977
973
975
974
971
970
972
976
973
971
970
968
963
967
972
972
967
961
959
960
966
975
975
975
971
968
971
973
973
973
972
972
974
976
976
974
971
967
968
972
974
970
970
970
971
969
970
970
972
975
978
982
980
980
979
978
981
981
981
979
979
980
978
979
979
976
973
976
979
983
981
973
970
969
974
977
976
971
966
963
970
975
972
966
963
961
958
957
952
948
945
945
947
952
949
948
948
950
952
951
951
951
951
950
952
953
952
950
948
949
949
945
941
939
942
954
973
1000
1033
1073
1115
1161
1197
1215
1204
1167
1113
1041
957
882
839
831
846
868
890
908
922
929
930
934
941
945
948
950
948
946
945
946
945
945
944
940
945
947
944
946
951
951
952
955
954
952
948
951
957
960
961
960
957
961
965
967
967
969
967
966
971
971
971
978
980
986
990
993
990
988
988
991
1000
1003
1007
1010
1013
1013
1016
1012
1011
1006
1011
1016
1018
1019
1019
1019
1018
1018
1028
1030
1022
1011
1003
1003
1004
1003
1002
1000
997
992
990
987
983
978
975
974
977
978
969
964
959
957
961
963
965
963
966
965
967
960
954
952
951
957
956
954
954
953
958
961
960
954
948
951
952
957
960
964
964
960
957
956
961
965
965
964
964
960
965
966
964
961
958
961
964
969
967
964
962
965
965
968
969
969
968
969
975
980
979
971
969
971
977
979
977
972
971
969
969
972
973
975
973
972
972
975
975
974
973
968
969
970
970
970
969
969
968
965
964
958
960
961
962
961
955
951
949
949
947
952
950
947
948
946
951
952
953
951
951
952
955
958
957
952
948
949
951
949
945
941
942
946
957
976
1001
1028
1062
1109
1162
1210
1235
1229
1191
1135
1067
989
911
852
834
838
858
876
895
911
923
929
933
941
944
945
944
949
948
952
952
954
953
948
951
954
955
956
954
954
956
957
957
953
954
956
959
964
962
959
962
965
967
970
974
971
971
971
973
980
980
986
986
987
992
996
999
1001
999
1002
1006
1014
1019
1020
1020
1015
1016
1019
1021
1021
1022
1024
1029
1031
1031
1027
1028
1029
1030
1032
1030
1030
1027
1029
1029
1030
1028
1026
1019
1018
1021
1023
1020
1014
1009
1004
1002
1002
999
997
995
991
989
988
986
984
978
980
978
983
985
985
981
977
979
983
985
985
978
980
983
984
986
981
980
980
982
986
983
982
978
980
983
988
988
985
982
982
984
986
986
986
985
984
983
984
984
984
984
981
984
987
986
985
980
981
983
987
987
984
987
996
1004
1009
1006
1002
997
996
1000
1002
1004
1003
999
999
997
998
995
990
991
993
996
996
995
995
997
992
991
991
989
982
980
983
988
987
984
976
970
976
982
982
981
978
974
975
977
981
982
981
982
979
979
982
977
971
961
960
966
985
1006
1032
1069
1118
1176
1227
1262
1272
1249
1193
1127
1050
960
883
856
867
894
920
940
950
959
965
975
980
982
980
975
974
978
979
982
977
979
978
984
983
985
982
981
981
986
989
989
985
986
989
993
995
996
995
996
996
999
1003
1005
1006
1004
1005
1006
1008
1013
1016
1017
1016
1020
1024
1026
1027
1028
1029
1033
1039
1039
1037
1038
1042
1048
1053
1054
1049
1047
1051
1054
1054
1057
1056
1055
1055
1058
1057
1056
1055
1052
1051
1052
1054
1049
1045
1036
1029
1030
1030
1028
1024
1017
1012
1013
1012
1010
1008
1005
1003
1004
1008
1010
1005
1001
1001
1002
1002
1003
998
997
998
1000
1007
1004
1000
996
1000
1005
1011
1010
1006
998
994
997
1004
1005
1004
1003
998
1001
1006
1004
1000
1001
1001
1005
1009
1006
1002
1001
1002
1004
1008
1009
1006
1003
1005
1010
1008
1010
1006
1007
1005
1004
1007
1010
1008
1009
1010
1014
1021
1020
1019
1013
1010
1013
1022
1024
1024
1019
1017
1020
1024
1022
1022
1021
1024
1023
1029
1025
1022
1018
1016
1017
1022
1022
1017
1014
1012
1018
1019
1014
1010
1006
1007
1008
1007
1002
995
994
994
1001
1005
1000
993
990
992
994
997
1001
1000
1001
1001
1002
1002
1001
994
988
988
992
993
987
983
989
1002
1023
1052
1087
1128
1175
1222
1267
1285
1267
1215
1150
1077
996
923
887
886
903
923
942
957
968
974
980
986
990
991
990
990
994
995
999
1002
997
993
995
998
1002
1002
1003
1002
1003
1004
1006
1010
1007
1008
1003
999
1002
1005
1007
1007
1004
1004
1008
1010
1017
1016
1015
1014
1015
1019
1023
1027
1028
1034
1038
1039
1043
1044
1043
1044
1049
1051
1053
1055
1059
1062
1068
1070
1069
1067
1066
1067
1068
1071
1075
1071
1066
1069
1070
1078
1075
1070
1069
1069
1068
1071
1065
1059
1056
1052
1052
1050
1044
1037
1031
1028
1024
1020
1018
1018
1014
1014
1019
1023
1017
1013
1009
1008
1015
1016
1013
1006
1005
1007
1009
1015
1014
1013
1013
1009
1012
1016
1012
1007
1006
1004
1010
1014
1011
1007
1010
1010
1013
1016
1013
1010
1010
1012
1014
1012
1011
1011
1011
1009
1008
1010
1010
1011
1011
1013
1015
1019
1017
1016
1017
1020
1023
1026
1027
1026
1023
1024
1024
1024
1026
1026
1024
1022
1021
1022
1021
1020
1017
1014
1017
1018
1015
1005
1003
1005
1011
1015
1013
1010
1006
999
997
993
994
994
991
991
992
991
991
989
986
987
991
993
996
995
991
990
993
992
992
992
991
986
984
982
975
969
969
981
1006
1038
1082
1133
1182
1227
1255
1255
1219
1162
1084
997
912
868
865
877
891
913
938
950
958
962
962
964
970
975
978
975
975
978
984
988
984
982
983
982
982
985
983
977
976
977
983
986
986
986
985
987
994
997
995
993
991
994
999
1003
1008
1003
1003
1005
1010
1016
1016
1015
1014
1016
1021
1029
1028
1024
1025
1029
1037
1039
1041
1040
1039
1040
1042
1047
1047
1046
1048
1049
1052
1053
1048
1045
1043
1043
1045
1052
1051
1044
1035
1030
1032
1031
1023
1019
1016
1014
1013
1008
1007
1005
998
995
992
991
992
985
987
984
985
990
987
984
983
983
988
984
982
981
982
985
990
990
987
981
981
978
978
981
984
980
981
979
983
983
983
977
975
973
974
975
979
977
977
976
981
985
987
988
984
981
981
981
980
982
984
983
985
989
993
993
992
987
993
996
996
996
994
989
992
995
996
994
991
984
983
987
987
986
985
983
982
980
982
979
976
976
979
984
983
980
974
971
973
977
973
967
963
963
967
968
965
962
962
961
964
964
964
964
961
961
962
965
966
965
963
958
954
954
950
954
967
994
1032
1075
1125
1174
1214
1232
1226
1182
1112
1017
927
859
839
849
864
880
898
917
933
943
949
952
950
953
954
958
960
959
957
958
958
960
960
959
957
957
961
965
966
963
959
961
965
967
969
971
968
971
973
975
976
975
975
976
980
985
988
986
988
991
995
999
1001
1002
1000
1005
1011
1016
1017
1018
1020
1019
1024
1031
1030
1027
1026
1025
1030
1034
1035
1036
1033
1028
1028
1030
1028
1024
1023
1022
1023
1022
1017
1014
1010
1006
1005
1003
1000
994
988
986
985
987
983
978
977
976
980
978
977
975
976
976
973
977
977
976
976
975
978
975
977
977
975
978
980
979
978
971
975
975
975
982
980
979
981
979
979
980
982
980
979
979
981
982
979
979
978
977
981
987
989
988
988
987
991
994
994
989
990
991
997
998
998
996
995
993
995
995
996
995
989
991
990
989
986
983
979
980
983
984
985
983
982
983
985
987
985
979
971
968
968
973
972
970
969
968
972
973
974
974
971
969
973
976
975
977
974
973
974
974
967
963
962
968
986
1016
1051
1088
1138
1191
1238
1261
1243
1185
1109
1017
926
866
855
873
897
915
937
951
962
965
967
966
965
972
973
970
970
969
972
974
976
972
969
971
974
975
978
974
974
976
978
981
981
978
979
978
979
988
990
989
991
992
992
998
999
1003
1002
999
1001
1008
1011
1009
1009
1011
1016
1020
1023
1023
1023
1024
1025
1034
1036
1034
1034
1036
1038
1042
1042
1039
1040
1040
1044
1047
1045
1045
1040
1039
1041
1045
1039
1033
1031
1028
1032
1032
1029
1021
1014
1013
1011
1010
1009
1003
996
994
996
997
997
993
990
988
989
992
994
992
988
990
990
991
990
987
985
985
986
990
993
990
988
987
990
991
993
988
987
987
991
993
991
992
986
983
986
987
990
988
983
983
987
985
988
983
982
985
988
987
987
985
987
991
996
999
1003
999
999
999
1006
1009
1006
1004
1001
998
999
1000
1000
999
996
993
998
997
994
992
991
992
995
995
992
988
990
993
995
996
995
988
986
979
976
979
978
976
972
970
971
975
974
969
964
967
972
971
971
970
967
969
973
973
965
959
965
987
1023
1074
1137
1198
1246
1254
1209
1127
1019
911
840
840
867
900
922
932
941
949
958
965
967
963
964
965
970
972
968
964
966
966
969
972
973
972
968
966
971
975
981
980
975
972
975
979
981
979
980
980
980
985
988
985
983
984
989
997
998
995
995
996
1003
1006
1008
1007
1007
1013
1015
1021
1022
1019
1022
1026
1031
1035
1038
1035
1034
1036
1039
1043
1043
1043
1041
1039
1042
1047
1045
1043
1036
1037
1035
1036
1038
1034
1030
1026
1021
1021
1020
1015
1011
1005
1001
998
997
995
994
990
995
996
993
992
986
986
986
984
984
983
980
978
978
982
982
983
980
983
982
978
978
979
976
978
978
979
982
980
977
976
978
979
984
983
978
977
979
980
980
981
977
977
978
982
981
977
972
970
975
977
980
978
975
974
979
982
984
983
984
988
991
992
990
989
989
990
993
994
991
987
986
987
990
991
989
988
985
985
985
983
981
977
975
974
976
978
975
981
982
982
982
976
976
973
969
967
965
967
967
969
969
968
965
967
966
959
959
960
966
969
970
968
961
962
969
972
970
965
960
951
945
946
952
966
981
1006
1039
1080
1122
1170
1208
1233
1230
1197
1150
1091
1017
936
870
842
847
862
880
895
914
933
942
947
949
952
959
960
960
957
956
955
956
957
960
960
964
963
963
964
961
962
966
965
965
968
971
969
970
969
971
974
975
974
975
972
976
980
981
980
978
980
983
988
989
994
994
996
1000
1003
1008
1010
1010
1009
1011
1015
1019
1024
1025
1025
1030
1032
1030
1031
1031
1030
1034
1036
1035
1035
1034
1035
1036
1038
1039
1038
1035
1034
1037
1037
1030
1030
1028
1020
1022
1020
1014
1006
1002
998
997
997
993
988
985
985
987
986
982
980
975
979
980
979
981
981
981
979
980
984
986
985
978
976
979
982
981
977
973
976
979
981
980
979
976
974
975
979
978
975
977
973
978
982
984
979
978
976
978
979
981
978
978
975
976
977
981
981
979
976
983
990
991
989
988
988
991
995
995
994
993
994
994
994
991
990
990
987
985
985
987
984
984
984
983
985
985
980
973
974
980
983
981
979
974
971
971
969
965
964
961
959
966
968
969
964
966
966
969
971
970
968
967
962
962
966
970
968
964
963
960
960
956
955
957
962
983
1013
1052
1093
1137
1188
1231
1248
1225
1173
1098
1014
923
860
845
854
871
886
907
928
944
948
952
955
963
964
966
963
960
960
967
970
973
970
966
966
967
969
971
969
967
968
970
969
971
969
970
971
977
985
986
987
984
987
993
995
998
999
1000
998
1000
1002
1005
1004
1005
1006
1013
1016
1018
1017
1024
1023
1029
1030
1033
1036
1033
1038
1041
1043
1041
1042
1038
1042
1044
1046
1047
1050
1048
1050
1047
1044
1041
1045
1046
1045
1046
1048
1046
1043
1037
1033
1034
1030
1022
1017
1016
1016
1013
1010
1011
1006
1003
999
998
996
999
1001
997
995
992
991
993
992
990
990
995
997
996
992
991
991
992
991
997
995
994
995
993
994
995
993
997
998
1004
1000
1002
996
997
991
997
995
998
1000
999
1000
1002
1003
1004
1002
997
996
995
999
998
998
1001
1001
1002
1004
1004
1005
1006
1007
1008
1011
1008
1010
1011
1014
1018
1019
1015
1010
1009
1005
1007
1006
1007
1008
1005
999
996
997
996
993
993
991
993
998
1001
1002
1000
996
994
999
995
991
984
980
980
982
985
984
982
981
981
983
982
979
977
978
984
987
985
979
972
971
976
981
981
977
970
964
971
980
987
995
1010
1035
1076
1132
1182
1226
1249
1243
1203
1146
1076
993
911
855
848
868
889
910
928
941
950
960
967
968
969
972
975
975
972
968
968
969
973
973
971
970
967
973
980
984
978
971
970
973
979
983
982
977
977
978
984
985
987
988
990
991
994
994
995
991
989
989
999
1005
1007
1003
1002
1005
1008
1013
1017
1019
1017
1019
1019
1020
1027
1033
1031
1028
1030
1034
1034
1033
1033
1033
1036
1038
1039
1038
1035
1030
1031
1032
1033
1033
1026
1026
1024
1024
1022
1018
1011
1005
1007
1007
1005
998
993
993
994
996
989
978
972
971
971
974
975
974
974
974
975
974
974
969
967
966
971
974
975
975
973
970
970
969
970
973
970
968
972
973
975
975
973
973
976
976
978
974
970
968
969
973
976
973
973
972
972
972
971
967
968
969
974
981
984
980
977
979
975
981
983
985
985
983
983
989
991
987
987
987
987
990
987
980
972
967
966
969
975
973
969
968
971
972
977
979
974
963
955
957
958
960
960
956
956
961
963
961
955
953
955
960
961
964
967
964
959
958
952
953
955
954
950
942
939
941
951
968
991
1029
1070
1122
1164
1204
1227
1221
1179
1114
1031
939
867
842
849
865
879
897
916
931
941
941
942
946
948
954
955
951
946
944
948
956
962
962
958
955
956
956
957
956
956
956
955
955
961
961
957
955
956
963
970
971
968
967
971
977
980
980
974
972
972
974
977
982
986
988
993
995
996
994
995
995
1003
1009
1012
1013
1013
1012
1011
1013
1015
1015
1017
1015
1018
1026
1031
1031
1027
1023
1024
1023
1027
1027
1021
1018
1019
1022
1020
1016
1012
1008
1005
1004
1000
993
990
987
987
987
984
980
974
967
967
964
966
973
970
969
971
968
967
963
961
961
961
960
964
967
962
960
960
962
965
966
959
954
953
957
965
968
962
961
964
967
967
969
966
964
966
966
969
968
966
964
966
969
