973
976
975
976
977
972
963
956
943
932
925
917
909
905
903
903
902
900
896
894
893
893
897
899
901
902
903
904
905
901
902
900
901
901
899
896
890
885
886
888
899
915
946
986
1041
1106
1182
1263
1337
1387
1397
1365
1294
1204
1104
1008
930
868
818
778
755
746
752
772
795
815
833
842
843
841
836
833
834
832
831
830
828
823
820
816
822
824
824
822
822
821
820
817
817
819
819
821
819
820
821
823
824
826
829
832
835
837
840
843
850
856
861
868
871
876
881
887
893
901
905
908
913
920
925
932
941
949
957
963
967
972
977
983
993
1003
1014
1019
1025
1028
1027
1030
1029
1030
1030
1032
1033
1032
1032
1035
1034
1031
1028
1023
1018
1012
1006
1001
997
998
999
994
990
978
973
965
960
958
954
949
943
938
931
930
929
927
925
920
917
913
906
901
902
906
908
909
909
907
907
906
907
913
917
924
927
935
945
950
958
965
969
970
970
971
968
969
968
965
958
946
932
919
910
901
895
894
892
892
892
897
894
896
900
901
899
897
895
890
889
889
892
895
894
892
891
887
885
883
884
892
906
942
991
1058
1136
1226
1308
1370
1395
1372
1313
1233
1142
1049
964
887
823
777
753
751
769
793
817
833
839
837
834
830
825
823
823
820
818
815
815
811
811
809
807
806
803
804
805
809
809
807
804
805
800
801
802
807
808
814
816
815
818
821
826
827
832
835
836
845
848
856
868
877
882
888
892
897
904
912
923
934
941
950
958
963
967
973
981
988
997
1002
1007
1015
1021
1026
1034
1040
1042
1045
1042
1039
1037
1037
1038
1039
1041
1043
1038
1034
1027
1022
1019
1015
1012
1008
1003
998
992
991
990
986
983
977
970
962
955
953
947
945
945
946
943
939
936
932
929
927
926
926
925
924
924
921
924
926
930
934
938
941
947
952
960
969
973
980
981
981
982
979
977
976
971
963
951
941
927
917
910
907
905
903
901
898
896
897
896
897
899
903
903
903
902
899
899
899
899
902
902
902
900
901
898
899
898
893
889
891
898
917
951
999
1060
1131
1214
1291
1366
1415
1434
1418
1372
1307
1228
1144
1059
982
913
855
806
778
770
778
799
824
845
856
862
860
855
852
847
842
838
834
828
826
829
832
831
831
830
829
826
821
820
820
820
819
820
820
821
820
821
821
823
824
824
823
823
827
832
836
845
851
855
861
864
871
876
880
888
892
901
907
914
922
932
943
952
963
974
983
988
995
1002
1013
1023
1032
1039
1046
1050
1054
1058
1063
1066
1070
1077
1080
1080
1078
1077
1077
1074
1071
1068
1062
1058
1054
1052
1050
1049
1049
1047
1039
1032
1023
1017
1014
1008
1005
1001
996
991
985
980
977
974
972
968
964
961
955
949
945
940
941
939
941
935
931
927
924
921
921
924
923
930
935
944
952
959
967
971
979
980
982
984
986
989
993
993
987
975
963
949
936
929
925
922
920
919
917
914
911
912
912
915
917
916
913
912
912
910
914
917
919
921
920
918
916
915
912
914
911
912
919
934
966
1011
1066
1124
1190
1258
1322
1374
1402
1391
1344
1271
1182
1088
1000
926
867
820
788
770
765
775
793
813
833
849
860
861
859
856
851
846
844
842
844
847
852
853
854
849
845
837
833
831
833
834
836
837
835
835
834
837
839
842
840
843
846
846
848
854
857
863
868
871
874
873
876
879
888
897
908
916
920
925
929
932
936
940
948
957
965
972
977
988
996
1003
1012
1014
1017
1020
1025
1027
1032
1041
1051
1061
1066
1069
1068
1066
1064
1061
1062
1062
1062
1060
1057
1053
1048
1047
1043
1041
1036
1030
1022
1016
1011
1010
1009
1007
1003
999
993
987
977
972
970
969
966
963
958
953
947
944
940
938
931
931
932
929
928
927
930
935
936
936
933
931
929
928
933
936
945
955
964
969
973
979
983
986
990
993
992
994
990
988
989
988
981
973
959
945
933
923
916
915
916
918
921
922
921
919
917
914
912
912
913
914
914
914
914
916
918
920
916
915
912
906
902
900
900
906
920
945
986
1039
1103
1184
1270
1349
1404
1426
1403
1350
1282
1211
1137
1063
987
917
848
794
758
751
761
790
821
844
856
859
853
847
838
835
835
835
834
835
833
830
829
828
827
822
823
814
814
815
814
818
819
820
821
820
821
821
818
818
822
826
828
830
836
837
844
850
853
858
863
866
867
871
877
889
898
906
912
915
918
922
928
935
946
956
964
972
981
989
998
1005
1013
1021
1027
1029
1033
1035
1040
1046
1050
1056
1058
1057
1056
1051
1049
1050
1047
1047
1044
1039
1034
1029
1026
1023
1022
1018
1011
1006
999
994
990
986
986
982
978
969
962
954
947
945
944
942
939
939
937
936
936
936
935
933
928
924
923
926
931
939
948
958
965
970
975
980
982
987
987
988
986
983
979
975
966
957
942
927
917
911
905
906
909
913
912
910
907
903
905
903
905
908
908
908
905
904
905
909
912
913
911
909
903
899
894
894
898
911
938
975
1028
1094
1172
1255
1332
1385
1406
1384
1325
1246
1157
1068
989
923
872
829
795
776
770
784
807
831
854
865
861
856
853
845
841
840
839
839
837
838
835
837
837
837
835
832
826
823
822
825
827
826
827
826
828
828
828
832
833
835
839
841
843
845
849
856
863
868
872
876
882
886
893
901
911
919
926
932
937
943
949
957
968
975
985
993
1002
1009
1017
1028
1037
1048
1052
1055
1061
1063
1064
1068
1072
1074
1075
1076
1075
1073
1070
1070
1067
1062
1058
1055
1051
1050
1050
1047
1045
1038
1034
1026
1021
1014
1009
1009
1006
1003
997
992
987
982
978
975
972
967
964
959
954
953
951
950
947
948
949
944
944
940
939
943
947
955
960
965
970
974
975
979
985
987
993
994
995
994
995
994
992
986
979
966
950
938
926
917
914
915
916
918
919
917
914
913
913
914
914
915
913
913
913
915
917
919
921
921
918
914
911
906
907
910
918
941
973
1019
1070
1123
1178
1239
1307
1368
1405
1407
1367
1291
1197
1096
1003
924
865
823
798
790
798
819
843
866
881
887
885
877
867
863
860
858
860
860
862
863
862
862
859
855
850
843
840
841
840
843
845
848
852
852
853
853
856
858
857
860
860
861
866
873
877
884
887
889
893
899
904
909
919
927
936
941
950
956
964
969
979
986
991
999
1006
1011
1019
1028
1036
1046
1053
1059
1063
1067
1073
1077
1082
1084
1082
1082
1081
1081
1081
1081
1081
1077
1072
1065
1058
1055
1051
1050
1046
1039
1034
1027
1021
1018
1014
1009
1009
1008
1004
998
990
987
980
976
972
965
960
952
948
944
941
941
942
942
938
935
934
932
932
932
936
938
940
947
956
963
971
976
982
985
990
997
1001
1006
1011
1013
1011
1008
998
985
970
954
946
935
934
934
931
932
929
928
934
932
932
930
929
928
928
929
931
934
935
935
932
929
930
931
930
926
924
918
918
919
931
955
1000
1054
1119
1196
1279
1356
1413
1430
1403
1338
1253
1157
1064
984
922
871
828
795
781
781
798
821
844
865
877
879
874
864
858
853
851
853
853
854
858
854
851
847
846
845
847
846
847
846
846
848
848
853
854
854
853
857
854
854
857
863
869
876
880
881
882
883
885
888
892
898
907
916
923
927
933
938
948
955
963
970
976
980
987
994
1004
1015
1023
1025
1030
1035
1039
1045
1053
1059
1065
1071
1073
1074
1077
1078
1077
1075
1072
1070
1068
1063
1060
1060
1059
1058
1052
1048
1040
1032
1026
1021
1016
1012
1011
1008
1003
1003
997
992
990
984
981
975
968
963
960
957
954
956
955
956
950
947
945
941
940
941
942
943
942
946
948
952
960
966
972
976
983
987
994
1000
1006
1012
1012
1013
1010
1005
997
988
980
972
963
954
946
939
934
932
933
933
932
931
928
925
923
924
926
928
930
929
928
927
925
922
921
921
922
920
918
914
910
908
914
925
950
988
1039
1099
1169
1250
1328
1392
1425
1416
1368
1294
1209
1120
1037
969
915
872
832
799
784
784
797
821
842
857
866
865
861
856
851
852
853
855
855
852
848
842
838
837
839
842
844
843
842
839
835
834
833
833
832
832
835
833
835
838
842
847
849
850
850
851
853
854
861
868
874
881
886
890
893
896
901
910
916
925
933
942
951
959
969
981
989
996
1003
1008
1013
1019
1027
1037
1046
1056
1061
1066
1066
1068
1071
1074
1074
1074
1074
1074
1071
1071
1071
1072
1068
1066
1060
1053
1047
1040
1036
1036
1030
1026
1019
1015
1009
1004
1001
997
991
984
979
975
970
971
969
967
965
960
954
949
947
944
944
946
950
949
948
949
947
941
942
945
949
955
965
974
980
983
988
991
992
997
1005
1006
1005
1001
997
994
991
985
975
964
951
938
928
919
918
918
920
922
922
924
923
924
926
927
925
922
921
919
921
920
921
924
925
924
921
915
910
907
909
920
941
973
1013
1058
1112
1172
1246
1322
1386
1419
1406
1356
1279
1190
1097
1014
942
879
830
794
778
777
789
816
846
866
876
880
878
867
860
856
854
855
853
852
849
848
848
847
850
851
851
845
843
840
838
836
838
838
841
843
843
839
840
844
843
848
847
849
850
853
857
862
865
873
879
884
888
891
894
899
911
920
929
939
945
951
958
965
975
984
989
995
1003
1009
1017
1025
1035
1047
1056
1063
1065
1067
1069
1075
1078
1083
1090
1092
1095
1094
1088
1084
1079
1077
1076
1075
1074
1072
1065
1062
1057
1054
1050
1044
1039
1033
1028
1025
1022
1020
1020
1017
1015
1010
1005
1000
994
989
984
978
972
971
966
965
966
965
964
961
956
953
948
945
946
948
950
954
960
965
968
972
975
981
984
989
993
999
1005
1010
1013
1014
1015
1013
1012
1006
1000
988
975
963
950
945
938
934
934
935
935
932
927
923
922
923
926
931
935
933
930
927
926
924
927
930
932
933
933
931
928
926
923
918
920
924
932
953
990
1040
1100
1175
1258
1338
1399
1421
1393
1328
1243
1147
1060
985
930
891
862
834
808
790
786
798
816
837
855
867
871
870
864
860
855
848
847
845
843
844
843
844
844
844
843
842
842
842
842
840
839
839
837
836
837
841
845
849
853
854
857
857
856
858
863
872
876
884
888
890
894
897
903
910
919
925
933
939
944
952
960
967
971
978
987
995
1001
1007
1018
1030
1036
1044
1049
1055
1057
1060
1063
1066
1066
1067
1069
1070
1072
1068
1074
1072
1068
1061
1057
1047
1041
1038
1037
1034
1034
1030
1028
1024
1020
1013
1008
1003
998
990
983
979
973
969
966
965
965
960
956
948
939
933
927
928
929
932
932
929
928
927
923
923
922
922
924
926
930
934
941
947
957
962
966
971
975
981
986
990
994
993
989
983
977
967
958
945
936
926
921
915
915
916
917
920
921
918
919
920
919
916
917
918
921
921
921
916
915
915
916
916
915
910
905
902
904
922
951
991
1039
1094
1159
1229
1307
1374
1417
1417
1376
1306
1213
1115
1024
942
875
820
779
755
754
765
789
816
840
858
864
865
860
850
845
840
840
841
846
846
848
847
846
843
839
838
834
833
831
831
830
832
835
838
839
839
838
836
837
839
843
846
851
855
856
860
862
864
869
875
880
883
884
892
899
907
915
923
929
935
939
942
945
946
957
964
975
987
998
1004
1013
1019
1025
1032
1036
1041
1044
1048
1052
1053
1059
1061
1062
1061
1055
1051
1047
1045
1047
1046
1044
1042
1036
1028
1023
1015
1013
1012
1008
1005
1002
997
993
991
987
984
981
975
970
966
958
951
946
942
941
941
943
941
938
936
934
932
933
933
932
932
931
931
935
940
950
959
967
972
974
974
976
983
988
993
998
1001
1002
998
994
987
979
966
958
946
936
929
920
916
916
918
920
920
920
914
911
905
906
908
913
915
917
916
916
911
909
908
907
911
909
909
909
908
903
902
906
917
941
982
1034
1104
1181
1264
1347
1409
1442
1430
1382
1310
1223
1131
1042
964
893
835
790
766
765
783
811
838
858
867
865
860
851
845
841
839
839
839
837
836
833
830
830
830
828
829
826
828
826
823
823
822
825
824
823
823
825
828
832
835
839
841
843
845
849
853
861
868
873
878
882
885
892
902
911
917
926
929
938
947
956
965
977
984
991
999
1000
1007
1016
1027
1037
1049
1053
1058
1062
1064
1068
1069
1070
1067
1066
1059
1057
1055
1055
1055
1057
1054
1050
1046
1038
1034
1029
1027
1021
1019
1016
1010
1007
1002
997
992
987
983
974
969
963
961
957
956
955
954
949
945
942
939
937
936
934
934
930
930
935
934
942
947
953
957
962
966
971
978
982
987
993
995
994
990
985
979
969
960
945
932
924
917
917
919
920
921
917
911
908
904
905
908
911
911
913
915
916
915
914
914
915
911
911
909
908
908
911
920
936
969
1016
1075
1158
1246
1336
1410
1446
1435
1383
1302
1208
1107
1017
937
870
818
786
779
790
815
843
865
880
881
875
864
856
853
853
855
856
856
856
856
855
853
851
850
850
850
849
845
845
841
841
844
844
842
840
839
840
845
845
850
855
855
861
866
872
877
882
887
890
893
900
906
914
923
928
937
945
948
958
967
974
980
989
1000
1010
1017
1025
1033
1041
1048
1056
1059
1064
1066
1071
1075
1081
1090
1092
1093
1089
1089
1086
1087
1085
1084
1083
1080
1076
1074
1069
1064
1062
1059
1056
1052
1045
1039
1035
1031
1030
1027
1028
1021
1018
1010
1005
1001
994
989
988
982
982
979
978
977
973
970
969
968
965
960
957
953
954
955
956
962
967
969
973
977
984
991
998
1006
1010
1013
1017
1017
1020
1021
1019
1015
1010
998
982
969
958
949
943
940
937
937
932
933
930
929
930
932
933
935
934
936
937
936
936
936
935
933
929
930
931
932
929
929
932
941
966
1005
1057
1123
1199
1283
1362
1417
1435
1405
1337
1242
1138
1036
948
880
829
802
795
808
831
856
878
890
892
886
884
878
874
872
874
872
875
876
876
873
871
869
867
865
863
864
864
865
866
865
867
866
864
866
867
871
873
875
878
883
887
893
899
904
906
910
914
919
925
934
941
951
956
966
972
979
985
992
996
1001
1007
1014
1021
1030
1040
1053
1063
1070
1073
1076
1078
1081
1087
1092
1096
1101
1102
1101
1101
1099
1100
1095
1090
1084
1079
1075
1072
1071
1070
1069
1063
1057
1049
1042
1034
1031
1026
1023
1022
1018
1015
1009
1003
999
994
990
983
976
970
964
960
957
958
959
959
953
951
945
944
941
941
944
943
944
944
943
947
946
952
958
967
972
981
988
994
998
1007
1011
1014
1015
1013
1007
1000
996
990
984
977
967
959
952
944
939
936
935
936
933
934
933
931
929
930
933
938
941
941
942
937
936
936
936
939
941
943
941
935
928
923
925
937
959
992
1037
1088
1149
1221
1297
1370
1424
1441
1412
1353
1272
1179
1085
1003
935
880
830
794
774
771
784
806
832
852
871
881
880
878
870
863
861
860
864
862
863
861
860
860
859
857
857
857
855
851
850
847
847
847
853
857
861
863
866
866
867
869
869
869
867
870
876
883
889
896
903
908
912
915
916
919
924
927
935
941
950
955
960
967
974
982
991
999
1007
1010
1016
1023
1029
1036
1043
1052
1055
1058
1059
1065
1068
1072
1076
1083
1083
1082
1079
1074
1074
1073
1069
1066
1067
1063
1057
1051
1048
1043
1042
1040
1036
1033
1023
1016
1005
1002
999
998
996
994
992
987
980
973
968
966
961
959
957
954
952
947
947
949
951
951
951
951
946
944
944
947
954
961
966
975
980
987
992
999
1005
1010
1013
1012
1012
1011
1010
1010
1006
997
982
966
952
940
934
933
934
936
936
934
933
931
933
935
934
930
933
930
929
932
934
935
935
933
931
925
920
921
917
917
924
939
971
1019
1084
1160
1246
1328
1400
1441
1443
1406
1339
1260
1175
1090
1013
942
877
821
785
771
780
803
831
853
872
876
872
866
856
850
849
843
843
844
845
846
847
848
845
843
837
838
833
833
834
834
838
837
834
837
838
839
843
844
842
844
846
852
857
863
868
872
874
876
879
880
888
893
901
909
916
923
931
938
945
955
961
967
971
980
986
994
1006
1013
1025
1033
1040
1042
1047
1051
1056
1062
1067
1069
1070
1069
1070
1071
1072
1071
1067
1065
1059
1057
1053
1051
1051
1048
1047
1042
1035
1026
1019
1015
1011
1009
1008
1006
1001
998
993
990
981
979
974
968
963
958
955
953
952
954
953
955
955
951
950
946
946
947
949
953
955
960
967
974
979
983
987
991
995
996
1000
1004
1007
1008
1008
1002
998
988
974
961
951
944
939
935
929
926
926
924
920
921
921
923
922
921
920
921
923
927
929
928
931
928
925
922
920
919
919
921
919
917
917
925
944
980
1026
1081
1140
1207
1273
1339
1396
1429
1432
1396
1332
1247
1152
1061
978
907
851
809
787
785
801
822
847
866
875
878
875
868
863
857
856
856
858
858
859
860
858
856
852
848
846
846
847
850
849
849
846
841
839
838
840
844
847
849
849
850
850
855
859
862
866
870
871
871
877
882
887
893
905
913
915
919
919
923
927
936
949
960
971
979
986
995
1003
1010
1022
1031
1039
1042
1047
1053
1061
1067
1073
1080
1088
1087
1090
1090
1089
1089
1091
1093
1092
1091
1088
1087
1084
1082
1078
1077
1071
1067
1061
1057
1051
1053
1048
1046
1042
1034
1026
1021
1014
1009
1005
1005
1002
1001
995
989
986
981
978
974
972
967
968
966
967
969
969
967
965
964
964
963
967
974
982
994
997
1001
1003
1005
1012
1017
1020
1022
1018
1011
1001
993
985
979
971
963
954
942
936
931
929
927
928
928
927
927
929
927
930
932
934
935
932
930
928
929
931
936
935
936
930
924
918
923
942
975
1023
1082
1147
1218
1290
1358
1411
1441
1430
1380
1301
1205
1105
1015
939
886
846
820
807
809
820
839
862
882
894
896
894
886
877
870
868
869
870
872
872
870
868
864
