864
864
865
863
860
859
856
854
853
855
858
860
864
864
865
867
873
873
877
881
882
883
886
890
893
901
909
917
924
929
934
939
948
955
965
978
984
993
999
1005
1008
1015
1020
1027
1036
1044
1051
1061
1070
1076
1084
1087
1091
1091
1091
1090
1088
1089
1089
1091
1088
1088
1086
1086
1083
1078
1075
1071
1063
1061
1054
1048
1048
1045
1045
1043
1040
1033
1026
1018
1009
1005
1004
1004
1001
995
989
982
975
969
964
962
956
952
951
946
944
944
947
947
947
947
944
938
937
934
936
941
947
952
962
966
973
983
989
993
996
997
999
1001
1004
1008
1012
1012
1011
1001
988
972
956
947
937
935
934
933
936
936
934
931
930
929
932
933
933
932
931
930
933
935
936
937
937
933
931
927
924
923
924
925
931
946
976
1019
1079
1150
1232
1319
1392
1438
1444
1410
1349
1276
1197
1119
1043
975
912
854
807
779
775
788
814
842
863
876
878
876
872
865
863
860
861
860
858
857
860
859
858
855
852
847
843
843
844
849
856
857
856
854
852
851
849
851
854
859
864
867
869
872
874
877
882
884
888
889
891
898
902
911
920
927
934
939
942
948
955
962
971
983
987
995
1001
1005
1010
1017
1024
1030
1037
1041
1047
1053
1059
1065
1072
1076
1080
1079
1077
1076
1075
1077
1079
1080
1080
1075
1073
1068
1063
1057
1051
1049
1042
1036
1029
1023
1018
1018
1016
1013
1011
1003
997
991
984
976
976
972
970
965
961
958
955
955
954
953
952
950
949
946
949
951
953
954
955
961
964
969
977
984
992
999
1003
1007
1011
1013
1015
1014
1012
1009
1000
993
981
970
961
955
948
942
936
934
932
931
933
932
934
933
933
932
932
933
932
933
933
930
929
926
925
928
930
931
931
927
923
922
930
956
1002
1062
1135
1220
1303
1379
1432
1448
1421
1362
1289
1213
1133
1051
975
905
846
801
779
782
798
824
850
868
880
877
869
859
854
851
850
850
854
854
853
848
844
839
838
839
841
844
846
844
843
840
839
837
837
839
844
845
848
849
853
854
857
863
867
865
866
866
868
874
882
890
900
907
914
921
926
931
938
947
955
963
970
977
984
990
1000
1007
1014
1022
1026
1029
1034
1040
1049
1060
1069
1076
1076
1078
1078
1077
1077
1076
1073
1076
1074
1069
1068
1064
1064
1061
1060
1053
1045
1035
1028
1025
1026
1024
1024
1021
1016
1007
1000
992
990
987
982
978
974
970
966
963
960
959
958
954
948
942
940
943
942
945
948
949
951
954
955
960
966
971
976
980
985
987
992
997
1004
1007
1008
1003
998
986
974
963
952
944
938
930
925
921
916
914
915
915
916
916
917
915
915
915
917
918
918
914
914
910
908
911
911
913
909
913
909
905
904
914
938
974
1022
1076
1137
1207
1286
1360
1414
1436
1415
1360
1280
1189
1096
1013
940
881
831
796
775
775
789
810
832
855
868
871
865
858
853
846
846
848
851
847
849
846
843
843
840
840
842
841
843
841
838
835
835
836
835
838
836
837
840
841
845
847
851
851
852
857
855
863
870
879
890
897
903
907
910
917
921
930
940
949
958
964
974
984
995
1004
1012
1018
1024
1028
1036
1044
1055
1063
1072
1078
1079
1081
1080
1082
1082
1082
1084
1081
1080
1077
1076
1077
1074
1074
1070
1066
1058
1051
1046
1043
1039
1036
1033
1028
1026
1020
1015
1013
1005
1002
998
991
986
980
977
977
974
972
967
964
958
957
955
957
956
954
954
953
955
958
964
970
977
982
987
993
1000
1004
1009
1015
1016
1015
1010
1003
992
982
969
958
946
936
932
924
919
920
921
922
920
918
917
915
915
919
921
923
923
924
919
918
917
916
916
919
919
914
911
909
913
925
954
1000
1058
1130
1214
1303
1383
1440
1457
1428
1363
1274
1172
1072
981
906
847
805
787
792
811
835
866
882
888
884
875
863
856
854
855
856
859
860
856
857
855
853
852
851
850
850
848
851
847
851
850
855
855
856
855
855
855
859
867
873
878
881
886
886
889
890
902
909
918
924
931
936
944
952
959
968
976
982
987
994
1000
1010
1021
1032
1041
1049
1058
1065
1069
1078
1083
1086
1089
1091
1089
1093
1096
1097
1101
1100
1099
1094
1091
1088
1085
1083
1082
1078
1075
1070
1065
1059
1049
1046
1041
1035
1030
1022
1018
1017
1014
1011
1007
1000
993
984
976
974
969
966
964
962
957
954
948
947
946
945
942
942
936
936
933
932
933
938
943
951
958
964
973
979
986
990
999
1004
1006
1009
1006
1004
1002
995
985
971
958
948
942
938
936
933
932
930
926
924
923
924
926
931
931
931
932
931
931
934
934
934
932
929
924
924
922
922
927
927
928
933
948
976
1017
1074
1147
1227
1310
1381
1427
1432
1392
1325
1243
1156
1069
989
919
857
812
781
772
782
800
826
849
864
873
873
868
867
865
861
859
858
858
857
857
857
857
856
852
850
847
845
848
852
851
853
850
849
846
847
852
857
860
860
862
866
866
869
872
877
882
888
892
897
905
910
918
927
932
938
940
945
945
950
961
970
980
987
995
1002
1010
1016
1023
1030
1037
1045
1047
1053
1055
1061
1066
1071
1077
1079
1078
1077
1075
1073
1072
1075
1074
1071
1069
1065
1058
1056
1052
1048
1045
1038
1032
1025
1022
1016
1014
1014
1009
1001
994
987
982
977
973
971
972
969
965
960
956
954
950
948
948
945
942
942
942
941
941
943
944
946
946
947
952
955
961
970
979
990
993
994
997
999
1000
1003
1005
1001
996
988
978
968
956
946
938
929
922
915
913
909
910
911
913
914
917
915
911
906
905
906
907
909
907
907
908
908
909
908
906
904
899
895
892
895
902
928
969
1023
1090
1170
1256
1339
1402
1435
1431
1388
1321
1244
1162
1078
1000
932
872
821
784
770
769
786
808
832
852
859
860
858
853
844
838
834
831
831
830
831
832
831
828
827
825
825
825
824
824
824
822
819
819
818
818
818
823
824
822
820
820
821
823
827
830
838
839
842
845
847
852
857
866
872
879
883
891
896
905
910
921
928
937
942
947
953
961
970
980
990
997
1006
1012
1018
1021
1027
1035
1042
1046
1051
1052
1054
1057
1064
1066
1067
1066
1063
1055
1050
1047
1048
1044
1048
1047
1045
1039
1032
1028
1022
1018
1016
1010
1006
1000
996
991
990
988
986
984
977
970
964
957
953
950
949
949
950
948
947
941
936
934
933
932
938
938
942
944
946
950
956
962
966
974
976
977
980
981
988
993
992
996
993
984
971
959
947
936
928
922
919
916
913
910
908
905
905
907
905
904
903
902
899
898
899
901
902
904
906
901
901
897
899
897
899
901
896
894
889
888
898
918
957
1007
1076
1161
1249
1332
1397
1423
1407
1358
1279
1188
1094
1012
946
890
844
807
786
779
784
804
823
842
851
857
854
847
841
837
836
834
835
835
835
834
832
827
826
821
820
818
821
823
823
822
818
817
812
815
815
815
820
820
821
822
821
823
827
828
832
833
835
840
843
849
857
865
871
875
879
879
886
890
899
908
922
931
940
949
957
965
971
979
987
992
1002
1008
1011
1021
1030
1040
1047
1050
1052
1055
1056
1056
1061
1062
1063
1063
1062
1060
1057
1053
1050
1049
1044
1040
1035
1034
1030
1028
1027
1025
1024
1017
1013
1005
997
991
989
985
983
979
977
972
965
963
958
957
953
950
949
946
944
945
945
945
948
949
950
951
955
962
970
978
984
986
988
990
994
999
1000
998
992
981
970
956
944
934
926
917
914
912
908
907
906
906
908
907
906
906
908
903
906
908
907
909
908
907
905
906
908
912
911
907
901
897
898
911
940
985
1048
1122
1206
1295
1376
1430
1453
1433
1377
1300
1210
1115
1027
948
884
835
803
789
795
814
835
854
867
871
867
859
852
846
843
845
846
845
844
841
838
835
834
834
835
837
840
839
835
834
832
831
832
832
834
836
836
837
842
847
852
858
859
862
863
865
868
871
881
891
903
911
921
928
940
950
957
966
972
979
985
990
1000
1009
1020
1031
1041
1048
1054
1059
1066
1072
1080
1087
1091
1096
1096
1097
1095
1094
1098
1097
1097
1096
1093
1090
1090
1089
1086
1082
1073
1065
1056
1049
1046
1044
1045
1042
1043
1039
1035
1024
1019
1017
1011
1005
999
993
985
981
977
972
972
969
967
963
958
954
949
948
947
947
951
949
950
949
947
946
947
953
958
966
975
978
986
994
998
1006
1010
1013
1012
1012
1008
1006
1000
994
989
978
969
955
949
940
935
930
930
931
934
935
934
933
929
928
926
925
929
930
931
929
930
931
933
937
938
939
938
935
928
923
916
918
927
948
982
1031
1088
1155
1231
1311
1380
1429
1442
1415
1353
1278
1197
1117
1040
972
913
861
818
787
777
786
807
832
858
875
887
888
880
873
867
863
862
866
867
865
863
862
857
855
851
855
854
851
847
847
846
850
854
857
859
858
857
858
860
860
865
869
875
878
882
885
890
895
901
906
911
913
916
923
932
941
952
961
968
974
978
984
991
999
1008
1015
1019
1028
1033
1040
1048
1056
1063
1068
1071
1075
1077
1080
1084
1083
1082
1081
1080
1076
1070
1072
1070
1070
1065
1061
1054
1049
1045
1041
1037
1033
1027
1023
1016
1012
1009
1008
1002
1001
995
989
981
977
974
970
967
962
956
954
950
948
947
950
945
944
942
940
939
939
942
944
947
949
953
960
966
974
980
988
993
995
997
1002
1005
1009
1013
1016
1015
1010
1000
987
971
957
944
938
935
931
932
933
935
935
936
936
935
929
927
922
921
924
930
931
934
934
930
929
928
928
926
924
916
914
916
932
969
1024
1093
1174
1262
1348
1420
1454
1447
1396
1317
1219
1115
1015
928
856
803
769
765
781
804
832
856
870
876
873
862
855
846
840
839
840
843
843
846
842
840
837
835
834
833
832
831
829
829
829
830
834
835
837
835
836
837
838
840
845
850
852
855
857
861
865
870
877
880
887
891
897
905
911
920
930
938
942
946
948
954
961
975
986
995
1001
1008
1014
1021
1030
1037
1045
1044
1046
1049
1050
1056
1060
1066
1070
1074
1070
1066
1061
1059
1057
1055
1054
1051
1046
1042
1038
1032
1028
1024
1022
1018
1013
1005
999
992
989
986
986
983
980
974
968
958
953
948
950
948
950
950
948
946
942
939
940
941
942
943
947
952
954
963
970
980
987
990
990
990
994
996
1002
1002
1005
1001
994
981
968
957
945
936
929
921
918
917
913
914
917
918
919
917
916
912
910
910
911
912
914
918
920
920
917
915
912
911
910
906
903
902
901
912
932
971
1018
1080
1150
1227
1309
1377
1421
1420
1382
1315
1225
1129
1035
960
901
854
816
791
782
790
808
835
855
871
872
870
861
853
847
841
843
843
845
848
851
849
847
845
838
838
839
837
836
834
836
836
839
840
844
842
843
841
841
838
840
845
854
861
865
873
876
883
890
896
901
905
911
911
917
926
933
944
954
963
973
982
988
995
1004
1014
1023
1036
1044
1051
1057
1064
1067
1071
1075
1079
1083
1084
1083
1088
1093
1092
1090
1088
1079
1075
1067
1068
1068
1069
1067
1062
1056
1051
1047
1042
1038
1034
1029
1024
1018
1011
1006
1004
1004
1003
998
992
983
978
972
968
968
968
966
964
963
957
957
957
955
955
955
955
955
958
960
969
978
989
996
1000
1003
1006
1006
1008
1013
1017
1021
1020
1020
1017
1005
994
979
967
956
946
938
934
931
933
936
939
941
941
939
938
934
935
934
936
938
940
941
940
939
936
934
935
935
933
933
925
921
922
931
951
989
1031
1086
1140
1201
1271
1342
1400
1432
1421
1373
1288
1190
1088
997
923
865
824
796
787
792
809
833
855
874
885
887
883
876
869
863
862
864
864
869
867
868
862
860
858
859
858
855
858
855
853
852
855
856
858
860
860
857
858
859
863
868
871
878
881
882
881
881
887
889
897
903
913
919
925
928
935
945
952
959
964
970
973
978
984
994
1001
1014
1025
1031
1036
1041
1041
1047
1055
1063
1071
1075
1081
1081
1080
1081
1083
1084
1089
1089
1087
1083
1079
1080
1076
1076
1078
1073
1069
1066
1055
1049
1042
1039
1041
1036
1035
1031
1026
1021
1014
1009
1005
1002
996
991
985
979
974
974
970
969
968
962
956
952
951
950
953
956
957
957
953
950
950
949
952
955
959
966
971
975
982
989
992
998
1004
1005
1006
1006
1003
1003
1001
999
994
985
971
958
945
935
927
924
922
920
919
915
919
922
922
923
923
921
919
917
915
915
914
918
919
919
916
916
914
910
908
906
903
908
924
958
1010
1078
1162
1254
1343
1414
1447
1434
1380
1296
1197
1093
993
915
847
800
777
778
795
823
848
865
875
876
872
868
862
860
855
852
849
848
848
850
848
850
849
844
846
845
845
843
842
839
837
836
839
843
846
850
853
852
854
854
856
858
865
871
874
879
884
889
895
906
912
920
926
933
938
949
956
969
979
989
996
1000
1007
1013
1020
1031
1042
1049
1058
1064
1070
1077
1080
1088
1092
1093
1091
1091
1089
1089
1089
1092
1092
1091
1089
1085
1083
1076
1070
1066
1063
1059
1055
1050
1048
1044
1041
1039
1037
1033
1025
1020
1013
1009
1006
1003
1000
998
993
986
982
978
974
972
971
972
970
968
968
968
970
972
977
980
984
987
991
998
1005
1013
1020
1024
1028
1027
1027
1023
1020
1017
1010
1000
988
975
963
954
949
943
942
939
937
935
932
933
933
936
934
934
936
934
933
933
933
933
938
936
934
934
934
932
931
928
927
924
929
941
969
1016
1075
1147
1226
1313
1389
1444
1464
1444
1390
1312
1223
1127
1041
967
902
850
815
799
802
819
843
865
882
888
886
882
878
875
872
870
866
864
863
863
863
863
861
862
858
858
856
854
854
852
851
850
848
847
848
849
851
852
856
858
858
856
853
854
855
860
864
871
878
886
889
892
897
900
908
913
921
928
934
940
947
953
961
967
981
985
993
998
1007
1015
1026
1037
1043
1054
1061
1065
1069
1074
1075
1083
1087
1094
1097
1099
1100
1100
1098
1099
1097
1095
1092
1089
1084
1082
1078
1075
1076
1074
1070
1067
1064
1057
1051
1048
1043
1042
1041
1038
1036
1031
1025
1020
1013
1008
1004
998
995
990
986
983
980
981
980
979
977
969
965
962
962
959
959
963
964
971
977
985
992
998
1003
1009
1013
1014
1016
1018
1020
1026
1033
1037
1036
1029
1019
1006
991
980
969
961
956
954
950
945
944
943
945
946
946
944
947
943
941
940
940
940
945
948
948
946
944
942
940
940
939
937
937
940
952
979
1021
1068
1122
1187
1257
1328
1392
1428
1418
1363
1281
1178
1074
982
907
851
812
792
792
806
825
846
870
886
894
894
891
884
877
873
867
870
872
874
873
873
870
867
861
861
862
864
865
866
865
864
861
861
861
865
865
869
871
872
874
876
882
889
891
897
900
903
903
908
915
923
932
940
947
952
957
961
967
973
981
987
993
999
1004
1015
1024
1034
1042
1048
1051
1054
1056
1058
1069
1077
1084
1095
1096
1100
1098
1097
1096
1094
1094
1091
1092
1088
1086
1083
1081
1080
1079
1071
1071
1065
1060
1054
1046
1045
1044
1042
1040
1036
1030
1022
1012
1006
1001
997
994
990
985
984
982
978
975
969
965
961
957
951
949
952
952
956
960
963
962
960
955
955
954
956
960
967
973
981
986
993
998
1001
1008
1013
1016
1020
1023
1022
1019
1020
1016
1013
1007
996
986
975
960
952
948
943
946
949
952
949
947
944
941
942
941
944
946
947
946
946
945
944
944
945
947
947
940
939
931
928
927
930
941
964
1001
1050
1108
1172
1246
1321
1392
1438
1452
1425
1362
1279
1183
1087
1001
924
860
813
787
781
796
822
849
868
884
889
885
878
875
870
867
867
868
866
867
864
863
862
859
859
856
852
856
855
854
857
860
862
861
861
857
855
855
855
859
861
867
871
871
871
872
874
873
882
885
891
895
901
905
910
916
923
930
934
939
939
945
953
960
968
980
990
997
1001
1006
1010
1014
1019
1023
1037
1045
1055
1061
1067
1073
1075
1079
1080
1087
1087
1090
1088
1088
1083
1088
1087
1090
1089
1086
1081
1075
1069
1064
1062
1061
1060
1055
1054
1048
1041
1034
1027
1022
1020
1016
1011
1007
1001
996
992
989
985
981
979
973
970
965
962
961
963
965
964
965
962
961
960
963
967
974
982
988
993
1001
1005
1010
1016
1020
1022
1020
1019
1015
1011
1006
998
989
977
966
953
941
937
935
936
936
934
933
932
931
932
933
936
934
935
932
932
932
933
935
933
932
931
929
925
922
923
931
945
975
1016
1071
1140
1214
1298
1373
1423
1440
1409
1342
1257
1159
1059
977
907
850
811
789
788
804
829
856
878
885
887
882
878
874
873
872
870
870
868
866
863
862
858
860
860
858
858
858
858
859
861
859
857
855
855
855
857
861
867
872
876
875
876
877
883
887
896
902
908
912
918
925
930
939
945
951
959
966
971
978
986
997
1006
1018
1028
1032
1041
1046
1052
1062
1067
1077
1083
1087
1090
1095
1099
1101
1102
1104
1103
1099
1099
1096
1093
1093
1091
1086
1081
1075
1066
1059
1057
1051
1047
1044
1042
1038
1033
1032
1029
1025
1019
1011
1003
992
986
983
978
981
979
976
967
967
967
966
963
964
962
959
955
951
954
954
957
961
966
971
976
981
986
994
1002
1008
1015
1018
1018
1019
1019
1014
1012
1010
1003
994
981
972
963
956
952
947
944
941
937
937
935
936
939
940
942
943
939
937
935
934
933
934
933
932
932
931
930
930
935
935
933
937
953
986
1033
1098
1173
1253
1331
1395
1423
1412
1361
1285
1201
1111
1027
952
893
844
809
792
793
806
827
847
864
873
876
878
876
873
872
869
865
866
865
864
863
863
859
858
855
854
855
856
859
860
857
855
853
851
850
854
859
862
863
864
865
866
867
867
872
881
887
890
896
899
903
910
917
924
929
932
937
944
951
958
968
975
982
989
994
998
1004
1011
1021
1028
1036
1041
1047
1055
1061
1068
1075
1081
1084
1086
1086
1082
1082
1084
1084
1086
1084
1081
1081
1077
1071
1067
1065
1061
1059
1054
1050
1047
1043
1039
1037
1033
1026
1020
1012
1003
