1250
1326
1377
1393
1366
1308
1228
1137
1044
962
895
839
794
759
741
740
754
780
809
828
836
831
821
810
805
804
804
806
806
806
803
801
800
801
800
800
798
795
793
792
793
796
798
798
799
798
795
793
793
798
803
809
815
820
823
826
831
835
841
848
854
858
863
870
876
885
897
907
917
926
931
933
939
944
953
962
972
981
990
996
1003
1014
1023
1031
1037
1039
1041
1045
1049
1052
1056
1059
1061
1062
1061
1059
1055
1050
1047
1046
1045
1045
1042
1038
1031
1027
1021
1017
1013
1010
1004
999
996
993
988
984
978
975
972
965
958
950
943
939
935
931
927
925
920
912
909
907
906
905
902
901
897
896
892
889
890
892
897
903
905
911
916
921
929
935
945
952
957
960
961
962
964
965
964
964
960
950
939
923
910
898
891
887
883
884
881
879
880
879
885
883
886
885
881
881
881
878
877
882
884
887
889
887
883
882
879
877
874
869
868
867
880
896
931
978
1035
1107
1183
1261
1328
1375
1382
1349
1287
1208
1122
1034
956
894
845
801
765
737
726
734
752
777
801
815
826
831
827
823
813
808
805
803
806
807
810
810
808
805
803
798
796
794
793
796
798
797
799
799
799
800
802
799
802
804
804
806
809
812
818
824
831
832
835
839
842
849
855
864
870
876
880
888
891
899
912
919
925
930
937
939
948
955
964
976
984
991
996
998
1002
1008
1016
1019
1026
1031
1031
1032
1033
1035
1034
1034
1036
1035
1032
1031
1029
1028
1024
1024
1021
1016
1015
1007
1002
994
988
986
984
983
981
977
973
965
956
949
943
939
938
935
930
926
920
915
913
911
910
910
906
902
896
895
894
896
900
903
906
906
905
909
912
918
925
933
941
947
952
952
956
959
962
965
964
960
952
944
934
924
916
906
899
890
881
874
872
867
869
873
875
875
877
876
877
875
873
873
874
872
872
874
875
874
877
877
879
877
870
864
859
862
878
910
954
1010
1072
1142
1217
1293
1355
1395
1399
1361
1294
1206
1108
1013
927
853
795
754
735
737
755
780
804
824
835
834
829
819
814
808
806
807
808
807
805
802
800
801
801
802
802
799
794
792
790
788
789
789
790
792
793
795
795
797
800
803
804
803
805
808
814
816
824
832
841
848
850
856
862
865
877
890
895
905
911
919
924
930
936
951
960
970
979
987
993
1001
1013
1019
1028
1032
1032
1032
1032
1039
1040
1045
1048
1050
1050
1048
1047
1044
1038
1036
1034
1026
1022
1020
1016
1012
1014
1012
1010
1002
996
990
982
973
971
966
963
960
956
951
946
939
936
933
931
929
926
924
920
917
921
918
921
914
911
910
908
906
914
923
932
944
952
958
959
960
962
962
965
965
967
966
962
957
950
940
929
917
905
894
884
879
879
881
885
884
885
887
888
886
888
887
888
889
886
886
886
884
888
893
894
894
890
886
880
878
883
899
927
967
1018
1073
1133
1201
1276
1337
1379
1380
1333
1256
1164
1065
979
904
845
800
770
752
748
759
779
806
827
843
853
848
842
832
826
824
821
819
817
817
813
813
815
815
817
815
813
810
805
802
802
804
807
811
811
810
810
810
811
813
816
818
822
827
828
830
832
835
844
850
857
864
868
876
880
889
896
906
914
921
927
931
934
940
946
956
965
974
984
992
1002
1008
1012
1018
1023
1027
1032
1035
1037
1040
1043
1047
1046
1049
1050
1051
1048
1045
1043
1040
1038
1037
1037
1037
1033
1029
1024
1017
1011
1004
1000
996
989
987
982
975
970
964
964
958
950
945
935
927
920
920
916
914
912
909
906
899
893
892
893
891
891
890
887
884
888
890
894
896
900
906
912
919
925
937
943
951
955
956
957
957
956
956
953
950
939
929
913
898
887
885
883
883
886
885
886
883
880
880
879
876
876
875
876
876
876
877
879
881
881
880
881
882
882
882
878
877
871
873
884
909
951
1013
1085
1170
1250
1329
1384
1403
1379
1319
1233
1133
1029
932
851
783
739
717
720
737
762
788
804
816
820
820
817
814
810
804
802
801
800
802
801
800
800
796
797
794
796
797
797
797
797
795
796
795
796
801
805
808
809
812
815
815
819
823
829
833
837
842
844
852
860
873
880
885
890
895
901
906
915
925
933
938
946
953
961
970
977
985
990
992
996
1003
1012
1019
1026
1032
1033
1032
1031
1028
1027
1027
1028
1029
1028
1023
1023
1019
1018
1016
1011
1005
996
988
982
980
971
970
968
965
957
948
941
935
930
926
923
917
912
910
909
909
907
906
907
904
900
895
894
895
893
894
900
903
903
906
907
913
920
927
938
942
947
951
953
957
963
963
962
956
947
934
922
910
899
894
891
882
878
874
870
869
870
868
869
868
867
866
866
870
871
876
874
872
868
865
863
861
864
865
867
865
863
861
864
880
913
957
1013
1077
1147
1221
1296
1359
1389
1384
1338
1262
1168
1068
967
884
814
761
729
718
724
747
776
803
820
828
824
819
810
805
800
801
803
804
803
805
801
797
790
786
785
787
789
791
790
790
785
781
782
780
780
782
785
784
785
787
789
792
795
798
799
801
802
804
806
815
822
830
836
842
846
851
856
864
872
880
888
896
899
910
916
924
937
945
954
961
968
978
985
994
1002
1012
1020
1025
1027
1030
1031
1034
1036
1039
1040
1039
1039
1037
1034
1032
1031
1029
1026
1024
1018
1012
1008
1004
1000
999
996
990
984
975
968
961
957
954
950
944
938
934
931
928
927
923
920
916
914
909
908
908
912
913
914
912
913
912
915
920
926
936
943
945
952
954
958
964
967
966
961
954
944
933
923
913
905
897
891
884
876
876
876
878
879
880
881
876
877
874
875
876
879
879
877
875
873
874
876
878
876
876
875
871
867
870
885
919
965
1033
1112
1205
1297
1370
1409
1409
1365
1292
1203
1104
1018
942
877
821
783
766
767
785
810
833
846
848
841
834
822
816
815
816
820
820
818
814
809
806
803
803
803
803
803
803
799
797
797
796
795
792
791
793
794
793
797
801
804
807
811
813
817
821
827
832
834
843
850
856
867
879
887
898
905
911
918
926
937
948
959
970
976
985
994
999
1007
1016
1024
1030
1035
1041
1044
1047
1052
1054
1057
1057
1059
1057
1055
1052
1050
1051
1052
1051
1050
1045
1042
1037
1029
1025
1024
1021
1020
1017
1014
1008
1004
1001
996
991
983
975
966
960
955
954
952
950
949
942
939
936
932
931
934
934
932
932
931
935
939
943
950
956
962
965
968
970
973
980
986
989
989
988
984
976
967
956
944
932
921
910
901
896
894
901
903
903
902
900
895
894
893
894
895
897
900
901
901
898
898
894
895
899
901
899
900
897
894
894
898
910
940
981
1037
1104
1185
1267
1342
1396
1411
1384
1322
1242
1154
1067
996
937
893
853
820
792
780
785
804
826
845
859
862
860
851
845
843
846
847
847
849
846
843
839
838
837
836
837
839
836
835
834
831
833
832
835
834
833
832
831
830
835
840
848
851
854
857
859
861
868
874
883
888
890
895
898
903
911
922
929
936
945
951
959
969
978
989
997
1004
1010
1012
1016
1021
1030
1037
1047
1056
1059
1064
1064
1063
1062
1064
1065
1063
1059
1058
1056
1056
1057
1056
1055
1052
1043
1038
1031
1023
1020
1015
1011
1006
1000
1000
994
989
985
980
976
973
966
959
952
945
942
938
930
925
919
915
910
908
905
907
907
907
908
908
907
906
905
905
905
908
912
921
932
940
951
955
960
962
959
963
968
972
974
973
969
957
949
933
919
909
903
896
892
891
888
889
893
895
895
894
892
888
885
882
884
890
892
894
895
895
894
892
892
893
893
890
887
881
882
902
935
985
1050
1132
1220
1306
1379
1421
1418
1368
1292
1200
1108
1018
938
867
807
761
735
729
743
764
791
814
830
839
837
831
826
820
817
815
816
814
818
817
816
813
814
812
811
813
815
813
810
808
805
804
806
812
816
820
822
823
822
822
824
827
836
841
846
849
851
855
858
863
871
875
882
883
888
895
901
908
916
923
931
938
943
946
951
958
966
975
984
990
996
1003
1008
1013
1018
1024
1028
1031
1029
1029
1033
1036
1037
1041
1043
1040
1037
1032
1027
1026
1019
1017
1014
1014
1009
1004
997
992
986
981
980
973
969
963
959
952
952
948
945
941
936
927
919
912
910
907
911
909
910
910
907
907
904
902
903
903
900
900
902
903
909
916
925
931
936
941
945
948
954
959
967
970
973
974
972
967
961
957
949
941
931
917
906
899
890
889
885
885
887
885
883
882
879
881
880
884
888
887
888
887
884
879
878
877
879
881
884
882
882
876
872
869
865
871
887
913
952
1003
1066
1139
1218
1298
1363
1397
1388
1337
1261
1167
1072
987
914
854
804
761
731
721
731
754
783
808
826
833
832
824
819
815
814
814
812
811
806
803
802
800
802
804
804
803
802
799
796
793
793
795
796
795
795
796
798
799
803
805
807
811
811
811
816
819
824
830
834
840
847
850
852
858
867
874
883
892
901
907
914
923
932
939
948
954
959
961
970
977
987
999
1010
1018
1024
1027
1029
1032
1037
1041
1042
1048
1049
1050
1048
1046
1046
1043
1039
1038
1035
1031
1029
1025
1021
1021
1016
1013
1004
996
991
984
979
978
974
970
966
959
954
949
946
941
937
932
929
922
914
915
919
921
922
925
921
918
914
914
917
923
928
936
941
949
953
959
962
967
973
977
978
977
975
973
970
965
959
947
935
922
910
902
895
893
895
893
893
895
896
895
893
895
895
895
895
891
889
889
890
893
897
904
905
904
899
894
890
886
881
883
894
912
946
993
1056
1131
1215
1297
1368
1411
1416
1383
1326
1256
1180
1104
1029
955
887
826
780
757
759
781
810
836
855
861
856
848
840
835
831
830
829
829
830
829
829
828
828
827
824
821
816
814
810
811
812
813
815
813
812
813
810
808
810
813
814
815
819
822
824
830
833
839
838
844
848
851
858
868
876
889
900
907
914
922
931
940
947
954
960
968
975
985
993
1003
1016
1024
1031
1035
1041
1045
1050
1057
1063
1070
1074
1080
1079
1074
1075
1072
1069
1070
1068
1066
1063
1058
1056
1050
1050
1048
1043
1034
1030
1027
1022
1020
1018
1015
1015
1012
1004
998
989
983
977
971
969
965
961
960
955
951
943
942
942
940
936
933
930
930
929
929
932
934
938
943
948
952
957
960
966
972
977
982
987
987
993
994
994
993
990
984
974
961
949
938
926
919
918
917
912
909
906
905
904
906
905
909
910
909
906
902
901
903
901
904
903
905
903
904
905
904
906
900
897
893
893
900
920
957
1008
1070
1138
1219
1298
1362
1393
1378
1321
1235
1134
1035
947
875
824
785
760
750
759
775
798
819
831
840
842
842
838
833
830
828
826
826
825
823
820
819
817
816
815
815
816
817
817
815
815
813
815
817
817
821
825
828
831
835
838
841
844
849
852
855
858
862
871
878
888
894
900
906
908
915
924
934
944
953
959
964
970
975
982
990
999
1004
1012
1019
1025
1033
1035
1042
1048
1050
1048
1047
1047
1043
1044
1043
1043
1040
1036
1032
1028
1023
1019
1014
1010
1002
993
988
984
982
980
977
974
968
961
954
947
939
936
930
927
921
918
913
911
910
908
903
899
896
894
898
901
906
909
910
903
901
901
904
909
916
924
931
939
946
953
961
966
969
972
972
968
964
957
951
939
929
919
909
901
896
897
895
892
890
888
887
887
888
891
894
895
895
895
895
896
895
894
895
895
894
894
892
888
890
887
888
896
917
950
1002
1064
1140
1223
1303
1369
1412
1421
1393
1329
1246
1152
1057
969
892
827
774
744
738
750
772
797
817
829
835
833
830
826
824
822
821
820
816
814
814
810
810
814
812
812
810
807
806
805
806
806
806
803
803
802
805
808
811
820
823
822
823
823
822
827
833
839
847
851
857
860
865
874
881
888
894
898
901
906
913
921
931
939
949
957
962
965
971
977
986
995
1003
1013
1020
1025
1028
1032
1037
1042
1045
1044
1044
1044
1041
1043
1044
1047
1049
1044
1039
1031
1027
1023
1018
1017
1014
1010
1008
1001
993
989
982
979
975
970
964
959
953
949
946
943
940
933
928
925
922
920
920
925
927
926
926
923
920
921
922
928
932
938
944
951
952
958
964
969
975
980
982
979
978
977
974
968
958
945
932
916
904
898
897
897
896
895
892
893
891
893
895
897
897
896
892
890
890
889
891
895
897
899
897
895
892
887
887
884
885
898
925
963
1015
1075
1149
1228
1305
1371
1406
1401
1357
1284
1197
1099
1005
922
851
791
755
741
749
771
801
826
844
850
849
842
836
833
833
830
828
827
826
825
825
827
826
826
825
820
818
816
816
815
816
813
811
811
812
816
817
822
822
824
821
822
822
827
832
837
845
854
857
866
874
880
888
895
898
903
910
920
930
941
950
961
970
977
987
992
998
1007
1019
1026
1032
1041
1044
1050
1054
1057
1063
1064
1065
1062
1063
1063
1063
1063
1061
1059
1052
1048
1042
1040
1037
1034
1032
1029
1022
1017
1014
1008
1005
997
994
987
979
971
965
962
961
959
958
952
947
941
936
932
930
931
925
925
927
927
928
931
936
937
939
939
944
947
952
958
966
970
976
981
984
986
986
987
984
981
973
965
952
940
928
919
914
908
909
904
904
902
903
903
906
908
908
907
907
905
904
905
907
906
907
907
905
905
908
908
907
906
902
904
912
932
969
1024
1087
1163
1239
1315
1374
1398
1378
1317
1233
1135
1035
953
888
845
815
798
797
804
820
841
858
866
870
866
861
856
853
850
849
848
847
846
847
840
839
840
839
842
844
845
845
842
839
836
835
834
835
838
838
844
849
852
858
862
865
870
870
873
877
882
891
899
910
919
925
932
937
944
950
958
965
976
979
986
991
997
1004
1013
1022
1030
1036
1042
1044
1054
1057
1066
1070
1076
1078
1078
1076
1074
1072
1071
1071
1071
1068
1065
1064
1059
1052
1048
1047
1044
1039
1031
1026
1019
1012
1008
1007
1005
1001
998
991
984
976
970
966
964
962
956
952
947
943
941
937
935
931
927
924
923
920
922
923
925
927
924
924
919
920
920
926
935
943
953
962
967
970
976
981
982
986
984
984
979
977
975
969
961
953
943
930
919
912
909
909
911
913
914
915
913
911
910
910
910
908
909
910
908
909
914
915
919
919
919
917
915
914
911
912
914
928
950
989
1036
1096
1164
1234
1303
1353
1377
1365
1318
1255
1184
1114
1042
973
910
852
806
773
763
770
792
815
834
849
854
854
844
841
837
835
834
834
835
834
834
833
832
831
828
825
820
820
819
820
825
827
829
832
832
832
829
830
831
833
837
841
844
848
853
859
865
868
869
877
877
882
883
890
900
908
917
922
929
936
941
948
956
963
972
976
982
987
992
999
1006
1013
1021
1025
1033
1035
1038
1039
1044
1049
1051
1053
1052
1050
1048
1047
1046
1043
1043
1039
1037
1035
1031
1026
1021
1016
1013
1009
1005
995
988
981
974
975
974
972
969
964
958
951
946
941
937
933
932
927
923
924
923
923
923
921
922
922
917
917
918
919
919
927
932
939
943
949
954
959
963
966
974
979
981
983
986
987
986
982
978
970
956
943
932
924
918
917
916
916
913
912
910
908
905
904
906
906
908
911
909
908
909
911
911
910
909
909
909
909
907
907
909
907
907
910
921
947
989
1041
1106
1177
1250
1322
1377
1410
1406
1363
1294
1208
1115
1021
941
872
821
783
768
772
792
814
836
852
859
859
855
851
845
841
838
838
837
837
836
838
836
835
834
832
831
831
832
833
833
832
831
828
825
824
825
828
833
838
838
839
840
842
844
847
854
857
862
865
870
874
880
890
893
901
906
911
915
921
930
941
951
962
970
979
985
989
994
1001
1008
1017
1023
1032
1038
1041
1050
1059
1067
1071
1074
1077
1075
1073
1075
1075
1077
1080
1078
1075
1072
1066
1057
1054
1048
1048
1044
1042
1035
1033
1026
1023
1021
1018
1012
1008
1000
993
987
982
977
977
977
975
970
964
958
950
946
945
945
946
945
944
944
944
942
942
940
940
942
944
947
952
960
971
979
987
993
995
998
996
996
998
1000
1002
1001
999
990
980
967
956
947
938
930
924
920
917
915
917
920
921
922
920
919
916
912
911
914
919
920
924
924
924
923
920
919
918
918
916
916
912
912
922
942
977
1026
1083
1150
1221
1296
1365
1414
1426
1395
1333
1245
1143
1042
950
874
816
781
767
777
799
825
855
870
881
880
873
864
855
850
847
847
850
855
855
854
851
844
841
840
837
838
838
836
835
835
834
837
838
839
838
837
838
837
841
846
852
858
862
863
867
867
875
880
887
894
900
907
911
919
926
933
944
953
959
965
972
978
989
997
1007
1017
1024
1031
1037
1042
1048
1055
1063
1068
1072
1078
1080
1082
1085
1086
1087
1087
1085
1081
1077
1071
1066
1067
1067
1067
1066
1062
1055
1048
1039
1035
1027
1021
1018
1016
1010
1005
1001
999
999
998
993
989
982
975
968
964
959
956
956
952
947
943
939
936
939
939
941
942
942
945
949
953
962
969
977
980
984
985
989
991
997
1001
1003
1003
1000
992
984
978
964
953
942
932
925
923
924
927
932
934
933
932
928
924
922
922
927
931
935
935
936
933
933
931
933
932
932
932
931
928
926
934
951
981
1024
1079
1144
1219
1298
1368
1417
1428
1396
1326
1237
1139
1044
964
899
853
816
794
789
796
817
841
867
883
887
886
874
863
859
859
860
863
866
866
864
858
853
852
846
848
849
851
851
852
851
850
850
849
849
848
847
848
847
851
856
861
866
872
876
875
880
883
889
890
895
905
909
920
926
929
939
946
