888
892
895
897
896
893
889
886
883
885
888
888
887
886
884
889
898
928
975
1037
1113
1202
1292
1367
1417
1416
1371
1292
1203
1110
1023
948
881
824
780
751
747
758
781
803
824
838
841
841
833
824
818
816
816
819
819
818
817
814
810
807
806
807
808
808
808
808
806
810
807
807
809
809
803
812
814
816
820
827
832
834
837
838
839
843
850
858
865
873
878
882
888
893
898
905
911
917
923
929
936
945
955
964
971
976
980
985
990
994
1002
1009
1014
1020
1023
1024
1026
1026
1027
1029
1029
1024
1022
1017
1016
1015
1013
1011
1005
997
989
984
978
975
972
971
965
959
952
946
943
935
934
933
924
919
911
907
906
901
902
900
899
895
895
892
888
889
889
893
892
891
894
895
898
905
912
921
925
928
932
935
939
946
957
959
961
960
954
946
940
932
923
912
903
891
880
875
871
869
869
871
869
867
863
862
861
861
864
868
867
864
864
860
857
859
859
862
865
864
864
859
855
852
848
849
858
875
904
943
990
1046
1114
1190
1274
1343
1385
1386
1341
1266
1176
1077
986
906
841
787
742
722
721
736
758
780
800
812
812
809
806
795
794
793
794
793
790
790
786
784
782
784
785
784
782
778
777
774
773
772
773
775
772
775
775
776
778
779
782
781
783
783
783
786
792
797
804
810
812
815
819
823
828
836
844
852
860
866
877
884
893
903
906
913
921
926
930
938
946
958
968
977
984
987
991
995
995
999
1005
1009
1012
1014
1013
1013
1013
1010
1011
1009
1004
994
989
987
984
984
980
980
974
971
964
957
952
949
946
944
938
932
927
922
919
915
911
908
900
895
892
887
888
886
889
892
891
888
885
883
882
883
886
892
898
905
910
917
921
929
932
933
937
934
933
929
932
930
925
921
908
894
879
869
861
854
852
851
853
854
852
856
856
856
856
853
854
854
854
850
854
855
858
858
860
858
857
852
848
845
842
844
849
865
889
928
981
1044
1130
1216
1303
1370
1406
1398
1355
1288
1209
1125
1040
956
881
819
771
744
738
752
778
803
821
830
828
818
810
802
799
799
798
798
796
797
794
796
796
794
794
788
782
779
778
780
781
783
782
782
780
777
776
778
778
779
781
783
785
785
789
794
800
803
806
807
809
811
814
821
831
841
849
859
868
873
881
888
896
905
914
924
934
940
952
960
971
981
988
992
997
1001
1008
1014
1021
1029
1036
1038
1040
1039
1038
1037
1036
1036
1035
1032
1029
1025
1022
1022
1018
1014
1011
1009
1005
998
989
982
979
976
974
971
967
958
952
947
942
937
933
930
929
924
922
919
915
910
910
906
904
900
896
893
893
892
894
896
897
898
901
903
907
911
920
927
936
941
945
951
955
956
957
958
956
954
946
937
927
915
907
895
889
885
878
872
870
867
866
867
874
876
878
877
877
874
872
871
871
869
869
868
868
867
867
871
872
874
877
872
867
861
862
879
909
958
1018
1087
1164
1250
1327
1379
1389
1348
1270
1170
1063
968
890
832
789
759
738
728
732
747
767
788
809
822
827
828
820
811
806
801
802
801
801
797
798
796
793
791
792
792
795
794
794
793
787
787
787
790
791
792
796
797
799
802
801
805
807
812
817
821
820
826
832
838
842
847
851
856
860
866
874
884
892
902
908
913
920
925
931
937
945
951
956
962
969
975
986
994
1001
1004
1005
1004
1004
1008
1010
1011
1011
1010
1004
1000
998
997
994
991
987
983
978
975
969
965
959
958
952
945
939
933
927
922
920
920
918
914
908
902
897
893
887
883
881
882
876
876
868
872
872
874
873
874
874
872
871
871
873
876
879
885
888
892
894
900
907
912
918
921
927
931
937
942
946
945
941
934
924
911
899
890
883
879
876
873
872
868
867
867
865
868
866
864
864
864
863
866
870
872
873
873
869
868
864
863
865
866
864
862
860
860
870
890
926
978
1041
1117
1203
1289
1363
1404
1404
1359
1283
1189
1091
996
912
843
785
745
727
729
745
766
791
812
818
821
814
807
801
794
797
797
798
798
797
794
789
786
780
781
781
782
785
785
784
782
780
779
777
779
780
780
782
784
786
787
788
791
796
799
800
802
802
807
812
820
827
834
839
842
846
851
856
863
869
877
883
891
899
909
920
927
934
937
942
944
945
953
964
973
981
987
991
994
998
999
997
1000
1000
1000
999
995
995
995
994
992
989
984
977
971
965
961
956
955
953
951
943
938
931
924
920
917
917
913
911
908
903
900
900
897
896
896
892
887
883
884
884
886
889
891
892
892
894
893
896
902
906
916
921
929
932
934
938
940
943
945
945
943
936
924
916
905
900
894
885
878
870
862
858
854
856
855
856
861
861
861
859
860
862
863
864
862
858
858
860
859
863
865
864
860
858
853
852
864
885
920
968
1028
1098
1184
1274
1354
1407
1414
1379
1306
1220
1123
1030
950
884
832
785
759
747
752
771
794
812
823
826
822
814
807
803
803
802
800
803
802
798
797
793
790
794
794
791
796
791
788
786
786
784
785
783
786
786
785
786
786
788
790
792
793
793
795
798
804
810
817
824
827
833
835
838
842
851
860
869
881
887
897
902
911
922
928
935
943
949
956
964
977
985
995
1005
1009
1011
1013
1012
1014
1016
1021
1025
1027
1026
1025
1023
1023
1020
1017
1012
1008
1000
995
993
991
990
988
983
978
970
964
960
955
948
945
941
937
930
928
922
923
918
916
910
904
901
895
896
896
902
901
901
898
896
894
896
898
901
906
913
921
929
934
939
941
946
947
946
943
943
939
937
933
926
917
904
895
886
874
872
870
865
867
865
865
863
865
866
867
870
867
865
864
863
863
865
867
871
871
871
869
866
863
861
862
870
888
927
976
1042
1121
1210
1305
1379
1427
1438
1408
1335
1240
1133
1030
939
868
814
780
765
766
780
801
821
836
842
840
838
835
831
830
828
826
822
820
816
816
816
815
815
814
814
813
812
811
810
810
809
806
807
806
807
811
818
821
822
822
821
822
822
826
832
841
846
852
860
864
869
877
886
892
896
900
905
911
920
929
936
947
955
960
963
967
976
986
995
1003
1010
1015
1016
1020
1025
1028
1032
1035
1035
1035
1030
1029
1029
1029
1030
1031
1030
1027
1022
1014
1008
1003
1001
997
994
994
988
982
977
968
964
960
954
951
945
942
936
933
931
926
921
916
908
903
896
890
886
885
886
886
888
884
881
881
880
880
882
883
884
887
886
888
890
893
900
906
913
918
923
927
932
936
943
947
949
947
941
934
926
917
906
896
888
882
876
871
872
874
872
871
866
865
865
867
868
870
875
877
876
874
872
869
868
866
870
872
876
875
871
868
864
864
869
887
915
952
1002
1063
1138
1224
1309
1377
1414
1399
1338
1248
1142
1037
950
878
825
783
753
739
737
749
772
792
812
821
821
818
813
805
803
803
805
804
804
804
800
799
796
798
797
798
796
796
796
797
796
794
798
799
800
798
796
797
800
805
810
813
815
820
820
822
822
827
835
840
844
847
851
855
859
865
872
880
885
890
895
902
911
920
927
936
940
944
950
957
963
968
975
983
987
990
995
998
1000
1003
1005
1008
1009
1005
1005
1005
1004
1002
1003
1003
999
993
987
981
974
971
967
966
963
958
952
946
940
932
926
926
922
916
912
908
903
900
898
897
896
892
890
885
883
878
878
879
881
884
884
883
884
881
879
878
881
885
891
895
902
904
911
917
925
929
933
932
936
937
936
937
938
938
930
922
911
897
885
876
867
863
866
866
863
864
864
865
864
866
868
866
866
862
861
861
865
868
869
871
870
866
863
860
859
857
860
861
866
879
908
949
1006
1073
1153
1239
1321
1386
1422
1414
1366
1295
1212
1124
1035
952
881
819
772
743
737
748
767
793
811
824
826
822
816
812
807
804
806
805
803
804
805
804
805
802
799
798
795
792
794
793
794
794
796
794
793
790
791
790
792
798
797
800
801
802
802
809
813
815
820
821
821
822
828
836
844
853
860
866
872
874
881
886
895
902
910
915
922
928
933
941
948
957
967
976
979
985
991
997
1005
1013
1020
1025
1027
1028
1026
1025
1026
1027
1029
1030
1031
1029
1025
1021
1016
1013
1010
1006
1000
995
989
986
982
982
980
979
972
966
959
951
944
940
939
939
936
933
930
924
920
916
915
914
911
912
913
914
910
908
909
910
908
907
909
912
911
912
919
927
934
941
946
947
945
949
951
952
954
956
958
955
951
944
933
922
908
900
893
886
880
877
872
874
876
880
885
885
883
879
878
874
873
872
874
879
881
881
882
881
882
881
878
878
875
871
867
869
875
892
922
968
1023
1092
1172
1260
1343
1404
1429
1409
1349
1263
1162
1061
973
901
847
806
779
770
774
790
812
831
847
852
851
843
836
828
822
817
818
822
826
826
827
820
818
815
814
813
811
811
808
808
805
806
808
810
811
808
810
807
803
805
807
814
818
820
823
826
832
836
841
847
851
855
859
864
870
878
893
903
911
917
924
932
940
953
965
973
983
990
995
1001
1007
1014
1020
1022
1026
1029
1030
1035
1038
1043
1045
1051
1050
1047
1043
1037
1034
1032
1032
1033
1032
1029
1026
1019
1015
1010
1005
1002
999
992
987
985
981
978
975
972
968
962
953
949
940
937
938
937
936
935
930
928
927
926
925
923
920
918
917
922
927
937
947
954
957
959
957
961
966
970
978
979
982
979
976
969
961
949
936
924
909
902
899
901
907
911
912
912
909
904
901
898
897
896
897
901
902
906
907
912
915
914
912
907
902
894
893
893
903
923
953
997
1046
1105
1179
1262
1342
1398
1413
1376
1298
1199
1091
995
913
852
812
781
766
764
773
790
815
836
852
859
858
850
845
840
840
838
839
839
836
835
833
834
835
833
832
824
818
820
823
821
826
831
832
833
830
831
831
833
835
839
841
845
846
850
856
862
868
875
878
878
881
883
889
896
907
915
921
931
934
936
941
947
954
962
970
977
986
990
1000
1007
1012
1017
1021
1027
1029
1032
1036
1041
1046
1051
1054
1053
1051
1047
1044
1041
1038
1037
1036
1032
1030
1025
1020
1018
1016
1014
1009
1007
999
991
985
978
976
973
972
969
963
959
950
944
939
937
936
934
932
930
925
920
918
915
911
912
912
909
909
908
911
913
911
917
918
917
913
911
912
915
924
932
945
950
958
964
969
971
973
979
977
975
970
966
958
954
946
939
931
923
912
905
905
903
903
906
908
910
909
909
906
905
906
908
908
907
905
905
904
906
910
910
911
910
905
900
897
902
919
949
994
1049
1115
1187
1266
1342
1407
1441
1435
1387
1308
1215
1119
1029
952
888
835
796
771
762
773
794
818
839
857
863
864
859
851
842
839
835
837
834
834
831
833
832
834
833
836
834
832
829
829
826
827
829
830
831
830
833
829
832
833
835
836
837
838
840
843
848
854
860
865
871
874
875
877
882
886
896
905
912
919
925
931
935
943
947
956
961
967
973
981
990
1001
1007
1014
1022
1025
1030
1031
1034
1037
1047
1049
1050
1051
1047
1045
1043
1042
1038
1034
1027
1021
1016
1012
1008
1006
1004
1000
993
985
978
973
966
962
958
954
950
946
944
941
937
934
932
926
923
919
919
921
922
922
922
921
919
919
920
927
932
941
948
953
957
962
968
976
979
983
978
975
970
965
959
953
946
937
928
918
909
900
898
898
898
898
900
898
897
900
902
904
906
902
902
899
898
896
898
902
903
904
903
901
897
892
892
897
915
950
994
1058
1135
1223
1316
1401
1464
1493
1480
1427
1343
1245
1138
1044
964
897
840
805
785
785
801
826
850
864
872
866
861
855
849
848
847
847
844
843
840
837
834
836
837
835
836
832
830
827
828
829
827
828
826
827
828
828
830
832
832
834
833
832
831
836
843
848
854
860
864
868
871
877
881
887
893
900
906
916
921
932
942
954
960
965
972
979
984
989
997
1007
1017
1025
1032
1036
1042
1044
1048
1051
1055
1059
1060
1062
1062
1062
1060
1061
1059
1058
1056
1051
1045
1040
1036
1036
1035
1036
1033
1027
1021
1014
1007
1003
1001
994
992
987
980
974
972
969
969
966
962
957
950
945
942
946
945
946
945
945
943
940
937
937
938
943
945
952
956
961
967
972
977
979
979
981
982
980
985
987
987
985
977
967
951
937
926
916
911
906
907
906
908
907
909
909
910
910
907
908
904
900
905
908
907
913
911
909
909
905
901
905
905
907
908
914
931
967
1017
1083
1169
1257
1347
1415
1444
1423
1360
1268
1166
1066
980
916
869
838
818
806
806
816
836
857
875
882
885
881
874
866
862
856
853
856
857
859
861
860
859
856
852
848
846
847
848
848
847
849
849
850
855
854
856
854
857
857
861
864
869
874
879
883
885
892
896
904
909
914
920
927
935
940
947
958
966
974
978
986
990
999
1008
1019
1026
1036
1043
1047
1051
1055
1061
1065
1069
1071
1071
1071
1072
1071
1074
1079
1077
1078
1072
1063
1057
1051
1048
1043
1045
1040
1034
1029
1021
1018
1013
1012
1011
1008
1001
993
983
977
974
972
968
965
961
954
951
944
938
935
933
929
926
926
923
923
921
920
919
918
918
917
920
923
925
934
941
949
953
957
963
967
970
977
982
986
989
992
988
986
980
972
960
949
939
927
916
915
912
915
919
920
920
918
913
910
910
909
911
913
915
917
918
916
916
916
917
914
913
910
907
905
906
906
907
912
923
943
981
1028
1088
1162
1248
1332
1400
1441
1439
1393
1314
1220
1117
1020
942
875
823
787
767
762
776
797
820
842
855
862
861
858
855
850
848
850
850
850
847
845
847
846
846
841
843
841
841
843
844
846
845
843
842
842
841
841
842
846
850
854
855
857
858
860
863
867
873
877
882
885
887
890
895
900
904
909
916
923
927
930
938
945
949
963
970
980
985
991
994
1000
1007
1014
1024
1025
1035
1041
1041
1046
1049
1054
1057
1060
1060
1057
1057
1056
1057
1057
1056
1054
1048
1042
1033
1030
1027
1022
1023
1019
1012
1006
1002
997
991
988
983
975
970
963
957
953
951
951
950
948
943
937
931
931
931
934
933
934
935
935
937
936
938
938
939
943
947
951
957
968
976
982
987
990
992
994
993
998
995
993
986
976
965
953
941
933
929
924
920
915
915
916
917
918
918
919
918
918
917
917
917
919
919
919
918
917
913
912
912
913
909
904
901
901
916
942
987
1045
1116
1202
1289
1370
1428
1443
1412
1344
1250
1144
1042
952
882
828
793
779
776
788
806
829
847
864
868
871
866
861
857
849
848
849
848
848
845
843
842
840
838
842
842
844
843
838
835
832
830
832
836
838
840
842
842
844
845
848
851
853
856
856
860
865
870
880
887
893
901
902
907
916
922
933
940
948
955
961
969
976
985
994
1002
1008
1015
1022
1029
1038
1047
1054
1058
1063
1065
1065
1067
1067
1069
1070
1071
1072
1071
1067
1066
1064
1061
1057
1055
1050
1042
1038
1031
1025
1026
1021
1020
1017
1012
1005
1000
991
988
984
983
979
975
972
969
964
960
954
954
949
947
942
943
943
942
947
950
948
948
944
943
945
951
955
965
971
979
985
988
989
992
995
1000
1002
998
993
987
981
975
966
958
951
945
937
927
920
914
914
913
916
920
922
920
917
916
916
917
915
914
912
914
915
916
918
921
923
921
919
913
911
907
908
919
940
974
1016
1070
1137
1212
1292
1369
1425
1459
1456
1419
1355
1275
1192
1107
1028
959
902
855
824
811
815
833
855
874
886
890
886
878
868
860
858
857
860
864
864
864
863
862
860
858
857
859
857
855
852
851
853
853
856
858
859
859
859
855
855
855
858
862
865
870
876
876
880
886
893
899
904
914
916
923
928
936
944
953
961
969
976
979
983
989
997
1010
1021
1031
1038
1047
1053
1057
1065
1070
1077
1084
1086
1090
1096
1095
1097
1103
1106
1107
1103
1103
1097
1091
1087
1085
1084
1084
1080
1074
1070
1065
1059
1053
1050
1045
1038
1034
1029
1024
1023
1020
1019
1016
1010
1004
996
988
983
980
978
976
974
970
967
965
962
961
960
957
954
952
950
946
947
952
955
962
968
970
975
980
988
996
1001
1007
1010
1012
1014
1014
1012
1012
1006
1003
998
987
976
965
956
949
946
945
939
938
936
936
936
937
940
942
942
942
939
941
940
938
938
937
935
939
941
940
941
942
941
941
943
948
962
993
1036
1091
1157
1227
1296
1359
1401
1416
1401
1353
1278
1188
1101
1017
943
886
845
822
814
821
836
853
867
878
883
884
883
880
878
874
871
869
868
868
865
866
866
865
864
863
863
861
861
859
860
858
857
857
857
860
866
868
871
874
875
877
876
877
881
887
892
894
899
904
910
914
921
927
931
937
943
947
950
957
963
971
977
984
990
998
1003
1009
1015
1023
1025
1035
1041
1046
1054
1057
1063
1068
1072
1073
1073
1073
1072
1074
1074
1077
1077
1075
1071
1068
1062
1052
1049
1048
1047
1043
1040
1034
1030
1025
1021
1019
1010
1007
1003
995
988
984
983
979
979
975
972
966
961
956
950
950
950
949
951
948
948
945
945
945
944
947
945
945
944
947
953
957
966
974
978
984
985
988
991
996
999
1004
1006
1007
1005
1002
998
989
979
969
958
948
940
935
933
934
938
941
941
940
939
936
931
931
930
930
933
935
935
938
936
940
940
939
939
938
937
936
932
931
932
936
947
967
1002
1047
1105
1172
1248
1328
1390
1432
1436
1404
1342
1264
1183
1108
1037
973
918
867
828
805
800
813
837
859
878
887
886
879
871
868
