867
865
866
867
867
864
863
860
858
857
855
854
854
852
853
854
853
856
853
855
851
849
852
855
857
858
863
866
866
870
873
879
883
886
890
895
902
905
913
921
928
935
937
941
945
951
955
966
974
984
994
1004
1012
1017
1024
1030
1040
1047
1051
1059
1064
1067
1074
1080
1082
1083
1086
1082
1079
1078
1075
1075
1074
1074
1074
1070
1066
1062
1055
1048
1042
1039
1033
1026
1021
1016
1014
1011
1012
1010
1006
1000
993
988
981
979
977
976
973
972
966
961
960
960
962
962
960
958
955
956
959
962
967
975
982
985
994
996
999
1006
1012
1018
1020
1018
1018
1013
1007
1001
993
979
968
956
948
942
940
939
938
938
935
934
932
929
930
931
930
935
935
935
935
935
937
938
938
937
936
932
929
927
924
926
933
952
988
1040
1104
1185
1276
1361
1429
1462
1453
1403
1334
1254
1168
1084
1006
937
878
832
808
806
824
850
877
895
901
893
885
881
876
869
871
871
870
868
869
867
866
864
862
859
854
852
850
850
854
854
855
853
850
846
847
847
849
851
854
855
854
858
863
866
873
873
878
881
886
891
898
906
916
924
931
937
941
948
951
961
971
982
991
999
1006
1017
1027
1034
1044
1050
1054
1062
1064
1069
1077
1080
1087
1090
1092
1092
1090
1089
1091
1092
1091
1091
1089
1085
1080
1076
1073
1071
1067
1063
1057
1048
1042
1036
1034
1036
1037
1034
1031
1025
1017
1010
1005
1001
997
994
991
984
982
981
978
976
975
971
970
967
961
959
959
963
969
973
979
982
985
989
993
999
1005
1010
1017
1021
1026
1030
1033
1032
1027
1021
1013
1001
989
978
971
969
963
962
959
956
953
950
947
945
946
947
951
951
953
955
952
953
954
950
950
948
944
941
945
949
952
954
954
951
952
961
985
1019
1065
1120
1182
1248
1318
1380
1427
1434
1396
1327
1231
1128
1031
950
889
849
825
821
825
841
864
882
897
903
905
903
899
895
890
889
885
883
885
886
884
882
878
874
871
870
869
876
879
879
877
875
874
872
874
876
880
884
886
888
889
895
899
902
904
909
912
913
922
929
938
946
951
956
958
959
962
966
975
986
995
1008
1017
1023
1029
1037
1043
1050
1054
1063
1067
1073
1076
1085
1090
1093
1099
1106
1105
1106
1103
1103
1102
1101
1100
1099
1097
1096
1092
1088
1082
1078
1072
1066
1059
1053
1049
1045
1044
1040
1038
1035
1029
1023
1018
1012
1009
1007
1001
994
988
981
975
970
969
970
967
963
959
952
950
950
953
956
959
960
959
955
953
956
958
964
970
979
990
995
1004
1006
1010
1013
1019
1018
1019
1019
1017
1015
1010
1005
993
981
969
959
951
947
945
942
942
945
946
947
948
949
951
950
950
949
947
945
946
950
954
957
955
953
951
949
945
946
948
961
986
1030
1082
1150
1225
1298
1368
1416
1443
1440
1402
1339
1263
1181
1097
1022
954
892
843
813
804
813
837
863
885
898
905
903
897
896
890
886
881
880
875
873
870
874
876
878
878
875
872
871
871
870
870
867
868
869
871
873
876
879
879
879
879
882
885
889
895
901
907
912
917
921
926
931
937
942
946
950
956
962
971
981
988
996
1003
1009
1011
1019
1024
1032
1041
1049
1060
1064
1067
1073
1075
1079
1085
1086
1088
1085
1084
1085
1086
1091
1090
1086
1080
1075
1070
1064
1059
1059
1056
1055
1047
1043
1039
1033
1031
1022
1021
1015
1007
1003
997
995
989
990
987
983
977
972
966
962
960
961
965
966
965
966
961
960
959
958
961
965
967
972
981
987
994
1004
1011
1017
1018
1021
1019
1020
1021
1018
1020
1018
1013
1004
992
980
969
960
952
946
940
938
937
937
939
943
943
947
945
942
940
939
937
937
939
942
945
946
946
946
945
942
942
940
940
945
959
990
1037
1096
1171
1254
1335
1404
1449
1461
1439
1390
1314
1227
1136
1045
967
902
851
820
816
826
846
871
891
902
904
901
897
889
884
881
879
878
879
879
881
878
878
876
871
872
873
873
870
870
868
864
865
866
869
871
876
875
876
875
874
876
878
882
889
896
900
904
910
918
926
933
941
946
952
956
960
967
973
981
993
1002
1010
1018
1024
1029
1038
1046
1057
1066
1073
1082
1088
1095
1100
1102
1106
1111
1109
1107
1110
1111
1112
1114
1117
1115
1112
1104
1100
1093
1089
1089
1085
1082
1076
1073
1069
1065
1062
1059
1056
1053
1046
1038
1030
1028
1026
1024
1022
1019
1015
1008
999
995
990
988
988
988
983
983
982
981
982
979
979
979
979
980
984
987
998
1006
1018
1018
1022
1026
1025
1027
1028
1031
1032
1033
1030
1027
1015
1004
990
980
969
961
952
948
946
945
946
950
952
954
954
949
946
945
944
944
949
950
952
953
952
952
950
950
947
946
945
942
940
940
946
965
999
1043
1096
1152
1217
1282
1352
1408
1439
1439
1403
1338
1258
1163
1071
987
920
864
830
815
822
842
869
894
912
917
916
907
893
887
882
881
880
883
885
886
885
882
880
877
875
874
871
869
866
865
863
865
868
869
871
873
871
869
868
866
867
869
876
880
885
886
885
889
892
898
903
911
914
922
926
935
945
953
962
969
975
978
979
983
992
1002
1014
1025
1037
1043
1051
1060
1064
1071
1079
1084
1091
1097
1101
1103
1108
1110
1111
1111
1109
1108
1103
1102
1100
1100
1098
1100
1100
1099
1093
1087
1083
1075
1070
1066
1064
1062
1057
1049
1048
1043
1038
1035
1033
1031
1028
1024
1019
1013
1006
1002
1001
999
994
989
981
975
975
975
979
984
986
985
982
979
975
972
974
977
988
993
1000
1010
1016
1022
1027
1035
1037
1039
1039
1037
1034
1028
1025
1021
1016
1010
998
985
971
960
954
953
954
953
956
957
954
955
956
955
955
956
955
955
956
954
954
954
955
958
959
957
956
949
946
943
944
951
968
996
1032
1079
1130
1191
1256
1325
1382
1422
1432
1400
1337
1257
1172
1087
1013
949
898
857
828
809
807
824
850
878
898
908
907
901
895
890
885
883
883
884
883
883
882
883
884
883
879
876
873
870
870
871
874
875
876
879
880
878
878
877
879
882
884
888
891
892
897
904
910
913
920
923
925
929
931
940
947
958
967
977
984
990
994
999
1004
1010
1019
1025
1034
1040
1047
1055
1063
1070
1079
1085
1089
1089
1091
1096
1100
1103
1106
1106
1104
1103
1100
1096
1093
1089
1087
1081
1075
1070
1070
1066
1067
1064
1057
1050
1045
1038
1030
1025
1019
1018
1018
1013
1009
1002
998
990
986
983
977
973
969
965
961
959
960
961
961
959
957
952
952
952
953
955
959
963
963
965
971
977
984
989
992
998
1003
1007
1012
1017
1023
1028
1031
1027
1023
1013
1004
993
982
974
964
959
952
949
948
947
947
948
949
945
942
941
940
942
944
947
947
945
947
947
945
943
946
944
942
939
937
937
940
958
987
1028
1084
1150
1226
1306
1377
1425
1436
1399
1335
1247
1150
1058
981
917
863
821
796
793
805
827
855
878
892
896
894
889
881
876
877
878
879
880
879
876
869
867
865
864
864
865
865
860
862
862
858
859
862
861
861
859
856
856
857
861
865
872
874
877
878
878
881
886
892
898
903
907
910
915
924
929
936
943
947
954
959
965
973
980
988
998
1005
1014
1017
1021
1026
1031
1041
1049
1058
1065
1070
1076
1077
1081
1082
1087
1087
1086
1088
1087
1086
1086
1086
1085
1085
1081
1079
1073
1065
1059
1054
1049
1047
1045
1043
1040
1033
1028
1020
1017
1010
1005
1003
998
993
986
983
981
981
978
977
974
970
965
960
961
961
965
967
964
965
966
967
972
978
980
992
998
1003
1006
1009
1016
1017
1018
1022
1021
1019
1012
1006
998
992
981
972
961
954
944
938
932
932
930
929
929
932
932
933
932
930
933
935
933
929
928
927
931
931
936
938
940
934
929
923
921
915
923
937
967
1006
1058
1125
1202
1286
1365
1427
1458
1452
1407
1336
1254
1165
1078
999
932
870
826
805
807
824
851
879
898
905
905
895
885
877
873
873
872
873
870
869
867
864
864
865
864
863
859
854
852
848
847
847
849
851
851
851
850
848
849
850
852
853
857
858
863
866
872
878
885
890
890
894
897
902
911
924
935
945
954
964
975
983
994
1004
1010
1016
1022
1029
1035
1042
1056
1064
1072
1074
1078
1084
1088
1095
1099
1101
1100
1099
1094
1093
1092
1094
1093
1091
1086
1079
1072
1067
1064
1061
1060
1061
1058
1056
1048
1043
1037
1031
1026
1023
1014
1014
1010
1007
1006
1003
1003
1000
996
988
982
977
975
975
976
975
974
973
972
972
974
976
981
987
991
998
1004
1010
1018
1026
1033
1036
1037
1035
1034
1031
1029
1021
1011
997
980
972
961
958
952
953
953
952
952
952
952
953
954
954
953
949
950
948
952
954
953
952
952
949
949
944
941
933
925
919
924
950
995
1069
1163
1271
1372
1444
1479
1462
1408
1317
1204
1076
948
843
774
747
756
783
816
846
869
881
885
885
886
883
885
882
879
877
875
871
869
869
870
870
867
866
864
860
859
859
860
860
862
859
856
854
856
858
863
866
869
869
869
873
874
878
883
889
896
900
904
907
911
918
922
928
934
939
946
955
962
971
980
990
997
1003
1006
1010
1015
1019
1026
1034
1042
1051
1058
1066
1067
1075
1075
1079
1079
1077
1075
1074
1077
1078
1078
1079
1077
1070
1064
1056
1051
1048
1045
1042
1035
1030
1023
1019
1012
1009
1004
999
992
986
980
974
973
973
973
972
970
965
957
951
945
941
941
939
940
940
940
942
945
946
946
946
947
945
944
946
949
956
961
973
980
985
990
991
995
1000
1005
1008
1015
1018
1019
1014
1015
1011
1005
996
982
967
954
944
938
936
937
940
941
941
939
935
931
931
932
934
937
939
940
941
942
938
941
940
939
935
930
927
923
922
920
926
942
967
1001
1050
1108
1181
1263
1344
1406
1438
1427
1375
1298
1206
1109
1024
949
885
830
793
772
775
793
821
847
869
882
886
882
876
868
866
865
866
867
867
865
864
861
858
856
854
851
850
849
851
853
856
856
856
853
852
850
850
848
850
855
858
860
863
866
871
874
879
882
885
886
889
895
900
908
919
927
933
938
942
946
952
959
968
979
989
997
1005
1011
1018
1026
1035
1044
1048
1054
1055
1060
1065
1070
1076
1081
1085
1087
1086
1086
1084
1083
1082
1081
1080
1078
1074
1068
1065
1063
1058
1055
1050
1044
1034
1032
1025
1022
1018
1014
1013
1007
1002
994
988
982
979
978
978
972
967
965
963
962
962
958
960
957
957
955
956
961
964
973
980
986
988
991
994
999
1003
1010
1014
1017
1020
1020
1019
1014
1008
997
987
975
959
952
946
940
939
937
938
935
931
929
927
926
925
929
931
929
931
930
928
925
924
930
931
929
929
926
926
922
923
921
921
921
930
948
980
1023
1075
1133
1203
1276
1351
1410
1441
1434
1388
1323
1244
1154
1065
986
918
863
819
800
801
816
840
863
882
890
889
883
878
872
872
870
867
865
862
861
859
858
858
857
855
854
852
851
848
850
848
848
847
845
842
838
838
837
841
844
848
847
848
847
847
848
850
856
861
866
875
878
882
888
894
900
907
913
918
924
933
942
953
961
973
978
987
992
999
1005
1014
1021
1033
1042
1049
1055
1061
1067
1073
1077
1085
1087
1088
1089
1088
1087
1086
1089
1089
1086
1084
1079
1073
1067
1065
1062
1060
1064
1058
1056
1051
1046
1044
1040
1035
1034
1027
1022
1019
1013
1009
1008
1005
1006
1004
997
993
985
980
977
975
973
975
976
975
973
971
967
966
966
966
968
972
978
986
994
1003
1011
1012
1016
1015
1016
1016
1021
1026
1029
1030
1026
1016
1006
994
980
967
960
953
948
949
948
949
952
955
956
953
950
947
943
940
944
948
951
954
953
953
949
948
947
944
940
938
939
938
952
977
1017
1071
1133
1206
1284
1357
1408
1415
1381
1308
1211
1106
1010
934
880
846
825
812
808
817
836
861
883
901
906
903
896
886
877
874
873
874
875
875
876
872
871
869
867
867
868
867
864
859
860
861
866
871
875
876
873
872
874
875
877
881
890
894
895
898
901
906
915
920
930
934
940
943
949
955
963
974
982
987
993
997
1003
1009
1017
1023
1033
1041
1049
1056
1060
1068
1076
1083
1088
1088
1090
1089
1089
1091
1092
1095
1094
1094
1090
1083
1077
1072
1067
1068
1064
1061
1059
1055
1049
1048
1044
1038
1035
1029
1025
1017
1013
1008
1006
1004
1002
996
989
981
970
964
961
959
957
956
953
953
953
953
951
949
951
947
945
943
943
946
944
949
954
960
965
968
974
978
981
988
995
999
1006
1010
1014
1017
1017
1017
1014
1006
998
985
975
963
956
950
947
944
942
939
941
936
935
937
937
939
938
941
939
937
935
937
939
939
939
939
937
936
936
937
937
937
935
933
934
942
964
1003
1056
1121
1195
1272
1346
1404
1430
1418
1372
1303
1225
1143
1063
995
934
882
839
806
791
795
810
833
857
873
883
889
885
880
875
869
866
864
862
861
864
862
862
862
859
860
859
859
857
856
856
853
850
850
851
856
857
862
861
862
860
862
863
866
870
875
882
884
891
894
898
904
909
915
920
923
924
930
934
944
952
964
974
981
989
993
997
1003
1010
1018
1027
1036
1043
1050
1053
1059
1065
1071
1076
1077
1081
1081
1083
1082
1083
1084
1084
1085
1083
1078
1074
1070
1067
1066
1065
1063
1061
1055
1051
1047
1041
1035
1030
1027
1019
1011
1005
1001
997
995
993
988
985
981
976
970
965
962
964
965
964
963
963
960
960
958
961
961
962
967
973
979
987
998
1005
1011
1014
1013
1013
1013
1016
1016
1016
1011
1004
994
981
968
960
952
946
941
932
929
927
926
928
930
931
933
927
928
925
923
922
926
928
929
927
928
926
929
928
928
923
920
917
918
926
949
989
1042
1103
1170
1246
1316
1377
1420
1434
1414
1363
1293
1215
1128
1043
963
895
843
805
793
801
820
847
872
888
895
892
885
878
868
860
857
857
860
861
863
863
860
857
855
855
851
850
850
850
847
846
844
841
845
846
847
848
846
846
845
848
850
854
857
865
867
871
877
880
889
892
899
903
906
913
919
930
941
951
961
969
974
980
989
997
1007
1017
1029
1037
1040
1045
1052
1060
1067
1073
1076
1082
1081
1086
1087
1090
1093
1094
1095
1091
1087
1082
1080
1078
1077
1075
1075
1072
1069
1066
1064
1056
1054
1051
1047
1041
1038
1031
1027
1022
1021
1021
1017
1013
1010
1002
996
991
985
983
982
980
981
981
978
974
972
970
970
970
967
967
968
970
972
979
987
994
997
1001
1002
1003
1005
1009
1015
1022
1024
1026
1027
1022
1014
1004
993
982
972
963
955
949
946
940
939
939
938
940
936
931
928
930
930
933
938
940
938
938
935
934
931
931
935
937
938
940
938
934
928
922
924
934
954
988
1035
1091
1161
1235
1316
1393
1448
1465
1449
1395
1322
1237
1149
1063
990
930
878
841
820
819
834
857
883
901
908
906
899
892
887
886
886
888
886
883
880
872
870
871
873
874
879
880
879
878
872
871
873
873
875
876
874
876
877
879
882
882
885
888
892
892
895
901
908
914
923
930
934
938
940
946
950
957
967
978
987
995
999
1008
1014
1022
1033
1042
1050
1055
1059
1065
1072
1080
1087
1094
1097
1096
1101
1102
1103
1106
1108
1112
1116
1113
1113
1109
1104
1101
1099
1097
1095
1090
1087
1081
1078
1075
1069
1069
1066
1058
1051
1043
1038
1034
1027
1023
1021
1018
1013
1008
999
997
994
987
983
977
971
967
965
963
959
959
959
956
955
952
951
951
951
956
960
962
965
969
976
984
991
1001
1006
1009
1010
1012
1016
1018
1023
1023
1019
1013
1000
983
971
958
949
944
939
938
939
938
940
943
942
943
941
939
935
934
934
937
937
940
940
941
939
938
937
936
938
935
935
930
929
935
952
986
1032
1091
1159
1234
1311
1379
1427
1436
1405
1337
1246
1143
1042
954
882
827
795
779
784
807
834
864
884
895
897
890
880
872
866
864
866
869
869
870
866
863
860
857
854
851
854
855
857
856
857
857
858
859
862
862
861
863
862
865
869
878
884
891
896
901
904
907
910
916
923
929
934
940
944
951
959
969
978
985
990
995
996
1002
1013
1023
1030
1036
1046
1046
1051
1055
1058
1065
1074
1078
1080
1082
1083
1083
1085
1088
1088
1088
1088
1084
1076
1076
1068
1065
1064
1063
1060
1056
1049
1042
1036
1031
1028
1024
1021
1018
1012
1004
1000
996
991
989
982
976
969
966
964
963
963
965
964
963
960
955
954
949
953
956
954
953
954
958
958
964
968
976
980
988
993
999
1004
1010
1016
1022
1025
1025
1023
1016
1014
1007
999
991
980
967
955
946
939
935
934
935
937
936
935
933
931
931
931
933
934
934
935
933
930
929
930
930
931
931
931
928
926
921
920
919
926
938
966
1006
1056
1117
1184
1265
1341
1402
1429
1412
1358
1279
1185
1086
1001
929
868
823
787
774
782
804
833
859
879
887
884
877
871
870
866
864
866
864
862
861
859
858
858
859
860
857
856
851
846
846
846
847
845
844
845
846
845
849
852
855
854
855
855
855
858
866
870
878
882
886
891
893
898
907
914
921
929
936
942
949
959
972
981
992
999
1004
1007
1012
1016
1023
1033
1045
1052
1059
1064
1069
1073
1078
1082
1085
1086
1086
1084
1084
1083
1085
1085
1083
1081
1075
1068
1064
1060
1058
1056
1053
1052
1048
1044
1037
1033
1028
1023
1015
1010
1005
1002
996
995
995
994
991
984
980
977
971
967
969
970
971
970
969
966
966
968
971
975
980
981
984
989
996
1002
1010
1015
1019
1023
1020
1019
1017
1014
1008
1000
989
976
965
953
944
939
937
936
935
932
930
930
933
935
936
939
936
935
934
931
929
932
931
933
934
934
934
933
933
929
925
927
934
953
988
1042
1105
1183
1271
1353
1417
1442
1423
1366
1286
1193
1098
1014
944
886
845
821
819
834
858
882
899
903
902
897
891
888
888
887
886
884
883
883
882
882
880
878
877
877
880
881
884
883
881
876
871
869
870
875
879
885
886
890
891
895
900
903
908
912
916
919
925
932
944
951
962
969
972
982
990
998
1008
1017
1026
1032
1038
1043
1052
1056
1061
1068
1075
1082
1089
1095
1098
1103
1106
1110
1113
1114
1112
1109
1105
