998
992
992
991
993
992
986
981
975
971
968
966
964
964
963
963
962
964
964
966
966
965
965
968
972
980
989
998
1005
1011
1014
1017
1018
1020
1019
1020
1019
1014
1007
997
987
976
968
959
949
943
935
933
932
932
932
935
939
941
939
938
935
933
932
934
933
935
934
936
934
932
933
932
932
929
927
929
940
966
1012
1069
1141
1225
1308
1378
1417
1419
1378
1306
1218
1128
1039
965
910
865
833
811
802
812
831
850
870
882
884
882
876
871
868
864
860
863
862
865
862
862
859
859
857
855
855
857
855
854
851
848
847
848
851
854
856
858
855
855
856
858
862
864
868
871
876
883
887
894
903
910
915
924
926
929
935
943
952
962
973
984
991
998
1005
1014
1021
1031
1037
1044
1051
1054
1063
1069
1077
1084
1086
1089
1087
1088
1089
1091
1093
1093
1093
1090
1089
1086
1083
1079
1076
1072
1066
1062
1056
1054
1051
1048
1047
1040
1035
1025
1019
1014
1012
1010
1009
1005
1000
997
989
985
980
980
977
974
971
968
967
965
967
968
971
970
969
967
968
971
977
983
994
1002
1008
1011
1015
1019
1023
1025
1025
1026
1017
1010
1001
993
985
977
969
962
953
943
938
936
937
935
937
938
936
936
935
935
937
941
940
943
939
937
939
940
941
944
947
944
941
936
935
944
964
1000
1050
1112
1185
1263
1344
1406
1435
1418
1359
1279
1192
1107
1027
965
908
865
831
811
806
815
836
862
883
900
902
899
891
884
879
877
875
876
875
873
870
866
864
863
863
865
867
867
867
866
863
861
862
863
866
867
867
867
870
872
873
877
881
884
886
888
891
895
902
911
919
924
931
933
937
938
944
951
961
971
980
987
994
1000
1001
1008
1016
1022
1032
1038
1045
1053
1061
1070
1077
1084
1084
1088
1086
1085
1084
1087
1093
1098
1098
1098
1093
1087
1081
1077
1074
1072
1066
1062
1056
1051
1045
1043
1043
1044
1036
1030
1020
1013
1009
1006
1000
1000
996
991
985
976
972
966
963
961
958
955
950
947
946
947
948
947
946
942
938
934
934
939
944
952
957
963
967
969
976
981
988
998
1005
1008
1011
1010
1008
1006
1003
998
991
979
964
953
941
929
929
929
929
933
936
937
937
935
933
932
930
928
929
929
929
925
929
932
933
932
932
930
926
923
920
917
918
927
944
976
1016
1066
1124
1186
1260
1334
1397
1434
1434
1392
1323
1241
1148
1060
986
924
868
822
788
774
775
794
818
839
858
873
875
872
868
865
861
858
859
860
861
858
857
855
857
852
849
850
845
846
849
851
853
855
854
851
849
847
849
851
857
863
865
871
869
868
874
873
877
883
888
893
897
903
907
914
920
928
934
939
943
945
950
955
962
973
982
990
996
1002
1006
1014
1016
1022
1031
1038
1043
1052
1055
1062
1068
1071
1073
1076
1074
1073
1070
1068
1069
1070
1072
1072
1070
1066
1058
1053
1049
1046
1043
1043
1039
1035
1029
1023
1017
1011
1007
1004
999
992
987
982
976
975
970
971
968
964
961
956
952
949
948
948
950
951
952
951
951
950
950
954
956
957
962
966
974
979
984
995
1000
1007
1011
1010
1009
1006
1006
1004
1003
998
990
978
965
952
944
934
928
927
923
923
921
920
920
923
924
924
925
921
918
917
915
916
919
921
923
921
918
918
915
909
908
907
906
913
930
963
1011
1072
1144
1228
1311
1378
1427
1442
1417
1363
1291
1211
1131
1047
976
909
850
805
777
772
787
810
836
859
872
875
869
864
857
851
848
848
845
842
841
842
843
844
844
843
837
834
831
831
827
830
831
830
832
830
828
827
829
828
830
830
831
831
832
833
838
843
847
853
857
856
857
861
862
866
875
885
892
899
903
909
917
926
933
942
948
955
963
971
980
991
1001
1009
1017
1022
1026
1030
1032
1038
1043
1051
1055
1059
1062
1064
1063
1063
1065
1065
1059
1055
1052
1049
1046
1048
1046
1045
1041
1036
1030
1024
1017
1012
1012
1009
1007
1003
997
991
985
980
977
972
970
965
960
956
956
956
958
955
955
954
949
945
942
939
943
946
951
958
964
970
977
982
986
989
990
994
996
998
999
1000
997
991
979
966
949
935
926
918
917
915
916
916
915
914
915
914
914
909
909
909
910
910
911
915
917
917
915
912
910
908
906
903
904
903
904
914
939
982
1044
1117
1202
1295
1375
1428
1449
1425
1370
1292
1198
1104
1016
939
875
827
798
790
797
822
844
867
877
879
875
867
859
855
849
848
848
848
850
852
851
849
845
840
835
835
832
831
832
833
833
832
833
832
833
835
834
834
833
835
836
842
845
851
857
860
863
864
868
871
879
886
894
902
906
914
921
929
940
948
957
963
967
971
978
987
998
1010
1020
1030
1036
1044
1050
1054
1058
1065
1068
1070
1070
1073
1073
1078
1077
1076
1072
1067
1063
1058
1055
1058
1058
1058
1056
1052
1048
1041
1035
1034
1028
1024
1019
1014
1008
1005
1003
998
994
987
982
975
970
965
966
964
964
963
960
959
956
954
953
955
955
956
957
963
968
976
981
986
990
991
994
994
996
998
1003
1008
1011
1010
1008
1001
991
979
965
954
943
937
929
924
921
919
922
922
925
925
923
923
920
915
915
915
918
919
921
921
917
915
913
909
910
914
916
916
912
912
912
922
943
977
1024
1080
1146
1222
1302
1370
1419
1432
1406
1349
1274
1187
1108
1030
966
909
866
833
812
806
815
833
851
868
878
880
873
867
861
854
852
853
854
857
858
861
855
850
846
842
845
842
843
845
850
849
847
845
846
847
848
849
852
856
858
865
870
876
881
881
883
885
888
892
901
910
920
928
935
940
950
956
963
972
981
989
996
1003
1009
1014
1023
1031
1039
1043
1048
1053
1056
1061
1068
1076
1081
1086
1089
1086
1084
1081
1081
1083
1082
1080
1079
1079
1075
1073
1070
1067
1063
1061
1054
1049
1042
1037
1035
1034
1032
1030
1026
1020
1010
1003
996
991
986
980
973
971
964
959
957
954
952
946
943
938
934
933
936
938
939
938
937
935
936
938
946
951
958
963
970
975
983
992
997
1004
1006
1006
1001
997
991
983
975
966
954
943
935
928
925
924
925
926
926
924
926
922
921
924
926
929
930
927
923
921
922
923
924
925
927
922
923
918
924
935
959
999
1051
1118
1198
1283
1357
1403
1400
1354
1273
1171
1070
980
909
856
819
794
778
779
793
814
836
856
868
871
867
861
857
855
856
856
856
852
848
848
847
848
846
845
844
843
845
846
847
850
848
849
847
847
847
849
854
860
868
871
875
877
877
880
886
892
894
898
906
911
918
924
936
941
947
952
954
959
962
970
982
991
1002
1010
1015
1021
1028
1034
1038
1045
1050
1053
1055
1060
1063
1068
1073
1070
1069
1067
1063
1061
1060
1057
1054
1051
1047
1042
1040
1036
1034
1034
1026
1021
1013
1007
1002
1001
998
994
990
984
976
968
960
956
954
951
949
947
943
941
940
942
945
943
938
939
937
934
933
935
941
945
948
952
959
965
970
978
982
987
992
998
1001
1004
1006
1007
1005
1001
992
980
966
952
943
938
933
931
930
928
923
922
920
919
920
920
923
923
918
920
920
922
924
926
924
920
916
915
915
912
911
910
906
907
910
923
948
984
1038
1101
1179
1258
1336
1392
1418
1399
1348
1271
1178
1083
994
921
864
817
786
773
778
794
817
840
857
866
867
864
857
852
847
847
849
847
847
848
847
844
841
838
834
833
834
836
837
837
837
835
833
831
831
832
836
836
840
842
841
845
848
855
858
860
864
864
867
871
878
886
892
900
906
910
913
919
926
933
946
954
961
965
975
981
990
999
1006
1013
1018
1024
1031
1039
1048
1055
1062
1065
1067
1067
1068
1067
1067
1066
1067
1065
1064
1060
1055
1054
1050
1046
1041
1034
1026
1023
1016
1014
1012
1010
1007
999
992
982
980
975
972
967
966
961
957
955
954
951
951
947
944
941
939
937
940
943
946
950
954
960
965
971
976
983
986
988
990
994
995
1000
1004
1002
997
989
975
963
947
937
930
924
921
920
917
915
916
916
914
913
911
910
909
910
910
911
913
914
915
913
908
904
903
903
903
903
898
897
908
925
958
1004
1060
1129
1208
1292
1370
1419
1433
1405
1338
1252
1157
1058
971
900
844
805
786
785
799
823
846
866
875
876
872
864
855
850
846
846
847
850
852
851
851
852
848
843
843
842
842
845
846
844
843
841
844
844
849
854
855
856
855
855
859
863
869
876
882
886
886
894
897
902
912
921
929
936
942
949
955
963
970
977
984
986
990
1003
1009
1020
1029
1032
1045
1050
1054
1057
1062
1066
1073
1077
1082
1081
1082
1084
1081
1079
1077
1077
1074
1066
1062
1059
1055
1053
1052
1048
1047
1041
1034
1024
1020
1014
1011
1013
1011
1007
1002
995
991
986
975
970
963
958
951
946
941
943
942
943
941
939
938
934
929
928
927
929
930
935
933
933
931
931
932
936
942
948
956
963
970
976
983
990
995
995
997
996
990
982
978
971
963
956
949
942
934
924
915
912
911
909
912
915
915
917
917
917
919
923
924
920
918
914
912
910
911
911
914
915
915
911
906
902
900
909
930
971
1025
1091
1168
1250
1332
1397
1424
1405
1346
1261
1163
1065
979
907
849
804
773
762
769
793
818
843
862
867
867
862
852
844
843
841
842
841
841
839
837
836
836
836
837
835
834
832
828
830
829
832
836
837
841
839
840
843
848
851
853
855
857
859
864
868
876
884
891
896
900
903
908
913
918
927
932
938
942
948
957
966
976
984
989
994
1001
1006
1013
1022
1028
1036
1043
1047
1049
1050
1050
1057
1059
1059
1057
1052
1052
1050
1048
1045
1042
1037
1030
1022
1016
1013
1011
1007
1006
1002
998
990
984
979
974
970
963
955
952
946
944
941
940
937
938
933
929
925
922
918
920
920
922
921
920
922
924
929
934
940
945
950
955
960
966
974
980
986
991
991
989
985
983
978
973
966
955
940
930
920
915
912
911
910
910
906
906
905
905
905
908
908
907
909
905
904
903
903
905
906
905
906
904
902
897
894
890
892
901
918
951
998
1055
1113
1180
1251
1324
1383
1410
1400
1351
1277
1180
1085
993
915
848
798
771
764
778
801
827
847
858
861
856
851
845
840
837
835
833
833
830
829
829
825
826
823
823
823
821
823
821
821
821
820
823
821
821
822
822
826
829
829
831
832
833
835
838
845
849
856
860
862
867
869
874
880
885
888
894
900
907
912
922
932
941
948
955
962
967
972
978
986
997
1007
1012
1019
1024
1029
1031
1038
1042
1044
1047
1048
1050
1051
1052
1053
1054
1053
1052
1048
1043
1037
1032
1028
1030
1027
1025
1021
1019
1012
1003
995
993
990
986
982
974
972
968
964
960
958
952
950
946
941
937
935
934
935
936
939
936
936
930
925
924
927
931
938
943
949
951
958
964
969
975
979
982
982
981
983
985
984
985
980
973
961
945
931
920
912
907
907
908
908
908
907
907
906
905
906
908
905
904
905
906
905
906
909
908
908
907
906
902
899
896
897
901
908
926
957
1002
1060
1129
1210
1291
1363
1406
1406
1361
1283
1188
1090
1000
926
870
824
795
778
778
795
816
839
858
867
866
864
856
852
846
844
841
842
842
841
843
842
843
839
836
834
830
829
830
831
835
835
837
836
836
836
838
840
842
842
845
846
851
856
863
869
874
879
883
886
891
898
905
914
919
926
935
943
952
957
966
973
976
983
991
997
1007
1017
1026
1034
1038
1040
1045
1047
1052
1059
1062
1067
1068
1068
1068
1069
1067
1067
1065
1061
1055
1050
1043
1039
1038
1036
1036
1035
1029
1022
1017
1009
1006
1001
996
995
989
984
981
973
972
969
966
962
956
948
944
940
937
937
940
939
939
936
931
927
926
924
925
928
932
937
941
946
954
957
962
968
971
972
976
976
979
985
987
990
989
983
970
957
946
937
925
921
917
912
910
909
904
905
904
905
904
903
900
899
898
899
899
902
905
905
904
901
900
896
896
896
896
892
890
889
895
912
939
979
1031
1087
1156
1232
1308
1373
1412
1410
1367
1293
1199
1097
1003
920
852
805
777
773
787
811
832
851
858
860
855
846
837
834
830
830
833
836
836
837
833
828
825
821
819
818
816
822
821
820
819
818
814
813
814
815
815
814
815
817
819
824
829
832
834
836
836
841
843
849
855
863
869
875
880
885
889
896
903
911
919
927
933
941
949
958
968
977
983
988
995
999
1003
1009
1017
1025
1034
1042
1049
1051
1053
1054
1054
1054
1057
1058
1056
1053
1053
1051
1047
1047
1045
1041
1041
1037
1032
1024
1019
1017
1015
1014
1011
1009
1003
997
991
985
979
979
976
973
971
968
963
960
954
949
947
943
943
940
940
942
942
941
940
938
937
936
937
941
946
951
962
970
975
976
979
980
984
988
989
988
985
983
974
966
955
947
937
924
917
909
905
902
903
904
906
912
913
914
913
911
909
908
907
906
905
907
908
909
913
913
914
909
905
896
894
897
914
939
976
1027
1085
1153
1229
1307
1366
1396
1376
1316
1221
1117
1016
930
871
829
804
788
783
785
797
814
835
852
862
862
859
854
846
841
841
843
839
840
836
835
833
833
837
837
840
841
839
834
832
830
828
834
835
839
839
840
845
847
848
852
857
860
862
865
874
881
890
895
902
908
912
915
919
929
938
944
954
962
968
975
983
990
996
1003
1009
1015
1019
1025
1034
1042
1049
1054
1057
1055
1056
1057
1058
1058
1056
1054
1051
1048
1045
1046
1048
1045
1039
1034
1026
1017
1013
1009
1009
1005
1003
995
989
985
979
976
972
971
965
959
957
948
946
941
941
941
935
931
925
920
915
912
914
915
919
921
919
916
913
912
914
916
921
929
936
942
949
957
963
970
975
979
983
983
982
982
984
981
975
968
957
942
927
919
913
909
908
909
912
911
914
914
913
917
916
914
913
910
909
910
912
916
917
919
918
918
913
910
907
908
908
913
929
963
1013
1071
1149
1235
1317
1388
1431
1435
1396
1329
1247
1159
1076
998
929
869
820
787
771
774
787
809
833
850
861
866
865
863
859
856
853
849
845
845
842
845
843
846
845
843
841
838
835
833
832
834
834
836
836
838
839
838
840
842
840
843
845
846
852
859
863
867
876
879
880
883
886
890
895
903
907
912
916
921
928
933
940
949
957
960
965
970
976
984
993
1002
1007
1014
1014
1017
1023
1026
1027
1036
1041
1045
1045
1045
1045
1048
1048
1046
1043
1039
1034
1027
1025
1023
1022
1021
1017
1011
1003
997
992
986
984
981
976
974
972
966
958
954
947
943
938
934
933
930
927
926
925
927
928
927
925
923
920
918
915
919
923
928
934
938
947
952
954
959
966
968
971
973
975
975
977
979
977
971
961
950
932
922
909
904
899
899
898
898
896
897
896
894
894
893
893
891
890
891
892
893
896
894
894
894
889
888
884
886
884
885
887
898
921
960
1014
1080
1158
1243
1326
1386
1412
1392
1335
1253
1158
1065
977
903
843
795
767
762
777
801
825
844
852
853
847
841
833
829
825
824
825
825
827
824
825
823
817
814
812
810
806
809
808
811
811
810
809
811
810
809
810
810
809
810
812
818
824
829
837
837
841
844
847
850
855
861
869
875
882
892
902
910
917
926
935
940
945
952
959
970
980
990
996
1003
1010
1014
1021
1026
1029
1034
1041
1044
1045
1048
1050
1052
1052
1051
1048
1044
1039
1032
1031
1029
1029
1028
1025
1018
1014
1007
1002
1000
998
996
993
988
984
977
972
969
966
962
957
952
946
942
940
939
940
940
941
939
937
930
928
928
931
933
939
944
950
959
967
975
979
982
984
985
986
988
989
988
983
975
962
947
937
926
917
911
905
907
908
910
911
911
914
915
914
911
910
909
908
910
909
911
913
912
911
908
906
904
900
898
897
910
935
973
1024
1088
1162
1244
1324
1390
1423
1415
1368
1292
1199
1103
1016
941
879
831
801
789
791
805
826
849
864
875
876
872
866
858
853
849
845
844
845
847
847
848
844
844
842
841
839
838
835
834
829
828
829
833
834
839
838
839
839
839
840
843
845
848
853
856
860
867
872
878
886
893
898
901
906
912
919
927
939
946
958
966
975
977
986
993
1002
1014
1022
1031
1036
1045
1052
1060
1062
1067
1071
1072
1071
1072
1073
1077
1080
1083
1084
1081
1077
1072
1067
1065
1060
1056
1057
1057
1053
1051
1047
1043
1040
1036
1033
1028
1023
1017
1010
1006
1004
1002
999
994
987
982
976
972
968
967
966
966
964
961
959
957
958
957
954
954
954
956
961
968
976
985
991
998
998
1000
1001
1004
1007
1011
1015
1014
1011
1007
998
988
974
966
955
948
938
931
928
927
930
932
933
934
932
929
924
925
924
925
927
929
930
930
931
928
930
926
926
925
922
918
915
916
925
948
985
1037
1105
1179
1259
1341
1404
1443
1438
1394
1328
1249
1162
1080
1008
948
897
854
822
806
805
819
844
867
885
894
892
882
873
865
860
856
860
861
864
866
866
862
856
853
854
852
852
848
850
846
846
843
845
848
849
847
848
846
845
847
850
856
860
864
867
871
871
872
873
878
887
895
903
910
917
924
932
941
951
959
966
971
977
980
991
1001
1015
1028
1036
1047
1049
1052
1052
1057
1060
1067
1075
1081
1086
1090
1094
1093
1097
1099
1099
1096
1094
1089
1088
1085
1084
1087
1087
1084
1080
1072
1068
1056
1054
1050
1049
1048
1045
1043
1036
1025
1020
1016
1012
1009
1003
999
993
987
982
977
975
972
969
965
961
957
953
947
947
947
949
950
951
948
946
946
947
952
959
966
973
979
982
988
993
1001
1006
1010
1012
1011
1008
1008
1007
1004
1003
994
982
970
957
947
943
938
939
937
939
939
939
936
935
937
937
940
939
943
938
935
935
934
935
938
940
942
941
940
936
934
931
929
932
937
949
977
1017
1068
1132
1205
1283
1358
1417
1444
1431
1377
1302
1220
1133
1051
981
919
