955
964
970
975
979
985
993
1003
1013
1021
1030
1034
1038
1043
1050
1055
1063
1072
1077
1082
1084
1084
1086
1086
1085
1086
1088
1086
1085
1083
1080
1078
1076
1073
1071
1068
1061
1052
1044
1038
1031
1031
1031
1028
1022
1014
1009
1003
998
993
990
984
979
977
974
972
970
965
960
955
948
940
933
929
927
926
928
927
930
930
931
931
928
934
936
941
945
951
958
966
973
979
987
992
994
996
996
997
999
1000
999
995
985
974
959
944
935
928
922
921
918
920
921
920
918
924
924
927
922
918
919
916
918
920
922
923
924
924
922
922
919
916
910
910
915
932
971
1021
1081
1154
1234
1315
1380
1416
1406
1355
1272
1172
1066
974
903
845
799
769
759
764
785
810
835
853
862
863
860
854
847
842
838
836
838
839
839
838
837
834
833
832
834
836
834
837
832
829
827
826
828
832
836
839
838
842
846
851
853
857
859
861
867
873
883
892
898
904
909
913
920
928
935
946
956
963
971
977
986
995
1003
1011
1018
1024
1030
1035
1043
1051
1058
1063
1067
1066
1065
1065
1064
1066
1067
1068
1066
1060
1058
1055
1051
1051
1047
1042
1035
1028
1019
1015
1010
1009
1010
1007
1000
991
983
975
972
969
962
959
956
952
948
946
945
945
943
940
937
933
932
934
936
936
937
941
942
947
953
961
969
976
979
985
988
990
994
997
1002
1005
1004
998
986
974
961
949
938
931
926
922
919
917
915
913
916
914
915
914
913
912
913
913
914
914
915
915
911
912
911
911
916
916
916
912
910
906
907
924
954
1002
1061
1132
1214
1296
1372
1423
1436
1408
1346
1266
1177
1086
999
921
859
806
777
767
777
799
825
850
864
869
868
857
847
840
835
838
842
845
845
844
838
831
828
827
830
830
835
832
830
829
826
824
825
824
825
827
826
826
831
830
836
839
845
845
847
849
851
858
865
872
881
888
893
901
903
908
915
924
933
943
950
959
968
977
985
997
1002
1011
1019
1024
1027
1035
1045
1051
1061
1067
1071
1074
1074
1074
1075
1077
1079
1080
1078
1077
1074
1074
1073
1072
1071
1066
1060
1053
1046
1041
1035
1033
1032
1029
1024
1016
1010
1003
997
993
989
984
982
982
974
968
962
958
955
956
953
950
947
942
940
942
944
946
945
944
945
943
946
950
958
969
979
986
994
999
1002
1006
1008
1007
1007
1004
996
992
986
979
964
947
935
922
916
914
916
918
921
921
921
920
918
916
916
918
921
922
920
920
919
922
924
924
927
927
922
920
917
924
941
973
1018
1071
1133
1200
1272
1344
1398
1417
1390
1325
1237
1135
1035
952
885
836
803
784
781
788
807
832
854
870
876
873
868
865
861
860
860
860
857
854
850
847
843
846
847
850
849
847
844
842
840
841
842
843
842
843
842
841
845
849
857
861
868
871
871
873
873
878
886
893
901
907
911
917
925
932
942
948
956
963
966
974
982
993
1003
1013
1021
1027
1033
1036
1042
1049
1058
1064
1071
1075
1078
1077
1076
1076
1078
1080
1081
1081
1079
1076
1073
1073
1070
1071
1069
1064
1057
1052
1045
1037
1037
1032
1030
1022
1016
1010
1006
1002
998
993
987
981
974
964
961
960
958
956
951
946
940
934
928
925
927
927
928
930
930
928
925
924
924
927
929
934
942
946
952
960
966
974
978
980
984
986
988
991
991
994
993
991
982
971
957
943
933
928
923
922
920
918
916
916
918
919
917
918
917
911
913
913
913
917
919
923
926
926
922
918
914
912
909
906
903
903
910
928
962
1013
1072
1138
1206
1275
1340
1392
1419
1410
1372
1305
1222
1127
1036
952
877
819
776
752
753
770
797
823
842
854
860
859
853
849
841
837
833
832
835
838
839
838
833
831
829
828
827
828
831
831
831
831
828
828
826
828
831
833
835
836
838
838
839
845
848
857
860
864
866
869
871
875
882
890
898
907
915
919
927
934
937
943
948
955
964
970
979
990
999
1009
1016
1021
1023
1027
1028
1036
1043
1051
1056
1059
1056
1055
1055
1055
1054
1055
1056
1053
1050
1046
1042
1041
1037
1036
1032
1029
1022
1014
1005
1001
997
995
992
989
983
978
968
961
956
952
947
942
939
935
931
933
933
934
931
932
928
923
923
922
924
926
932
935
941
946
952
958
966
972
976
979
982
988
994
998
999
996
988
974
960
945
932
924
918
915
910
909
905
904
907
907
909
906
904
902
902
902
904
908
910
909
908
905
902
903
904
901
897
892
889
891
907
934
981
1040
1109
1188
1273
1349
1401
1412
1379
1316
1234
1144
1054
979
910
851
801
767
751
758
779
808
832
852
858
855
846
837
827
821
822
823
824
828
828
827
822
817
815
814
815
812
811
812
811
809
810
810
811
811
811
809
809
809
812
816
820
826
830
833
835
836
838
844
851
856
864
869
873
880
886
894
902
909
919
924
931
939
949
960
970
982
990
995
999
1004
1010
1015
1023
1030
1036
1039
1041
1046
1050
1051
1054
1053
1053
1050
1045
1042
1041
1042
1042
1041
1036
1033
1027
1018
1013
1010
1005
1001
998
995
989
984
981
977
973
968
963
956
953
947
943
937
937
940
939
938
937
932
927
923
922
921
921
922
922
928
929
934
942
946
952
960
963
963
965
968
972
980
984
986
980
976
964
952
939
927
920
914
909
903
900
898
896
896
899
899
896
895
894
895
898
904
906
905
906
904
903
901
900
901
899
900
895
894
888
889
899
923
959
1007
1059
1126
1202
1285
1359
1408
1422
1392
1330
1246
1153
1062
981
914
858
815
786
773
777
795
818
842
859
865
861
852
844
837
833
835
837
840
839
835
830
825
820
818
820
824
824
822
820
820
817
816
816
816
814
813
811
812
812
818
822
825
829
830
830
829
834
840
846
854
862
868
875
881
887
894
902
909
919
927
935
944
955
965
975
986
995
1003
1007
1013
1015
1021
1029
1038
1044
1052
1058
1061
1062
1067
1070
1071
1072
1070
1069
1063
1060
1062
1061
1063
1059
1057
1051
1042
1036
1031
1031
1027
1027
1019
1014
1011
1004
999
993
988
982
976
972
967
965
964
962
962
959
951
947
941
938
936
937
938
939
938
937
941
945
952
957
962
965
970
973
976
979
986
991
997
1000
995
992
982
974
963
956
944
935
928
918
913
911
909
911
911
911
910
909
908
908
909
910
914
915
912
912
909
908
908
910
913
916
917
917
912
905
902
898
904
919
948
992
1043
1110
1185
1264
1340
1400
1432
1430
1394
1326
1251
1173
1094
1016
949
886
835
797
782
786
807
836
859
874
876
870
861
858
851
850
851
851
850
847
841
839
837
838
837
842
840
837
832
830
825
824
823
823
825
829
830
830
830
827
828
828
831
832
834
836
841
845
853
860
866
872
873
879
883
889
896
906
916
924
935
940
950
960
970
978
988
997
1002
1010
1017
1024
1034
1043
1055
1064
1068
1075
1072
1073
1076
1079
1083
1084
1092
1093
1094
1092
1088
1087
1082
1081
1076
1073
1072
1068
1064
1061
1056
1052
1049
1043
1035
1030
1024
1022
1024
1023
1023
1020
1014
1008
999
991
983
977
977
974
970
963
960
954
951
948
948
950
951
951
948
944
942
939
943
950
956
963
969
973
979
984
991
998
1004
1008
1012
1012
1011
1009
1006
1003
993
983
970
959
947
939
935
935
934
934
933
932
928
926
925
924
930
931
933
933
932
932
931
930
931
932
931
934
934
934
930
930
931
931
929
935
955
991
1036
1099
1176
1255
1335
1400
1436
1429
1379
1302
1217
1126
1038
962
894
841
799
775
770
783
802
831
855
871
876
875
872
867
866
866
866
863
861
856
852
849
846
848
851
851
852
850
849
847
848
848
850
850
847
850
849
851
855
858
860
861
864
863
869
874
878
883
892
897
902
907
912
921
925
932
937
943
946
955
959
971
980
989
999
1006
1013
1019
1023
1031
1035
1040
1045
1050
1057
1064
1067
1073
1074
1081
1081
1080
1078
1077
1075
1075
1075
1073
1072
1068
1057
1051
1046
1043
1042
1042
1040
1034
1028
1021
1018
1011
1008
1003
998
992
984
976
967
966
964
964
961
957
953
946
943
942
940
937
938
938
938
937
938
939
941
940
938
937
933
936
941
948
957
967
972
978
982
985
993
999
1004
1006
1007
1006
1002
997
990
979
966
952
942
933
927
926
926
928
933
930
927
925
926
923
922
924
926
925
927
925
924
925
925
926
930
932
932
926
921
910
906
907
921
947
984
1032
1089
1152
1221
1297
1365
1413
1425
1393
1329
1239
1142
1045
961
892
832
783
754
746
760
783
811
839
858
865
863
858
852
846
845
842
844
847
845
843
842
841
839
835
835
834
830
830
827
828
831
832
834
835
833
833
830
831
832
835
837
839
842
845
846
852
856
861
868
870
871
875
880
887
893
901
911
915
916
923
924
929
937
946
956
965
972
978
985
994
1001
1009
1016
1022
1026
1029
1035
1041
1044
1049
1055
1057
1058
1057
1052
1052
1050
1048
1049
1048
1046
1042
1039
1033
1029
1024
1017
1011
1006
1001
994
989
986
984
983
979
976
969
958
951
950
946
945
941
940
937
933
931
927
928
930
927
927
925
921
923
927
933
942
949
956
960
963
968
967
973
981
988
994
994
992
990
981
975
966
955
940
928
919
912
907
907
904
909
908
907
902
898
897
897
899
901
905
906
904
901
901
899
902
904
906
905
904
903
900
898
897
899
904
920
950
995
1058
1137
1221
1308
1381
1431
1446
1423
1367
1292
1203
1110
1022
943
875
818
777
760
768
789
819
845
860
861
857
846
840
836
836
839
840
838
836
831
826
824
821
819
815
815
814
818
818
818
816
816
811
811
808
810
812
817
821
822
824
826
826
832
836
840
844
848
853
857
869
876
886
894
902
907
914
922
931
940
952
960
969
976
985
994
1004
1011
1020
1024
1031
1039
1043
1049
1056
1061
1065
1065
1062
1060
1056
1055
1056
1059
1058
1056
1054
1049
1047
1044
1039
1036
1032
1026
1020
1012
1009
1006
1004
1004
1003
998
993
985
976
971
967
965
963
959
955
952
950
948
945
943
941
939
937
935
934
936
939
946
954
958
962
968
972
977
981
984
987
990
993
994
994
992
989
981
968
951
935
921
915
912
909
908
908
905
904
901
901
903
904
904
904
905
905
908
911
914
917
914
912
908
902
897
896
894
893
897
906
925
959
1010
1072
1150
1240
1328
1393
1420
1400
1345
1265
1167
1068
979
908
855
814
790
784
794
817
843
866
876
879
872
867
858
856
854
851
854
856
855
859
859
859
858
854
850
847
846
846
848
850
850
849
849
848
848
852
855
856
856
858
860
863
871
877
884
888
892
896
899
905
912
922
931
939
946
949
951
957
962
972
984
994
1003
1013
1026
1034
1045
1052
1060
1061
1066
1064
1066
1069
1077
1079
1081
1085
1087
1085
1084
1086
1084
1080
1075
1072
1065
1059
1057
1056
1056
1055
1054
1050
1042
1033
1028
1019
1017
1016
1011
1007
1003
996
989
984
980
977
973
967
960
953
948
943
942
943
943
942
940
936
935
933
933
929
930
929
933
935
940
948
953
959
964
967
972
979
988
996
1001
1007
1008
1010
1003
998
988
980
967
956
947
940
932
928
923
922
922
921
923
921
921
921
921
922
923
924
929
931
931
930
928
926
926
927
928
928
929
926
922
916
913
916
933
966
1017
1075
1144
1222
1300
1369
1416
1425
1390
1324
1246
1167
1090
1020
964
914
867
823
782
764
768
786
813
838
857
869
869
865
857
853
851
852
854
855
852
847
843
840
840
838
842
841
842
841
840
840
840
838
839
841
840
843
847
851
857
863
866
869
866
865
867
868
877
884
895
902
908
910
911
919
921
928
934
943
949
953
959
963
973
980
989
994
1005
1009
1014
1019
1026
1036
1044
1052
1058
1058
1059
1060
1062
1063
1065
1068
1071
1067
1068
1063
1061
1057
1053
1050
1047
1043
1037
1032
1030
1026
1023
1018
1015
1006
998
991
985
982
979
978
976
971
965
961
956
950
945
941
940
937
935
934
934
934
935
938
940
939
935
932
929
928
929
934
942
951
960
969
975
979
984
988
990
994
995
996
994
996
998
995
991
981
967
953
938
929
920
918
918
921
921
921
920
918
914
914
916
916
916
917
916
913
915
915
918
921
919
917
914
909
907
906
904
902
905
915
935
968
1009
1058
1109
1162
1223
1286
1349
1396
1411
1384
1326
1244
1149
1054
968
893
831
784
756
753
770
799
826
845
857
860
854
851
841
835
835
834
836
835
836
834
833
829
829
822
822
819
822
823
824
828
827
825
822
819
819
818
820
823
828
829
831
831
836
841
846
851
853
854
856
862
868
874
883
889
896
901
905
908
911
919
927
939
947
957
964
971
977
984
992
1001
1008
1013
1019
1024
1029
1035
1041
1046
1052
1055
1056
1056
1056
1057
1056
1055
1058
1059
1059
1056
1053
1050
1042
1037
1033
1029
1024
1020
1014
1009
1009
1005
1002
999
995
991
983
975
967
963
960
958
956
954
949
945
938
931
929
932
930
930
930
929
927
925
928
928
929
933
935
938
942
948
954
962
970
977
983
989
986
987
986
988
987
987
986
982
975
964
953
942
929
921
914
909
905
901
899
901
902
905
907
909
909
905
902
901
901
903
906
909
912
916
913
906
903
899
894
895
892
894
901
920
954
1004
1069
1147
1229
1314
1387
1437
1454
1439
1389
1315
1225
1129
1033
946
869
811
774
763
775
799
829
850
864
869
865
856
849
843
837
835
831
830
836
835
837
833
832
831
827
825
823
821
820
822
821
820
820
820
818
819
819
820
819
819
816
819
826
832
838
841
846
849
850
850
857
864
871
880
891
896
904
914
925
931
939
947
952
958
964
975
986
998
1009
1019
1027
1035
1038
1043
1049
1053
1057
1059
1062
1063
1065
1068
1070
1070
1069
1066
1060
1056
1050
1047
1044
1043
1037
1034
1031
1026
1023
1017
1014
1009
1005
1001
998
993
991
988
984
978
976
970
962
955
950
949
949
950
952
953
952
946
942
936
933
933
935
938
944
949
958
968
978
984
990
994
995
995
995
997
1000
1000
1000
993
982
970
955
943
934
925
918
914
911
910
912
914
918
916
916
915
911
912
910
911
915
917
915
916
912
909
907
907
906
905
903
900
899
903
918
947
991
1047
1113
1184
1262
1333
1382
1387
1349
1279
1188
1090
993
913
850
806
774
756
757
768
788
812
835
851
862
861
856
850
841
835
832
834
835
839
838
840
840
836
829
827
824
828
828
822
826
825
826
829
833
836
840
841
843
842
844
847
853
858
863
867
870
874
875
882
886
890
899
905
911
918
927
935
944
951
956
960
961
968
973
983
994
1002
1012
1020
1025
1029
1033
1037
1041
1048
1052
1057
1060
1063
1066
1066
1064
1064
1062
1058
1053
1049
1045
1041
1037
1035
1033
1029
1022
1017
1010
1006
1003
1002
997
992
989
982
977
974
969
968
964
958
953
946
937
930
927
925
926
923
924
922
916
913
911
914
916
917
916
913
911
911
912
918
924
931
938
943
948
953
961
968
976
983
986
986
984
982
981
973
971
965
953
942
928
918
913
909
911
911
909
909
904
905
904
904
907
910
910
911
908
908
908
908
908
909
911
911
908
906
904
902
901
902
910
932
969
1019
1084
1159
1241
1324
1387
1427
1429
1390
1320
1233
1137
1039
956
881
821
776
752
752
768
789
814
833
846
851
849
843
840
843
840
838
835
831
828
825
822
825
825
824
823
823
819
820
819
819
817
812
812
816
820
825
829
830
831
834
835
836
839
843
847
851
858
864
870
874
882
891
898
904
908
911
915
925
935
943
952
960
968
970
982
992
998
1008
1013
1019
1025
1026
1032
1037
1042
1045
1046
1047
1044
1044
1042
1044
1042
1041
1039
1036
1031
1026
1023
1018
1016
1012
1008
1001
995
989
985
983
979
976
971
960
952
947
941
938
937
936
933
929
926
922
922
920
920
920
919
916
916
916
918
925
933
940
946
952
956
961
964
966
974
980
981
980
979
979
976
971
963
951
937
923
912
904
898
897
896
899
898
897
892
889
890
891
894
893
892
892
894
895
896
894
892
889
887
886
881
879
882
882
890
904
931
971
1023
1079
1145
1226
1307
1373
1401
1383
1323
1237
1130
1023
929
850
790
754
742
752
779
811
834
846
852
847
838
833
826
824
823
822
822
822
822
820
816
818
815
810
808
807
806
809
812
816
816
816
812
806
803
803
804
807
808
814
814
817
817
820
823
827
834
834
838
842
846
852
859
868
874
884
892
896
901
906
912
922
930
942
954
961
969
972
979
987
993
999
1007
1016
1022
1026
1036
1041
1045
1052
1052
1052
1052
1050
1047
1045
1046
1047
1050
1046
1042
1038
1033
1025
1021
1019
1012
1009
1002
997
993
986
986
984
981
975
970
965
957
951
946
945
939
937
931
925
923
920
917
918
916
919
919
915
914
913
910
914
914
915
919
924
929
937
945
952
960
967
970
974
973
971
967
965
957
949
936
928
917
910
903
896
892
889
888
887
888
888
890
891
889
888
888
886
887
889
891
893
894
892
891
888
890
893
895
892
897
904
926
963
1018
1085
1162
1243
1319
1376
1405
1395
1344
1263
1168
1063
969
889
830
792
773
770
788
812
838
856
863
865
863
858
852
848
843
841
839
843
842
841
839
836
826
821
820
823
825
828
830
831
831
830
830
828
829
831
832
834
837
842
848
854
858
865
868
873
876
882
889
901
907
918
924
928
936
941
949
956
963
968
976
982
992
1001
1010
1021
1027
1033
1036
1039
1042
1048
1053
1056
1060
1064
1063
1062
1062
1062
1062
1057
1052
1046
1040
1033
1031
1031
1028
1024
1023
1017
1010
1001
998
992
990
990
983
978
974
968
964
958
954
952
946
940
934
930
926
925
921
922
922
918
912
908
904
905
905
911
911
912
913
914
916
922
925
937
942
950
955
960
965
969
