958
958
959
961
962
958
954
950
949
951
950
947
943
943
945
947
948
945
945
949
952
956
963
963
963
965
971
977
980
982
982
984
986
987
991
990
988
988
993
996
1000
999
997
995
995
996
996
997
995
992
995
995
994
993
989
989
992
997
995
995
990
991
991
994
994
992
991
990
990
992
993
991
990
989
990
992
991
990
987
988
988
989
989
989
984
984
987
988
988
987
987
983
984
990
993
996
999
1006
1018
1039
1058
1076
1093
1114
1138
1171
1201
1225
1241
1261
1276
1280
1268
1243
1208
1165
1120
1091
1060
1039
1023
1013
1014
1017
1017
1010
1004
995
993
994
989
985
982
978
980
982
982
979
973
973
973
978
977
974
969
969
969
969
971
968
965
962
963
966
965
962
962
961
965
966
967
962
958
959
959
964
962
957
957
956
957
960
959
955
949
947
949
950
948
943
935
938
943
947
948
945
943
944
949
954
955
958
958
961
965
966
969
970
969
972
979
981
982
982
974
977
980
988
992
988
984
984
985
992
993
992
988
987
987
991
993
988
987
986
986
990
991
989
986
986
987
990
992
987
986
983
983
987
987
985
985
987
985
988
987
988
985
984
985
987
986
985
982
981
982
985
986
981
979
979
980
981
982
983
984
987
996
1010
1024
1041
1061
1078
1102
1129
1159
1185
1207
1228
1248
1256
1251
1236
1206
1172
1133
1098
1072
1053
1036
1023
1014
1015
1015
1010
1003
1000
997
995
991
985
981
976
979
978
978
973
973
973
972
972
973
970
965
960
964
966
965
966
961
960
962
963
962
960
958
957
958
960
958
955
955
952
956
954
957
952
952
948
952
952
950
946
943
939
942
941
940
938
935
935
938
941
942
939
937
938
940
944
946
948
948
952
956
962
962
963
963
964
967
971
974
973
972
974
978
982
985
983
983
984
987
987
988
987
981
984
986
986
989
986
983
982
983
989
987
984
981
981
983
987
986
986
982
981
983
987
985
982
981
978
982
987
988
985
982
980
982
981
981
980
980
980
980
982
983
983
978
977
979
979
981
978
977
980
989
995
1005
1021
1033
1054
1073
1094
1116
1137
1159
1185
1209
1231
1243
1247
1240
1224
1199
1170
1131
1094
1064
1045
1033
1021
1016
1011
1008
1004
1003
1001
997
992
984
982
981
978
979
978
973
968
970
974
972
967
964
964
964
969
968
963
962
958
961
963
964
960
956
954
957
961
961
959
956
954
956
961
958
954
954
952
954
955
955
951
946
948
949
947
948
942
937
941
941
943
943
943
940
939
941
943
944
943
942
944
949
953
954
957
957
960
961
969
969
969
970
971
974
977
975
976
980
982
983
985
985
984
979
980
986
985
987
983
981
982
982
985
983
985
981
980
984
984
984
982
980
979
982
983
983
979
978
977
979
982
980
979
975
976
977
982
981
978
977
977
978
979
979
978
976
976
976
980
980
978
974
971
973
975
975
976
977
980
988
1000
1010
1024
1042
1063
1084
1107
1133
1162
1184
1206
1226
1241
1245
1235
1207
1172
1136
1098
1069
1048
1032
1018
1012
1008
1009
1006
1003
996
992
992
989
982
980
975
976
974
974
971
968
964
964
968
969
966
961
960
962
963
963
961
957
955
955
958
962
960
956
953
953
957
960
958
952
952
950
956
955
955
950
948
951
954
949
949
943
940
941
941
939
938
937
940
940
942
944
943
940
940
944
948
954
957
954
959
967
967
971
973
975
976
978
982
982
981
980
985
987
991
991
989
987
987
988
989
987
984
982
982
983
985
986
982
982
983
982
988
986
986
983
978
983
986
987
985
976
980
983
985
986
983
980
980
983
981
982
980
973
973
979
982
982
980
978
977
978
977
980
977
975
976
979
981
987
989
992
1000
1015
1034
1054
1076
1095
1123
1152
1186
1211
1231
1249
1258
1260
1245
1214
1172
1123
1082
1050
1031
1018
1008
1005
1007
1008
1007
1004
997
989
987
985
986
983
980
976
974
975
977
975
970
966
966
967
968
970
962
965
965
966
968
966
962
960
959
964
966
967
963
958
960
961
965
961
959
957
957
960
961
962
959
952
950
954
955
955
949
945
943
946
950
950
948
942
944
944
947
949
952
951
956
963
970
969
971
970
971
978
982
984
984
980
982
986
989
992
992
986
990
994
995
995
993
989
988
991
993
991
983
988
985
989
990
988
987
984
981
986
989
990
987
983
983
985
987
987
985
981
981
982
987
985
986
983
981
985
988
987
985
979
982
982
986
985
983
980
978
981
983
983
984
984
988
997
1008
1020
1039
1058
1082
1106
1133
1164
1193
1215
1237
1260
1276
1278
1263
1234
1194
1154
1113
1077
1049
1027
1014
1010
1014
1016
1009
1003
999
996
995
993
987
983
980
979
980
979
976
972
973
970
972
969
969
963
965
966
967
968
964
964
960
963
964
965
965
959
957
957
963
961
960
954
957
958
960
957
956
951
951
951
953
954
948
945
942
943
946
944
943
938
938
940
943
942
941
942
942
945
948
953
954
959
958
965
972
974
972
970
974
978
982
982
981
978
979
985
989
990
991
989
988
991
994
992
988
988
986
989
991
991
987
987
986
986
987
987
988
983
985
987
991
988
983
981
982
984
986
985
984
983
979
979
987
983
983
980
980
983
987
984
985
982
978
981
984
983
982
978
978
980
985
989
995
1001
1016
1035
1060
1084
1101
1123
1150
1186
1214
1239
1257
1262
1259
1240
1213
1171
1123
1084
1054
1036
1023
1018
1012
1008
1007
1004
1002
997
990
986
981
979
978
979
975
969
968
970
972
970
967
963
960
962
965
965
964
957
959
960
964
962
959
957
952
959
960
958
953
950
952
954
955
953
951
949
946
947
949
950
944
941
938
938
941
937
936
931
930
937
940
942
937
935
941
945
949
954
953
956
958
963
965
970
968
968
970
973
976
980
978
977
981
985
989
988
987
983
983
987
988
986
982
981
982
983
986
984
984
980
983
983
986
985
981
980
982
984
986
983
982
979
977
982
984
983
981
978
975
979
982
981
978
977
975
978
981
980
980
976
975
977
981
981
983
984
988
999
1018
1035
1056
1076
1095
1125
1156
1186
1207
1225
1239
1244
1235
1213
1170
1122
1084
1063
1048
1034
1020
1008
1004
1008
1006
1004
992
987
982
980
981
979
976
971
969
970
972
972
966
963
962
963
962
963
960
958
959
956
961
960
957
953
955
955
959
958
957
951
949
952
955
954
951
947
950
952
954
951
948
944
941
938
943
944
943
933
937
940
943
942
942
937
943
946
955
958
959
958
960
966
967
968
970
971
973
973
981
978
982
980
980
983
985
984
985
983
984
982
988
988
986
984
984
984
988
987
982
982
981
982
984
984
982
979
978
980
981
982
982
977
976
978
982
981
979
976
975
977
979
980
976
974
973
973
978
975
973
972
970
970
976
976
979
980
986
992
1009
1029
1047
1067
1089
1113
1144
1171
1193
1209
1230
1234
1238
1220
1190
1147
1102
1068
1050
1035
1024
1008
1009
1008
1009
1003
995
987
981
981
981
976
974
968
969
970
971
968
969
961
958
959
965
965
958
956
958
958
962
960
955
954
953
958
960
960
957
954
953
954
957
957
950
949
947
951
953
950
949
944
942
942
943
942
938
937
938
937
941
940
936
938
941
946
954
956
954
957
959
962
968
970
971
969
970
975
981
981
981
979
982
985
986
983
982
977
976
978
980
980
978
976
975
976
979
978
976
971
972
974
977
977
973
973
971
975
978
974
973
971
970
975
977
978
975
970
968
973
977
976
974
969
969
971
976
976
970
968
964
970
973
974
977
980
982
993
1007
1024
1046
1062
1087
1112
1143
1173
1198
1215
1232
1242
1238
1216
1183
1138
1094
1060
1043
1028
1017
1006
1003
1003
1005
1001
997
986
983
979
976
977
974
969
968
970
971
967
966
960
962
963
966
963
961
958
957
959
961
961
959
952
954
957
958
959
958
954
952
952
957
956
950
950
950
948
950
948
944
939
939
940
942
941
940
936
935
938
941
941
938
938
942
948
952
955
952
959
964
967
972
972
974
974
971
978
979
982
982
980
980
984
988
989
986
982
982
985
985
984
983
981
980
980
986
984
983
978
977
980
984
983
979
976
978
977
983
982
981
979
976
977
980
981
980
975
978
978
980
980
977
975
974
976
978
978
977
974
972
972
976
977
975
974
978
989
1000
1012
1027
1046
1066
1091
1121
1150
1178
1199
1225
1245
1260
1261
1240
1206
1165
1118
1079
1051
1030
1015
1006
1006
1013
1010
1002
995
990
989
988
986
982
975
975
973
976
976
974
970
965
970
972
971
967
965
961
964
966
966
965
962
961
962
964
963
960
958
955
959
960
961
958
954
952
955
957
956
953
949
949
950
951
948
944
940
941
941
941
945
945
940
942
946
950
952
952
954
956
961
966
970
972
971
975
977
983
985
983
979
982
986
990
992
991
989
985
990
995
993
990
986
987
987
992
990
984
986
986
988
989
990
989
983
986
988
991
988
988
985
983
986
989
992
989
986
985
989
992
991
987
986
985
987
991
987
984
980
982
984
986
987
983
978
980
983
991
994
998
1002
1016
1039
1062
1084
1104
1122
1151
1184
1213
1235
1252
1265
1263
1251
1226
1187
1135
1094
1064
1041
1026
1015
1009
1006
1007
1006
1003
997
993
985
983
981
980
980
977
974
971
972
974
970
964
965
966
966
969
968
963
963
959
962
965
965
962
959
959
960
962
965
960
956
954
957
959
959
954
952
951
953
953
950
951
944
942
943
944
941
938
933
935
940
940
941
937
940
940
946
949
953
955
957
958
963
971
968
972
967
974
976
979
981
979
981
982
987
990
989
989
985
987
988
992
990
985
985
982
985
987
989
984
979
979
980
986
987
986
982
982
982
986
984
982
980
979
982
985
983
981
981
979
980
982
978
981
978
975
977
982
981
980
975
973
974
979
979
978
975
980
989
997
1008
1023
1041
1064
1088
1113
1144
1173
1197
1217
1244
1255
1258
1245
1217
1181
1138
1102
1073
1051
1031
1018
1012
1013
1011
1005
996
987
985
985
980
977
972
970
967
971
970
970
965
963
963
964
964
961
957
957
956
960
958
957
956
954
955
958
957
955
951
954
955
955
956
952
952
950
952
954
951
950
947
946
946
949
950
943
939
938
939
939
944
943
937
938
942
946
945
945
943
946
951
955
962
960
960
961
966
973
976
977
974
974
977
983
984
984
983
983
987
991
990
989
988
987
988
990
990
988
982
982
985
992
988
987
984
984
987
988
988
984
983
983
985
988
987
984
982
983
981
984
982
981
980
979
979
985
985
980
979
977
977
979
980
979
975
977
981
982
981
979
977
977
983
987
992
994
1001
1013
1032
1052
1073
1088
1104
1131
1161
1187
1207
1222
1236
1246
1244
1229
1201
1161
1116
1083
1064
1050
1039
1024
1018
1010
1010
1009
1007
1000
995
987
988
989
984
979
975
972
971
973
973
972
967
963
964
969
967
967
961
962
964
966
964
960
957
958
954
960
960
958
955
954
956
961
960
959
954
954
956
959
958
955
952
948
952
954
953
951
946
944
944
944
945
941
942
937
941
941
945
942
940
940
947
951
953
953
954
957
962
964
968
967
969
969
973
976
977
977
976
977
982
986
986
983
982
982
983
985
986
984
981
978
981
981
981
980
977
977
977
979
980
979
978
978
976
979
975
975
974
975
979
979
978
974
972
974
977
980
979
977
975
975
976
978
977
974
973
972
974
976
977
971
971
969
973
978
977
980
985
991
1000
1012
1031
1050
1068
1091
1115
1145
1172
1192
1209
1224
1236
1232
1215
1184
1145
1103
1071
1053
1036
1022
1013
1008
1008
1012
1007
1001
992
989
989
989
985
979
975
976
976
978
973
969
967
963
968
970
968
965
960
958
961
967
962
963
957
957
962
962
963
959
954
958
956
961
962
955
954
952
955
957
956
953
949
950
950
954
950
947
945
941
946
948
947
944
941
944
945
950
950
949
951
954
959
963
964
967
968
969
976
977
981
977
976
979
980
985
984
987
986
984
987
992
988
982
980
978
983
986
985
984
980
979
981
984
984
978
977
977
980
984
983
979
980
977
978
983
980
979
977
975
980
983
982
981
977
979
982
982
983
980
977
977
981
983
982
980
971
972
975
980
981
980
982
987
994
1007
1017
1034
1049
1068
1093
1120
1145
1167
1192
1211
1230
1245
1247
1233
1206
1172
1133
1097
1066
1039
1021
1014
1007
1009
1010
1006
999
990
989
990
985
979
974
973
974
977
975
971
964
966
966
966
967
964
959
960
959
961
962
962
956
955
957
960
958
958
956
954
958
961
959
956
952
953
954
954
953
951
948
946
947
947
945
946
939
937
936
937
940
939
935
937
939
942
941
938
940
943
949
953
958
959
956
960
966
969
972
974
974
973
975
978
980
982
980
981
983
986
987
987
984
982
985
989
987
986
983
982
984
986
984
983
981
980
978
985
985
984
981
979
981
984
984
983
979
979
981
979
977
978
975
979
980
986
984
980
978
979
982
984
982
978
977
977
979
981
978
978
971
971
976
977
979
973
977
984
995
1008
1024
1038
1055
1075
1096
1127
1151
1177
1195
1213
1233
1245
1241
1222
1192
1153
1113
1081
1062
1041
1028
1018
1013
1012
1013
1005
998
992
991
992
987
982
978
975
975
974
972
968
968
963
966
967
966
964
961
959
957
964
964
962
955
956
958
961
963
958
955
955
958
961
960
955
952
949
952
954
956
952
948
947
949
952
948
942
939
938
939
941
941
938
934
933
938
943
944
940
941
943
947
956
960
959
958
961
965
968
971
972
971
974
975
984
983
984
985
985
987
991
989
987
982
982
984
986
986
984
982
982
985
986
986
983
980
983
984
984
985
984
979
976
982
984
984
981
977
981
978
982
984
982
978
976
979
979
981
980
974
974
974
977
979
976
975
973
974
976
975
975
975
974
981
989
996
1003
1013
1032
1055
1080
1100
1121
1148
1176
1202
1222
1235
1245
1236
1219
1197
1162
1119
1080
1051
1037
1027
1024
1017
1011
1008
1004
1000
996
993
984
979
977
975
976
973
971
969
967
968
970
967
967
964
961
963
963
963
960
957
957
958
961
961
957
956
957
958
960
957
956
954
954
957
956
957
954
952
951
952
953
952
948
944
941
941
942
940
939
938
938
940
940
940
941
938
942
947
950
954
957
958
961
964
968
971
970
971
972
974
978
980
978
981
979
986
992
991
985
986
988
987
989
984
982
981
981
981
986
985
980
981
982
983
985
985
978
978
979
983
985
984
979
979
978
980
982
984
982
979
980
980
982
980
976
975
977
978
979
979
977
977
976
976
977
976
971
972
968
970
976
976
976
979
981
986
998
1009
1023
1041
1063
1086
1114
1138
1163
1187
1207
1231
1248
1250
1239
1210
1176
1135
1099
1065
1039
1019
1010
1005
1007
1008
1004
999
994
992
992
988
983
977
976
976
975
976
972
972
970
967
968
968
968
963
962
960
965
967
963
958
960
962
963
961
962
958
958
961
960
961
958
956
956
957
959
959
955
955
954
953
956
953
951
945
944
944
948
946
945
944
943
946
952
952
949
950
951
955
962
965
966
967
968
975
978
982
981
981
982
984
986
986
985
987
988
992
997
998
996
992
992
994
993
996
992
989
988
989
993
993
991
990
988
992
991
994
993
987
989
990
990
990
989
988
986
986
988
989
987
984
984
987
989
989
988
983
985
988
988
986
984
984
982
983
984
983
980
979
981
985
992
998
1004
1013
1033
1057
1083
1104
1127
1152
1185
1215
1239
1258
1268
1269
1256
1233
1192
1144
1098
1062
1038
1024
1015
1010
1008
1008
1005
1001
998
991
988
980
978
981
981
976
975
972
970
970
973
972
969
963
964
965
967
966
965
959
957
960
962
960
960
957
957
957
959
960
958
954
953
952
956
956
952
950
945
945
947
947
945
939
937
937
938
939
938
937
937
941
944
947
947
946
949
954
962
964
963
964
967
972
975
977
974
973
973
978
983
986
985
981
981
986
992
991
986
982
983
984
987
985
981
980
979
982
983
982
983
980
979
980
983
984
980
977
975
979
983
983
978
977
976
978
982
980
978
975
975
979
980
980
976
976
975
977
980
979
977
970
972
974
975
975
975
978
987
998
1014
1033
1052
1071
1091
1118
1151
1182
1204
1223
1244
1257
1258
1236
1206
1164
1119
1081
1057
1036
1017
1007
999
1002
1006
997
993
985
978
978
976
973
967
966
961
962
966
963
960
958
958
958
961
959
953
953
952
954
954
954
948
947
945
950
949
952
947
943
945
947
948
945
943
941
940
939
944
944
939
936
936
938
939
932
930
926
926
929
931
931
931
927
930
932
935
933
932
934
938
945
949
951
950
953
953
958
964
967
964
963
965
969
971
977
975
977
977
980
984
985
981
980
978
980
984
983
976
975
978
979
981
978
977
977
976
979
982
981
979
976
974
978
980
979
977
974
978
977
979
978
977
974
976
978
977
979
976
969
972
976
979
978
974
972
972
972
976
977
977
984
990
1003
1023
1043
1066
1085
1107
1137
1170
1195
1214
1234
1247
1248
1235
1200
1153
1103
1071
1050
1039
1023
1014
1004
1003
1002
999
993
985
978
974
976
975
971
970
966
965
964
967
965
960
954
957
958
958
956
957
952
951
953
955
957
955
954
950
951
954
954
953
950
947
950
953
951
948
943
943
941
944
944
940
