936
934
934
934
932
931
930
927
931
931
931
932
933
934
940
946
950
951
951
951
958
964
967
967
964
967
972
976
979
978
977
979
981
984
985
980
975
976
978
982
982
975
974
975
979
979
982
978
976
974
975
978
977
977
973
972
973
975
978
976
970
972
976
978
977
976
973
971
970
975
973
970
967
966
967
972
969
963
962
963
966
970
976
977
979
988
1001
1023
1043
1067
1088
1108
1141
1174
1201
1223
1236
1246
1244
1230
1199
1157
1109
1070
1045
1033
1021
1009
999
1000
995
993
990
982
972
973
972
971
971
967
964
957
959
962
962
956
956
953
954
953
954
952
950
947
949
951
951
948
946
946
946
950
951
948
943
944
946
947
946
945
941
943
942
944
941
937
933
931
932
936
932
933
931
930
934
938
939
936
938
938
944
951
955
957
956
957
964
971
970
967
967
970
976
980
985
981
980
983
981
984
985
981
978
977
979
980
981
979
978
979
978
979
978
976
972
974
975
976
977
977
973
972
973
975
974
975
970
974
974
977
977
975
973
971
975
976
977
972
970
973
972
974
973
969
966
966
969
975
977
975
982
989
1002
1022
1040
1062
1082
1105
1132
1167
1197
1221
1238
1251
1252
1238
1207
1163
1112
1071
1049
1037
1026
1014
1007
1004
1001
1002
1001
991
987
982
980
983
979
976
970
970
970
972
968
967
965
963
961
967
963
963
958
960
962
963
963
962
956
954
957
959
959
958
957
955
955
957
954
954
952
953
954
955
953
950
944
942
944
947
947
945
941
941
945
946
948
945
944
948
953
959
964
965
967
970
976
976
980
980
978
978
983
987
990
990
990
993
991
995
994
993
987
989
991
993
992
988
984
986
986
990
990
989
986
987
987
989
988
988
985
985
986
989
987
987
986
985
987
991
989
987
985
984
986
988
989
987
982
983
988
990
992
986
984
983
984
988
991
991
990
998
1009
1021
1031
1047
1066
1089
1115
1142
1166
1196
1222
1243
1269
1280
1275
1251
1213
1167
1118
1081
1051
1023
1008
998
998
1004
1004
998
989
989
988
984
984
979
976
974
975
975
972
971
967
969
970
968
967
962
962
960
965
968
966
962
959
960
960
962
965
961
956
957
958
963
962
958
955
954
956
956
955
951
947
946
947
951
949
948
945
943
947
949
953
954
956
960
963
975
979
978
979
980
988
995
996
995
990
994
1000
1003
1005
1003
1002
1001
1006
1006
1003
1002
996
998
999
1002
1002
1001
997
996
997
1003
1003
999
994
993
998
1001
1001
997
997
996
998
1001
998
998
996
996
999
1001
999
998
995
996
998
999
997
997
991
994
995
995
993
991
983
985
987
990
995
997
1003
1009
1023
1044
1067
1086
1108
1137
1171
1204
1232
1252
1273
1287
1289
1281
1249
1208
1159
1109
1076
1052
1037
1024
1015
1013
1012
1010
1005
1000
991
988
986
987
984
979
976
973
973
976
972
972
968
968
968
971
970
965
961
962
964
967
966
964
960
957
958
961
962
960
958
954
958
959
956
955
954
949
948
951
949
947
942
937
936
943
942
942
938
938
940
944
942
944
943
948
954
958
961
964
963
965
971
974
978
981
980
981
984
987
987
988
987
991
994
998
998
994
992
990
991
992
991
989
988
988
986
990
991
991
987
986
988
991
989
988
984
984
987
989
987
984
984
982
984
988
986
985
984
982
983
983
984
982
979
978
981
983
983
978
973
969
973
976
977
975
973
974
978
984
989
991
998
1013
1031
1055
1076
1096
1117
1145
1176
1204
1226
1245
1260
1261
1260
1244
1214
1170
1130
1097
1073
1055
1038
1019
1008
1003
999
999
993
986
980
976
974
975
974
970
966
961
963
967
964
960
956
958
959
958
957
954
951
951
954
952
953
951
947
946
949
952
949
943
941
943
943
942
944
939
934
935
937
936
936
931
928
926
928
930
926
925
923
923
926
927
927
927
930
932
938
943
947
949
950
955
963
971
976
976
975
977
980
985
988
985
979
982
983
985
985
984
979
980
978
985
984
981
977
977
978
980
979
980
977
977
978
982
984
979
976
975
980
983
983
981
979
978
980
982
980
978
975
976
976
978
977
975
970
970
972
973
970
970
966
967
968
972
971
971
967
969
974
984
989
994
1005
1023
1047
1072
1096
1117
1140
1170
1205
1234
1255
1267
1269
1264
1249
1222
1176
1128
1089
1064
1047
1033
1017
1004
995
994
992
990
984
977
971
966
966
965
962
958
954
952
954
955
953
949
947
948
948
951
950
946
944
945
948
947
947
943
942
940
943
943
944
942
940
938
940
941
937
934
927
926
929
932
932
931
927
927
931
933
932
931
933
935
937
943
947
947
950
956
962
970
974
972
976
978
983
988
992
995
991
989
995
998
997
995
991
988
988
990
987
987
984
984
988
987
986
983
980
981
985
983
982
980
980
981
980
984
983
983
978
979
982
985
982
981
979
980
981
984
981
982
978
978
979
978
978
971
969
972
976
981
986
988
997
1010
1029
1056
1081
1106
1131
1158
1193
1228
1252
1269
1279
1276
1265
1245
1208
1157
1103
1066
1044
1031
1021
1010
1001
999
1003
1001
996
986
980
975
977
976
974
969
964
961
962
962
961
958
951
949
951
953
952
949
946
943
946
947
947
945
942
941
942
948
944
942
940
941
943
941
944
942
940
940
941
944
945
940
935
932
935
935
934
931
929
927
931
936
934
933
932
934
938
944
949
947
949
955
962
967
972
972
970
972
975
978
979
978
980
981
985
990
988
985
986
985
985
986
988
984
981
982
984
988
989
985
983
984
987
988
985
983
982
978
985
985
986
982
980
981
983
987
986
985
978
981
984
986
984
979
977
979
980
982
981
978
975
973
976
978
976
976
969
971
972
977
978
979
981
985
996
1009
1025
1046
1064
1085
1106
1132
1162
1186
1208
1229
1249
1262
1256
1239
1207
1167
1127
1091
1061
1035
1015
1005
999
1000
998
994
991
984
981
980
978
972
965
963
965
968
964
962
953
954
957
955
955
951
951
947
947
951
951
950
946
942
947
949
948
944
945
942
945
944
945
943
940
939
940
941
941
938
935
934
935
933
933
930
928
929
931
933
933
931
930
927
929
932
935
938
939
943
947
953
960
960
965
971
976
982
984
980
981
980
987
990
991
992
992
996
996
999
998
997
993
992
992
994
993
991
989
991
990
993
993
991
988
988
991
993
992
990
987
987
991
993
989
989
985
987
989
990
991
988
984
984
986
990
990
989
989
985
988
990
991
987
986
985
988
986
986
988
989
994
1001
1012
1023
1039
1058
1082
1109
1130
1155
1179
1207
1232
1256
1274
1289
1289
1272
1244
1204
1161
1107
1066
1038
1022
1008
1003
999
997
992
991
989
987
984
977
972
970
971
970
968
965
960
958
959
962
960
957
951
951
954
954
954
951
950
950
953
951
952
951
947
945
948
949
950
947
942
942
945
946
946
945
939
939
941
943
943
940
937
935
935
936
937
937
931
931
932
935
935
936
935
935
941
947
948
954
955
960
965
971
974
975
975
980
984
987
989
984
986
986
990
993
995
996
996
997
1000
1004
1003
1000
996
996
997
1000
1000
997
994
995
998
1001
997
996
995
995
999
1001
1000
998
992
995
997
1000
997
996
995
994
996
1001
997
996
997
995
998
998
997
995
992
992
992
996
997
995
989
989
995
995
994
994
997
1001
1007
1020
1036
1053
1071
1094
1119
1145
1177
1202
1226
1250
1273
1291
1294
1282
1251
1211
1162
1117
1080
1050
1023
1008
999
996
999
998
995
991
990
987
985
979
974
968
970
970
964
966
960
960
959
961
959
958
954
954
953
956
955
954
951
948
949
952
952
947
946
945
943
946
946
945
943
940
942
943
945
940
937
935
936
937
937
933
931
930
931
933
931
927
925
924
923
927
926
926
923
926
929
934
936
937
936
939
946
948
953
953
953
956
960
963
964
967
964
968
970
973
977
976
974
977
982
986
987
983
981
981
982
981
982
982
979
980
978
984
983
980
979
979
979
981
983
982
979
977
979
982
983
983
980
975
981
983
984
981
976
978
974
980
984
980
976
974
978
979
978
977
974
976
976
981
979
983
981
985
994
1009
1027
1046
1068
1089
1115
1145
1173
1200
1223
1247
1266
1277
1267
1245
1205
1160
1120
1089
1063
1040
1019
1004
999
998
996
992
982
979
976
973
970
968
963
962
958
960
960
955
952
951
952
952
951
948
942
941
945
947
947
942
943
942
944
945
946
943
939
937
939
944
943
941
938
934
940
941
940
939
934
932
934
936
936
932
929
927
928
930
926
928
926
925
927
932
937
934
929
934
940
947
954
953
948
954
959
963
964
965
963
967
969
974
976
977
978
982
983
989
988
985
984
981
981
985
986
986
982
978
984
988
986
984
980
980
982
988
987
984
981
980
982
984
983
981
980
980
979
985
985
982
979
980
982
984
984
982
978
977
982
982
984
981
975
979
982
989
1000
1011
1029
1050
1071
1094
1118
1142
1165
1194
1222
1245
1256
1253
1236
1204
1158
1112
1068
1040
1018
1002
991
990
992
990
982
979
976
977
971
967
960
961
958
958
958
954
949
950
950
954
951
949
945
944
945
947
946
943
941
942
944
947
945
944
941
942
943
945
943
941
940
936
938
940
940
939
938
934
934
935
936
932
927
926
928
931
929
932
928
930
932
937
937
939
939
941
946
954
957
957
957
959
962
965
968
970
967
966
971
975
977
979
978
976
983
986
987
983
980
979
980
982
986
983
980
979
979
979
981
979
974
977
978
983
984
978
975
976
978
981
980
979
976
974
977
982
980
978
976
975
976
978
980
976
975
973
974
975
976
975
972
974
977
984
992
995
1006
1026
1050
1073
1093
1115
1139
1170
1200
1225
1240
1250
1242
1219
1188
1145
1099
1059
1033
1012
1005
999
997
995
996
991
988
982
978
976
971
967
965
962
963
960
955
954
954
955
954
949
945
946
948
949
948
948
943
945
941
944
948
945
940
941
943
946
945
942
941
936
939
941
943
939
937
936
936
937
935
931
927
923
925
929
928
928
924
922
929
933
935
936
935
938
948
954
956
960
958
962
964
969
971
968
965
970
975
978
983
981
979
980
983
985
986
983
978
978
983
986
983
978
978
980
983
982
981
978
977
975
978
982
980
980
975
978
980
979
981
980
978
976
979
982
982
978
977
978
979
982
980
979
974
975
979
983
989
994
1004
1021
1045
1074
1098
1118
1144
1174
1207
1234
1251
1258
1245
1216
1175
1126
1076
1039
1008
993
984
983
984
984
984
983
980
978
976
970
965
958
961
961
962
958
952
950
952
954
952
952
947
943
946
946
947
944
939
940
944
946
946
942
939
940
943
945
943
943
937
938
940
940
942
940
937
937
936
939
934
932
926
929
931
934
936
934
932
936
940
944
945
949
949
953
959
961
965
968
965
964
965
973
975
975
972
972
975
982
981
982
982
984
984
988
987
986
982
979
982
990
988
986
985
984
987
990
988
987
982
984
984
988
988
985
982
982
982
985
984
983
982
981
982
985
986
982
981
983
986
987
985
982
982
984
987
995
1003
1015
1033
1063
1089
1112
1139
1169
1198
1224
1248
1273
1278
1267
1232
1188
1135
1084
1049
1016
995
983
980
985
989
986
986
981
980
981
978
972
968
964
965
965
965
958
955
956
954
956
958
954
952
950
948
955
954
953
948
946
949
951
951
950
945
947
947
950
948
949
942
943
945
946
946
943
940
939
941
942
941
939
933
931
931
936
938
935
933
936
945
947
948
946
947
950
952
960
962
964
960
962
968
972
971
973
970
971
975
978
981
979
979
982
985
989
991
983
985
985
989
990
989
986
985
986
987
990
987
987
986
988
989
989
988
986
983
983
985
987
987
986
985
986
988
989
986
991
988
985
986
989
990
987
984
984
987
992
994
994
995
1000
1009
1027
1046
1068
1088
1112
1139
1174
1205
1230
1250
1270
1281
1276
1248
1207
1153
1097
1058
1033
1016
996
983
980
981
986
984
977
974
973
970
971
969
963
959
957
958
960
957
954
950
949
951
952
952
950
946
945
945
945
943
941
936
934
938
940
937
935
932
933
936
937
935
934
929
926
931
930
928
924
923
919
923
926
923
919
917
916
918
921
921
921
921
923
929
932
933
932
931
934
940
944
945
944
943
946
948
953
954
955
952
952
958
963
967
966
967
969
972
976
977
975
972
972
970
977
976
975
970
972
974
976
977
975
975
972
975
978
978
976
974
972
973
976
976
976
975
973
974
975
976
975
971
973
974
976
975
974
975
976
978
986
990
991
1004
1025
1049
1075
1096
1116
1140
1170
1197
1221
1242
1257
1252
1237
1208
1171
1119
1077
1045
1023
1006
993
985
979
976
975
975
976
973
967
962
958
958
960
958
953
947
946
947
952
950
947
944
943
944
946
946
944
940
941
941
944
944
939
933
934
939
939
938
940
936
934
936
938
935
931
931
931
934
935
937
934
930
929
931
931
932
925
921
920
928
932
934
931
930
930
934
937
941
940
941
943
947
953
952
954
953
953
957
961
962
962
958
961
965
973
975
975
975
974
979
982
982
979
979
977
978
981
980
979
979
981
981
982
984
980
977
978
981
983
979
979
976
977
978
982
983
979
978
977
980
981
978
978
978
978
979
980
983
979
976
977
978
982
986
985
993
1003
1024
1049
1071
1088
1108
1129
1161
1190
1213
1230
1239
1242
1228
1202
1157
1108
1067
1040
1023
1010
995
986
981
984
986
987
982
973
968
965
967
964
964
961
956
956
956
957
953
953
951
946
949
952
949
947
942
944
946
946
945
943
939
940
941
941
943
941
940
937
943
943
943
941
937
935
940
938
942
938
936
936
937
938
937
933
930
929
931
932
935
933
935
934
937
943
945
942
944
945
951
954
958
957
957
960
963
966
967
967
965
967
971
977
978
980
975
980
984
986
986
984
983
981
981
984
985
984
979
978
983
984
982
981
980
978
979
982
980
979
979
979
981
980
982
979
979
979
980
983
982
981
978
979
980
985
985
986
983
988
997
1004
1015
1031
1049
1073
1093
1119
1144
1176
1203
1224
1242
1253
1250
1232
1203
1164
1114
1071
1035
1014
995
984
976
974
976
974
969
966
967
967
970
969
961
961
961
961
960
959
954
954
954
954
955
951
947
947
950
950
949
949
944
945
946
947
948
948
944
945
943
948
947
948
942
941
944
946
949
944
943
942
940
945
946
941
939
939
940
941
943
941
939
937
939
944
948
948
949
948
946
950
955
953
951
950
953
958
962
961
957
958
960
965
968
965
964
966
970
975
978
979
977
980
981
986
988
986
984
981
983
987
989
987
985
984
986
988
987
983
982
982
986
987
984
983
984
980
983
988
987
987
983
981
985
988
989
985
985
984
985
988
988
984
984
983
988
990
995
996
997
1003
1013
1028
1047
1065
1080
1102
1127
1155
1181
1201
1219
1238
1249
1253
1235
1206
1163
1114
1070
1038
1012
992
980
975
977
980
978
975
975
976
978
976
975
971
967
963
966
965
965
961
959
957
961
962
959
955
953
954
953
953
952
950
949
947
951
952
952
950
946
946
948
951
950
947
946
946
946
948
947
946
943
942
944
946
946
942
937
939
941
943
941
936
934
932
935
942
942
941
940
940
943
950
952
948
948
947
952
955
958
959
959
960
966
968
969
969
968
966
970
976
976
977
974
975
977
984
990
990
988
987
989
991
991
989
990
990
989
994
995
993
987
989
991
993
994
992
989
989
990
993
990
990
989
987
990
990
990
990
987
985
986
996
993
992
989
988
990
995
993
995
995
998
1002
1009
1017
1022
1034
1056
1081
1104
1123
1143
1167
1198
1225
1248
1265
1276
1277
1260
1233
1195
1144
1094
1052
1023
1004
993
982
975
973
975
977
977
974
969
963
964
969
972
974
969
963
962
965
964
964
962
960
958
961
960
961
955
955
954
955
957
957
954
951
951
954
955
957
954
952
950
949
952
955
953
947
948
951
952
952
951
949
947
948
949
951
947
945
948
949
952
951
953
946
946
952
955
956
958
955
959
959
962
963
961
956
957
960
964
965
964
961
963
965
970
970
969
969
972
975
977
980
979
979
982
987
992
994
995
995
995
995
999
999
996
994
993
997
997
999
1000
993
995
995
1000
1000
997
994
996
997
1001
1000
997
997
995
995
998
999
998
993
995
997
997
999
999
995
994
996
998
1000
1000
999
999
1002
1007
1011
1017
1023
1038
1058
1081
1101
1121
1142
1172
1202
1228
1250
1270
1282
1284
1273
1252
1211
1160
1110
1070
1041
1022
1004
991
986
985
990
989
985
984
982
980
982
983
979
975
973
971
972
973
971
970
964
964
966
967
965
961
959
959
960
960
956
953
952
952
955
958
955
954
952
950
953
953
954
950
946
945
944
947
946
946
942
941
942
945
944
939
937
935
937
941
942
937
936
935
936
939
939
940
939
941
943
948
950
949
947
948
949
955
954
954
953
956
962
966
968
967
967
969
970
976
978
979
976
978
986
991
992
991
984
990
994
994
995
993
989
989
990
996
995
994
990
990
992
996
995
996
993
991
992
995
994
995
991
991
995
997
995
993
993
994
994
995
996
990
986
992
993
997
996
996
995
995
1000
1007
1010
1013
1020
1038
1060
1080
1102
1121
1138
1165
1192
1219
1238
1256
1266
1265
1252
1231
1193
1144
