979
976
982
986
989
989
987
984
988
993
998
999
1000
1002
998
1002
1005
1002
1000
994
998
1002
1005
1004
1000
1000
999
1004
1007
1005
1003
1000
1000
1002
1006
1003
1000
997
999
999
1003
1003
999
996
1000
1001
1004
1002
997
999
999
1002
1011
1010
1014
1016
1026
1039
1062
1085
1113
1138
1169
1202
1236
1263
1290
1303
1309
1294
1259
1212
1153
1095
1051
1021
1006
995
992
996
999
999
998
993
989
987
986
990
994
995
990
989
986
985
989
988
986
982
984
985
986
984
982
979
979
982
984
983
980
978
976
978
980
981
977
976
977
979
981
983
980
978
980
983
987
986
984
981
983
983
986
984
981
981
981
982
981
982
981
977
979
982
986
988
982
984
984
987
988
986
987
984
986
987
988
989
987
986
989
993
995
993
994
988
990
995
1002
1003
1005
1003
1003
1008
1010
1006
1007
1005
1004
1006
1009
1010
1006
1004
1004
1006
1011
1009
1006
1004
1004
1007
1008
1008
1005
1006
1004
1006
1005
1006
1004
1001
1000
1005
1008
1005
1001
999
998
1000
1001
1004
998
993
997
999
998
998
993
992
998
1000
1010
1015
1021
1038
1060
1088
1115
1142
1174
1206
1237
1268
1299
1314
1312
1292
1256
1213
1161
1115
1077
1047
1029
1022
1023
1023
1019
1013
1007
1004
1002
1000
991
987
987
988
990
985
984
978
979
979
979
981
974
972
973
976
978
979
977
970
971
972
976
972
972
971
971
971
974
978
972
970
969
972
974
971
973
966
966
966
971
967
965
960
960
961
962
960
957
952
954
953
955
954
956
955
954
960
963
966
968
970
972
973
981
983
984
985
986
988
993
995
991
994
997
1000
1005
1005
1002
999
1002
999
1001
1003
998
998
999
1000
1003
1004
1001
998
998
1001
1004
1002
999
999
1000
1000
1002
997
996
993
998
1000
1001
1001
997
994
995
996
999
997
997
992
991
994
997
996
991
988
988
989
992
990
984
981
986
991
997
1002
1007
1013
1033
1059
1087
1114
1139
1167
1202
1237
1265
1285
1292
1282
1263
1224
1178
1131
1093
1067
1054
1044
1034
1026
1021
1013
1008
1005
1005
999
994
989
987
987
988
986
981
977
975
975
980
977
973
970
970
973
973
972
971
969
969
970
975
971
970
970
970
976
977
977
971
972
971
972
973
971
965
962
962
965
963
964
962
961
960
964
965
964
964
965
968
973
978
982
981
985
987
993
998
997
997
996
996
1002
1005
1006
1005
1003
1004
1006
1007
1004
1001
995
994
998
1000
1000
996
994
992
993
995
993
991
990
989
991
990
993
990
985
988
990
993
992
988
984
984
986
990
989
985
981
982
984
984
984
980
979
981
979
982
980
975
971
970
971
972
971
968
964
965
968
973
969
972
972
981
992
1001
1011
1029
1051
1081
1107
1138
1167
1194
1224
1251
1275
1294
1300
1287
1259
1223
1175
1125
1083
1052
1031
1016
1011
1010
1010
1004
995
992
988
987
986
981
974
975
972
975
971
971
966
966
969
970
968
964
962
963
965
969
966
963
962
962
964
964
964
960
958
960
962
964
959
958
955
955
953
952
951
952
949
950
953
954
955
950
946
953
956
961
961
962
962
964
970
976
974
979
981
982
986
992
996
996
999
1003
1006
1013
1012
1009
1009
1010
1010
1008
1005
1003
998
1000
1002
1006
1002
997
996
996
997
996
996
991
988
986
991
994
991
989
987
987
989
990
991
986
986
987
988
991
988
986
985
984
987
988
985
982
979
982
980
983
981
976
972
973
973
976
977
974
973
973
976
978
980
981
980
992
1000
1014
1024
1043
1065
1094
1122
1147
1173
1204
1233
1262
1287
1306
1310
1300
1280
1245
1207
1158
1106
1072
1051
1038
1029
1022
1017
1014
1009
1005
1004
1000
995
985
983
980
980
983
981
975
972
973
975
976
973
970
966
967
971
972
970
967
965
964
968
967
965
963
961
961
966
966
963
960
958
958
958
960
957
958
955
956
956
958
956
953
951
951
957
961
965
960
961
965
971
977
977
977
975
981
986
991
993
993
995
1000
1007
1014
1014
1011
1009
1010
1014
1014
1012
1007
1005
1004
1007
1007
1005
1002
997
998
998
1000
998
996
994
992
994
994
993
991
987
989
991
993
990
988
987
988
991
991
990
988
987
986
987
989
985
982
985
985
988
988
984
982
979
978
979
980
979
977
974
975
977
978
977
975
971
975
979
985
986
987
989
997
1004
1016
1025
1034
1050
1071
1099
1127
1153
1178
1209
1244
1278
1305
1322
1328
1319
1295
1255
1212
1153
1100
1058
1035
1021
1014
1008
1011
1011
1011
1012
1011
1005
999
994
992
989
991
989
981
979
979
983
983
981
976
974
977
979
979
976
975
973
971
974
978
978
974
970
972
974
972
970
967
966
965
966
966
965
964
958
960
962
964
964
959
958
955
958
960
963
961
962
963
965
969
971
972
970
975
982
987
988
983
983
990
995
1003
1005
1003
1007
1010
1013
1016
1019
1019
1013
1015
1019
1019
1019
1012
1010
1012
1012
1012
1007
1008
1006
1003
1005
1005
1000
997
994
994
998
1000
998
995
992
993
993
998
993
991
991
992
994
999
998
994
991
992
995
996
990
987
988
988
991
989
992
988
986
986
986
983
985
980
980
981
984
984
985
978
979
980
985
993
999
1004
1009
1025
1042
1071
1100
1127
1149
1179
1213
1247
1273
1301
1317
1333
1339
1332
1308
1270
1227
1175
1124
1087
1062
1042
1031
1018
1016
1019
1014
1011
1005
1003
998
996
993
988
984
984
985
984
979
978
975
972
976
977
973
971
971
968
970
972
972
968
967
967
967
971
969
965
963
965
967
968
966
965
962
962
963
962
960
956
952
953
956
957
958
949
949
949
950
951
950
944
944
947
949
953
955
953
956
956
961
966
966
967
972
976
979
983
985
986
987
988
993
997
998
996
998
1001
1003
1004
1003
997
997
995
993
995
995
991
989
991
993
994
993
988
985
988
989
991
988
984
982
984
984
990
990
987
985
984
987
988
985
983
981
985
986
987
984
981
982
981
984
989
987
983
981
982
982
985
979
976
971
974
972
975
972
971
969
968
973
976
977
977
982
991
1003
1019
1038
1061
1085
1112
1143
1177
1210
1237
1260
1281
1301
1311
1301
1275
1236
1191
1140
1099
1068
1045
1027
1013
1011
1011
1008
1000
994
987
982
987
982
978
972
971
970
971
969
964
960
959
959
960
961
958
956
958
957
961
959
957
954
952
954
957
957
952
950
950
948
953
953
946
947
946
950
952
949
946
939
940
940
943
941
937
937
936
937
941
940
936
936
935
941
943
944
947
946
948
956
961
963
966
968
971
973
980
980
978
977
980
990
992
994
992
990
990
991
992
989
984
982
983
986
986
986
984
979
980
983
984
980
981
979
977
981
985
981
979
978
975
980
978
980
978
975
977
978
981
980
975
977
975
978
979
976
974
974
974
976
977
972
971
967
967
968
971
969
965
967
973
982
990
998
1014
1038
1065
1090
1113
1141
1167
1200
1226
1251
1273
1274
1265
1244
1208
1172
1128
1088
1061
1044
1032
1023
1017
1010
1007
1001
996
990
991
984
980
975
973
972
974
971
964
961
963
965
964
962
956
953
959
957
959
958
955
953
952
955
957
957
952
951
951
953
957
954
951
947
952
952
953
954
951
948
952
949
952
950
946
943
943
944
946
943
939
937
938
940
943
940
939
938
940
943
946
947
953
954
958
963
966
965
970
971
972
978
981
981
982
978
981
985
992
992
989
988
987
992
993
991
988
985
984
987
989
988
986
983
985
985
987
983
983
979
981
982
984
984
981
978
980
982
986
983
979
977
977
979
980
980
977
974
975
978
980
977
973
971
971
976
977
976
973
969
967
965
973
969
965
966
966
977
985
992
999
1014
1038
1063
1092
1115
1142
1170
1200
1228
1250
1267
1272
1258
1231
1193
1146
1095
1054
1027
1010
1002
1004
1003
1002
999
995
993
990
986
980
975
974
974
977
975
971
968
966
967
968
966
960
958
959
962
962
961
958
956
956
957
961
958
956
954
953
957
958
958
956
954
955
955
959
958
953
951
952
955
957
956
951
947
944
947
948
946
944
943
945
946
948
947
944
941
945
947
954
957
958
958
964
969
974
977
976
982
980
985
987
987
986
983
987
989
994
994
996
994
994
994
998
995
993
990
990
993
996
995
992
989
991
993
996
995
992
988
988
991
993
992
989
985
987
988
988
989
988
987
985
987
991
990
987
985
984
987
988
986
984
982
984
984
990
990
992
992
998
1006
1016
1035
1057
1077
1101
1124
1152
1179
1203
1226
1247
1259
1263
1248
1217
1178
1129
1086
1055
1031
1014
999
994
997
999
1000
996
994
992
988
989
985
981
979
979
978
980
975
971
967
969
970
974
973
969
966
965
966
970
966
966
960
964
963
970
969
963
962
963
964
968
967
964
961
962
960
962
963
963
961
961
961
964
964
960
957
956
957
958
952
951
947
949
952
955
952
952
950
952
958
962
964
960
963
967
970
975
974
974
973
977
981
984
982
982
977
978
987
987
991
992
989
991
994
997
996
992
992
992
995
997
997
993
992
995
996
998
998
995
991
992
993
995
997
991
990
990
994
994
991
986
989
988
991
993
992
990
987
989
991
993
989
988
985
985
989
991
991
988
989
993
1000
1008
1019
1037
1056
1082
1106
1135
1162
1187
1209
1233
1252
1259
1239
1209
1167
1120
1081
1052
1027
1008
996
995
998
1004
1001
996
994
994
992
995
989
985
980
981
981
981
980
977
972
976
977
979
977
974
974
972
973
978
972
973
970
970
975
975
973
969
969
969
972
974
973
970
968
967
969
971
970
968
964
965
968
968
965
963
961
961
962
963
958
954
956
956
959
961
959
957
959
960
963
967
967
967
969
971
976
977
981
978
978
979
986
989
988
986
987
988
990
993
996
997
998
1000
1003
1003
1003
1000
999
1001
1000
1003
1004
1001
998
999
1001
1005
1000
1001
998
997
1000
1003
1003
1000
995
993
999
1001
1000
998
996
997
998
999
1000
997
996
996
996
998
996
995
993
994
995
998
996
998
999
1001
1006
1012
1016
1024
1040
1066
1091
1113
1133
1160
1186
1210
1234
1252
1260
1246
1223
1183
1139
1098
1060
1030
1008
995
994
999
1002
999
996
995
997
997
995
988
984
983
983
987
983
981
975
977
979
982
980
975
972
973
977
977
977
972
968
972
972
976
975
972
968
966
970
973
974
970
966
966
970
973
970
968
964
965
966
968
962
958
954
958
959
959
954
950
948
950
955
958
957
954
954
956
959
965
965
963
963
965
973
978
977
979
977
980
986
988
987
985
984
988
990
993
994
995
996
999
1003
1005
1000
997
996
997
1001
1002
1004
1000
998
1001
1003
1006
1007
1004
1001
1003
1003
1006
1004
1001
998
1000
1000
1007
1001
1000
998
999
1001
1003
1003
1000
997
998
998
1003
999
999
996
995
998
1003
1000
1001
1000
1001
1008
1017
1022
1031
1052
1078
1104
1130
1158
1187
1214
1241
1268
1286
1291
1282
1253
1215
1168
1121
1078
1046
1022
1006
999
1004
1007
1004
1002
1001
1004
1005
1000
996
991
989
990
993
988
986
981
983
980
986
984
983
980
980
980
982
981
975
975
978
979
981
980
978
974
975
977
980
977
977
973
976
978
980
976
975
973
972
973
973
974
971
968
968
971
972
970
965
962
962
962
963
962
964
963
965
967
972
970
969
966
969
973
979
979
978
977
976
981
984
988
988
984
988
990
992
993
994
992
993
1001
1003
1007
1004
1001
1002
1004
1011
1009
1005
1002
1006
1006
1005
1007
1003
1001
1003
1005
1008
1006
1002
1001
1001
1001
1004
1005
1000
997
997
1001
1003
1002
1001
993
996
998
1001
999
996
994
992
997
998
997
994
990
993
997
1003
1003
1001
1001
1013
1031
1054
1081
1100
1124
1155
1188
1224
1246
1264
1283
1286
1280
1261
1218
1167
1112
1078
1049
1032
1014
1001
994
995
997
998
994
988
985
987
990
989
985
983
975
977
979
981
977
975
971
974
977
980
976
971
969
970
971
973
972
970
968
969
972
972
969
969
968
969
972
972
972
968
967
967
971
971
968
965
961
962
963
962
962
957
959
958
957
958
956
951
950
952
955
958
958
954
955
958
962
963
963
964
966
969
973
977
977
976
974
976
983
986
984
983
982
984
987
991
992
994
992
993
997
1001
999
999
997
995
1001
1004
1002
1002
1000
1001
999
1006
1003
1001
998
997
1000
1001
999
997
994
995
997
1001
998
995
993
993
995
998
998
995
992
992
997
998
997
995
993
995
998
1003
1003
1004
1006
1013
1022
1039
1057
1077
1096
1121
1152
1183
1215
1239
1260
1275
1276
1260
1223
1172
1116
1072
1046
1027
1011
1000
996
998
998
997
991
986
984
984
987
992
991
987
983
986
985
989
988
985
984
983
986
985
984
980
978
979
981
984
984
980
977
978
979
983
980
978
978
978
979
982
982
976
975
976
977
981
975
973
973
974
973
975
974
971
972
972
974
972
976
975
971
969
975
975
973
971
973
975
977
980
976
976
972
973
975
979
977
973
972
973
977
980
980
978
977
981
985
988
986
989
990
992
996
1002
1004
1002
998
1000
999
1004
1001
999
999
998
1000
1003
1003
999
995
996
999
1003
1002
998
998
995
996
1001
1000
999
995
993
994
997
995
994
991
991
992
999
997
994
994
995
995
994
993
996
992
998
1001
1010
1010
1013
1025
1045
1070
1094
1115
1140
1168
1199
1227
1250
1265
1262
1245
1219
1184
1142
1097
1062
1034
1017
1005
1001
995
993
990
989
985
986
987
985
981
982
982
985
981
973
971
972
975
978
976
969
968
969
971
976
974
970
967
968
967
972
971
966
964
965
967
968
966
965
962
963
966
968
967
963
958
959
965
967
965
962
959
959
961
962
961
959
956
957
956
958
957
954
953
950
952
953
954
951
951
951
958
959
960
959
955
958
961
965
965
964
965
966
969
972
972
970
972
971
973
979
977
978
977
978
982
989
991
991
988
991
992
993
991
990
989
990
993
988
992
988
987
988
990
992
993
989
988
988
991
993
990
989
985
985
987
988
988
984
984
983
987
988
988
986
984
985
986
986
987
984
982
984
986
989
988
988
989
992
998
1005
1013
1028
1049
1076
1098
1122
1149
1175
1201
1228
1251
1264
1262
1241
1209
1165
1117
1081
1048
1026
1006
996
991
997
997
996
991
989
991
994
991
988
984
982
983
982
982
978
977
975
978
981
979
974
976
975
976
977
974
972
966
971
973
975
974
971
969
969
972
975
973
972
968
971
969
970
972
970
969
970
972
974
971
967
965
969
972
970
970
969
963
964
965
963
962
963
960
963
967
969
966
967
963
966
968
972
971
970
969
971
975
979
980
977
974
979
982
986
981
982
982
988
993
996
995
998
997
998
1000
1000
1001
998
997
1000
998
1002
1004
1003
999
1000
1001
1001
998
996
994
999
1002
1002
1000
996
996
993
997
1002
1000
994
994
992
995
996
992
991
987
989
990
993
992
989
985
989
989
989
992
990
989
992
999
1003
1010
1020
1039
1063
1088
1115
1138
1165
1192
1217
1245
1266
1275
1266
1239
1202
1156
1109
1069
1037
1013
998
995
999
1004
1004
997
999
1000
999
998
992
988
985
986
986
986
983
981
980
982
984
984
981
975
977
982
984
980
980
975
975
977
979
977
977
974
974
978
980
980
975
974
975
977
978
979
977
973
972
977
977
979
972
971
970
968
973
972
968
962
961
965
966
965
964
964
964
968
973
971
968
968
974
980
983
985
983
981
984
990
994
991
993
994
993
992
997
996
999
996
998
1002
1007
1009
1006
1005
1006
1006
1011
1006
1005
1005
1007
1009
1014
1012
1008
1007
1005
1010
1012
1010
1006
1006
1006
1008
1010
1010
1004
1006
1005
1004
1009
1005
1004
1005
1006
1006
1010
1006
1005
1003
1003
1004
1008
1006
1002
1002
1001
1001
1004
1002
999
998
996
999
1001
998
998
996
1002
1005
1013
1022
1028
1045
1069
1099
1126
1152
1178
1206
1235
1262
1287
1304
1314
1312
1296
1269
1234
1186
1134
1094
1061
1040
1025
1015
1016
1017
1019
1019
1019
1012
1004
999
995
994
997
995
992
990
988
987
990
987
984
982
983
985
988
988
984
979
979
983
986
983
978
976
977
977
983
980
978
973
974
977
978
980
978
975
973
975
979
978
975
973
972
975
978
976
972
971
970
969
968
967
962
960
960
963
965
966
963
964
963
967
973
974
974
974
980
985
990
989
986
991
994
995
999
1000
999
997
1001
999
1005
1006
1005
1006
1011
1013
1014
1012
1007
1005
1009
1010
1011
1009
1007
1006
1007
1010
1012
1011
1007
1005
1005
1010
1013
1009
1007
1009
1008
1006
1009
1006
1006
1004
1003
1002
1007
1005
1004
1001
1002
1001
1007
1004
1001
997
995
999
1003
998
994
990
994
996
993
993
989
987
988
991
994
999
997
999
1006
1020
1039
1057
1083
1107
1137
1170
1202
1235
1257
1283
1303
1313
1307
1284
1250
1205
1157
1118
1088
1065
1043
1031
1026
1023
1024
1017
1010
1004
997
999
998
994
989
984
984
984
985
981
979
975
978
979
980
977
973
971
972
973
974
972
971
966
966
970
974
970
968
967
965
964
967
966
963
961
961
964
965
962
960
956
956
956
957
953
948
946
948
950
950
949
946
943
944
946
948
947
948
948
952
958
961
965
964
967
972
975
983
986
983
984
984
989
993
994
995
994
994
999
1003
1004
996
996
997
998
998
999
997
995
996
997
997
997
995
995
997
996
999
999
996
995
994
995
999
997
995
994
996
998
996
996
995
994
992
996
999
997
994
989
991
994
997
995
992
990
991
993
994
991
990
988
990
990
991
989
985
980
982
984
988
990
987
992
998
1003
1016
1028
1048
1069
1093
1119
1147
1174
1203
1224
1248
1270
1284
1280
1265
1238
1202
1161
1123
1091
1068
1049
1037
1030
1028
1023
1018
1013
1011
1007
1005
999
994
989
989
992
992
989
