993
996
1001
1005
1002
999
998
999
1000
1007
1004
1000
995
995
994
995
992
983
980
979
979
979
976
972
969
971
975
972
971
969
968
966
971
973
972
967
965
967
970
972
970
970
968
972
973
976
973
968
961
963
964
968
967
967
967
971
976
981
983
984
986
987
996
995
994
992
990
991
989
994
991
986
984
986
988
986
982
979
978
976
979
978
974
969
963
962
961
964
962
958
956
958
961
965
969
969
971
971
976
979
982
979
980
981
981
981
981
979
979
982
983
986
985
988
987
994
997
1001
1002
1002
1005
1007
1008
1009
1003
997
998
999
1004
1005
1003
1001
999
997
999
1000
996
991
987
988
991
989
987
983
976
979
979
980
978
977
974
976
976
975
972
973
977
977
982
987
984
987
989
989
994
995
994
994
995
997
1002
1004
1000
999
999
1001
1012
1018
1025
1025
1022
1026
1032
1032
1030
1023
1020
1018
1019
1021
1020
1016
1012
1015
1014
1008
1004
999
999
1001
999
999
996
991
989
987
986
987
982
978
981
983
988
990
990
986
989
990
994
993
992
995
999
1003
1007
1003
1002
998
995
1006
1033
1070
1110
1152
1184
1209
1213
1192
1146
1085
1035
1008
1008
1018
1026
1029
1027
1020
1021
1019
1014
1011
1002
1007
1005
1006
1006
1007
1006
1008
1008
1005
1005
1001
1000
999
999
1001
998
990
990
990
992
994
993
989
987
991
994
996
998
998
999
1003
1001
1009
1008
1006
1003
1007
1010
1011
1009
1004
1007
1012
1017
1020
1020
1017
1021
1026
1030
1030
1029
1027
1025
1024
1025
1024
1022
1017
1014
1012
1013
1014
1010
1006
1002
1003
999
1000
995
993
989
988
986
984
979
975
972
975
977
977
974
971
967
970
975
979
981
979
983
985
992
995
1002
999
997
997
999
1001
1000
997
997
999
1001
1004
1003
1002
1002
1005
1014
1016
1014
1012
1014
1015
1016
1017
1010
1007
1007
1006
1009
1009
1009
1003
999
998
998
1002
998
995
993
992
995
992
988
981
982
982
982
983
981
977
976
976
977
981
980
978
975
975
979
982
981
981
982
986
987
991
988
981
980
983
985
988
991
988
987
997
1003
1009
1013
1016
1015
1019
1023
1030
1027
1027
1026
1026
1023
1024
1023
1019
1017
1016
1016
1016
1014
1008
1006
1006
1010
1010
1008
1002
1003
999
999
1000
997
990
984
978
979
983
992
1010
1039
1080
1118
1149
1151
1119
1066
1007
972
963
970
982
993
1002
1002
1002
999
995
991
994
995
997
994
994
993
998
1004
1008
1007
1003
1005
1010
1013
1014
1018
1015
1012
1019
1024
1028
1027
1027
1023
1021
1024
1022
1020
1016
1013
1013
1014
1011
1009
1006
1003
1000
1001
1001
995
990
991
989
987
990
988
984
981
983
984
987
986
985
985
987
990
994
994
993
994
997
995
995
993
989
988
990
990
991
994
997
997
1001
1007
1010
1007
1008
1007
1010
1014
1016
1007
1004
1003
1002
1005
1004
1004
1000
995
994
996
995
991
988
987
987
989
989
985
986
982
984
984
985
981
977
975
977
976
981
980
976
974
975
975
978
980
981
982
985
988
986
982
979
978
984
989
991
989
987
988
991
998
1006
1008
1010
1009
1013
1018
1020
1016
1014
1012
1012
1014
1014
1010
1009
1008
1005
1002
1003
1003
1000
998
996
997
997
989
985
982
981
981
980
976
972
975
975
982
986
989
989
990
993
998
995
993
993
992
992
995
998
999
997
995
995
995
997
996
990
993
996
1000
1006
1011
1014
1011
1013
1011
1016
1017
1015
1013
1012
1013
1011
1011
1006
997
992
995
1014
1035
1071
1105
1137
1159
1157
1125
1065
1010
975
955
957
962
972
976
979
978
974
969
969
965
967
968
970
969
969
966
970
973
980
979
979
979
981
985
990
988
988
988
992
994
999
997
1002
1002
1006
1016
1017
1017
1018
1017
1018
1020
1018
1019
1014
1012
1011
1010
1011
1008
1006
1003
999
998
999
995
987
985
986
987
986
980
973
973
969
969
970
965
960
957
955
957
959
955
950
947
944
945
949
948
947
946
951
953
957
954
948
950
953
955
957
955
954
956
961
971
973
975
976
977
983
987
996
1000
999
996
996
995
997
997
994
991
993
990
988
986
983
981
981
978
980
972
968
965
963
964
963
957
953
950
953
954
955
950
943
944
945
947
949
949
946
950
952
955
958
956
955
956
956
959
960
958
955
952
954
961
963
964
963
965
970
974
977
978
977
982
981
980
980
976
975
973
973
981
981
976
977
976
978
981
982
980
978
976
974
974
972
968
965
964
962
963
962
960
955
954
953
954
955
950
950
949
952
950
953
956
957
960
963
965
970
970
966
963
962
962
966
965
963
964
965
969
973
977
975
981
984
989
990
990
988
985
984
985
989
985
983
981
980
980
979
973
968
966
963
970
971
968
964
963
963
965
965
964
960
960
960
958
960
954
951
950
951
953
954
951
951
952
955
955
963
964
967
968
969
972
974
970
969
969
974
977
981
986
988
990
992
991
992
994
993
991
989
991
995
992
990
986
988
991
990
985
977
970
973
984
1014
1051
1089
1128
1154
1151
1111
1039
977
944
942
955
966
971
967
967
967
969
968
967
964
966
967
974
976
977
974
977
980
983
984
980
979
980
980
987
993
999
999
1000
1001
1008
1013
1016
1016
1013
1015
1014
1017
1017
1008
1008
1011
1010
1009
1003
998
993
992
993
994
988
984
979
976
979
977
972
971
969
970
970
972
970
967
965
965
966
966
966
966
967
971
975
978
976
976
973
972
975
977
971
970
970
975
982
989
988
991
991
995
1003
1006
1006
1006
1002
1004
1007
1004
1008
1005
1001
998
1002
1002
999
997
992
994
994
993
988
984
983
979
978
978
973
968
962
964
967
969
965
962
962
966
968
971
977
976
976
982
986
987
988
987
987
992
995
996
999
997
1004
1010
1014
1021
1026
1024
1025
1028
1026
1027
1021
1009
997
990
995
1016
1046
1087
1128
1167
1186
1180
1140
1079
1029
1004
995
999
1003
1008
1013
1013
1013
1011
1002
994
990
987
990
989
987
983
979
981
985
989
989
991
991
993
997
1000
999
998
999
1001
1007
1005
1005
1005
1003
1001
1009
1013
1011
1011
1011
1014
1024
1028
1033
1033
1032
1032
1033
1034
1034
1033
1031
1035
1034
1035
1034
1032
1025
1023
1025
1027
1025
1019
1016
1014
1014
1011
1007
1002
999
996
998
997
994
986
982
980
984
984
980
976
978
981
984
987
989
987
989
993
999
997
997
994
993
996
999
999
999
996
999
1002
1006
1008
1008
1009
1011
1014
1018
1017
1015
1012
1011
1011
1016
1019
1015
1013
1012
1012
1013
1014
1011
1007
1007
1008
1006
1009
1003
1001
997
995
995
996
994
991
993
992
993
990
989
988
989
992
994
999
1002
997
999
1004
1010
1016
1016
1013
1012
1012
1017
1022
1020
1017
1017
1021
1024
1029
1030
1028
1031
1034
1036
1037
1034
1028
1026
1027
1030
1033
1029
1025
1025
1025
1025
1024
1018
1015
1012
1010
1015
1016
1010
1002
1002
998
1001
1004
1001
992
990
987
990
991
989
988
986
988
987
989
990
987
991
992
997
1002
1004
1006
1006
1009
1014
1013
1009
1003
997
1002
1024
1055
1092
1127
1161
1192
1211
1208
1169
1109
1054
1028
1027
1039
1046
1048
1046
1040
1040
1039
1034
1031
1029
1032
1033
1033
1027
1022
1018
1016
1018
1014
1012
1008
1004
1004
1006
1004
1003
1000
996
1001
1001
1004
1002
1000
1001
1001
1005
1004
1003
1001
1006
1007
1013
1017
1014
1013
1013
1014
1019
1023
1025
1026
1030
1035
1041
1045
1045
1043
1045
1044
1048
1048
1046
1043
1040
1040
1043
1043
1035
1030
1021
1021
1023
1021
1014
1009
1003
1004
1004
1001
997
993
991
988
989
989
987
983
981
977
981
984
982
982
982
984
989
988
991
989
990
993
994
994
995
992
992
992
999
999
1003
1006
1008
1011
1016
1021
1021
1019
1019
1025
1025
1025
1023
1018
1016
1018
1015
1019
1013
1009
1004
1001
1004
1004
1002
999
997
998
999
998
993
991
986
986
988
988
987
983
979
982
982
984
981
981
981
986
986
991
992
990
992
994
998
1000
998
995
995
996
998
998
1000
1006
1007
1009
1019
1021
1022
1022
1023
1023
1025
1034
1034
1028
1025
1024
1027
1025
1023
1022
1019
1019
1021
1019
1016
1015
1010
1010
1011
1009
1003
995
994
991
993
989
987
981
977
973
980
977
974
970
980
1000
1033
1071
1108
1136
1148
1141
1112
1058
1013
976
965
967
981
990
989
990
988
992
997
1005
1005
1005
1007
1009
1017
1020
1018
1017
1014
1012
1016
1016
1014
1012
1007
1010
1009
1006
1004
1002
1002
1001
1000
1001
998
993
989
988
991
992
988
984
978
979
982
982
983
983
983
985
989
990
995
994
993
996
1001
1004
1002
997
995
996
999
999
997
998
999
1002
1007
1010
1009
1011
1010
1014
1017
1013
1011
1004
1002
999
998
1001
998
993
990
991
991
990
984
980
977
979
980
978
975
972
971
969
967
967
963
961
960
957
962
962
962
958
959
962
966
965
970
967
971
970
974
973
973
971
974
975
980
984
985
988
988
993
995
994
981
968
963
976
1004
1040
1080
1119
1148
1161
1150
1105
1050
1015
998
1002
1015
1020
1016
1003
990
987
983
980
975
970
965
960
964
961
961
955
956
956
960
959
960
957
956
963
968
972
974
971
969
967
972
977
975
974
974
977
981
987
989
988
989
994
996
1000
1001
999
997
996
996
996
995
989
988
986
984
982
975
972
968
969
965
963
956
950
945
945
946
945
944
942
942
941
944
947
944
941
939
941
944
950
952
951
951
953
956
957
958
956
958
959
960
964
965
963
967
969
972
974
974
972
971
971
972
976
973
969
967
968
968
968
965
966
965
967
966
969
965
961
960
960
959
955
951
948
948
946
950
951
946
941
942
942
945
950
949
948
945
954
959
963
967
964
966
968
973
972
969
970
973
974
979
981
977
978
980
988
994
998
999
998
996
1000
1000
1001
997
992
990
990
990
993
989
984
980
980
979
979
974
971
969
968
968
966
962
958
956
957
957
956
952
946
945
947
949
952
946
942
943
947
954
959
957
954
956
959
964
966
967
963
961
963
965
969
967
969
975
983
992
1000
1007
1007
1011
1015
1022
1024
1023
1023
1022
1020
1022
1024
1022
1014
1011
1012
1015
1014
1009
1001
1003
1019
1057
1102
1147
1176
1188
1171
1119
1054
997
966
958
965
978
989
986
982
980
978
981
980
985
984
985
988
991
991
990
986
987
989
988
991
989
988
985
991
998
999
1002
1004
1006
1016
1020
1027
1026
1027
1022
1028
1033
1034
1034
1033
1033
1035
1034
1032
1025
1020
1016
1016
1016
1014
1007
1000
997
997
1001
1000
995
993
989
991
991
989
987
984
985
986
990
995
994
990
991
989
992
989
986
982
982
984
985
990
990
990
990
994
1000
1004
1004
1004
1006
1012
1014
1010
1011
1007
1009
1011
1011
1017
1014
1007
1005
1007
1012
1012
1010
1009
1009
1010
1011
1010
1006
1001
1000
998
999
999
1000
995
993
994
996
998
997
997
997
1004
1008
1013
1011
1008
1009
1010
1013
1016
1013
1015
1015
1019
1024
1028
1028
1025
1030
1031
1037
1040
1035
1032
1029
1032
1035
1038
1038
1033
1031
1031
1031
1031
1030
1028
1025
1024
1020
1018
1016
1012
1010
1008
1007
1008
1007
1003
1000
998
1002
1007
1006
1005
1004
1004
1006
1008
1011
1013
1013
1019
1018
1018
1018
1020
1017
1018
1022
1023
1026
1026
1033
1034
1040
1038
1037
1037
1038
1037
1041
1041
1040
1036
1035
1038
1036
1035
1031
1031
1025
1027
1029
1030
1028
1024
1022
1020
1020
1020
1018
1015
1013
1015
1014
1013
1009
1004
1002
1000
1004
1003
1003
1000
1001
1005
1009
1013
1013
1013
1013
1016
1023
1024
1023
1020
1023
1027
1032
1039
1042
1047
1050
1055
1060
1066
1069
1068
1065
1063
1067
1064
1065
1063
1059
1062
1062
1060
1058
1051
1046
1042
1051
1073
1105
1141
1177
1212
1231
1228
1186
1119
1055
1021
1007
1009
1015
1021
1018
1016
1013
1011
1006
1002
1001
1003
1004
1006
1005
1002
1001
1008
1013
1016
1017
1018
1019
1022
1022
1026
1026
1026
1028
1031
1039
1041
1047
1048
1051
1051
1057
1060
1059
1055
1051
1053
1050
1052
1048
1048
1047
1049
1049
1049
1047
1047
1047
1044
1046
1048
1041
1041
1039
1037
1038
1036
1033
1030
1029
1030
1030
1029
1028
1024
1022
1024
1025
1023
1022
1018
1014
1013
1017
1018
1015
1014
1014
1017
1019
1019
1016
1012
1008
1013
1015
1017
1014
1014
1016
1018
1026
1029
1031
1030
1033
1040
1045
1046
1044
1042
1040
1039
1041
1039
1036
1033
1031
1030
1031
1028
1024
1019
1016
1016
1018
1018
1016
1012
1009
1009
1014
1013
1012
1012
1011
1012
1016
1015
1012
1008
1010
1014
1016
1018
1016
1013
1015
1018
1021
1021
1020
1016
1017
1016
1022
1022
1022
1018
1022
1023
1031
1036
1038
1038
1039
1043
1047
1049
1051
1051
1049
1050
1051
1051
1049
1046
1046
1049
1051
1052
1049
1044
1041
1039
1040
1039
1032
1026
1020
1016
1017
1018
1015
1010
1009
1008
1012
1013
1013
1009
1011
1012
1014
1018
1020
1021
1023
1026
1026
1024
1019
1015
1018
1040
1077
1122
1161
1185
1188
1164
1123
1069
1027
1006
1005
1022
1040
1053
1059
1059
1062
1058
1059
1057
1055
1052
1048
1050
1051
1054
1050
1044
1042
1043
1042
1042
1040
1036
1037
1036
1033
1032
1028
1021
1020
1018
1019
1018
1018
1014
1013
1013
1015
1016
1011
1006
1010
1011
1017
1022
1025
1025
1027
1033
1034
1035
1032
1033
1033
1035
1037
1039
1038
1040
1043
1046
1051
1051
1052
1051
1053
1057
1060
1058
1054
1046
1047
1049
1052
1052
1046
1041
1037
1035
1034
1035
1034
1029
1025
1025
1022
1024
1021
1014
1011
1009
1009
1005
1003
1001
1001
1000
1003
1004
1000
998
1001
1003
1007
1009
1009
1008
1004
1010
1016
1020
1022
1018
1016
1016
1017
1018
1021
1021
1024
1029
1032
1035
1035
1034
1034
1035
1031
1029
1032
1048
1078
1112
1151
1190
1224
1243
1236
1195
1137
1084
1052
1045
1049
1056
1056
1051
1041
1035
1031
1027
1026
1021
1018
1014
1011
1010
1012
1011
1005
998
996
998
998
999
999
994
992
997
1001
1007
1007
1006
1007
1010
1012
1014
1013
1011
1009
1014
1015
1018
1017
1021
1020
1025
1030
1032
1033
1032
1034
1033
1034
1033
1031
1030
1032
1038
1040
1038
1036
1029
1023
1019
1019
1017
1013
1006
1001
1003
1002
998
992
990
986
985
981
980
975
972
972
975
977
975
975
971
970
974
978
978
977
974
976
981
988
992
990
994
997
998
1000
997
1000
998
1000
1003
1010
1016
1018
1019
1019
1025
1030
1031
1027
1022
1018
1019
1021
1021
1018
1013
1012
1011
1011
1010
1011
1008
1008
1010
1015
1017
1014
1010
1009
1012
1011
1009
1004
999
994
996
995
996
992
989
987
985
989
989
988
988
984
985
989
989
987
986
985
991
995
994
996
995
995
998
1002
1002
1002
999
1001
1005
1011
1018
1020
1017
1018
1021
1023
1029
1027
1026
1025
1024
1026
1024
1023
1021
1018
1016
1019
1015
1011
1008
1005
1004
1000
1004
1000
994
989
990
988
987
988
983
978
980
983
981
979
978
973
977
981
979
980
979
979
985
989
990
987
987
986
990
996
1000
996
993
990
992
996
1000
1000
1000
1004
1006
1013
1017
1018
1022
1023
1028
1031
1030
1025
1020
1026
1042
1075
1111
1148
1170
1175
1150
1100
1043
998
975
975
992
1005
1009
1007
1000
990
990
984
981
977
973
970
972
973
976
977
976
978
980
985
990
990
987
988
993
997
998
998
994
991
994
997
998
997
994
996
997
1000
1003
1006
1004
1007
1013
1020
1021
1024
1025
1028
1030
1031
1032
1029
1027
1026
1027
1026
1029
1026
1022
1020
1019
1020
1019
1013
1008
1004
1008
1007
1006
1000
992
991
990
990
992
984
983
981
976
980
978
975
971
971
971
975
976
977
971
972
975
979
981
982
980
985
983
986
990
991
991
992
994
1000
1003
1006
1007
1007
1013
1018
1020
1021
1022
1019
1024
1025
1026
1025
1023
1024
1025
1030
1033
1031
1026
1023
1022
1020
1023
1023
1020
1016
1014
1013
1012
1008
1003
1002
1002
1004
1003
1000
1000
997
999
999
1004
998
998
991
990
985
975
965
962
975
1000
1041
1093
1140
1169
1186
1176
1137
1089
1045
1023
1014
1018
1031
1042
1050
1049
1047
1046
1050
1051
1050
1045
1042
1040
1043
1042
1043
1041
1039
1040
1041
1041
1039
1034
1032
1033
1035
1032
1029
1027
1025
1026
1026
1027
1025
1018
1016
1016
1019
1021
1015
1012
1007
1007
1010
1011
1011
1008
1007
1008
1016
1019
1017
1020
1022
1026
1029
1032
1033
1029
1027
1031
1033
1037
1035
1033
1032
1035
1038
1039
1041
1040
1039
1039
1041
1043
1041
1033
1034
1036
1040
1040
1041
1039
1045
1043
1046
1047
1043
1043
1040
1043
1044
1040
1036
1035
1034
1033
1029
1029
1031
1027
1026
1022
1024
1023
1020
1016
1010
1016
1017
1015
1013
1011
1009
1013
1017
1020
1018
1018
1018
1025
1030
1030
1027
1027
1027
1031
1035
1038
1040
1041
1043
1045
1050
1055
1055
1052
1051
1053
1052
1053
1053
1050
1049
1051
1050
1048
1047
1040
1039
1042
1041
1043
1042
1037
1031
1038
1035
1037
1037
1033
1031
1029
1032
1033
1027
1024
1019
1019
1023
1025
1024
1020
1021
1023
1025
1027
1030
1030
1033
1035
1044
1050
1050
1046
1045
1049
1052
1055
1054
1055
1055
1061
1067
1072
1070
1067
1066
1061
1065
1067
1063
1060
1058
1058
1058
1058
1050
1048
1049
1048
1048
1044
1041
1036
1031
1032
1033
1030
1028
1024
1021
1022
1026
1026
1023
1020
1023
1023
1024
1026
1026
1026
1025
1030
1033
1033
1034
1033
1035
1037
1039
1040
1042
1040
1041
1044
1051
1057
1059
1059
1061
1069
1073
1077
1077
1072
1073
1075
1074
1076
1072
1069
1065
1067
1069
1070
1066
1060
1058
1062
1061
1057
1053
1051
1057
1083
1116
1153
1184
1206
1214
1202
1160
1101
1052
1024
1020
1031
1042
1047
1043
1036
1035
1035
1037
1039
1041
1045
1046
1051
1055
1055
1057
1051
1051
1052
1054
1059
1059
1062
1066
1071
1074
1080
1079
1083
1084
1088
1090
1091
1086
1083
1081
1080
1081
1079
1073
1071
1069
1067
1067
1066
1063
1056
1053
1049
1048
1047
1044
1039
1036
1035
1037
1036
1035
1034
1032
1033
1035
1036
1035
1032
1030
1034
1037
1040
1043
1039
1035
1037
1039
1042
1040
1040
1040
1045
1050
1052
1054
1055
1058
1062
1066
1067
1072
1071
1072
1075
1075
1074
1067
1066
1063
1065
1065
1064
1057
1055
1052
1054
1054
1055
1051
1046
1039
1040
1040
1037
1034
1031
1030
1030
1032
1030
1026
1023
1025
1024
1027
1028
1029
1026
1025
1031
1037
1038
1040
1031
1030
1040
1063
1098
1131
1157
1195
1245
1292
1318
1315
1282
1226
1171
1136
1118
1107
1102
1094
1084
1081
1078
1071
1063
1060
1060
1056
1059
1050
1048
1045
1046
1048
1044
1045
1038
1037
1037
1038
1036
1033
1027
1023
1022
1021
1020
1016
1012
1008
1007
1009
1003
1001
998
