985
987
988
987
984
985
984
988
992
990
987
985
985
988
989
987
987
985
987
994
996
993
988
986
988
991
993
994
990
989
989
989
990
986
983
978
980
981
985
984
982
983
986
994
1001
1003
1000
999
998
999
1005
1005
1000
1000
1003
1006
1008
1007
1003
1000
1000
998
1003
999
996
994
992
991
992
991
985
980
979
978
982
978
976
973
971
971
973
972
968
968
969
969
972
974
966
966
966
970
970
970
968
967
969
973
976
975
975
974
975
978
977
973
967
966
968
972
974
971
970
969
970
973
974
974
972
970
973
976
980
980
980
980
983
986
988
986
983
982
981
985
986
983
982
979
981
985
987
985
982
980
981
983
986
987
984
982
984
987
987
986
984
978
972
969
969
975
989
1007
1037
1060
1085
1100
1097
1074
1040
1013
999
997
996
1002
1006
1004
1002
997
990
988
988
992
990
991
989
986
986
984
985
982
979
973
974
978
978
977
976
977
977
978
982
983
980
981
984
985
989
984
985
982
987
988
990
990
987
985
988
990
993
990
990
986
989
992
995
997
995
995
995
997
1003
1002
1002
1001
1004
1004
1006
1007
1003
1001
1002
1002
1004
999
996
994
993
996
996
992
987
986
985
988
987
989
984
983
982
985
986
985
979
978
977
977
979
979
976
973
973
977
976
976
975
972
971
970
975
976
972
967
969
968
972
971
969
967
968
971
974
975
972
970
971
976
978
978
971
970
970
975
972
975
971
966
968
972
978
972
974
969
971
976
982
986
984
984
986
990
992
988
987
984
982
980
979
981
985
1004
1031
1062
1088
1113
1123
1116
1093
1063
1044
1024
1014
1010
1007
1009
1008
1003
997
991
992
992
991
987
988
983
984
987
988
985
982
977
980
981
984
984
978
975
979
980
981
982
981
979
980
984
987
987
985
988
992
992
991
992
991
988
987
991
988
988
987
986
992
993
999
998
998
993
994
994
996
995
990
989
989
988
988
984
980
976
979
980
981
978
971
963
963
965
967
966
961
960
961
964
967
967
963
963
963
962
964
960
959
958
962
964
964
960
959
955
959
959
963
963
960
959
962
962
961
963
960
957
954
956
957
957
954
953
955
961
963
965
961
960
962
968
969
973
972
968
967
972
973
972
970
969
970
971
975
972
970
969
967
968
970
972
971
970
972
975
977
976
976
973
975
979
982
981
980
979
977
981
980
978
974
973
971
971
973
975
970
968
972
975
977
974
972
964
968
968
967
966
962
956
951
946
945
944
954
974
998
1027
1057
1070
1068
1041
1014
984
967
958
956
962
969
969
970
965
962
954
957
960
962
962
957
955
956
958
960
959
961
960
960
963
966
966
965
963
964
969
973
973
975
976
976
981
982
982
979
979
984
988
989
987
984
983
983
986
987
987
984
980
979
981
984
984
981
973
977
979
979
976
972
968
971
975
976
974
970
967
965
967
970
969
967
963
965
964
965
960
952
948
949
948
949
949
946
946
947
951
951
948
947
948
948
952
953
951
947
947
946
951
953
953
954
951
953
956
955
956
955
952
955
955
958
955
952
953
954
955
961
958
958
956
953
957
958
956
954
952
954
956
956
955
955
950
953
954
960
957
956
955
957
960
962
961
958
955
953
954
954
951
947
945
947
946
946
945
941
939
940
940
944
944
942
939
941
941
946
946
945
946
948
950
952
952
952
955
958
963
965
965
962
959
961
963
967
962
961
959
960
962
965
964
963
960
963
967
969
966
965
966
970
972
972
971
970
969
968
973
974
974
972
970
972
975
979
975
977
975
973
975
981
979
978
975
977
975
977
976
974
972
976
978
976
973
969
963
961
971
990
1011
1041
1062
1080
1090
1084
1064
1029
996
972
959
957
959
966
973
977
980
978
976
971
972
970
973
973
973
970
966
971
973
975
975
971
969
968
971
972
975
973
971
971
976
978
978
975
973
977
981
985
986
986
989
991
995
998
999
994
993
990
988
986
983
982
978
982
982
986
980
979
980
977
978
977
975
971
969
971
971
973
970
967
964
965
966
967
964
962
959
961
963
962
962
960
960
960
965
968
968
965
963
966
968
967
964
964
962
962
963
966
965
964
963
962
967
967
966
963
961
962
964
968
966
966
967
967
974
982
982
983
985
986
989
992
992
990
988
986
986
986
982
975
971
969
969
972
968
964
964
960
964
965
962
955
952
955
959
960
959
953
950
951
954
955
955
952
946
949
954
958
959
957
958
960
963
965
968
964
966
965
966
967
967
963
965
966
970
970
969
967
968
971
975
976
974
973
967
970
971
983
1002
1021
1049
1075
1100
1111
1101
1071
1035
1010
996
993
991
995
998
999
995
990
986
982
980
978
977
975
972
967
967
969
970
971
969
966
967
966
971
969
968
965
962
968
968
971
971
969
970
970
975
978
980
981
980
983
985
989
987
984
984
985
985
986
984
984
985
986
988
991
989
986
986
989
992
992
994
986
990
994
995
997
995
994
993
997
1000
1002
999
991
990
987
988
988
983
979
976
979
980
976
973
969
967
969
970
966
966
963
963
965
971
972
967
962
958
958
960
963
962
962
961
958
964
965
969
968
969
970
971
974
973
969
967
967
971
972
973
970
970
972
975
976
978
975
973
975
976
978
980
978
979
983
985
988
988
980
971
963
961
968
983
1001
1028
1061
1095
1118
1120
1094
1057
1022
1002
1000
999
998
989
985
982
981
977
975
973
970
971
970
968
966
967
970
972
975
977
980
981
984
989
992
989
986
985
986
986
990
990
988
988
989
989
990
988
986
986
989
993
992
993
991
987
992
995
998
998
998
999
1003
1008
1007
1005
1000
996
996
995
994
992
990
988
987
989
990
985
978
973
971
975
973
970
965
962
963
966
966
966
964
961
959
964
966
965
962
963
964
966
971
971
967
970
973
978
981
980
975
975
974
977
977
977
977
976
980
982
984
985
980
978
980
983
984
983
979
977
976
975
976
975
976
977
978
983
987
990
992
992
986
984
978
968
966
972
989
1018
1048
1083
1109
1125
1125
1100
1065
1026
1004
997
996
997
993
987
980
976
976
975
974
971
967
965
967
971
971
973
973
972
974
980
982
984
982
977
978
980
984
984
979
978
980
982
984
979
976
978
981
984
990
988
990
994
995
997
998
994
989
991
993
995
998
996
994
990
992
991
990
987
985
983
986
983
980
981
978
972
969
968
962
957
952
950
950
949
949
948
943
941
943
946
947
943
939
936
941
946
947
947
946
948
950
952
957
957
956
955
958
960
963
962
960
959
958
960
960
959
956
954
961
965
965
963
963
960
962
968
971
969
966
965
968
973
976
976
974
973
973
975
978
977
974
971
968
967
965
960
958
961
976
1002
1030
1060
1079
1091
1092
1072
1039
998
967
957
957
963
969
965
960
957
958
958
959
958
955
956
963
963
965
965
961
959
963
963
968
967
964
963
966
969
971
971
967
969
970
975
978
974
974
975
976
978
981
978
978
974
976
979
980
981
978
977
976
978
978
976
972
969
972
971
972
969
963
960
961
959
960
959
955
951
951
951
950
947
944
945
945
945
945
943
939
939
941
940
944
942
941
939
945
945
948
947
945
942
947
947
946
946
944
942
943
948
949
949
947
947
949
951
956
956
952
953
955
958
959
958
956
955
954
957
960
959
957
954
957
954
955
954
953
950
954
955
960
961
957
955
954
955
959
958
955
952
955
957
960
962
956
955
957
962
965
964
961
963
964
967
967
967
963
961
963
961
963
963
961
959
964
965
969
966
964
963
963
964
968
969
966
965
965
969
970
968
966
968
970
970
976
973
970
966
969
974
990
1011
1034
1060
1078
1083
1065
1034
995
975
965
969
973
976
973
968
968
973
972
970
965
967
970
972
975
978
976
975
981
982
988
987
984
984
985
988
991
993
989
988
989
991
993
994
989
988
992
995
999
999
997
994
994
999
1001
1001
997
998
999
1001
1002
998
997
995
1000
1000
1002
1001
997
994
994
995
995
991
986
984
985
986
979
978
977
975
971
975
974
970
969
966
964
967
969
966
964
964
968
974
975
980
980
981
983
986
988
985
984
983
986
987
988
990
988
987
989
991
987
985
984
981
983
986
989
990
986
986
990
993
993
990
991
987
993
994
993
992
993
991
992
992
992
990
983
980
980
978
978
980
979
975
976
978
975
974
971
966
967
970
973
970
964
964
964
965
966
962
961
957
961
966
967
967
967
967
971
977
979
980
979
979
978
982
987
986
987
985
986
992
992
993
992
993
994
997
1002
1000
995
994
993
999
999
998
997
995
996
1001
1001
995
990
987
986
989
990
989
986
984
985
986
985
982
982
981
984
984
987
986
984
985
986
989
989
989
988
987
996
1014
1038
1062
1082
1103
1117
1112
1086
1048
1017
1003
1000
1007
1007
1004
998
996
992
996
999
998
997
994
1002
1004
1007
1006
1002
1002
1007
1009
1012
1010
1006
1004
1004
1009
1007
1005
1002
1001
999
1001
998
994
990
983
984
985
987
988
984
981
984
987
985
982
978
977
977
979
982
977
975
974
976
982
981
984
978
978
978
982
989
986
984
983
987
992
996
997
994
998
998
998
1000
1000
993
996
998
1002
1002
1001
1002
1001
1003
1007
1007
1010
1009
1008
1008
1013
1009
1010
1007
1005
1006
1007
1008
1005
1000
995
996
993
993
988
985
980
977
980
978
978
972
972
971
971
971
970
962
960
964
965
963
959
956
953
956
959
962
958
958
957
960
963
963
960
959
963
963
972
977
977
974
974
978
983
983
982
980
984
988
993
994
998
994
996
998
1004
1007
1005
1003
1002
1002
1006
1008
1004
1002
997
1000
1001
1000
996
989
988
989
991
992
991
989
984
985
986
985
987
982
982
981
984
987
982
981
977
975
977
986
1001
1019
1042
1067
1080
1080
1060
1023
992
972
965
970
977
982
987
987
991
994
990
986
988
990
995
997
997
999
999
1003
1006
1011
1007
1005
1003
1006
1012
1009
1007
1008
1006
1007
1008
1008
1005
999
999
997
998
999
996
993
993
994
995
1000
998
996
992
993
994
992
990
987
986
986
987
992
992
991
988
987
989
990
992
989
988
988
991
994
994
992
988
994
993
995
992
995
996
999
1001
1007
1007
1008
1006
1010
1012
1014
1012
1009
1010
1010
1013
1012
1007
1002
998
997
997
997
992
987
982
981
982
980
975
970
967
967
967
962
964
957
956
958
958
955
956
954
950
950
957
954
954
954
953
957
960
960
959
957
959
963
965
970
968
969
969
975
977
977
978
975
977
982
987
991
993
995
994
1001
1004
1006
1003
999
998
998
998
998
995
994
992
992
998
997
994
993
991
991
989
983
980
987
1006
1033
1059
1075
1078
1063
1031
1001
983
970
967
971
974
977
978
978
976
969
968
969
972
973
969
967
966
967
968
971
971
967
970
971
971
977
974
973
978
981
988
992
992
992
991
997
1001
1000
996
996
994
995
996
997
998
996
992
991
992
991
988
985
981
982
982
985
980
976
974
971
969
972
969
963
960
959
959
956
956
953
946
951
952
950
951
945
945
945
944
949
949
946
945
949
956
961
961
961
960
961
964
965
965
965
967
968
971
974
972
973
974
977
979
980
979
978
976
978
977
980
973
971
973
975
978
977
976
970
966
963
963
962
956
953
951
954
954
953
948
945
943
942
942
941
937
933
935
935
935
933
936
932
934
933
936
935
930
928
928
933
936
935
938
936
937
939
940
942
940
940
940
943
945
950
952
954
958
966
970
973
974
973
971
979
984
981
976
975
972
978
981
982
977
975
976
980
978
980
978
974
973
972
974
975
971
968
965
965
962
963
959
953
948
954
968
983
997
1016
1032
1049
1052
1031
994
956
934
930
933
939
942
938
940
939
940
938
939
936
935
938
937
936
936
935
941
943
949
950
950
949
952
954
961
964
964
962
960
965
968
973
972
971
971
972
976
981
978
974
973
972
971
969
970
965
964
960
962
960
957
957
955
952
950
948
950
942
943
943
944
945
939
937
939
939
939
939
936
931
931
935
936
935
932
930
930
930
933
933
931
928
927
929
935
935
935
934
938
938
943
945
944
943
943
948
953
953
953
952
950
949
951
953
953
952
952
955
956
956
957
952
950
950
951
953
949
945
944
947
945
945
944
941
939
939
939
940
936
933
929
929
933
936
934
931
932
934
938
941
935
938
938
943
946
945
944
944
944
949
952
953
952
950
953
959
966
969
968
968
967
972
979
981
981
978
975
975
978
980
978
977
976
976
978
978
975
972
972
974
974
972
972
963
964
967
969
970
964
963
964
966
969
968
965
961
958
958
962
961
960
955
955
957
960
959
958
954
956
962
964
968
970
968
970
974
979
979
978
976
976
985
998
1020
1045
1065
1086
1100
1099
1081
1048
1018
1001
995
996
999
999
1004
1002
999
998
995
992
989
985
987
987
989
986
981
981
981
982
981
978
973
976
979
983
983
981
976
973
973
972
975
971
966
965
969
974
974
976
975
973
974
980
982
980
979
977
982
984
986
988
986
987
989
989
992
989
991
991
996
999
1004
1005
1004
1004
1008
1010
1010
1011
1007
1009
1010
1011
1011
1009
1005
1003
1004
1005
1004
1002
999
996
995
995
993
990
988
984
982
983
978
975
972
969
971
971
971
969
964
960
959
962
961
959
957
954
957
958
958
959
954
952
953
957
956
953
950
952
956
959
963
962
964
966
970
973
976
974
972
973
978
984
986
984
984
984
989
993
992
994
993
996
998
1000
999
998
994
994
996
1001
1002
999
994
995
996
998
998
992
988
987
990
992
991
990
983
979
978
980
980
979
974
972
969
966
967
965
961
962
961
963
961
960
960
957
960
961
961
958
956
956
959
962
969
970
966
966
970
973
972
970
972
970
974
979
981
983
982
981
986
991
992
990
992
992
996
998
1001
999
1000
995
999
1000
999
996
991
989
992
991
992
990
981
981
982
980
981
979
975
970
973
974
970
968
963
960
959
961
960
957
955
952
954
957
955
954
950
950
951
953
954
954
954
953
957
959
964
964
964
966
968
973
976
975
976
975
982
987
991
992
990
991
998
1000
1004
999
995
998
1010
1028
1052
1073
1090
1104
1108
1096
1067
1035
1012
999
997
998
997
997
993
988
987
986
985
982
980
979
981
980
981
981
975
973
972
976
977
974
972
971
975
976
977
975
972
970
972
974
975
972
970
972
974
978
980
979
977
976
981
985
987
988
987
987
990
993
995
998
995
997
1001
1004
1007
1004
1001
1001
1004
1005
1007
1004
1001
997
998
999
1000
997
993
992
994
993
995
991
988
985
985
984
981
976
971
968
969
972
967
964
961
954
953
960
962
959
957
956
957
957
960
959
959
958
962
966
967
965
965
969
972
975
974
973
972
971
975
979
978
973
974
974
979
981
980
981
980
979
984
986
986
980
979
981
981
981
984
981
977
976
975
976
977
973
970
968
966
970
965
962
957
958
955
959
957
953
948
947
951
950
948
947
944
947
947
949
949
947
948
948
948
954
955
954
957
956
960
963
961
960
962
958
964
966
965
966
962
966
973
978
978
983
987
989
991
998
1001
999
999
1002
1001
1002
997
994
993
991
991
994
991
990
986
985
988
990
988
981
977
976
975
979
976
971
972
969
970
967
969
968
963
963
965
966
968
963
959
959
965
984
1003
1026
1043
1055
1052
1035
1004
978
963
960
967
975
977
975
970
970
974
976
974
974
973
975
978
981
978
981
982
983
986
988
988
987
988
988
991
995
995
993
990
988
988
995
992
986
987
983
983
983
980
975
972
967
967
966
963
959
954
953
955
959
956
954
953
949
951
956
953
952
950
951
955
960
958
960
955
956
957
960
960
962
960
961
964
965
967
965
966
962
966
971
971
969
963
962
961
960
961
958
954
954
953
954
950
948
949
947
947
950
950
947
941
939
942
943
943
941
938
934
935
937
935
930
927
926
929
933
935
932
933
933
934
939
938
935
933
931
935
945
961
980
1000
1022
1046
1052
1042
1017
993
977
975
981
983
981
978
977
973
976
976
972
966
964
963
966
968
966
962
961
959
961
959
958
954
952
954
956
953
946
943
942
941
939
941
936
930
927
928
931
929
927
926
926
929
931
930
929
924
924
931
932
933
931
930
930
933
935
936
933
933
930
931
932
935
935
934
935
936
940
938
934
934
931
937
936
934
932
931
930
935
934
934
930
931
930
930
932
929
923
921
922
920
921
922
919
916
916
917
919
915
913
912
909
912
911
910
908
902
899
901
904
905
901
902
899
901
901
904
898
897
899
903
908
907
905
905
908
909
914
915
914
916
920
923
927
928
929
926
927
929
935
934
934
934
932
935
939
940
934
933
933
930
931
928
929
925
923
924
924
922
920
913
912
912
915
914
909
902
901
903
901
898
895
893
888
891
891
892
888
885
883
884
887
888
888
883
883
886
887
892
891
885
889
891
896
898
899
899
899
901
903
906
905
904
906
910
916
919
918
916
917
