1051
1051
1050
1053
1049
1049
1049
1049
1050
1052
1051
1047
1048
1046
1044
1042
1040
1040
1034
1032
1027
1027
1025
1019
1016
1017
1018
1015
1013
1010
1003
1004
1009
1011
1008
1006
1004
1004
1010
1014
1014
1012
1012
1015
1021
1025
1027
1021
1018
1021
1021
1023
1026
1024
1024
1029
1033
1038
1038
1041
1043
1046
1048
1053
1055
1052
1050
1051
1053
1054
1054
1052
1051
1051
1052
1054
1053
1048
1048
1047
1048
1045
1045
1041
1040
1042
1042
1042
1040
1034
1029
1028
1028
1029
1026
1020
1016
1015
1011
1015
1014
1012
1010
1012
1015
1018
1017
1014
1018
1021
1026
1032
1030
1025
1023
1023
1024
1029
1025
1027
1026
1032
1038
1044
1050
1052
1048
1054
1055
1062
1065
1062
1056
1055
1050
1051
1060
1086
1124
1167
1203
1225
1223
1187
1129
1074
1038
1022
1019
1023
1029
1033
1035
1034
1032
1024
1017
1014
1012
1012
1013
1010
1005
1011
1011
1012
1014
1011
1011
1013
1020
1025
1024
1026
1027
1033
1034
1035
1032
1031
1033
1035
1043
1044
1044
1043
1046
1047
1053
1056
1059
1058
1059
1058
1065
1070
1070
1061
1059
1060
1057
1061
1059
1056
1055
1055
1055
1057
1056
1052
1050
1051
1050
1052
1051
1048
1043
1039
1041
1042
1038
1034
1030
1024
1025
1027
1023
1019
1018
1014
1012
1013
1011
1003
1002
1005
1007
1010
1014
1014
1012
1012
1013
1015
1013
1011
1009
1011
1014
1019
1023
1024
1026
1031
1036
1038
1038
1035
1034
1033
1034
1040
1036
1030
1031
1030
1030
1033
1031
1026
1020
1020
1022
1024
1024
1023
1019
1021
1018
1020
1017
1014
1012
1012
1010
1008
1003
997
999
1003
1005
1004
1004
1002
1001
1000
1005
1010
1010
1005
999
993
986
978
983
1000
1031
1073
1119
1157
1181
1177
1147
1091
1042
1016
1011
1022
1040
1055
1058
1059
1054
1049
1045
1045
1047
1049
1050
1045
1041
1041
1041
1042
1034
1028
1025
1024
1023
1022
1018
1014
1010
1011
1009
1009
1005
1004
1000
1003
1003
1001
999
998
996
998
1001
1000
1000
1001
998
1003
1009
1012
1013
1013
1013
1017
1020
1021
1023
1020
1019
1020
1024
1028
1030
1031
1029
1029
1034
1037
1037
1036
1033
1034
1032
1030
1025
1021
1015
1012
1013
1011
1008
1004
1001
997
1000
997
990
986
983
982
982
981
978
972
967
963
968
967
965
962
961
967
972
974
973
972
970
974
976
979
979
978
980
980
982
984
984
979
980
984
985
990
997
999
997
1001
1006
1012
1010
1009
1003
1004
1001
1005
1001
998
997
998
1001
999
994
989
986
987
986
991
983
977
976
974
974
975
972
968
962
959
960
962
962
958
958
960
963
965
964
964
964
966
969
970
968
965
965
968
968
969
967
968
974
981
984
991
989
991
993
997
1001
1002
1004
999
998
998
1001
1005
1002
1000
1001
999
1001
1002
996
988
986
984
988
989
984
979
975
975
975
975
971
963
960
960
963
963
960
955
950
950
952
953
948
941
937
947
972
1005
1040
1074
1105
1128
1125
1095
1034
968
930
923
938
958
968
974
964
962
963
969
975
975
978
983
988
992
997
995
994
997
996
995
993
995
993
996
995
995
993
989
990
990
987
988
984
982
977
975
971
967
962
958
950
949
950
951
945
942
937
936
936
941
938
941
941
939
944
947
950
949
947
951
948
948
946
946
950
949
951
954
951
947
947
953
956
957
957
958
957
961
962
964
961
957
954
957
956
960
957
954
950
952
953
952
950
948
944
943
941
942
938
931
931
934
937
934
934
934
931
932
931
934
931
926
927
928
931
935
937
940
940
943
945
946
945
943
939
944
943
943
945
939
942
944
950
954
953
955
955
959
962
966
963
961
958
960
959
965
963
959
959
963
963
964
959
955
951
951
953
953
955
951
947
943
942
944
942
940
938
941
942
942
941
938
935
932
929
925
927
941
971
1017
1070
1105
1113
1078
1012
951
918
915
921
932
955
969
980
985
983
980
978
982
988
991
996
994
989
989
995
998
996
993
990
988
986
988
989
985
983
983
980
985
978
978
971
976
977
977
974
969
963
965
965
967
966
960
958
957
957
960
958
958
957
957
959
966
967
969
970
969
975
983
982
978
978
978
979
983
981
979
977
979
986
990
991
988
987
987
992
995
995
991
992
992
1000
1004
1005
1006
1002
1004
1006
1003
1000
993
989
994
993
996
991
987
984
984
986
987
983
978
975
973
973
977
973
971
967
967
969
970
966
970
967
969
972
978
984
985
989
992
993
994
993
986
982
973
968
973
993
1029
1074
1125
1170
1206
1216
1190
1130
1071
1034
1024
1032
1039
1043
1039
1035
1034
1026
1020
1016
1014
1016
1021
1022
1018
1018
1018
1018
1017
1013
1010
1011
1011
1010
1005
1000
995
992
994
995
996
992
984
986
986
989
993
990
990
993
999
1005
1011
1011
1008
1004
1004
1008
1012
1012
1011
1012
1013
1020
1023
1028
1027
1026
1029
1030
1031
1026
1024
1022
1021
1022
1020
1017
1013
1005
1004
1004
1006
1004
1002
999
994
995
993
995
990
987
991
996
999
998
997
993
995
998
999
1000
995
996
1000
1003
1006
1003
1003
1001
1003
1006
1013
1013
1014
1012
1014
1013
1014
1018
1015
1019
1022
1028
1035
1037
1035
1035
1039
1040
1042
1042
1041
1041
1037
1037
1037
1035
1032
1033
1033
1034
1031
1027
1022
1023
1024
1024
1023
1018
1015
1011
1010
1012
1012
1008
1003
999
1000
1000
1002
1000
995
995
995
997
1001
998
998
997
1000
997
1005
1009
1011
1009
1010
1016
1019
1023
1026
1030
1032
1037
1044
1046
1048
1049
1050
1053
1054
1057
1054
1050
1047
1048
1047
1046
1043
1044
1043
1045
1046
1044
1039
1036
1032
1033
1043
1063
1093
1128
1163
1192
1211
1195
1141
1064
1002
978
987
1002
1008
1004
1007
1008
1007
1008
1005
1006
1011
1012
1018
1018
1013
1012
1016
1020
1021
1016
1017
1020
1028
1036
1044
1049
1048
1051
1051
1056
1060
1057
1057
1053
1056
1060
1063
1064
1062
1058
1060
1055
1056
1052
1048
1042
1039
1042
1040
1039
1029
1027
1029
1028
1030
1026
1024
1019
1020
1022
1022
1023
1019
1016
1017
1023
1023
1021
1012
1010
1013
1014
1015
1014
1011
1006
1009
1010
1013
1015
1016
1013
1018
1025
1028
1029
1030
1032
1031
1031
1028
1025
1025
1024
1027
1028
1029
1029
1026
1023
1028
1031
1033
1027
1022
1019
1021
1016
1020
1016
1011
1008
1004
1006
1006
1001
995
996
994
994
998
999
997
995
997
1000
1004
1007
1006
1004
1005
1006
1007
1005
1002
1001
1002
1004
1007
1007
1009
1009
1011
1020
1025
1029
1032
1034
1039
1039
1041
1038
1034
1032
1033
1034
1036
1033
1030
1024
1021
1020
1018
1016
1013
1006
1008
1011
1011
1013
1013
1011
1010
1010
1010
1009
1006
1003
1005
1006
1005
1003
999
996
999
1002
1005
1005
1001
1004
1005
1013
1019
1018
1013
1011
1013
1014
1019
1020
1018
1021
1023
1029
1033
1034
1032
1031
1033
1034
1030
1032
1047
1078
1117
1156
1187
1203
1202
1168
1114
1058
1023
1009
1017
1025
1031
1030
1028
1021
1011
1003
999
996
997
994
993
990
993
995
1000
1001
1000
998
999
1003
1005
1006
1006
1006
1008
1008
1013
1016
1015
1014
1013
1016
1021
1020
1021
1018
1020
1030
1035
1035
1035
1036
1041
1046
1049
1049
1046
1043
1042
1043
1047
1045
1041
1037
1036
1034
1037
1033
1028
1023
1024
1023
1019
1017
1012
1008
1005
1002
1002
996
990
981
980
980
978
973
966
968
970
972
974
970
970
968
972
981
987
989
990
992
993
999
1003
1002
1000
1000
1002
1007
1012
1013
1015
1014
1017
1020
1019
1016
1012
1011
1011
1011
1013
1010
1004
1002
1007
1001
1002
998
992
990
988
984
985
982
975
972
973
972
977
969
968
967
968
969
972
967
958
944
933
933
947
971
1013
1061
1107
1139
1155
1124
1067
1005
965
960
973
990
997
994
993
992
994
991
994
993
995
999
999
1000
998
999
1004
1003
1001
999
996
993
994
994
992
989
982
978
976
979
977
973
968
961
961
959
956
956
952
948
950
949
953
954
953
956
956
963
968
969
968
967
966
970
968
969
965
962
965
967
972
973
972
972
976
977
982
979
976
974
971
970
970
968
962
963
965
966
963
961
953
949
950
953
956
952
949
946
943
944
946
945
944
945
946
945
947
942
940
935
935
939
943
938
939
937
937
942
944
943
943
941
944
946
951
951
949
948
947
950
951
953
954
953
957
962
966
967
969
968
972
975
974
975
972
968
971
975
975
972
966
964
963
963
963
961
958
954
954
954
953
947
945
942
938
940
937
931
925
923
921
924
924
921
923
926
931
933
934
932
935
930
933
938
944
942
944
943
945
950
952
948
945
940
944
951
956
956
960
960
964
966
971
970
967
966
968
966
969
966
965
960
960
960
962
956
951
948
948
950
952
952
945
939
935
936
938
936
930
926
928
929
927
927
925
924
923
923
923
920
918
921
920
926
930
931
924
927
933
935
938
937
937
934
940
946
949
954
956
957
964
970
978
981
984
982
987
991
992
995
995
994
995
992
992
991
987
983
983
984
982
988
1007
1042
1084
1123
1148
1148
1099
1028
968
933
926
936
950
957
960
961
960
956
949
947
950
952
957
957
957
957
961
963
967
964
963
962
963
966
969
970
967
967
967
968
975
979
980
982
989
996
1002
1008
1010
1010
1012
1012
1015
1012
1009
1009
1012
1013
1014
1009
1004
999
1001
1003
1002
1002
995
990
993
992
992
987
983
978
977
978
977
974
975
972
972
972
972
966
965
965
967
972
975
974
971
970
971
973
972
970
969
968
969
971
976
975
975
974
975
979
982
985
985
989
993
996
999
1002
999
995
998
1001
1001
1003
999
1000
1003
1007
1007
1008
1004
1004
1005
1008
1008
1005
1004
999
998
999
998
993
992
989
988
985
983
981
978
977
978
982
983
983
982
983
987
993
996
995
989
978
967
962
972
997
1030
1068
1114
1161
1202
1225
1217
1175
1119
1077
1051
1040
1037
1039
1048
1049
1044
1038
1030
1026
1025
1025
1025
1026
1025
1022
1020
1017
1018
1016
1015
1009
1014
1015
1014
1009
1007
1002
1004
1004
1007
1004
999
994
993
995
996
993
992
989
990
993
996
997
996
994
996
1000
1004
1005
1010
1007
1015
1018
1018
1015
1012
1010
1013
1017
1018
1019
1018
1016
1022
1025
1030
1027
1027
1025
1024
1024
1024
1019
1016
1010
1013
1016
1014
1010
1007
1002
1000
1001
1002
999
998
996
995
998
996
996
989
988
989
992
993
992
992
988
990
991
994
989
986
987
986
991
993
990
988
987
987
994
999
1002
1000
1003
1009
1011
1014
1010
1007
1005
1006
1013
1019
1020
1020
1016
1024
1033
1037
1040
1037
1037
1037
1038
1039
1035
1031
1028
1028
1028
1030
1028
1024
1020
1020
1023
1025
1024
1021
1021
1021
1019
1018
1016
1010
1006
1005
1005
1004
999
994
991
992
994
995
995
992
993
995
997
1001
1003
999
998
996
1000
1003
1003
1006
1007
1009
1012
1016
1016
1012
1009
1014
1020
1021
1021
1022
1024
1029
1035
1042
1043
1042
1043
1045
1044
1045
1042
1037
1034
1031
1033
1035
1033
1030
1027
1027
1029
1028
1024
1022
1017
1016
1016
1016
1014
1010
1005
1005
1006
1004
1001
996
990
987
987
988
988
988
987
992
995
998
996
995
994
997
1006
1004
1005
1004
1006
1008
1009
1011
1010
1009
1008
1014
1018
1024
1025
1027
1028
1031
1033
1040
1041
1041
1042
1044
1046
1047
1044
1042
1039
1041
1041
1039
1031
1028
1044
1074
1117
1155
1186
1207
1220
1213
1180
1121
1055
1010
996
999
1006
1013
1009
1004
999
997
998
995
994
992
988
994
995
998
997
997
995
998
1003
1016
1017
1019
1017
1020
1020
1026
1024
1026
1025
1030
1036
1041
1045
1038
1042
1041
1047
1051
1052
1049
1046
1049
1050
1047
1043
1037
1036
1038
1040
1038
1036
1032
1028
1027
1028
1028
1024
1021
1020
1020
1020
1018
1015
1010
1007
1008
1010
1009
1005
1001
999
1000
1002
1003
1001
998
996
997
1001
1003
1003
1001
1000
1001
1002
1002
998
995
996
996
998
999
997
996
1000
1006
1011
1017
1017
1017
1018
1025
1029
1033
1029
1027
1023
1024
1026
1027
1025
1025
1019
1018
1017
1018
1013
1008
1005
1007
1010
1011
1008
1002
998
993
991
993
993
988
984
985
985
987
986
981
980
983
981
982
983
983
985
986
993
999
997
997
993
993
995
999
996
993
990
995
1001
1004
1006
1004
1003
1008
1010
1008
998
985
973
978
998
1027
1070
1116
1153
1180
1179
1141
1081
1032
1008
1004
1015
1028
1031
1033
1029
1025
1024
1020
1010
1007
1000
996
997
996
991
983
979
979
980
980
978
975
970
971
973
975
974
973
973
976
981
980
984
983
981
982
982
986
986
984
981
985
988
990
990
990
989
994
999
1006
1007
1008
1013
1013
1018
1018
1014
1014
1010
1008
1009
1013
1011
1008
1002
999
999
997
995
989
985
983
980
977
971
967
962
962
964
962
962
954
951
949
953
954
951
949
948
945
950
952
949
947
947
949
953
957
958
956
959
958
958
957
956
951
954
956
963
968
968
966
966
968
974
979
980
982
977
977
976
980
977
976
976
976
977
977
978
971
971
971
974
976
975
970
966
965
967
965
961
958
956
957
957
957
952
950
949
952
956
958
955
955
957
963
967
966
967
961
955
952
953
973
1004
1043
1088
1119
1124
1100
1037
973
932
926
942
965
981
984
982
979
973
971
969
969
965
963
968
969
967
962
961
963
966
965
962
959
954
955
959
958
955
950
944
944
949
947
947
940
939
944
950
952
951
951
948
953
956
960
960
957
959
962
965
973
976
978
981
988
992
998
994
993
992
990
993
994
991
986
981
977
977
973
970
963
960
959
960
957
953
951
947
947
946
945
941
937
935
934
934
934
931
925
922
925
926
928
928
928
922
928
930
934
935
932
933
937
942
946
946
946
946
950
954
953
954
950
952
955
961
969
973
975
973
976
980
985
982
975
965
956
951
951
965
994
1038
1092
1141
1169
1170
1141
1083
1022
985
969
973
978
983
990
989
985
974
963
963
963
965
964
962
958
956
957
960
960
963
958
958
960
964
966
968
967
968
968
974
979
979
976
978
980
983
987
988
989
991
1000
1003
1008
1006
1004
1008
1010
1015
1020
1019
1016
1013
1012
1011
1012
1010
1005
1000
999
1000
999
995
990
989
989
990
990
984
979
974
969
969
969
964
963
957
961
962
963
960
958
958
961
967
969
970
971
970
975
978
982
980
980
977
977
981
981
982
983
984
987
991
996
1001
999
1000
1007
1011
1016
1018
1017
1015
1018
1020
1021
1016
1011
1007
1003
1008
1005
1002
994
994
992
994
994
990
986
983
984
986
987
987
986
984
989
990
992
989
984
981
986
989
991
990
988
988
992
996
1001
1003
1000
999
1000
1002
1002
1003
1003
1001
1003
1006
1009
1007
1011
1013
1018
1023
1028
1032
1032
1036
1039
1042
1040
1041
1036
1032
1036
1037
1039
1036
1034
1032
1030
1030
1030
1033
1049
1080
1120
1159
1190
1203
1192
1145
1081
1023
987
972
973
983
988
988
986
981
977
970
977
981
986
992
991
994
1004
1007
1007
1006
1004
1004
1007
1006
1007
1006
1006
1006
1011
1017
1021
1026
1028
1028
1035
1041
1047
1048
1043
1038
1039
1040
1039
1040
1040
1038
1040
1041
1040
1038
1034
1030
1032
1033
1031
1027
1022
1019
1016
1018
1017
1013
1005
1003
1003
1001
1002
998
993
992
991
993
997
995
993
992
994
997
998
998
994
992
993
995
998
997
998
1000
1001
1005
1012
1013
1019
1024
1028
1033
1033
1033
1028
1023
1023
1027
1025
1023
1021
1020
1020
1017
1021
1017
1012
1010
1007
1008
1007
1003
1001
997
990
990
990
986
981
981
979
979
978
973
969
969
975
977
976
977
977
977
982
986
991
993
991
992
992
995
994
998
994
992
1002
1009
1013
1016
1016
1019
1021
1018
1012
995
981
971
979
1004
1052
1105
1151
1180
1184
1159
1105
1044
1006
992
1003
1017
1030
1029
1023
1015
1011
1005
1004
1003
997
995
993
993
994
986
982
979
981
982
986
985
981
981
984
988
994
996
997
998
1004
1005
1004
1005
1004
1005
1013
1016
1020
1022
1025
1027
1034
1038
1038
1036
1036
1036
1036
1039
1041
1037
1033
1032
1032
1027
1031
1027
1023
1019
1017
1020
1020
1017
1012
1010
1013
1012
1016
1011
1003
999
994
993
994
992
990
986
986
987
991
987
986
980
985
991
990
989
990
989
995
998
998
996
993
988
992
996
999
1002
1004
1003
1008
1014
1018
1017
1015
1015
1014
1014
1014
1014
1010
1004
1006
1009
1007
1004
1002
999
997
997
996
993
984
980
979
981
981
977
972
966
969
969
973
974
972
971
974
978
982
983
982
980
981
986
988
990
988
988
991
995
997
996
988
987
987
995
996
998
999
1004
1009
1017
1017
1018
1016
1016
1018
1021
1021
1018
1014
1011
1011
1010
1011
1010
1008
1000
999
1002
1002
1004
1001
996
992
990
990
985
980
975
975
977
978
976
971
969
968
973
973
971
969
968
971
979
982
983
984
984
991
994
998
995
994
994
997
1002
1002
1004
1004
1009
1011
1017
1019
1025
1025
1023
1026
1030
1032
1026
1025
1021
1019
1017
1018
1020
1017
1017
1014
1016
1014
1007
999
994
1005
1034
1074
1109
1140
1160
1166
1144
1087
1019
970
950
949
964
975
974
974
973
973
971
974
973
971
973
969
974
974
972
974
974
977
983
985
987
990
994
1001
1010
1017
1015
1013
1017
1019
1023
1023
1020
1011
1008
1009
1012
1011
1009
1006
1004
1004
1004
1003
999
995
992
992
991
988
982
977
973
974
972
973
970
964
962
962
964
966
963
959
957
960
961
965
963
962
962
961
961
963
961
957
954
954
956
956
956
956
957
960
962
967
968
968
974
979
983
985
983
980
979
981
983
985
980
974
971
972
973
975
969
965
963
961
963
962
960
953
950
946
947
947
943
944
939
941
939
939
940
937
938
938
940
937
938
940
938
941
945
946
948
944
943
945
949
952
952
952
949
954
957
959
960
959
964
970
973
979
976
973
970
973
978
979
976
974
973
975
973
976
977
973
972
971
969
970
969
964
957
955
954
956
953
947
946
947
945
947
944
944
942
943
946
952
950
949
948
949
952
957
957
953
951
949
952
955
955
951
950
953
955
956
957
959
959
964
971
973
974
972
974
976
978
975
975
972
972
977
976
980
978
976
974
975
975
975
962
954
953
976
1018
1066
1109
1134
1119
1065
995
945
921
924
942
958
965
965
960
955
953
955
957
964
964
965
961
965
966
969
973
972
973
978
987
988
989
989
