1051
1045
1044
1047
1043
1039
1034
1031
1027
1026
1023
1017
1012
1010
1009
1011
1008
1001
994
990
988
987
988
983
976
974
977
979
979
981
976
978
981
985
989
988
991
994
997
1001
1001
1004
1001
1000
999
1004
1005
1002
1000
1002
1005
1007
1014
1016
1019
1021
1025
1031
1032
1031
1030
1028
1028
1032
1031
1027
1023
1023
1024
1025
1021
1015
1008
1000
989
974
965
976
1016
1077
1138
1184
1194
1166
1108
1050
1014
999
994
993
994
999
995
994
992
987
983
983
987
992
997
1000
1000
1002
1008
1012
1011
1011
1013
1015
1022
1028
1031
1030
1031
1033
1036
1037
1034
1033
1029
1029
1032
1032
1025
1022
1021
1022
1022
1022
1020
1017
1010
1011
1011
1012
1011
1008
1001
998
1000
1001
1002
996
991
990
989
991
992
986
987
986
986
986
988
983
982
985
986
989
989
985
984
981
983
987
985
981
977
981
984
989
992
992
992
996
1000
1008
1010
1013
1015
1014
1014
1014
1018
1015
1015
1013
1010
1010
1005
1003
1004
1000
1003
1005
1000
998
991
989
989
987
986
981
977
973
976
977
978
971
973
970
973
975
976
974
974
978
978
982
984
983
984
980
973
964
953
955
980
1024
1077
1129
1165
1184
1177
1140
1092
1052
1030
1018
1016
1023
1034
1042
1038
1030
1018
1015
1012
1016
1013
1011
1009
1005
1006
1006
1007
1002
1003
1000
1002
1001
999
997
990
991
990
991
989
984
981
977
981
987
987
984
982
985
987
992
997
997
995
997
1001
1007
1004
1003
1003
1001
1005
1011
1010
1008
1007
1010
1015
1021
1023
1021
1021
1022
1027
1029
1029
1029
1023
1022
1017
1020
1018
1009
1006
1002
1004
1003
999
997
991
991
989
990
987
981
978
978
977
978
973
969
961
958
960
963
962
961
959
957
960
962
966
968
970
970
976
979
982
979
983
987
992
996
993
988
985
983
987
989
989
989
990
992
997
1004
1005
1002
1005
1004
1006
1008
1007
1004
1000
1001
1001
1002
1001
999
995
997
998
998
994
990
988
988
989
990
988
979
975
971
976
976
975
972
966
961
959
966
965
959
960
962
962
964
962
960
962
963
967
973
972
973
973
974
974
977
977
976
974
974
978
984
993
997
996
1000
1007
1011
1011
1013
1012
1014
1017
1017
1013
1012
1009
1008
1010
1008
1007
1003
998
1000
1000
1003
1000
997
993
991
990
989
984
985
980
977
973
972
972
966
963
961
963
967
964
961
960
961
963
968
968
964
963
967
970
977
978
977
968
969
970
975
972
968
967
968
975
978
983
984
987
989
995
997
1001
1002
1003
1005
1010
1012
1011
1007
1000
999
1003
1007
1006
999
993
988
982
979
981
996
1023
1057
1091
1125
1154
1160
1130
1078
1018
974
951
946
957
968
978
978
973
971
965
964
972
977
979
978
975
973
970
975
974
975
972
976
983
989
992
996
993
999
1002
1005
1010
1009
1006
1008
1008
1010
1009
1003
1000
999
999
1002
1005
997
995
993
998
997
996
992
987
986
988
986
982
977
970
966
965
966
966
963
963
962
965
969
967
964
963
964
968
972
972
974
969
973
974
970
973
969
966
964
963
966
964
960
958
960
965
970
971
972
972
974
979
983
983
980
975
974
975
977
977
975
970
971
972
973
972
969
966
966
966
971
967
967
961
958
963
963
961
956
950
951
951
953
949
949
947
947
951
950
952
954
951
951
957
963
963
960
956
958
958
961
965
960
961
962
966
971
974
973
973
977
983
990
993
992
990
989
990
989
990
989
986
984
985
986
985
984
981
976
976
975
976
970
969
964
964
962
961
956
954
951
952
956
951
945
943
940
945
951
953
955
957
957
962
967
970
971
972
973
980
979
980
979
977
979
981
982
985
983
981
984
989
992
998
996
996
1000
1007
1012
1014
1012
1008
1008
1008
1009
1010
1009
1000
997
989
987
995
1011
1038
1080
1124
1158
1170
1153
1105
1041
998
972
968
975
983
989
988
986
978
971
967
963
965
963
964
964
963
963
968
970
973
976
975
979
983
982
980
977
977
979
986
996
998
1000
1001
1004
1011
1017
1020
1021
1020
1024
1025
1027
1026
1024
1022
1023
1026
1028
1024
1020
1017
1014
1013
1015
1015
1012
1011
1007
1006
1006
1005
1003
997
998
997
996
992
986
985
982
984
984
983
978
975
977
976
976
976
970
970
970
970
979
981
980
978
980
986
990
989
987
986
988
990
995
1001
1001
1000
1002
1009
1013
1015
1009
1011
1010
1012
1017
1015
1015
1015
1015
1020
1023
1023
1020
1016
1015
1020
1020
1020
1018
1012
1010
1012
1009
1007
1000
996
997
993
995
992
991
985
984
987
985
980
971
958
948
949
962
985
1015
1047
1088
1134
1172
1188
1176
1128
1068
1026
1012
1012
1016
1019
1017
1020
1019
1021
1022
1021
1023
1024
1025
1021
1020
1018
1017
1019
1021
1019
1014
1011
1007
1006
1007
1005
999
996
996
999
1003
1002
1003
999
999
1002
1004
1004
1000
996
996
997
996
996
994
989
990
994
995
996
994
991
993
998
999
1003
1003
1001
1000
1005
1010
1011
1010
1005
1005
1006
1008
1008
1008
1008
1009
1010
1014
1012
1012
1013
1011
1015
1014
1015
1012
1007
1007
1008
1013
1010
1006
1004
1002
999
999
1000
996
994
992
995
994
992
986
983
981
981
980
977
973
970
969
969
969
969
969
966
967
971
976
979
981
980
980
986
988
990
992
993
992
994
996
996
994
994
994
995
1001
1006
1004
1009
1013
1017
1022
1019
1022
1020
1023
1026
1026
1022
1017
1011
1010
1012
1012
1009
1007
1001
1001
1000
1005
1002
999
994
991
991
992
992
986
980
976
977
976
976
973
969
972
972
973
973
973
971
971
976
980
979
978
978
978
983
984
985
984
980
983
990
997
999
998
1000
1004
1013
1015
1020
1018
1018
1019
1021
1027
1026
1023
1021
1021
1018
1017
1018
1016
1010
1010
1008
1012
1009
1005
1000
997
998
996
994
987
982
980
981
983
980
973
974
970
975
983
982
982
977
979
984
987
989
988
988
985
986
987
985
984
983
982
985
989
990
991
993
998
1000
1007
1012
1011
1011
1014
1017
1022
1022
1021
1021
1018
1016
1016
1015
1013
1008
1010
1010
1010
1006
1005
1004
1001
1003
999
1001
990
980
979
995
1024
1064
1099
1130
1150
1151
1129
1074
1017
972
957
959
970
982
987
987
987
985
984
982
980
979
981
983
983
985
984
981
980
984
990
992
993
997
1002
1006
1016
1018
1021
1021
1023
1023
1023
1020
1018
1015
1014
1016
1017
1013
1010
1009
1009
1009
1012
1012
1012
1009
1009
1011
1011
1011
1003
998
995
998
998
998
996
992
990
993
995
997
995
995
996
1000
1000
1001
1002
1000
999
999
1001
999
994
988
990
992
995
991
990
988
987
991
995
1000
999
998
996
1002
1008
1006
1005
998
993
992
994
993
989
985
981
980
983
978
977
972
970
970
972
970
969
966
962
961
964
959
957
955
956
957
966
966
967
965
965
968
971
971
971
970
970
974
980
983
980
977
978
978
981
980
980
979
982
986
991
993
993
996
998
1003
1008
1011
1009
1003
1003
1002
1002
1002
1001
996
996
995
999
996
991
984
980
984
987
986
981
978
974
976
976
973
967
962
958
957
956
954
954
953
954
955
958
956
959
959
965
972
978
980
981
978
982
980
983
985
981
972
965
961
967
989
1032
1080
1118
1136
1129
1088
1028
980
954
951
966
981
999
1006
1009
1004
1006
1000
997
992
989
990
990
988
986
978
978
976
975
972
972
965
961
960
961
958
954
952
953
955
959
961
959
958
962
966
971
973
974
972
971
976
979
979
979
978
979
986
993
999
1004
1005
1009
1013
1015
1015
1016
1014
1013
1013
1014
1014
1010
1008
1003
1003
1004
1000
991
986
983
981
981
981
974
965
961
962
963
962
954
951
949
950
949
951
948
944
946
947
950
948
945
943
943
948
952
954
952
950
951
955
960
960
962
957
957
960
965
965
965
966
967
971
976
977
978
974
972
975
980
978
979
972
968
960
955
956
969
1001
1052
1104
1150
1176
1167
1122
1051
991
959
957
964
968
967
964
962
956
951
945
943
945
948
948
947
947
950
954
957
958
955
952
957
960
959
956
953
955
957
963
969
973
973
975
979
981
986
987
989
990
992
992
992
991
989
983
979
974
973
974
971
966
963
963
961
957
953
949
949
951
950
948
943
939
936
935
938
937
933
928
925
927
925
926
923
918
918
920
927
928
927
922
925
929
932
930
932
928
929
931
934
938
938
939
942
951
956
958
959
958
965
970
974
974
969
964
964
968
972
968
966
960
957
956
957
957
952
946
945
943
942
938
934
929
928
930
930
928
922
918
919
921
921
922
925
928
932
935
942
948
947
947
949
955
958
957
952
949
950
954
955
957
952
953
954
961
969
970
974
975
980
981
984
985
984
982
981
985
984
984
982
977
978
976
976
974
971
968
963
964
964
957
954
951
952
952
952
951
943
940
942
944
945
946
943
941
942
944
950
951
950
949
947
950
955
957
957
955
958
957
954
952
961
985
1035
1097
1141
1160
1141
1081
1016
972
962
972
989
1002
1007
1013
1011
1005
1000
995
992
992
995
990
982
977
978
979
977
975
971
964
964
967
963
965
963
962
961
962
965
967
965
967
969
973
981
982
980
980
978
983
985
985
985
985
985
987
993
998
1001
1004
1009
1018
1025
1025
1028
1027
1027
1032
1034
1034
1033
1032
1029
1031
1030
1020
1017
1011
1008
1008
1007
1001
996
988
981
981
980
977
972
962
961
957
965
963
962
957
958
960
964
963
963
961
962
964
970
972
969
967
970
974
980
980
980
980
985
990
994
996
994
996
999
1002
1008
1010
1005
1002
1003
1005
1009
1012
1012
1010
1009
1011
1013
1011
1009
1005
1004
1003
1005
1004
999
994
988
986
988
983
982
978
974
977
979
975
977
975
972
974
975
966
958
948
949
963
987
1019
1057
1096
1136
1160
1158
1110
1041
985
965
972
995
1008
1012
1013
1009
1012
1016
1016
1013
1008
1004
1004
1003
1005
1003
998
1000
999
1003
1003
1002
999
1001
1007
1007
1007
1002
997
997
996
1003
999
997
993
992
992
994
994
992
988
985
988
992
994
992
990
992
996
1000
1000
1002
1003
1004
1007
1006
1006
1002
1004
1005
1007
1014
1015
1015
1016
1018
1021
1025
1023
1015
1013
1010
1016
1017
1015
1010
1006
1000
998
1000
998
993
992
991
992
993
989
984
979
976
982
981
978
973
972
971
972
974
974
971
968
968
971
973
972
967
963
963
964
968
971
970
970
971
977
982
981
976
977
975
976
984
985
988
989
995
998
1002
1006
1007
1006
1008
1010
1013
1012
1010
1009
1006
1007
1008
1007
1005
1002
997
999
1002
1000
989
986
984
981
981
976
971
967
965
966
967
972
969
966
962
965
971
973
971
968
969
974
979
980
979
976
973
975
978
981
982
982
984
987
995
996
997
1000
998
996
998
1000
996
993
993
995
998
997
994
991
993
996
1002
997
994
987
982
980
992
1021
1058
1093
1126
1156
1172
1161
1119
1055
1000
971
964
975
985
986
983
980
982
983
986
984
983
983
985
980
977
978
981
983
986
989
993
993
999
1007
1012
1014
1015
1013
1014
1012
1012
1013
1007
999
1000
1001
1000
998
991
986
986
988
989
987
981
976
975
976
978
975
974
969
967
971
973
975
974
970
972
974
977
978
977
975
975
977
981
981
979
975
973
975
979
977
974
971
971
974
981
982
982
981
983
988
993
995
997
996
995
995
999
996
994
995
992
994
996
994
991
984
981
979
981
978
975
969
965
968
967
960
959
955
954
956
957
955
955
950
950
953
955
953
954
954
955
959
968
970
970
966
966
969
973
969
969
967
971
974
981
977
980
981
985
992
998
998
998
1002
1004
1010
1013
1011
1003
995
997
998
1002
997
993
988
984
984
978
972
970
966
963
962
960
956
953
947
947
948
953
951
947
944
943
943
947
947
945
940
941
949
954
955
958
954
956
957
963
964
962
960
962
962
965
962
964
962
965
975
979
979
979
978
981
985
984
978
974
979
997
1029
1072
1112
1143
1151
1131
1088
1034
991
965
958
970
982
996
996
992
986
980
977
973
966
958
952
949
951
949
948
940
934
929
930
934
936
937
936
938
942
947
952
951
953
955
960
960
958
957
956
958
958
962
960
958
958
960
966
968
971
971
974
977
983
988
989
986
983
985
984
987
988
982
984
984
986
984
981
976
975
973
973
971
967
959
955
953
950
950
947
942
936
936
937
935
930
925
921
920
923
929
930
930
926
928
929
935
936
932
928
927
929
932
932
930
929
931
932
936
939
945
947
949
956
958
958
961
957
954
954
956
953
950
948
946
949
950
949
946
943
939
941
944
942
938
937
934
933
936
929
926
927
926
924
926
924
920
915
914
916
917
915
914
912
913
921
924
926
925
924
929
934
938
938
935
934
935
936
939
937
939
941
942
948
949
948
945
946
950
952
954
953
952
948
948
953
957
957
957
952
952
950
951
953
946
945
942
941
935
929
924
932
952
984
1022
1057
1080
1080
1050
1000
943
901
876
869
874
891
906
916
911
908
904
905
908
912
914
914
919
924
924
924
925
919
920
923
928
931
931
934
935
941
949
950
953
952
952
953
953
950
948
943
948
948
952
945
940
939
937
937
941
943
946
944
938
941
943
937
934
927
923
925
928
927
922
917
920
919
924
922
916
913
911
915
919
918
914
911
912
915
917
918
916
917
915
915
916
916
912
913
913
915
920
921
923
922
928
931
937
936
933
933
933
931
935
933
928
930
926
925
926
931
929
922
924
928
926
926
921
921
917
918
918
915
911
904
904
911
915
914
914
914
915
916
919
924
922
920
920
925
930
932
930
928
932
933
939
940
939
936
937
939
940
942
943
945
949
953
960
963
962
964
965
967
969
970
969
967
964
968
970
969
966
961
960
962
961
958
956
952
954
955
959
956
951
944
941
943
944
943
942
937
938
937
937
939
937
933
934
936
940
939
937
938
939
946
950
953
950
948
947
957
960
963
963
961
966
973
975
980
981
980
983
986
994
994
994
997
1003
1008
1012
1012
1008
1005
1005
1009
1012
1010
1007
1003
1001
1005
1009
1005
1002
995
993
989
992
996
1012
1036
1068
1105
1140
1160
1171
1155
1109
1052
996
955
941
944
958
967
968
960
958
955
957
960
965
963
964
967
967
970
973
968
969
965
966
970
977
976
972
977
983
986
999
1005
1006
1007
1013
1023
1026
1028
1028
1025
1023
1023
1026
1026
1022
1021
1015
1015
1016
1012
1009
1003
999
1004
1004
998
994
989
986
988
990
987
982
981
982
980
981
986
981
976
975
977
980
980
977
975
977
978
981
979
979
976
975
974
974
973
971
966
967
971
978
978
978
981
983
990
997
999
1002
999
1003
1006
1009
1011
1011
1010
1009
1011
1012
1014
1013
1007
1008
1008
1014
1008
1001
1001
999
1000
1001
997
993
985
982
985
986
983
979
973
969
976
977
978
977
973
975
979
984
987
983
983
984
988
990
989
987
984
983
987
989
988
983
977
971
961
954
949
955
972
1007
1054
1105
1155
1192
1201
1173
1118
1059
1022
1009
1010
1020
1027
1034
1027
1020
1012
1009
1010
1012
1011
1011
1006
1003
1003
1008
1000
997
993
990
988
988
987
982
979
979
980
983
983
981
979
983
985
987
990
992
992
992
999
1002
1002
1001
999
995
1001
1006
1008
1007
1005
1006
1012
1017
1019
1019
1019
1018
1024
1029
1030
1030
1027
1024
1025
1028
1025
1019
1018
1019
1022
1020
1019
1010
1008
1003
1006
1008
1007
1004
1003
1003
1001
1003
1000
996
990
988
988
987
984
980
979
978
974
975
972
970
967
967
971
973
971
969
973
974
980
987
986
987
983
985
987
989
989
992
990
992
999
1002
1003
1004
1002
1008
1011
1012
1011
1008
1005
1004
1006
1009
1007
1005
1000
997
997
996
993
993
988
987
990
993
992
989
988
988
986
992
991
992
989
987
989
989
986
980
981
977
979
983
980
977
975
973
979
984
981
981
979
984
992
997
1000
997
996
993
997
999
999
997
994
1001
1006
1015
1017
1017
1020
1022
1026
1028
1027
1022
1022
1021
1020
1021
1016
1014
1008
1007
1009
1010
1006
1004
997
998
1000
999
993
988
984
982
985
986
984
978
975
973
974
974
972
970
969
972
974
978
977
972
971
975
978
983
988
990
988
988
991
994
997
996
996
1001
1007
1011
1010
1009
1015
1035
1076
1129
1175
1205
1209
1169
1103
1044
1008
999
1006
1015
1017
1014
1009
1003
994
994
995
994
991
987
984
980
982
983
981
980
982
983
987
990
990
988
990
993
996
996
994
995
997
998
1002
1004
999
995
993
992
997
1001
1002
1001
1000
1006
1012
1018
1020
1023
1023
1025
1026
1028
1025
1022
1019
1020
1020
1018
1018
1017
1013
1007
1005
1004
1002
997
994
987
984
983
979
978
976
970
967
964
961
957
951
948
952
954
951
952
948
943
945
946
945
945
942
945
946
950
946
941
942
943
947
958
961
962
963
961
970
973
978
978
978
978
981
982
979
977
973
971
973
975
972
968
962
960
961
961
958
954
949
946
943
944
940
940
933
931
932
931
927
923
916
907
900
902
913
936
970
1014
1065
1107
1122
1096
1036
977
945
937
939
943
948
946
948
951
946
943
935
930
931
933
940
940
946
950
954
960
961
961
961
960
962
967
965
960
959
958
957
961
956
950
945
944
946
947
946
937
930
925
923
926
924
919
916
911
911
913
915
911
911
910
909
908
906
904
905
905
909
914
912
911
908
905
906
909
907
902
899
897
904
907
905
900
901
903
908
911
913
910
912
917
923
930
929
924
921
918
922
924
928
924
921
920
927
929
930
928
927
929
929
930
929
926
922
920
918
915
913
911
906
906
907
908
908
907
906
906
911
913
910
910
909
914
916
921
922
922
917
915
917
920
919
920
918
917
918
925
928
929
