931
931
941
947
951
955
958
959
959
962
961
956
955
955
959
961
958
956
952
953
955
958
953
949
947
946
944
947
948
946
944
941
942
946
947
942
940
941
944
946
948
947
946
946
949
950
964
992
1031
1072
1113
1140
1136
1107
1051
988
944
922
918
930
946
958
966
971
970
970
974
977
980
988
985
986
980
982
984
989
988
988
988
988
989
991
987
986
978
980
982
985
984
979
975
972
974
977
976
971
968
966
967
968
966
963
963
962
965
967
965
966
965
970
979
989
988
989
986
990
995
998
998
994
995
996
996
1001
999
998
999
996
1000
1006
1010
1009
1008
1004
1006
1008
1006
1003
1004
1003
1002
1005
1002
1001
994
997
997
999
996
993
988
988
988
988
983
980
978
977
979
976
973
968
967
968
973
973
975
974
972
974
977
980
982
982
985
986
991
993
998
995
992
987
987
1000
1030
1076
1133
1186
1234
1268
1277
1255
1202
1128
1073
1048
1047
1050
1049
1045
1043
1041
1038
1034
1027
1030
1028
1028
1026
1022
1016
1019
1016
1017
1015
1009
1008
1005
1003
1004
1000
998
992
990
992
993
993
991
993
994
997
997
998
1001
1000
1005
1010
1013
1013
1010
1010
1012
1015
1014
1016
1017
1017
1017
1023
1028
1029
1031
1032
1035
1040
1042
1043
1037
1034
1034
1035
1037
1031
1027
1023
1022
1023
1023
1019
1016
1012
1010
1011
1010
1010
1006
1000
998
1001
1002
995
995
987
989
990
990
993
990
988
991
991
994
992
991
988
990
999
1004
1003
1001
1000
1002
1005
1011
1010
1008
1008
1013
1020
1026
1025
1017
1007
1002
1012
1045
1089
1146
1195
1228
1235
1207
1142
1081
1045
1032
1033
1043
1047
1050
1045
1039
1032
1027
1024
1022
1019
1018
1017
1017
1014
1010
1010
1009
1011
1016
1013
1012
1011
1013
1014
1017
1021
1019
1017
1021
1027
1034
1036
1032
1028
1029
1034
1038
1039
1037
1036
1037
1041
1051
1053
1055
1059
1059
1059
1063
1065
1060
1059
1056
1054
1053
1049
1044
1037
1035
1032
1032
1030
1026
1022
1016
1012
1013
1008
1004
1002
1002
1004
1004
1000
996
995
996
998
1001
999
994
996
995
1001
1006
1007
1005
1002
1006
1010
1014
1012
1009
1008
1009
1011
1015
1018
1017
1020
1023
1028
1031
1033
1032
1030
1030
1033
1031
1030
1027
1025
1022
1022
1025
1022
1015
1014
1013
1014
1015
1013
1007
1003
1001
998
1001
1000
997
992
989
988
988
987
984
981
980
979
982
982
977
976
978
983
989
992
993
995
1002
1008
1011
1011
1008
1007
1005
1008
1009
1010
1007
1006
1006
1013
1017
1022
1025
1028
1031
1036
1040
1044
1043
1039
1037
1040
1040
1041
1038
1033
1035
1036
1036
1031
1027
1020
1014
1018
1035
1060
1097
1129
1160
1175
1162
1109
1043
994
971
965
974
982
986
990
984
984
987
989
986
988
990
993
997
995
994
992
995
999
1002
1004
1004
1007
1010
1014
1020
1026
1029
1031
1037
1044
1049
1051
1048
1043
1041
1041
1045
1042
1039
1033
1035
1034
1034
1032
1028
1022
1020
1021
1020
1010
1009
1007
1006
1007
1005
1004
1000
997
996
997
997
995
993
990
987
991
991
987
986
987
989
990
992
992
989
984
987
990
989
990
990
985
987
987
992
997
997
997
1003
1005
1012
1013
1014
1013
1016
1015
1015
1014
1012
1011
1011
1008
1011
1007
1002
995
991
991
992
989
986
980
976
975
974
974
972
966
965
964
967
961
960
957
958
960
962
961
960
958
957
961
964
965
959
959
958
961
962
966
961
959
960
961
969
970
976
974
975
978
987
991
993
991
992
990
987
988
986
988
989
992
993
989
985
980
980
978
977
972
968
960
962
962
962
958
950
950
948
951
953
951
948
946
948
952
956
956
953
950
949
952
957
956
953
951
952
957
963
963
961
962
963
965
969
968
968
965
963
967
972
973
978
976
973
969
966
963
961
959
957
955
956
956
956
949
952
955
958
955
950
943
943
944
946
942
937
934
929
928
931
931
931
925
924
924
932
933
933
935
935
937
940
936
937
935
938
941
940
940
937
937
942
949
955
954
952
957
960
962
966
966
963
960
962
963
967
964
958
955
957
960
962
959
956
949
943
937
938
948
966
1004
1049
1085
1102
1093
1051
980
922
886
880
887
895
909
918
918
924
923
922
922
926
929
934
934
932
927
930
934
938
940
939
940
941
941
946
948
948
946
946
950
954
956
957
957
963
969
968
967
962
957
956
958
959
962
959
952
954
953
953
951
949
945
941
939
939
937
931
931
930
932
932
930
924
922
922
925
931
929
927
922
922
921
924
924
920
918
923
924
925
925
922
919
915
912
913
913
911
910
917
919
920
920
921
922
930
935
937
932
935
932
929
931
930
929
928
925
926
927
927
927
924
919
915
915
916
913
911
909
909
913
915
911
911
911
910
913
916
910
910
909
911
914
913
913
914
916
917
921
922
923
922
923
922
927
930
929
931
927
929
932
935
932
933
931
934
937
939
946
949
953
955
953
954
953
948
946
946
951
954
951
946
946
943
942
940
937
933
926
925
926
926
923
917
919
918
919
920
923
923
921
921
925
927
926
927
929
932
937
935
944
944
945
946
947
951
950
947
942
944
946
952
951
948
949
950
951
956
958
956
955
955
963
968
966
966
964
961
962
964
964
961
962
963
966
966
963
961
959
960
959
960
958
950
949
948
949
950
949
948
946
948
952
954
952
949
947
948
953
959
965
965
961
965
969
972
971
966
958
958
960
976
1002
1034
1069
1107
1139
1159
1159
1127
1067
1003
964
950
960
980
996
1006
1009
1003
1002
997
993
996
998
1000
996
994
990
987
986
991
989
989
984
984
985
987
987
981
978
982
980
983
983
979
978
979
984
984
984
984
982
984
990
993
994
994
993
992
998
997
996
994
992
994
1001
1003
1004
1004
1004
1006
1009
1015
1016
1017
1017
1021
1025
1031
1029
1027
1021
1020
1021
1020
1018
1013
1008
1006
1008
1007
1004
1000
994
992
993
993
990
984
978
978
979
980
981
982
980
976
977
980
981
982
978
978
980
983
983
982
981
984
989
992
995
994
993
995
997
999
998
996
994
997
1001
1006
1007
1003
1003
1010
1017
1022
1023
1020
1021
1023
1025
1030
1031
1028
1030
1031
1032
1033
1033
1032
1029
1032
1032
1031
1028
1021
1020
1020
1020
1019
1018
1010
1005
1002
1003
999
997
993
989
990
990
989
988
987
985
987
992
1000
1004
1005
1006
1010
1014
1022
1022
1021
1020
1017
1022
1020
1019
1018
1018
1021
1026
1031
1033
1031
1029
1032
1037
1044
1041
1044
1041
1042
1044
1044
1045
1044
1046
1041
1044
1049
1048
1046
1042
1041
1041
1043
1041
1038
1033
1033
1037
1037
1032
1025
1020
1020
1023
1024
1023
1019
1013
1012
1011
1010
1011
1009
1009
1006
1009
1013
1011
1010
1009
1013
1015
1018
1018
1017
1017
1020
1025
1031
1036
1035
1037
1040
1046
1049
1053
1051
1052
1055
1059
1059
1060
1054
1053
1050
1055
1055
1057
1058
1056
1060
1061
1059
1059
1054
1050
1051
1063
1088
1121
1154
1184
1214
1239
1253
1242
1203
1140
1075
1037
1024
1026
1031
1031
1030
1029
1028
1026
1021
1018
1022
1022
1025
1025
1026
1025
1027
1032
1038
1035
1032
1030
1031
1034
1036
1034
1033
1033
1038
1043
1052
1053
1053
1056
1061
1067
1069
1069
1063
1060
1059
1062
1063
1063
1059
1055
1052
1051
1052
1047
1046
1046
1045
1042
1047
1042
1039
1035
1032
1030
1033
1031
1026
1021
1022
1023
1025
1023
1019
1016
1017
1020
1024
1019
1016
1014
1017
1019
1020
1023
1025
1027
1025
1024
1028
1025
1026
1023
1027
1032
1036
1038
1038
1040
1041
1048
1048
1047
1042
1038
1040
1039
1042
1042
1039
1034
1040
1039
1044
1042
1041
1039
1040
1039
1041
1039
1035
1031
1030
1026
1027
1024
1022
1017
1012
1013
1014
1011
1008
1009
1007
1008
1008
1008
1006
1005
1009
1012
1017
1018
1015
1015
1018
1023
1030
1027
1026
1025
1022
1026
1032
1031
1031
1032
1042
1045
1050
1054
1054
1057
1061
1064
1067
1060
1055
1055
1054
1055
1055
1054
1048
1044
1044
1044
1046
1044
1039
1036
1036
1036
1036
1034
1031
1028
1023
1025
1025
1025
1019
1013
1010
1011
1013
1010
1010
1010
1012
1009
1011
1013
1007
1006
1009
1011
1014
1015
1014
1014
1014
1013
1020
1016
1017
1015
1015
1018
1023
1025
1026
1028
1034
1041
1040
1044
1042
1043
1047
1050
1050
1048
1041
1039
1040
1044
1047
1043
1041
1036
1037
1037
1040
1041
1037
1031
1032
1031
1032
1031
1022
1020
1021
1018
1021
1017
1012
1008
1004
1008
1011
1011
1010
1007
1011
1012
1017
1015
1013
1010
1011
1015
1017
1013
1013
1011
1012
1017
1021
1023
1023
1025
1029
1035
1043
1046
1045
1045
1045
1047
1051
1050
1051
1050
1047
1049
1052
1048
1045
1042
1043
1044
1046
1045
1038
1036
1046
1065
1102
1139
1175
1207
1221
1214
1175
1112
1055
1017
1006
1005
1015
1018
1015
1010
1007
1008
1010
1009
1003
1001
1005
1008
1010
1013
1015
1016
1018
1021
1022
1022
1021
1018
1020
1024
1026
1026
1027
1027
1034
1040
1045
1046
1044
1043
1043
1046
1050
1050
1043
1037
1037
1039
1039
1042
1037
1038
1039
1039
1042
1040
1032
1030
1027
1026
1027
1023
1020
1018
1015
1012
1011
1004
1000
996
998
998
1000
994
993
990
991
994
993
992
991
990
990
993
998
996
993
989
986
989
994
992
990
989
992
998
1004
1009
1011
1008
1011
1014
1018
1013
1012
1010
1011
1013
1016
1013
1009
998
1003
1001
1005
1002
995
992
992
992
993
988
985
983
985
985
987
984
979
976
978
981
980
978
975
970
970
973
977
978
980
982
983
982
984
983
979
978
981
986
989
989
991
991
995
1002
1008
1012
1012
1011
1009
1011
1011
1012
1009
1007
1011
1012
1014
1013
1010
1003
1001
996
997
992
989
986
981
980
977
975
970
970
968
969
968
967
965
965
966
967
968
967
965
965
969
972
976
980
973
967
964
968
986
1015
1051
1089
1118
1131
1123
1083
1027
972
942
940
953
972
990
1004
1009
1011
1006
1005
996
991
992
995
999
998
996
993
992
990
990
989
986
980
981
982
981
978
975
974
972
971
973
971
969
966
964
967
967
965
958
958
962
967
966
965
966
963
969
970
971
973
974
976
975
975
973
976
976
975
974
977
981
984
987
987
990
994
999
997
996
992
993
991
992
987
985
981
979
981
978
975
968
965
965
967
970
961
957
951
949
950
949
947
940
941
940
940
941
938
935
931
929
930
933
934
932
932
935
941
943
944
939
939
945
947
955
958
961
960
958
963
966
967
966
965
966
971
974
977
979
981
983
986
989
989
982
981
980
984
986
979
976
973
975
975
978
974
971
966
966
965
969
967
960
952
951
951
954
950
946
944
940
941
943
939
938
935
936
940
943
939
939
937
939
946
953
954
956
952
957
957
957
958
955
958
960
963
965
968
969
972
975
981
982
985
983
982
979
981
984
981
981
978
979
980
980
977
974
970
971
970
970
967
963
958
956
955
956
956
950
944
942
944
946
944
942
941
944
945
948
947
949
950
952
955
959
959
955
956
960
962
966
965
962
955
949
955
981
1020
1066
1116
1148
1150
1111
1040
979
952
947
958
973
994
999
999
995
995
995
997
992
990
990
992
993
988
983
975
974
975
975
971
970
965
966
967
968
965
965
960
965
966
970
972
972
971
974
981
985
983
981
978
978
979
980
981
979
980
982
986
987
988
988
989
997
1004
1010
1011
1011
1011
1011
1011
1012
1010
1009
1006
1008
1008
1010
1007
1002
1000
998
998
997
993
988
983
981
980
975
971
965
962
961
961
964
962
959
957
959
963
964
963
963
963
966
971
974
978
980
977
977
978
983
984
983
982
983
986
992
995
993
994
998
1000
1007
1012
1011
1015
1016
1018
1017
1014
1015
1014
1015
1018
1020
1021
1019
1016
1018
1021
1023
1019
1016
1011
1013
1012
1011
1010
1006
1001
1003
1002
1000
1001
993
993
995
998
1001
1002
1002
1002
1005
1009
1010
1006
998
990
994
1013
1048
1090
1135
1170
1190
1180
1136
1062
1007
983
987
1008
1029
1041
1045
1043
1040
1038
1040
1038
1034
1033
1033
1035
1036
1034
1032
1030
1029
1030
1033
1031
1028
1028
1030
1031
1029
1026
1023
1021
1020
1021
1024
1020
1019
1014
1014
1015
1016
1016
1015
1009
1009
1014
1018
1021
1021
1023
1027
1032
1037
1041
1040
1037
1041
1041
1044
1045
1044
1044
1050
1055
1059
1058
1062
1061
1063
1066
1069
1068
1063
1057
1053
1051
1050
1050
1048
1041
1039
1038
1042
1044
1043
1040
1043
1044
1045
1042
1040
1037
1034
1036
1036
1032
1029
1021
1022
1021
1023
1020
1016
1012
1011
1015
1017
1020
1017
1015
1015
1019
1024
1027
1030
1033
1036
1041
1043
1042
1040
1038
1037
1041
1044
1046
1046
1049
1052
1059
1063
1065
1063
1060
1063
1065
1063
1054
1042
1031
1026
1029
1045
1076
1120
1173
1223
1253
1244
1200
1133
1073
1044
1037
1048
1059
1065
1061
1055
1050
1049
1044
1044
1039
1040
1040
1043
1042
1037
1038
1040
1043
1047
1048
1047
1050
1055
1060
1064
1062
1057
1054
1057
1060
1064
1065
1066
1067
1071
1076
1082
1080
1080
1078
1080
1082
1083
1080
1077
1074
1075
1076
1078
1072
1067
1064
1064
1064
1062
1058
1053
1047
1042
1044
1041
1039
1032
1026
1024
1024
1025
1023
1022
1019
1018
1023
1029
1032
1031
1031
1035
1039
1045
1048
1047
1051
1053
1053
1055
1052
1053
1053
1057
1064
1068
1071
1071
1070
1077
1081
1084
1088
1084
1083
1083
1085
1086
1082
1079
1076
1074
1074
1072
1067
1063
1059
1054
1054
1054
1051
1048
1042
1042
1040
1040
1037
1031
1025
1023
1026
1026
1025
1023
1019
1018
1022
1026
1025
1024
1023
1025
1025
1030
1030
1030
1029
1033
1037
1037
1037
1040
1041
1046
1048
1053
1057
1061
1060
1067
1073
1082
1080
1080
1079
1084
1084
1090
1085
1083
1078
1077
1081
1082
1078
1075
1070
1067
1070
1070
1067
1065
1060
1058
1058
1052
1052
1049
1045
1047
1047
1041
1038
1031
1029
1033
1037
1038
1035
1031
1028
1032
1037
1038
1038
1036
1035
1036
1041
1045
1042
1037
1036
1035
1040
1045
1045
1042
1042
1042
1045
1051
1059
1062
1069
1074
1084
1088
1091
1093
1092
1092
1093
1090
1084
1083
1079
1079
1083
1083
1079
1075
1073
1071
1072
1071
1071
1085
1110
1153
1195
1231
1252
1244
1200
1136
1073
1038
1024
1023
1026
1036
1042
1040
1040
1036
1034
1033
1037
1041
1040
1039
1038
1041
1039
1043
1041
1038
1035
1039
1041
1046
1049
1050
1051
1053
1058
1067
1072
1075
1075
1075
1079
1080
1077
1076
1074
1074
1077
1076
1075
1070
1068
1069
1069
1070
1069
1064
1058
1057
1062
1059
1058
1053
1051
1049
1050
1052
1050
1047
1045
1044
1047
1047
1048
1045
1042
1045
1046
1047
1049
1049
1049
1048
1050
1048
1047
1042
1038
1041
1040
1041
1044
1043
1044
1046
1046
1051
1051
1054
1058
1057
1060
1062
1061
1059
1056
1055
1062
1065
1063
1052
1047
1044
1046
1049
1042
1039
1036
1032
1028
1029
1025
1019
1014
1016
1016
1018
1015
1010
1007
1008
1008
1008
1009
1007
1006
1006
1011
1013
1014
1013
1009
1013
1016
1017
1013
1014
1013
1014
1021
1027
1027
1026
1027
1027
1032
1042
1044
1045
1043
1043
1046
1046
1042
1028
1013
1002
1007
1034
1077
1123
1167
1197
1203
1172
1109
1053
1022
1012
1019
1032
1036
1032
1025
1019
1013
1008
1002
1000
999
1000
997
999
997
997
998
1002
1009
1014
1015
1011
1014
1013
1017
1020
1016
1017
1012
1016
1021
1027
1033
1035
1036
1041
1047
1048
1045
1040
1036
1037
1041
1045
1039
1035
1029
1029
1030
1030
1031
1028
1024
1018
1020
1021
1017
1012
1006
1002
996
997
992
985
981
977
976
975
974
971
970
968
967
969
963
960
960
968
971
975
975
969
972
966
974
979
978
978
979
980
987
992
996
992
992
998
1001
1005
1003
1000
994
998
1003
997
999
999
996
995
996
996
993
989
989
991
993
991
986
978
977
976
976
981
976
970
965
968
972
975
975
970
966
967
961
953
943
940
947
974
1002
1043
1084
1117
1134
1129
1094
1033
976
946
939
957
977
990
996
993
994
996
1000
1000
996
992
994
995
999
1001
997
994
988
988
990
988
985
980
981
982
988
988
988
982
976
976
975
977
978
974
970
966
965
967
966
961
958
958
960
963
962
960
955
957
962
968
968
965
964
964
969
971
971
970
966
963
966
970
971
967
968
968
974
977
977
972
970
969
972
973
972
973
972
975
976
976
972
969
962
962
962
962
958
955
954
954
955
954
948
942
939
939
941
945
942
936
934
934
936
936
937
935
933
932
936
937
940
937
937
942
947
948
951
950
950
956
962
960
958
955
954
951
944
938
939
950
977
1024
1076
1121
1148
1153
1128
1078
1020
988
973
972
980
990
999
1005
1002
993
984
981
981
980
976
969
963
962
963
959
954
950
948
951
948
947
944
943
941
941
944
944
943
941
939
940
944
946
946
948
951
956
959
963
966
962
962
963
966
970
969
969
969
972
978
986
986
987
987
988
993
998
998
996
991
988
993
995
991
990
985
984
983
982
977
972
969
967
967
966
960
957
952
951
952
952
948
946
940
942
942
942
939
939
933
933
935
938
939
939
937
940
944
948
951
949
953
957
961
962
961
958
960
962
965
967
969
966
971
975
982
986
988
988
985
986
989
990
988
986
989
991
995
999
998
996
991
993
995
999
998
996
997
999
999
997
997
991
989
986
989
990
985
978
976
976
979
980
979
977
975
976
976
982
982
985
983
985
988
994
994
995
999
1001
1001
1001
1001
1000
997
1003
1008
1013
1015
1014
1015
1014
1019
1022
1020
1018
1013
1011
1012
1015
1015
1011
1012
1011
1010
1014
1013
1009
1007
1006
1010
1013
1010
1008
1007
1007
1005
1009
1004
999
997
1000
1003
1007
1004
1012
1032
1071
1112
1151
1189
1210
1209
1176
1111
1046
1000
980
979
993
1009
1017
1020
1016
1011
1011
1014
1019
1018
1020
1022
1024
1029
1033
1035
1035
1038
1041
1045
1047
1047
1044
1041
1044
1048
1051
1050
1047
1043
1044
1045
1046
1043
1038
1034
1035
1032
1032
1031
1023
1020
1021
1018
1018
1017
1013
1010
1008
1011
1012
1011
1012
1009
1011
1017
1021
1022
1021
1021
1022
1023
1031
1033
1030
1030
1032
1032
1032
1034
1031
1029
1032
1032
1038
1037
1036
1038
1040
1046
1046
1045
1042
1043
1042
1050
1049
1047
1043
1042
1041
1043
1044
1042
1041
1037
1038
1037
1036
1036
1029
1027
1025
1025
1030
1025
1020
1017
1017
1018
1020
1015
1010
1008
1008
1011
1015
1013
1010
1009
1009
1013
1019
1019
1018
1015
1016
1022
1021
1022
1022
1019
1018
1021
1024
1023
1019
1018
1020
1024
1030
1032
1033
1035
1040
1045
1050
1051
1050
